0.008763373481513119	0.56609195	0.7523908
0.026290120649546365	0.30131683	0.5489233
0.043816868432600686	0.24770857	0.4977033
0.06134361724069026	0.1660059	0.40743822
0.07887036748382949	0.12308245	0.3508311
0.0963971195720331	0.05312366	0.23048571
0.11392387391531617	0.059473846	0.2438726
0.1314506309236943	0.07247669	0.26921496
0.1489773910071836	0.13274868	0.36434692
0.16650415457580078	0.17088208	0.41337886
0.18403092203956356	0.1917729	0.4379188
0.20155769380849	0.13516232	0.36764428
0.2190844702925996	0.115308456	0.339571
0.2366112519019124	0.12072274	0.34745178
0.2541380390464497	0.14588079	0.38194343
0.27166483213623416	0.11360144	0.3370481
0.28919163158128947	0.12094189	0.347767
0.3067184377916406	0.08991409	0.29985678
0.324245251177314	0.07621654	0.27607343
0.34177207214833777	0.078137316	0.27953053
0.3592989011147415	0.08184703	0.28608918
0.37682573848655654	0.119917	0.34629035
0.39435258467381573	0.109721005	0.3312416
0.41187944008655414	0.17931473	0.42345572
0.42940630513480854	0.1572858	0.39659274
0.446933180228618	0.18317223	0.42798623
0.4644600657780234	0.1608385	0.40104675
0.48198696219306775	0.18401243	0.4289667
0.49951386988379676	0.19881718	0.4458892
0.5170407892602581	0.17496035	0.41828263
0.5345677207325025	0.16793753	0.4098018
0.5520946647105822	0.16373928	0.4046471
0.5696216216045534	0.19763556	0.44456223
0.5871485918244737	0.13669944	0.36972886
0.6046755757804043	0.12518866	0.35382012
0.6222025738824094	0.115827024	0.3403337
0.6397295865405557	0.13748118	0.37078455
0.6572566141649129	0.14898157	0.38598132
0.6747836571655547	0.1653785	0.40666756
0.6923107159525568	0.16341601	0.40424746
0.7098377909359992	0.15658912	0.39571342
0.7273648825259653	0.14889866	0.38587388
0.7448919911325411	0.14113796	0.3756833
0.762419117165817	0.15493983	0.39362398
0.7799462610358868	0.17630489	0.41988677
0.7974734231528482	0.16252702	0.40314642
0.8150006039268024	0.16164689	0.40205333
0.8325278037678551	0.13750017	0.37081015
0.8500550230861152	0.14094765	0.37542996
0.8675822622916969	0.15027164	0.38764885
0.8851095217947171	0.14678578	0.38312632
0.9026368020052984	0.14431047	0.3798822
0.9201641033335665	0.16688365	0.40851396
0.9376914261896523	0.19092605	0.43695086
0.9552187709836915	0.24119167	0.49111268
0.9727461381258234	0.24498878	0.4949634
0.990273528026193	0.24203306	0.49196857
1.0078009410949496	0.24536966	0.495348
1.0253283777422473	0.25756916	0.50751275
1.0428558383782454	0.2463967	0.49638364
1.0603833234131086	0.25823244	0.5081658
1.0779108332570058	0.29827213	0.54614294
1.0954383683201119	0.32336843	0.56865495
1.112965929012607	0.38885933	0.6235859
1.1304935157446763	0.50268537	0.7090031
1.1480211289265108	0.5451515	0.7383437
1.1655487689683062	1.3457203	1.1600518
1.1830764362802655	1.6564378	1.2870268
1.200604131272596	2.0378745	1.4275414
1.2181318543555117	2.4270554	1.5579009
1.235659605939232	2.4078913	1.5517381
1.253187386433982	4.0905724	2.0225163
1.270715196249994	6.657289	2.5801723
1.2882430357975057	12.2841835	3.50488
1.3057709054867608	16.965809	4.118957
1.3232988057280106	22.755949	4.7703195
1.3408267369315112	27.50624	5.2446394
1.358354699507526	30.951824	5.5634365
1.3758826938663256	34.83236	5.9018946
1.3934107204181858	36.525364	6.0436215
1.410938779573391	37.16303	6.0961485
1.4284668717422309	38.305683	6.1891584
1.4459949973350033	38.167656	6.1779976
1.4635231567620117	38.259754	6.1854467
1.4810513504335687	37.655212	6.1363845
1.4985795787599925	36.996803	6.0825
1.5161078421516088	36.68491	6.056807
1.5336361410187505	35.5248	5.9602685
1.5511644757717598	35.381233	5.9482126
1.5686928468209842	35.753937	5.97946
1.58622125457678	36.126896	6.0105653
1.6037496994495108	37.091503	6.0902796
1.621278181849548	36.721375	6.0598164
1.6388067021872719	38.025074	6.1664476
1.6563352608730693	38.120754	6.1742005
1.673863858317336	37.669746	6.1375685
1.6913924949304753	36.684895	6.0568056
1.7089211711228998	35.253788	5.93749
1.7264498873050296	34.546814	5.8776536
1.7439786438872935	33.893177	5.8217845
1.7615074412801288	32.948666	5.7400928
1.779036279893981	31.743147	5.6341057
1.796565160139305	30.56545	5.528603
1.814094082426564	29.60301	5.440865
1.8316230471662298	28.713037	5.3584547
1.849152054768784	27.772303	5.269943
1.8666811056447168	27.07562	5.203424
1.8842102002045273	26.340448	5.1322947
1.901739338858724	26.072622	5.106136
1.9192685220178245	25.750378	5.074483
1.9367977500923557	25.146088	5.0145874
1.9543270234928547	24.522194	4.9519887
1.971856342629867	23.850853	4.8837333
1.9893857079139496	23.167013	4.8132124
2.006915119755667	22.80145	4.7750864
2.0244445785655945	22.327135	4.7251596
2.0419740847543175	22.04812	4.695543
2.0595036387324317	21.544193	4.6415725
2.0770332409105414	21.046635	4.5876613
2.094562891699263	20.571156	4.5355434
2.1120925915092217	19.971264	4.468922
2.129622340751053	19.774927	4.446901
2.1471521398354043	188.04932	13.713107
2.1646819891729323	444.49628	21.08308
2.182211889174303	440.6628	20.99197
2.1997418402501974	453.1905	21.28827
2.2172718428113023	432.94983	20.807447
2.234801897268317	321.01483	17.916887
2.2523320040319548	17.505554	4.183964
2.269862163512935	17.256567	4.1541023
2.287392376121992	16.780092	4.096351
2.304922642269869	16.371258	4.046141
2.322452962367322	15.899121	3.9873703
2.3399833368251164	15.45575	3.9313803
2.357513766054032	15.190098	3.8974476
2.3750442504648586	14.831981	3.851231
2.3925747904683963	14.770666	3.8432624
2.410105386475459	14.538452	3.8129323
2.4276360388968707	14.335844	3.7862704
2.445166748143469	14.173289	3.7647429
2.4626975146261025	13.887593	3.7266061
2.4802283387556323	13.701087	3.701498
2.4977592209429305	13.511464	3.6757944
2.5152901615988825	13.189095	3.6316793
2.5328211611343865	12.844562	3.583931
2.5503522199603523	12.548439	3.5423777
2.5678833384877024	12.258312	3.5011873
2.5854145171273712	12.233248	3.497606
2.6029457562903064	12.020828	3.4671066
2.620477056387469	11.722911	3.4238737
2.6380084178298326	11.570335	3.4015195
2.655539841028383	11.334231	3.366635
2.673071326394119	11.146995	3.3387115
2.6906028743380523	11.044709	3.323358
2.708134485271211	10.944952	3.3083155
2.7256661596046325	11.02074	3.3197498
2.743197897749369	10.77552	3.2826087
2.760729700116486	10.62903	3.2602193
2.778261567117063	10.359977	3.2186918
2.795793499162193	10.222875	3.197323
2.8133254966629817	10.195029	3.1929655
2.830857560030551	10.045178	3.1694129
2.8483896896760337	9.829056	3.1351326
2.865921886010578	9.64385	3.105455
2.883454149445347	9.494874	3.0813754
2.9009864803915177	9.293403	3.0485082
2.91851887926028	9.08991	3.0149477
2.9360513464628384	9.196114	3.0325096
2.953583882410413	9.204232	3.0338478
2.9711164875142373	9.1465225	3.0243218
2.9886491621855606	9.047661	3.007933
3.0061819068356455	8.7915125	2.9650486
3.023714721875769	8.640065	2.9393988
3.041247607717225	8.5054455	2.9164097
3.0587805647713213	8.4167385	2.9011617
3.0763135934493806	8.328935	2.8859894
3.0938466941627407	8.069075	2.8406117
3.1113798673227544	7.980156	2.824917
3.1289131133407904	7.954549	2.820381
3.1464464326282315	7.92132	2.814484
3.1639798255964786	7.843201	2.8005717
3.1815132926569443	7.543307	2.7465081
3.1990468342210603	7.3041806	2.7026248
3.216580450700272	7.26914	2.6961343
3.2341141425060416	7.2143426	2.685953
3.251647910049847	7.207487	2.6846764
3.2691817537431813	7.04682	2.6545846
3.286715673997555	7.0888004	2.66248
3.3042496712244938	7.050582	2.6552932
3.32178374583554	7.012875	2.6481833
3.339317898242251	6.9151692	2.6296709
3.3568521288562034	6.8719063	2.621432
3.3743864380889876	6.8011866	2.6079085
3.3919208263522127	6.7236304	2.5929964
3.4094552940575023	6.647901	2.5783525
3.4269898416164972	6.5845904	2.5660458
3.444524469440858	6.5599327	2.5612366
3.4620591779422587	6.528263	2.5550466
3.479593967532391	6.5981154	2.5686798
3.4971288386229658	6.5868464	2.5664852
3.5146637916257086	6.492623	2.5480626
3.5321988269523628	6.4789095	2.54537
3.5497339450146903	6.539794	2.557302
3.5672691462244708	6.4576297	2.5411866
3.5848044309934988	6.3553114	2.5209744
3.60233979973359	6.295983	2.5091798
3.619875252856575	6.2548466	2.5009692
3.6374107907743034	6.28171	2.506334
3.6549464138986427	6.260787	2.5021565
3.6724821226414788	6.2712283	2.5042422
3.690017917414714	6.318133	2.5135896
3.7075537986302702	6.2381883	2.4976366
3.7250897667000857	6.3349423	2.516931
3.7426258220361235	6.3726587	2.5244126
3.7601619650503553	6.6244984	2.57381
3.777698196154779	7.173395	2.6783195
3.7952345157614067	8.248663	2.8720486
3.8127709242822716	9.08979	3.0149279
3.830307422129425	11.077047	3.32822
3.847844009714936	29.917875	5.4697237
3.8653806874508954	97.49392	9.873901
3.882917455749409	96.91005	9.84429
3.900454315022606	96.72511	9.834892
3.917991265682631	41.386974	6.433271
3.9355283081416506	11.102884	3.3320992
3.9530654428118495	8.92677	2.98777
3.970602670105433	7.651714	2.7661731
3.9881399904346244	6.630917	2.5750568
4.005677404211669	6.497272	2.5489748
4.023214911848827	6.499907	2.5494914
4.0407525137583855	6.471837	2.5439806
4.058290210352644	6.4366355	2.5370526
4.075828002043927	6.285735	2.5071368
4.0933658892445814	6.221872	2.494368
4.110903872366966	6.206349	2.4912546
4.128441951823468	6.204712	2.490926
4.145980128026488	6.1700273	2.483954
4.163518401388452	6.094032	2.4686093
4.181056772321807	6.1147456	2.4728012
4.1985952412390155	6.2417846	2.4983563
4.216133808552567	6.272796	2.504555
4.233672474674966	6.31771	2.5135055
4.251211240018741	6.5053678	2.5505621
4.268750104996445	6.682764	2.5851042
4.286289070020643	7.588566	2.7547352
4.303828135503928	9.111939	3.018599
4.3213673018589125	29.317245	5.4145403
4.3389065694982305	90.598	9.518298
4.356445938834537	165.8988	12.880171
4.3739854102805085	171.61142	13.100054
4.391524984248844	172.5263	13.134927
4.409064661152262	136.59982	11.6875925
4.426604441403504	96.86095	9.841796
4.444144325415337	75.76182	8.704126
4.461684313600543	21.802551	4.66932
4.47922440637193	22.27885	4.720048
4.496764604142329	20.51794	4.529673
4.5143049073245916	18.673182	4.3212476
4.531845316331589	16.457125	4.0567384
4.5493858315762195	13.6116495	3.6893969
4.566926453471405	11.2806	3.3586605
4.584467182430081	9.254885	3.042184
4.602008018865218	8.198621	2.8633235
4.619548963189798	7.592811	2.7555056
4.637090015816834	7.1703796	2.6777565
4.654631177159353	6.890468	2.6249702
4.672172447630417	6.5440598	2.558136
4.689713827643102	6.358451	2.521597
4.7072553176105085	6.1747646	2.4849074
4.724796917945764	6.130907	2.4760668
4.742338629062015	6.089216	2.4676337
4.759880451372434	5.9609632	2.4415083
4.777422385290215	5.8434706	2.4173272
4.794964431228581	5.772261	2.402553
4.812506589600768	5.698804	2.3872168
4.830048860820047	5.650227	2.3770206
4.847591245299709	5.5858045	2.3634307
4.8651337434530655	5.5400324	2.3537273
4.882676355693457	5.5345454	2.3525615
4.900219082434242	5.5909457	2.3645182
4.917761924088813	5.5949697	2.3653688
4.935304881070575	5.561593	2.358303
4.952847953792969	5.5618005	2.358347
4.970391142669449	5.588467	2.363994
4.9879344481135055	5.5916853	2.3646746
5.005477870538642	5.53527	2.3527155
5.023021410358394	5.463355	2.337382
5.040565067986324	5.527425	2.3510475
5.05810884383601	5.47118	2.3390553
5.075652738321066	5.4177084	2.3275971
5.09319675185512	5.3708715	2.3175142
5.110740884851836	5.3660107	2.3164651
5.128285137724894	5.4101987	2.3259833
5.145829510888007	5.4186454	2.3277984
5.163374004754908	5.3594627	2.3150513
5.1809186197393595	5.316053	2.3056567
5.198463356255145	5.257082	2.2928329
5.216008214716077	5.2896686	2.299928
5.233553195535998	5.3210263	2.306735
5.251098299128764	5.3417926	2.3112319
5.268643525908272	5.2833767	2.2985597
5.286188876288432	5.25858	2.2931595
5.3037343506831895	5.246727	2.2905736
5.32127994950651	5.2248425	2.2857914
5.3388256731723915	5.2710123	2.2958686
5.356371522094851	5.2188563	2.2844815
5.373917496687938	5.233771	2.2877436
5.391463597365729	5.209812	2.2825012
5.40900982454232	5.196228	2.2795236
5.426556178631843	5.1715937	2.274114
5.444102660048449	5.0325737	2.2433398
5.4616492692063225	5.018973	2.2403064
5.479196006519669	5.076039	2.2530067
5.496742872402727	5.140691	2.2673092
5.514289867269756	5.201862	2.280759
5.531836991535049	5.141573	2.2675037
5.549384245612924	5.1219378	2.2631698
5.566931629917724	5.1273093	2.2643564
5.584479144863822	5.1146865	2.2615674
5.6020267908656205	5.136524	2.26639
5.619574568337545	5.1608377	2.2717478
5.637122477694054	5.218175	2.2843325
5.654670519349629	5.2503066	2.2913547
5.672218693718784	5.2433677	2.28984
5.689767001216059	5.210909	2.2827415
5.707315442256021	5.123978	2.2636206
5.724864017253266	5.115268	2.2616959
5.7424127266224225	5.1281695	2.2645462
5.75996157077814	5.1840615	2.2768533
5.777510550135105	5.273256	2.2963572
5.795059665108022	5.321313	2.306797
5.812608916111639	5.3266025	2.3079433
5.830158303560715	5.395677	2.3228598
5.847707827870055	5.3556085	2.3142188
5.86525748945448	5.4017043	2.3241568
5.8828072887288485	5.525987	2.3507419
5.900357226108044	5.5987415	2.366166
5.917907302006979	5.7080812	2.3891592
5.9354575168406	6.1598306	2.4819007
5.9530078710238765	6.694651	2.5874023
5.970558364971812	7.2095895	2.685068
5.988108999099438	7.4973197	2.7381234
6.005659773821818	7.9659047	2.8223934
6.023210689554039	7.713464	2.7773123
6.040761746711227	8.128026	2.8509693
6.058312945708531	7.65885	2.7674627
6.075864286961132	7.207952	2.684763
6.093415770884244	6.574444	2.5640678
6.1109673978931065	6.065515	2.4628267
6.128519168402993	5.512199	2.3478072
6.146071082829204	5.3505797	2.313132
6.163623141587075	5.211392	2.2828474
6.181175345091969	5.1142445	2.2614696
6.198727693759281	5.160073	2.2715793
6.216280188004435	5.1707745	2.2739336
6.233832828242885	5.18648	2.2773845
6.251385614890126	5.1842093	2.276886
6.268938548361669	5.1709986	2.273983
6.286491629073067	5.1244407	2.2637227
6.304044857439898	5.088488	2.2557678
6.321598233877777	4.9325094	2.2209253
6.339151758802344	4.88828	2.2109454
6.356705432629277	4.9171453	2.2174637
6.37425925577428	4.979756	2.2315366
6.391813228653095	4.9841337	2.2325172
6.409367351681486	4.9517465	2.225252
6.426921625275259	4.954443	2.2258577
6.44447604985025	4.986808	2.2331161
6.46203062582232	5.0189466	2.2403007
6.47958535360737	5.049675	2.2471483
6.497140233621328	5.073321	2.2524033
6.514695266280161	5.0620933	2.2499096
6.532250451999859	5.044763	2.246055
6.549805791196454	5.0242405	2.2414818
6.567361284286002	5.047785	2.2467275
6.584916931684597	5.061824	2.2498498
6.602472733808367	5.0803943	2.253973
6.6200286910734665	5.1172028	2.2621236
6.637584803896092	5.154002	2.2702427
6.655141072692462	5.103809	2.259161
6.672697497878842	5.0906563	2.2562482
6.690254079871514	4.9987354	2.2357852
6.707810819086808	4.9671755	2.2287161
6.725367715941078	4.9293127	2.2202055
6.742924770850719	4.8794007	2.2089365
6.760481984232151	4.8691115	2.2066064
6.778039356501836	4.895576	2.2125947
6.795596888076266	5.033528	2.2435524
6.813154579371963	5.1627116	2.27216
6.830712430805492	5.1250296	2.2638528
6.84827044279344	5.062848	2.2500772
6.865828615752445	4.9872966	2.2332256
6.883386950099159	4.974774	2.23042
6.900945446250287	4.9790707	2.231383
6.918504104622553	5.0178514	2.240056
6.936062925632727	5.093212	2.2568145
6.953621909697607	5.1683545	2.2734015
6.971181057234028	5.22065	2.2848742
6.988740368658859	5.2929745	2.3006465
7.006299844389007	5.340537	2.3109603
7.023859484841407	5.405503	2.3249738
7.041419290433036	5.487406	2.3425212
7.058979261580902	5.581596	2.3625402
7.0765393987020495	5.6789494	2.3830547
7.094099702213559	6.0997934	2.469776
7.111660172532549	6.382353	2.526332
7.129220810076164	6.744167	2.5969534
7.146781615261595	7.2977896	2.7014422
7.16434258850606	7.613046	2.7591748
7.181903730226821	8.086853	2.8437393
7.1994650408411704	8.196916	2.8630257
7.217026520766437	8.305894	2.8819947
7.234588170419983	8.56241	2.9261596
7.252149990219215	8.587616	2.9304636
7.269711980581568	8.44986	2.9068642
7.2872741419245175	8.179144	2.8599203
7.304836474665574	7.741327	2.782324
7.322398979222286	7.3969927	2.7197413
7.339961656012233	7.181724	2.679874
7.357524505453039	6.880244	2.6230218
7.375087527962357	6.5890183	2.5669084
7.392650723957886	6.2860513	2.5072
7.410214093857353	5.881287	2.4251366
7.427777638078528	5.682126	2.383721
7.445341357039213	5.5310683	2.3518224
7.4629052511572525	5.4229503	2.328723
7.480469320850524	5.3821154	2.3199387
7.498033566536948	5.3227553	2.3071098
7.5155979886344735	5.221209	2.2849965
7.5331625875610975	5.2087684	2.2822726
7.550727363734844	5.2057886	2.2816198
7.568292317573788	5.307447	2.3037896
7.585857449496025	5.3158326	2.305609
7.603422759919705	5.2762723	2.2970138
7.620988249263007	5.2171082	2.284099
7.638553917944147	5.2027435	2.2809522
7.656119766381391	5.1632743	2.272284
7.673685794993023	5.176615	2.2752175
7.691252004197388	5.105586	2.2595544
7.70881839441285	5.111991	2.2609713
7.726384966057826	5.153458	2.270123
7.743951719550762	5.25959	2.2933795
7.761518655310149	5.334213	2.3095915
7.779085773754511	5.3144336	2.3053055
7.796653075302419	5.2723923	2.296169
7.814220560372475	5.27003	2.2956545
7.831788229383323	5.314839	2.3053935
7.8493560827536495	5.370098	2.3173473
7.866924120902174	5.4358516	2.3314912
7.884492344247663	5.5243187	2.3503869
7.9020607532089135	5.55327	2.3565376
7.919629348204771	5.490766	2.3432384
7.937198129654115	5.384857	2.3205295
7.954767097975865	5.3731523	2.318006
7.972336253588986	5.4227424	2.3286781
7.989905596912472	5.525532	2.350645
8.007475128365371	5.543371	2.3544364
8.025044848366756	5.6157255	2.3697522
8.042614757335754	5.689928	2.385357
8.060184855691523	5.7436094	2.3965828
8.07775514385327	5.829788	2.4144955
8.095325622240228	5.8523145	2.4191558
8.112896291271687	5.9319286	2.435555
8.130467151366968	5.9894643	2.447338
8.148038202945436	5.997009	2.448879
8.165609446426497	6.013675	2.4522796
8.183180882229594	6.0295644	2.455517
8.200752510774217	6.0397644	2.4575932
8.218324332479893	6.009093	2.4513452
8.235896347766193	5.98589	2.4466078
8.253468557052724	5.9509296	2.4394526
8.27104096075914	5.918194	2.4327338
8.288613559305137	6.0263724	2.4548671
8.306186353110448	6.091403	2.4680767
8.32375934259485	6.1687875	2.4837043
8.341332528178162	6.1765738	2.4852715
8.358905910280246	6.23267	2.4965315
8.376479489321003	6.324961	2.5149477
8.394053265720377	6.380831	2.5260305
8.411627239898356	6.3976517	2.529358
8.42920141227497	6.3597984	2.5218642
8.44677578327029	6.333707	2.5166857
8.464350353304427	6.3093653	2.511845
8.48192512279754	6.2886963	2.5077274
8.499500092169827	6.1504765	2.4800155
8.51707526184153	6.0954833	2.4689033
8.534650632232934	6.1187005	2.4736006
8.552226203764365	6.083861	2.4665484
8.569801976856192	6.0491376	2.4594994
8.587377951928834	6.0750465	2.464761
8.60495412940274	6.20667	2.491319
8.622530509698416	6.304012	2.5107791
8.6401070932364	6.4553185	2.540732
8.657683880437283	6.4306765	2.535878
8.675260871721695	6.587004	2.566516
8.692838067510303	6.726922	2.593631
8.710415468223834	6.975889	2.6411908
8.727993074283043	7.16554	2.6768527
8.745570886108737	7.188193	2.6810806
8.763148904121765	7.1748767	2.678596
8.78072712874302	7.158698	2.6755743
8.798305560393441	7.396769	2.7197
8.815884199494006	7.579209	2.7530363
8.833463046465745	7.7794228	2.7891617
8.851042101729728	7.93049	2.8161125
8.86862136570707	8.227128	2.868297
8.886200838818924	8.372804	2.8935797
8.903780521486505	8.381315	2.89505
8.921360414131055	8.551943	2.9243705
8.938940517173874	8.681755	2.9464817
8.956520831036297	8.835183	2.9724035
8.97410135613971	9.113969	3.018935
8.99168209290554	9.224456	3.037179
9.009263041755265	9.472125	3.0776818
9.026844203110405	9.683574	3.111844
9.044425577392525	9.87354	3.142219
9.062007165023239	10.012823	3.1643045
9.079588966424197	10.274536	3.2053916
9.097170982017108	10.420486	3.228078
9.11475321222372	11.299188	3.3614264
9.132335657465825	12.103911	3.4790676
9.149918318165264	12.208412	3.4940538
9.167501194743924	12.766296	3.5729954
9.18508428762374	12.51733	3.537984
9.202667597226693	12.515971	3.537792
9.220251123974803	12.223459	3.4962065
9.237834868290143	11.915388	3.4518673
9.255418830594836	11.737831	3.4260519
9.273003011311046	11.228984	3.3509676
9.290587410860985	10.977782	3.3132737
9.308172029666911	10.284157	3.206892
9.32575686815113	9.945186	3.1535988
9.343341926735997	8.718079	2.9526393
9.360927205843916	8.495516	2.9147067
9.378512705897327	8.324752	2.8852646
9.396098427318728	8.063218	2.8395805
9.413684370530664	7.9109983	2.8126497
9.431270535955722	7.7779584	2.7888992
9.448856924016539	7.7086782	2.7764506
9.466443535135806	7.5516677	2.7480297
9.484030369736251	7.61028	2.7586737
9.501617428240658	7.6697464	2.7694306
9.519204711071852	7.8137455	2.7953079
9.536792218652714	7.8966894	2.8101048
9.55437995140617	7.925211	2.815175
9.571967909755191	7.912047	2.8128362
9.589556094122802	7.9603076	2.8214016
9.60714450493207	8.003879	2.8291128
9.624733142606116	8.039061	2.8353238
9.642322007568108	7.989806	2.8266246
9.659911100241267	7.9873834	2.826196
9.677500421048851	8.000281	2.828477
9.695089970414175	8.103599	2.846682
9.712679748760609	8.068567	2.8405223
9.730269756511557	8.105831	2.847074
9.747859994090492	8.117414	2.8491077
9.765450461920915	8.188436	2.8615444
9.78304116042639	8.269891	2.8757417
9.800632090030527	8.269883	2.8757405
9.81822325115699	8.283008	2.8780215
9.835814644229481	8.218061	2.8667161
9.853406269671762	8.274265	2.8765023
9.870998127907646	8.290104	2.879254
9.888590219360985	8.351521	2.8898997
9.906182544455698	8.374334	2.8938441
9.923775103615734	8.328628	2.8859363
9.941367897265108	8.301129	2.8811681
9.958960925827878	8.230341	2.8688571
9.97655418972816	8.268856	2.875562
9.994147689390106	8.307901	2.882343
10.011741425237934	8.303447	2.88157
10.029335397695904	8.328544	2.8859217
10.04692960718833	8.2877	2.8788366
10.06452405413958	8.302618	2.8814263
10.082118738974064	8.270777	2.8758957
10.099713662116246	8.258042	2.873681
10.117308823990651	8.255047	2.8731596
10.134904225021844	8.230479	2.8688812
10.152499865634445	8.222065	2.8674142
10.170095746253125	8.148011	2.8544722
10.18769186730261	8.1633625	2.8571599
10.205288229207675	8.150786	2.8549583
10.222884832393145	8.2737255	2.8764083
10.2404816772839	8.261074	2.8742085
10.258078764304868	8.211889	2.8656394
10.275676093881035	8.15128	2.8550448
10.293273666437438	8.138841	2.8528655
10.310871482399158	8.22073	2.8671815
10.32846954219134	8.237656	2.8701317
10.346067846239173	8.247028	2.871764
10.363666394967908	8.216873	2.866509
10.38126518880283	8.106925	2.8472662
10.398864228169298	8.128287	2.851015
10.416463513492713	8.22919	2.8686564
10.434063045198531	8.251078	2.872469
10.451662823712262	8.209868	2.8652868
10.469262849459467	8.140376	2.8531344
10.486863122865758	8.077347	2.8420672
10.504463644356806	8.051795	2.8375685
10.522064414358338	8.024002	2.8326669
10.539665433296118	7.944679	2.8186307
10.557266701595987	7.9106054	2.8125799
10.574868219683818	7.8202167	2.796465
10.592469987985552	7.775652	2.7884855
10.610072006927185	7.683204	2.7718594
10.627674276934751	7.603218	2.7573934
10.64527679843435	7.445863	2.728711
10.662879571852143	7.29529	2.7009795
10.680482597614331	7.158626	2.675561
10.698085876147173	7.0671926	2.6584191
10.715689407876988	6.998021	2.6453774
10.733293193230146	6.835325	2.6144454
10.750897232633072	6.7802863	2.6038983
10.76850152651225	6.681351	2.584831
10.786106075294207	6.612369	2.5714526
10.803710879405534	6.5150533	2.5524602
10.821315939272877	6.419471	2.5336676
10.83892125532294	6.3718967	2.5242617
10.856526827982472	6.3393354	2.5178037
10.874132657678285	6.3066244	2.5112994
10.891738744837243	6.2951937	2.5090225
10.909345089886271	6.242181	2.4984357
10.926951693252343	6.164273	2.4827952
10.944558555362494	6.102915	2.4704077
10.96216567664381	6.013273	2.4521976
10.979773057523436	5.93847	2.4368975
10.997380698428573	5.87545	2.4239328
11.014988599786477	5.8487396	2.4184167
11.032596762024461	5.7632585	2.4006786
11.050205185569892	5.7751775	2.4031599
11.067813870850198	5.732541	2.3942726
11.085422818292859	5.6259756	2.371914
11.10303202832541	5.4148765	2.3269887
11.120641501375454	5.324944	2.307584
11.138251237870636	5.2496805	2.291218
11.155861238238671	5.310474	2.3044465
11.173471502907317	5.2559676	2.2925897
11.191082032304402	5.18983	2.2781198
11.208692826857805	5.087174	2.2554765
11.226303886995465	5.034195	2.2437012
11.243915213145371	4.98827	2.2334435
11.261526805735578	4.913987	2.2167516
11.279138665194196	4.910489	2.2159624
11.296750791949393	4.9162664	2.2172656
11.314363186429393	4.8208985	2.1956544
11.331975849062479	4.7994065	2.190755
11.34958878027699	4.7268085	2.1741226
11.36720198050133	4.7373943	2.1765556
11.384815450163948	4.641068	2.1543138
11.402429189693366	4.618507	2.1490712
11.420043199518153	4.5345674	2.1294525
11.437657480066942	63.478043	7.967311
11.455272031768422	85.10876	9.225441
11.472886855051353	107.508766	10.368644
11.490501950344528	99.1446	9.957138
11.508117318076819	84.50481	9.19265
11.52573295867715	45.92925	6.777112
11.543348872574514	4.205179	2.0506535
11.560965060197946	4.1356936	2.0336404
11.57858152197655	4.1185064	2.0294104
11.59619825833949	4.06062	2.0150979
11.613815269715985	4.0489492	2.0122
11.631432556535323	38.543648	6.208353
11.649050119226837	83.02802	9.111972
11.666667958219929	93.36989	9.662809
11.68428607394406	107.59036	10.372578
11.701904466828756	82.47384	9.081511
11.719523137303586	65.40046	8.087055
11.737142085798196	4.6471853	2.155733
11.754761312742286	3.7456656	1.9353722
11.772380818565619	3.6833856	1.9192148
11.790000603698015	3.6940253	1.9219847
11.80762066856935	3.6272213	1.9045266
11.825241013609572	3.601146	1.8976686
11.842861639248683	3.558974	1.8865243
11.860482545916748	3.5666366	1.8885541
11.878103734043883	3.5073824	1.8728007
11.895725204060282	3.431034	1.852305
11.91334695639619	3.358773	1.8326956
11.930968991481919	3.3357027	1.8263906
11.948591309747824	3.2872236	1.8130702
11.966213911624347	3.2695022	1.8081765
11.98383679754198	3.2890575	1.8135759
12.001459967931268	3.271381	1.8086959
12.019083423222835	3.2924368	1.8145074
12.036707163847352	3.2379334	1.7994258
12.05433119023556	3.261749	1.8060313
12.071955502818259	3.2587848	1.8052105
12.089580102026313	3.2401361	1.8000379
12.107204988290643	3.2294002	1.7970532
12.12483016204224	3.1606584	1.777824
12.142455623712152	3.1329226	1.7700064
12.16008137373149	3.0888178	1.7575033
12.177707412531431	3.0722253	1.7527765
12.19533374054321	3.0508053	1.7466555
12.212960358198126	3.0819223	1.7555405
12.230587265927545	3.0410993	1.7438748
12.248214464162889	3.03161	1.7411519
12.265841953335649	2.9605284	1.7206186
12.283469733877375	2.9543736	1.7188292
12.301097806219685	2.9551728	1.7190616
12.31872617079425	2.9302711	1.7118034
12.336354828032825	2.9208353	1.7090452
12.353983778367205	2.900741	1.7031562
12.371613022229262	2.86799	1.6935141
12.389242560050928	2.8522735	1.6888676
12.406872392264201	2.8258817	1.6810359
12.424502519301143	2.855241	1.6897459
12.442132941593874	2.8591218	1.6908938
12.459763659574586	2.839384	1.6850471
12.477394673675532	2.8236704	1.6803781
12.49502598432903	2.85	1.6881943
12.51265759196746	2.8646371	1.6925238
12.530289497023267	2.85363	1.6892691
12.547921699928967	2.8092847	1.676092
12.565554201117134	2.7768245	1.6663806
12.583187001020404	2.760777	1.6615586
12.600820100071486	2.7437022	1.6564125
12.618453498703152	2.7378092	1.6546327
12.636087197348235	2.754903	1.65979
12.65372119643964	2.8044214	1.6746407
12.671355496410326	2.8384378	1.6847664
12.68899009769333	2.8559153	1.6899453
12.706625000721749	2.8864005	1.698941
12.724260205928752	2.9167442	1.7078478
12.741895713747551	2.9401195	1.7146777
12.759531524611454	2.9742463	1.7246003
12.777167638953818	2.9750247	1.724826
12.794804057208072	2.9710739	1.7236804
12.812440779807702	3.0240233	1.738972
12.830077807186271	3.2228353	1.7952257
12.847715139777405	3.2640617	1.8066714
12.865352778014795	3.4371514	1.8539556
12.882990722332197	3.4993403	1.8706523
12.90062897316344	3.5696192	1.8893436
12.918267530942412	3.6714268	1.9160968
12.935906396103071	3.5864255	1.8937861
12.953545569079449	3.760329	1.9391568
12.971185050305628	3.5640793	1.8878769
12.988824840215775	3.5864854	1.8938018
13.006464939244115	3.5665786	1.8885387
13.024105347824943	3.4217153	1.849788
13.041746066392617	3.4677942	1.8622015
13.05938709538157	3.2686908	1.8079522
13.077028435226296	3.294662	1.8151203
13.094670086361363	3.2722704	1.8089418
13.112312049221401	3.1584694	1.7772083
13.129954324241112	3.0344017	1.7419534
13.147596911855258	2.835305	1.6838363
13.165239812498685	2.8143055	1.6775892
13.182883026606293	2.7476628	1.6576076
13.200526554613058	2.7266426	1.6512549
13.218170396954017	2.7320209	1.6528826
13.235814554064284	2.72859	1.6518444
13.253459026379034	2.712997	1.6471177
13.271103814333523	2.667482	1.6332427
13.288748918363058	2.6670759	1.6331184
13.306394338903031	2.689817	1.6400661
13.32404007638889	2.6973178	1.6423513
13.341686131256164	2.7020035	1.6437773
13.359332503940449	2.657604	1.6302159
13.376979194877402	2.6621382	1.631606
13.394626204502751	2.7149112	1.6476988
13.412273533252307	2.7683225	1.6638277
13.429921181561937	2.7624211	1.6620533
13.447569149867581	2.7473702	1.6575193
13.465217438605247	2.693624	1.6412264
13.482866048211022	2.685657	1.6387974
13.500514979121052	2.7003226	1.6432658
13.518164231771568	2.7095919	1.6460838
13.535813806598844	2.721527	1.6497052
13.553463704039254	2.7139833	1.6474172
13.571113924529229	2.701275	1.6435556
13.588764468505275	2.6947963	1.6415834
13.606415336403956	2.68455	1.6384597
13.624066528661917	2.6949153	1.6416197
13.641718045715882	2.7765896	1.6663102
13.659369888002635	2.8611271	1.6914867
13.67702205595903	2.9308276	1.711966
13.694674550021993	2.9952905	1.7306907
13.712327370628532	3.0371315	1.7427368
13.729980518215713	3.1183896	1.7658963
13.747633993220681	3.1863945	1.7850474
13.765287796080647	3.1977172	1.7882162
13.7829419272329	3.213487	1.7926202
13.800596387114801	3.244755	1.8013203
13.818251176163775	3.2838264	1.8121331
13.835906294817324	3.3355825	1.8263577
13.853561743513023	3.3749843	1.837113
13.871217522688525	3.439226	1.854515
13.888873632781538	3.4598284	1.8600614
13.906530074229858	3.4882116	1.8676754
13.92418684747135	3.4987342	1.8704904
13.941843952943948	3.4898753	1.8681208
13.959501391085665	3.4628325	1.8608687
13.977159162334578	3.381675	1.8389331
13.994817267128846	3.3317719	1.8253142
14.012475705906693	3.2340338	1.798342
14.030134479106424	3.142626	1.7727454
14.047793587166414	3.0933564	1.7587941
14.065453030525108	3.0311716	1.741026
14.083112809621026	3.0190232	1.7375337
14.100772924892766	3.0047026	1.7334077
14.118433376778997	2.96277	1.7212698
14.136094165718458	2.8792977	1.6968493
14.153755292149969	2.751796	1.6588538
14.171416756512416	2.6731436	1.6349751
14.189078559244768	2.6039512	1.6136763
14.20674070078606	2.568172	1.6025517
14.224403181575408	2.5457797	1.59555
14.242066002051999	2.5039728	1.5823946
14.259729162655093	2.4797637	1.5747266
14.277392663824022	2.4502945	1.5653417
14.295056505998208	2.4056067	1.5510019
14.312720689617128	2.3689878	1.5391517
14.330385215120348	2.3794527	1.5425475
14.348050082947497	2.3879218	1.5452902
14.3657152935383	2.4002724	1.5492812
14.383380847332528	2.3814442	1.5431929
14.401046744770051	2.3541493	1.5343237
14.418712986290798	2.341988	1.5303556
14.436379572334793	2.3506227	1.533174
14.454046503342123	2.3906407	1.5461696
14.471713779752946	2.4035003	1.5503227
14.489381402007504	2.41238	1.5531838
14.507049370546113	2.4032497	1.5502418
14.524717685809168	2.3732173	1.5405251
14.542386348237134	2.3228672	1.5240955
14.560055358270553	2.3408995	1.5299999
14.577724716350051	2.4212105	1.556024
14.595394422916325	2.4608855	1.5687209
14.61306447841015	2.492873	1.5788834
14.63073488327237	2.4935803	1.5791074
14.648405637943917	2.502777	1.5820168
14.6660767428658	2.472329	1.5723641
14.683748198479094	2.4668496	1.5706208
14.701420005224954	2.4904196	1.5781063
14.719092163544628	2.5903215	1.6094476
14.73676467387942	2.6428223	1.6256759
14.754437536670727	2.6752193	1.6356097
14.772110752360014	2.6548023	1.6293564
14.78978432138882	2.6197007	1.618549
14.807458244198777	2.6492658	1.6276566
14.82513252123159	2.6396842	1.6247104
14.842807152929028	2.6869118	1.6391802
14.860482139732962	2.6509306	1.6281679
14.87815748208531	2.637823	1.6241376
14.8958331804281	2.659083	1.6306695
14.91350923520342	2.650948	1.6281732
14.931185646853438	2.6789045	1.6367359
14.948862415820408	2.6566565	1.6299253
14.966539542546656	2.6642642	1.6322573
14.98421702747459	2.6440625	1.6260574
15.001894871046696	2.661214	1.6313229
15.019573073705542	2.6758099	1.6357902
15.037251635893766	2.667036	1.6331062
15.054930558054092	2.666645	1.6329865
15.072609840629323	2.696278	1.6420348
15.090289484062351	2.8473053	1.687396
15.107969488796124	3.1085057	1.7630955
15.125649855273691	3.523441	1.8770832
15.14333058393817	4.0264935	2.0066125
15.161011675232768	5.046829	2.2465148
15.17869312960076	6.4982038	2.5491574
15.196374947485506	8.355512	2.8905902
15.214057129330447	11.394062	3.3755093
15.231739675579114	16.016796	4.002099
15.249422586675102	21.04771	4.5877786
15.267105863062092	24.102037	4.909383
15.284789505183847	24.34457	4.9340215
15.302473513484218	22.198118	4.711488
15.320157888407127	18.657705	4.3194566
15.337842630396578	14.517033	3.8101225
15.355527739896656	11.336444	3.3669636
15.37321321735153	8.821029	2.9700217
15.39089906320545	6.4859056	2.546744
15.408585277902748	4.945837	2.2239237
15.42627186188783	3.8330224	1.9578106
15.443958815605198	3.2333426	1.7981498
15.461646139499424	2.9261105	1.7105877
15.479333834015168	2.8206832	1.679489
15.497021899597165	2.7648623	1.6627876
15.514710336690234	2.714246	1.6474969
15.53239914573928	2.6227121	1.619479
15.550088327189297	2.558925	1.599664
15.567777881485336	2.5152946	1.585968
15.58546780907256	2.4811022	1.5751514
15.6031581103962	2.4790468	1.5744989
15.620848785901568	2.4599626	1.5684268
15.638539836034063	2.4742584	1.5729775
15.656231261239173	2.4414897	1.5625267
15.673923061962451	2.4079666	1.5517625
15.691615238649552	2.3879313	1.5452933
15.709307791746202	2.3667505	1.5384247
15.727000721698221	2.380423	1.5428619
15.744694028951498	2.4045324	1.5506555
15.76238771395202	2.4096868	1.5523165
15.780081777145844	2.418491	1.5551498
15.797776218979125	2.3734806	1.5406104
15.815471039898094	2.3298438	1.5263826
15.833166240349064	2.3111248	1.5202384
15.850861820778437	2.3465185	1.531835
15.868557781632699	2.384121	1.5440599
15.886254123358412	2.3739753	1.540771
15.903950846402232	2.3515334	1.533471
15.921647951210897	2.3719842	1.5401248
15.939345438231225	2.4106445	1.5526251
15.957043307910133	2.424756	1.5571628
15.974741560694602	2.4298956	1.5588123
15.992440197031714	2.415349	1.5541393
16.01013921736862	2.376351	1.5415418
16.02783862215259	2.3688738	1.5391146
16.045538411830933	2.380861	1.5430039
16.06323858685107	2.4067917	1.5513839
16.080939147660512	2.4308777	1.5591272
16.09864009470684	2.4045825	1.5506716
16.11634142843774	2.3933117	1.5470332
16.134043149300954	2.4248374	1.5571889
16.15174525774433	2.4112585	1.5528227
16.169447754215817	2.408419	1.5519081
16.18715063916342	2.3747354	1.5410177
16.204853913035244	2.411029	1.5527489
16.222557576279478	2.4268913	1.5578483
16.240261629344403	22.422012	4.735189
16.257966072678386	42.942005	6.5530148
16.275670906729868	38.056767	6.169017
16.293376131947387	2.4947412	1.5794749
16.31108174877957	2.5220604	1.5880996
16.328787757675133	2.5284076	1.5900967
16.34649415908287	2.5513659	1.5972996
16.364200953451657	2.6199996	1.6186413
16.38190814123048	2.682054	1.6376978
16.39961572286839	2.737008	1.6543906
16.41732369881455	2.7503536	1.658419
16.43503206951817	2.7435656	1.6563712
16.45274083542859	2.7446759	1.6567063
16.47044999699522	2.7343464	1.6535859
16.488159554667558	2.7661464	1.6631736
16.505869508895184	2.808785	1.675943
16.523579860127786	2.8832462	1.6980125
16.541290608815117	2.9497132	1.7174729
16.559001755407035	3.0100157	1.7349397
16.57671330035348	3.022421	1.7385111
16.59442524410448	3.0363834	1.7425221
16.61213758711015	3.089552	1.7577121
16.629850329820705	3.215584	1.7932049
16.647563472686436	3.3205647	1.8222417
16.665277016157724	3.3504586	1.8304259
16.682990960685053	3.3848708	1.8398018
16.70070530671898	3.4531684	1.8582703
16.718420054710155	3.5310035	1.8790965
16.736135205109335	3.5634847	1.8877194
16.753850758367335	3.604845	1.8986429
16.771566714935087	3.582453	1.8927369
16.789283075263597	3.62016	1.9026718
16.80699983980398	3.6860013	1.9198961
16.82471700900741	3.82354	1.9553875
16.84243458332518	3.965528	1.9913634
16.860152563208665	4.051216	2.0127633
16.87787094910932	4.1133404	2.0281372
16.89558974147871	4.127434	2.0316086
16.913308940768466	4.1870813	2.0462358
16.931028547430333	4.2643213	2.0650234
16.94874856191613	4.322949	2.0791702
16.966468984677785	4.3660917	2.0895195
16.98418981616729	4.385697	2.0942056
17.00191105683676	4.4414773	2.1074812
17.019632707138374	4.5023484	2.1218739
17.03735476752442	4.5366154	2.129933
17.05507723844728	4.5429587	2.1314218
17.072800120359403	4.5593123	2.1352546
17.090523413713353	4.587159	2.1417654
17.108247118961785	4.6464863	2.155571
17.125971236557437	4.706091	2.1693528
17.143695766953133	4.7112546	2.1705425
17.161420710601806	4.6689253	2.1607697
17.179146067956477	4.6458473	2.1554227
17.19687183947025	4.6747084	2.1621075
17.21459802559634	4.671727	2.161418
17.232324626788028	4.6588917	2.1584466
17.25005164349871	4.6083856	2.1467152
17.267779076181863	4.5583315	2.135025
17.285506925291074	4.5377917	2.1302092
17.30323519127999	4.564075	2.1363695
17.320963874602384	4.606308	2.1462312
17.33869297571211	4.587825	2.1419208
17.356422495063114	4.5512013	2.1333544
17.37415243310944	4.481667	2.1169949
17.391882790305218	4.4352546	2.1060045
17.40961356710468	4.452036	2.1099849
17.42734476396215	4.469455	2.1141086
17.445076381332044	4.4986405	2.1209998
17.462808419668868	4.536478	2.129901
17.48054087942723	4.7139015	2.171152
17.498273761061835	5.0443897	2.245972
17.51600706502747	5.542957	2.3543484
17.533740791779024	6.2501554	2.500031
17.551474941771485	7.6035686	2.757457
17.56920951545993	8.705384	2.9504888
17.586944513299528	10.9299135	3.306042
17.60467993574556	12.5740385	3.545989
17.622415783253373	14.150928	3.761772
17.64015205627843	15.420957	3.9269526
17.657888755276293	16.359848	4.0447307
17.675625880702604	16.791937	4.0977964
17.69336343301311	16.572523	4.070936
17.71110141266366	15.84613	3.9807198
17.728839820110178	14.98843	3.8714893
17.746578655808705	14.224025	3.771475
17.764317920215372	12.927819	3.5955276
17.7820576137864	11.519688	3.3940666
17.79979773697811	9.548832	3.0901184
17.81753829024692	7.6512194	2.7660837
17.835279274049356	5.919923	2.4330893
17.85302068884201	4.8670697	2.2061436
17.870762535081607	4.261702	2.064389
17.888504813224934	3.9830315	1.9957534
17.90624752372891	3.7634764	1.9399681
17.923990667050536	3.6379333	1.9073367
17.941734243646895	3.5389638	1.8812134
17.959478253975185	3.4649353	1.8614336
17.9772226984927	3.4315054	1.8524323
17.994967577656833	3.4187486	1.8489858
18.01271289192506	3.424136	1.850442
18.030458641754965	3.3701057	1.8357848
18.04820482760425	3.3056111	1.818134
18.06595144993067	3.2883656	1.8133851
18.083698509192125	3.2974415	1.8158859
18.101446005846576	3.2742321	1.809484
18.119193940352105	3.2243416	1.7956452
18.136942313166887	3.1664138	1.779442
18.1546911247492	3.190696	1.7862519
18.1724403755574	3.2198217	1.7943861
18.19019006604997	3.218364	1.7939799
18.207940196685467	3.1431391	1.7728901
18.225690767922575	3.0749102	1.7535422
18.243441780220046	3.053332	1.7473786
18.261193234036764	3.0453322	1.745088
18.278945129831676	3.0461109	1.7453111
18.29669746806386	3.0220256	1.7383974
18.314450249192483	2.9914052	1.7295679
18.3322034736768	2.9830482	1.7271503
18.349957141976184	2.988934	1.7288533
18.3677112545501	3.0254397	1.7393792
18.385465811858108	3.0535448	1.7474395
18.403220814359884	3.0786297	1.7546024
18.420976262515172	3.0789917	1.7547055
18.43873215678387	3.0970547	1.7598451
18.456488497625923	3.1280525	1.7686301
18.474245285501407	3.2164383	1.7934431
18.492002520870486	3.2671554	1.8075274
18.50976020419343	3.363119	1.8338808
18.527518335930615	3.7161615	1.9277349
18.545276916542516	4.246426	2.0606859
18.563035946489688	4.420257	2.1024408
18.580795426232832	4.8135705	2.193985
18.598555356232698	4.714678	2.171331
18.616315736950185	5.039877	2.244967
18.63407656884626	4.6996045	2.1678572
18.65183785238201	4.848503	2.2019317
18.669599588018617	4.5943217	2.143437
18.68736177621737	4.6395226	2.153955
18.705124417439652	4.6507397	2.1565573
18.72288751214696	4.457128	2.111191
18.740651060800886	4.6319947	2.152207
18.758415063863115	4.3711066	2.0907192
18.77617952179546	4.5209355	2.126249
18.793944435059814	4.219957	2.0542533
18.811709804118184	4.216358	2.0533772
18.829475629432675	4.166408	2.041178
18.8472419114655	4.020387	2.0050902
18.86500865067897	4.1172285	2.0290954
18.88277584753551	3.7672634	1.940944
18.90054350249763	3.7821114	1.9447651
18.918311616027957	3.486767	1.8672887
18.936080188589226	3.3951743	1.8425999
18.953849220644265	3.0541537	1.7476137
18.971618712656007	2.8878016	1.6993533
18.9893886650875	2.8693526	1.6939163
19.007159078401887	8.056385	2.8383772
19.024929953062408	32.94527	5.739797
19.042701289532435	32.862946	5.732621
19.060473088275405	25.395273	5.0393724
19.07824534975489	2.6591063	1.6306766
19.096018074434568	2.6373637	1.6239963
19.113791262778197	2.6277385	1.6210301
19.13156491524966	2.6235075	1.6197245
19.149339032312945	2.6292236	1.6214881
19.167113614432136	2.6129923	1.6164752
19.184888662071433	2.613385	1.6165967
19.202664175695123	2.6142218	1.6168555
19.220440155767623	2.5642545	1.601329
19.238216602753447	2.468869	1.5712636
19.2559935171172	2.4297094	1.5587525
19.27377089932361	2.4467347	1.5642042
19.291548749837514	2.4901063	1.5780071
19.309327069123835	2.4899032	1.5779427
19.32710585764763	2.4961388	1.5799173
19.344885115874032	2.506371	1.5831523
19.362664844268313	2.5096927	1.584201
19.380445043295822	2.4974737	1.5803398
19.39822571342203	2.490964	1.5782788
19.41600685511252	2.4813628	1.5752342
19.43378846883297	2.4679475	1.5709702
19.451570555049173	2.4586232	1.5679997
19.469353114227037	2.4725876	1.5724463
19.48713614683254	2.4887087	1.5775641
19.50491965333182	2.5045834	1.5825876
19.52270363419109	2.4823694	1.5755537
19.540488089876686	2.428227	1.5582769
19.55827302085503	2.3948352	1.5475255
19.576058427592674	2.388697	1.5455409
19.593844310556282	2.406407	1.5512599
19.611630670212598	2.435313	1.5605489
19.629417507028506	2.4287252	1.5584368
19.64720482147098	2.4485888	1.5647967
19.6649926140071	2.488135	1.5773823
19.682780885104084	2.5092998	1.584077
19.70056963522921	2.5444024	1.5951183
19.718358864849908	2.540953	1.5940367
19.7361485744337	2.529327	1.5903858
19.753938764448215	2.4819446	1.5754188
19.771729435361202	2.4743197	1.5729971
19.789520587640506	2.4836931	1.5759737
19.807312221754092	2.504747	1.5826392
19.825104338170043	2.4812944	1.5752125
19.842896937356517	2.4890654	1.5776772
19.860690019781824	2.4885738	1.5775214
19.87848358591436	2.5307915	1.5908462
19.896277636222635	2.5198586	1.5874063
19.914072171175278	2.5250523	1.5890414
19.931867191241015	2.5067878	1.5832839
19.94966269688869	2.5245774	1.5888919
19.967458688587264	2.5185583	1.5869967
19.985255166805807	2.5134342	1.5853814
20.00305213201348	2.4728968	1.5725447
20.020849584679578	2.431066	1.5591877
20.038647525273507	2.4354622	1.5605967
20.05644595426477	2.477784	1.5740978
20.07424487212299	2.4894824	1.5778093
20.092044279317903	2.4875362	1.5771925
20.109844176319353	2.4692805	1.5713944
20.127644563597304	2.4436884	1.5632302
20.145445441621817	2.3894014	1.5457689
20.16324681086307	2.3339136	1.5277151
20.181048671791373	2.3414478	1.530179
20.198851024877122	2.355766	1.5348505
20.216653870590836	2.3821464	1.5434203
20.234457209403146	2.36579	1.5381124
20.252261041784802	2.3528433	1.5338981
20.270065368206662	2.3940296	1.5472652
20.287870189139685	2.4103804	1.55254
20.305675505054968	2.4360332	1.5607797
20.323481316423702	2.435787	1.5607008
20.341287623717207	2.4344137	1.5602608
20.359094427406884	2.3873236	1.5450966
20.376901727964288	2.3633738	1.5373268
20.39470952586107	2.3539	1.5342425
20.41251782156899	2.3613973	1.5366838
20.430326615559935	2.360611	1.536428
20.448135908305886	2.346005	1.5316674
20.465945700278965	2.315543	1.5216908
20.483755991951384	2.2975261	1.5157592
20.50156678379548	2.2850685	1.5116444
20.519378076283708	2.303083	1.5175911
20.537189869888635	2.3317256	1.5269989
20.55500216508294	2.3579266	1.5355542
20.572814962339415	2.358651	1.53579
20.59062826213098	2.364131	1.5375731
20.60844206493066	2.34253	1.5305326
20.626256371211593	2.3121393	1.5205721
20.644071181447032	2.3134594	1.521006
20.66188649611036	2.3268774	1.5254105
20.67970231567506	2.3489623	1.5326325
20.697518640614742	2.3364515	1.5285456
20.715335471403122	2.3245113	1.5246348
20.73315280851404	2.2946682	1.5148163
20.750970652421447	2.2748685	1.5082667
20.768789003599412	2.2674403	1.5058023
20.786607862522136	2.260511	1.5034995
20.8044272296639	2.2483187	1.4994395
20.82224710549913	2.2706683	1.5068737
20.84006749050237	2.300931	1.516882
20.857888385148268	3.8944628	1.9734393
20.8757097899116	45.984833	6.781212
20.893531705267254	64.78506	8.048917
20.911354131690224	83.77126	9.152664
20.92917706965566	69.038216	8.308924
20.94700051963877	50.147762	7.0815086
20.96482448211493	29.420807	5.424095
20.982648957559622	4.1533756	2.0379832
21.00047394644843	2.2310393	1.4936664
21.01829944925707	2.2374208	1.4958011
21.036125466461375	2.2495565	1.4998522
21.053951998537297	2.256661	1.5022187
21.071779045960906	2.2571628	1.5023857
21.089606609208378	2.2609115	1.5036328
21.10743468875603	2.2450683	1.4983552
21.12526328508028	2.248238	1.4994125
21.143092398657675	2.2151568	1.4883403
21.16092202996488	2.1975746	1.4824219
21.17875217947867	2.1704228	1.4732355
21.19658284767596	2.1893039	1.4796296
21.21441403503377	2.1932697	1.4809692
21.232245742029225	2.1821394	1.4772066
21.2500779691396	2.1992867	1.4829992
21.26791071684227	2.1749825	1.4747822
21.28574398561475	2.1722836	1.4738669
21.30357777593465	2.1755772	1.4749838
21.321412088279704	2.1826088	1.4773655
21.339246923127792	2.1630025	1.4707149
21.357082280956888	2.1474118	1.465405
21.3749181622451	2.1313548	1.459916
21.392754567470647	2.118661	1.4555621
21.41059149711187	2.1009412	1.4494624
21.42842895164726	2.1455948	1.4647849
21.446266931555378	2.1633587	1.470836
21.464105437314945	2.1710727	1.473456
21.481944469404798	2.1582692	1.4691049
21.49978402830388	2.144581	1.4644388
21.51762411449127	2.1398222	1.4628131
21.53546472844617	2.1134672	1.4537768
21.553305870647876	2.1222239	1.4567854
21.571147541575865	2.122556	1.4568994
21.58898974170967	2.1092331	1.4523199
21.60683247152899	2.0955465	1.4476002
21.62467573151363	2.1024387	1.4499788
21.642519522143523	2.1191692	1.4557366
21.660363843898722	2.1061714	1.4512655
21.6782086972594	2.0688264	1.4383415
21.696054082705864	2.0360234	1.4268929
21.713900000718535	2.0346944	1.4264271
21.73174645177795	2.0161781	1.4199219
21.749593436364794	2.0019205	1.4148924
21.767440954959845	1.9971534	1.4132068
21.785289008044032	2.005793	1.4162602
21.803137596098388	2.0185256	1.4207482
21.820986719604086	1.9876239	1.4098312
21.838836379042412	1.9718156	1.4042135
21.85668657489478	1.9737741	1.4049107
21.87453730764273	1.99973	1.414118
21.892388577767914	2.006929	1.4166611
21.91024038575213	2.0403328	1.4284022
21.928092732077285	2.0390306	1.4279463
21.945945617225426	2.0262764	1.4234734
21.963799041678694	2.013607	1.4190162
21.981653005919398	31.30453	5.595045
21.999507510429943	78.072685	8.835875
22.01736255569286	73.06121	8.5475855
22.035218142190818	4.1693854	2.0419073
22.05307427040661	2.0011249	1.4146112
22.07093094082315	1.9878701	1.4099184
22.088788153923474	2.009399	1.4175327
22.106645910190746	2.0075495	1.4168802
22.12450421010827	1.9780072	1.4064164
22.142363054159464	1.9802347	1.4072081
22.16022244282787	1.9675862	1.4027067
22.178082376597164	1.9663754	1.4022751
22.195942855951145	1.9554634	1.3983788
22.213803881373742	1.9817727	1.4077544
22.231665453349002	1.9598261	1.3999379
22.24952757236111	1.920043	1.3856561
22.26739023889438	1.8943814	1.3763653
22.28525345343323	1.9555216	1.3983996
22.30311721646225	1.987283	1.4097103
22.320981528466113	1.9794035	1.4069128
22.33884638992964	1.970766	1.4038397
22.356711801337788	1.9919755	1.4113736
22.37457776317561	1.9716055	1.4041387
22.392444275928337	1.9020292	1.3791407
22.410311340081282	1.8700025	1.3674804
22.428178956119904	1.8995352	1.3782363
22.446047124529805	1.9718504	1.404226
22.46391584579669	2.0136142	1.4190187
22.481785120406414	1.9974958	1.4133279
22.49965494884496	1.9590614	1.3996648
22.51752533159841	1.9334488	1.390485
22.53539626915302	1.9547229	1.3981141
22.553267761995137	1.9486206	1.39593
22.571139810611264	1.9565141	1.3987545
22.589012415488025	1.9541744	1.3979179
22.60688557711216	1.9679974	1.4028534
22.624759295970566	1.9387529	1.3923911
22.642633572550263	1.9170375	1.3845712
22.660508407338362	1.9087049	1.3815589
22.67838380082217	1.9305724	1.3894504
22.696259753489077	1.9468111	1.3952817
22.714136265826614	1.9409518	1.3931805
22.73201333832246	1.901677	1.3790131
22.74989097146439	1.8912505	1.3752275
22.76776916574035	1.8915364	1.3753314
22.785647921638393	1.9559141	1.39854
22.803527239646712	1.9685318	1.4030437
22.82140712025363	1.9572227	1.3990078
22.839287563947593	1.9367312	1.3916649
22.85716857121719	1.9190788	1.3853083
22.875050142551135	1.9178145	1.3848518
22.892932278438277	1.9202138	1.3857177
22.910814979367604	1.9087039	1.3815585
22.928698245828222	1.8987795	1.3779621
22.946582078309387	1.8933196	1.3759795
22.96446647730047	1.8884308	1.3742019
22.98235144329098	1.8741173	1.368984
23.000236976770562	1.8636239	1.365146
23.018123078229	1.9082913	1.3814092
23.03600974815619	1.9201052	1.3856786
23.053896987042194	1.9624002	1.400857
23.071784795377173	1.9493828	1.396203
23.08967317365145	1.9333447	1.3904476
23.10756212235546	1.8844641	1.3727579
23.125451641979787	1.9027525	1.379403
23.143341733015134	1.9148147	1.3837683
23.161232395952357	1.9270625	1.3881868
23.179123631282426	1.9312525	1.389695
23.197015439496468	1.9608583	1.4003065
23.214907821085717	1.9322048	1.3900377
23.23280077654157	1.9218314	1.3863013
23.250694306355538	1.8978274	1.3776165
23.268588411019277	1.8955377	1.3767853
23.28648309102458	1.9048619	1.3801674
23.304378346863356	1.9063431	1.3807038
23.322274179027676	1.9469754	1.3953406
23.340170588009723	1.9616088	1.4005744
23.358067574301852	1.9777523	1.4063258
23.37596513839651	1.9529072	1.3974645
23.39386328078629	1.9500504	1.396442
23.411762001963947	1.923848	1.3870285
23.429661302422353	1.8887373	1.3743134
23.4475611826545	1.9010056	1.3787696
23.46546164315356	1.8997465	1.378313
23.48336268441279	1.9058365	1.3805203
23.501264306925638	1.9047524	1.3801277
23.51916651118564	1.8714551	1.3680114
23.537069297686497	1.8773192	1.370153
23.554972666922037	1.9156024	1.3840529
23.57287661938623	1.9647709	1.4017029
23.59078115557318	1.9681113	1.4028939
23.608686275977128	1.9295444	1.3890804
23.62659198109246	1.8976474	1.3775512
23.6444982714137	1.8669846	1.3663764
23.66240514743549	1.865032	1.3656617
23.68031260965263	1.8524135	1.361034
23.698220658560068	1.8700743	1.3675066
23.716129294652845	1.8597823	1.3637384
23.7340385184262	1.8620902	1.3645843
23.75194833037546	1.8413342	1.3569577
23.769858730996123	1.871963	1.368197
23.78776972078382	1.9044914	1.3800331
23.80568130023431	1.9375342	1.3919533
23.823593469843495	1.9006196	1.3786296
23.841506230107424	1.8547451	1.3618903
23.859419581522275	1.8721718	1.3682733
23.87733352458438	1.8781173	1.3704442
23.89524805979019	1.899582	1.3782532
23.913163187636318	1.9387696	1.392397
23.931078908619508	1.9847928	1.4088267
23.948995223236633	1.9916875	1.4112716
23.966912131984735	1.9988137	1.413794
23.98482963536096	2.037447	1.4273916
24.002747733862616	2.0279472	1.4240601
24.020666427987155	2.043287	1.429436
24.038585718232156	2.029092	1.4244621
24.056505605095353	2.0583198	1.4346845
24.074426089074617	2.0532138	1.432904
24.092347170667946	2.0593927	1.4350585
24.110268850373515	2.0562382	1.4339589
24.128191128689586	2.0683541	1.4381773
24.146114006114626	2.067566	1.4379033
24.164037483147187	2.0421875	1.4290513
24.181961560286005	2.0581355	1.4346204
24.199886238029926	2.0479643	1.431071
24.21781151687797	2.0770311	1.4411908
24.235737397329274	2.060126	1.4353139
24.253663879883135	2.0760517	1.4408511
24.271590965038975	2.002198	1.4149904
24.289518653296376	1.9434239	1.3940674
24.30744694515505	1.9264657	1.3879718
24.32537584111486	1.9601221	1.4000436
24.34330534167581	2.0099182	1.4177158
24.361235447338046	2.041411	1.4287795
24.379166158601876	2.0602877	1.4353702
24.39709747596772	2.05695	1.4342071
24.41502939993615	2.0030549	1.4152932
24.432961931007917	1.9414473	1.3933582
24.450895069683856	1.9554199	1.3983634
24.468828816465	2.0155509	1.419701
24.4867631718525	2.0104501	1.4179034
24.504698136347656	2.0250893	1.4230564
24.52263371045192	2.01949	1.4210876
24.540569894666874	2.0390472	1.4279522
24.558506689494266	2.023381	1.422456
24.57644409543597	1.9792372	1.4068537
24.594382112994012	1.9558562	1.3985193
24.61232074267057	1.9431325	1.3939629
24.630259984967953	1.9097857	1.38195
24.64819984038863	1.9133805	1.38325
24.66614030943522	1.9126648	1.3829912
24.684081392610462	1.9275109	1.3883482
24.702023090417274	1.9297857	1.3891673
24.7199654033587	1.95641	1.3987173
24.737908331937927	1.9964111	1.4129441
24.755851876658305	2.0600793	1.4352976
24.773796038023324	2.000625	1.4144344
24.79174081653661	2.0326345	1.425705
24.809686212701962	2.0322783	1.42558
24.827632227023294	2.0622559	1.4360557
24.8455788600047	2.0857775	1.4442221
24.8635261121504	2.076529	1.4410167
24.88147398396475	2.0763013	1.4409376
24.899422475952303	2.1040933	1.4505494
24.917371588617698	2.1146338	1.4541781
24.935321322465768	2.1596754	1.4695834
24.953271678001478	2.2347653	1.4949131
24.97122265572994	2.4149952	1.5540255
24.989174256156414	2.7381165	1.6547256
25.00712647978632	3.180847	1.7834929
25.02507932712521	3.7162714	1.9277633
25.043032798678798	4.2970195	2.0729253
25.060986894952933	4.8981423	2.2131748
25.078941616453637	5.5709624	2.3602886
25.096896963687055	6.445413	2.538782
25.114852937159508	7.581937	2.7535317
25.132809537377444	8.137868	2.8526947
25.150766764847468	8.228648	2.868562
25.168724620076347	7.703948	2.7755988
25.186683103570985	6.690935	2.5866842
25.204642215838426	5.6224985	2.3711808
25.222601957385894	4.338422	2.082888
25.24056232872074	3.3251534	1.8235003
25.25852333035048	2.7123804	1.6469306
25.276484962782778	2.337036	1.5287367
25.294447226525435	2.0957148	1.4476584
25.312410122086423	1.9981796	1.4135698
25.330373649973843	1.9527403	1.3974048
25.348337810695988	1.9313484	1.3897296
25.366302604761245	1.9391776	1.3925436
25.384268032678207	1.946069	1.3950157
25.40223409495558	1.9395663	1.3926831
25.420200792102257	1.9313251	1.3897213
25.438168124627246	1.8983768	1.377816
25.45613609303974	1.9018235	1.3790662
25.474104697849057	1.8833693	1.372359
25.492073939564698	1.8921603	1.3755581
25.510043818696285	1.8767422	1.3699424
25.528014335753614	1.8819962	1.3718586
25.54598549124664	1.8665249	1.3662082
25.56395728568544	1.8695095	1.3673
25.58192971958028	1.8485334	1.3596078
25.59990279344156	1.8468723	1.3589969
25.617876507779833	1.8584672	1.3632561
25.635850863105826	1.8800378	1.3711447
25.653825859930386	1.870054	1.3674992
25.671801498764548	1.842666	1.3574483
25.68977778011949	1.824693	1.350812
25.707754704506524	1.8415395	1.3570334
25.725732272437153	1.8298743	1.3527285
25.743710484423012	1.8279411	1.3520137
25.761689340975888	1.8552974	1.3620931
25.77966884260774	1.897837	1.3776201
25.797648989830662	1.8822824	1.371963
25.815629783156922	1.8085121	1.3448093
25.83361122309895	1.8068802	1.3442024
25.85159331016929	1.8458618	1.3586249
25.869576044880695	1.8480616	1.3594342
25.887559427746034	1.8339092	1.3542191
25.90554345927836	1.8060945	1.3439102
25.92352813999086	1.8087814	1.3449094
25.94151347039689	1.8229884	1.3501809
25.959499451009965	1.8491057	1.3598182
25.97748608234374	1.9175663	1.3847622
25.995473364912062	1.9175916	1.3847713
26.013461299228904	1.8928756	1.3758181
26.03144988580839	1.8534405	1.3614112
26.04943912516483	1.8469317	1.3590187
26.067429017812675	1.8551475	1.362038
26.085419564266537	1.8624086	1.3647009
26.103410765041186	1.8682325	1.366833
26.12140262065155	1.8368038	1.3552873
26.139395131612723	1.8201181	1.3491175
26.157388298439948	1.794692	1.3396611
26.17538212164861	1.8211925	1.3495157
26.193376601754295	1.8156611	1.3474647
26.211371739272714	1.8134232	1.346634
26.229367534719746	1.7960922	1.3401836
26.247363988611433	1.7976195	1.3407533
26.26536110146397	1.823147	1.3502396
26.283358873793727	1.8022851	1.3424921
26.301357306117204	1.7987248	1.3411654
26.319356398951104	1.8033395	1.3428848
26.33735615281224	1.8224562	1.3499838
26.35535656821762	1.7950921	1.3398105
26.373357645684404	1.7717077	1.331055
26.39135938572991	1.8347592	1.3545328
26.409361788871614	1.8440119	1.357944
26.427364855627165	1.7922758	1.3387591
26.445368586514352	1.7765002	1.3328542
26.46337298205115	1.8445035	1.358125
26.48137804275568	1.823004	1.3501867
26.499383769146217	1.8149104	1.3471861
26.517390161741215	1.8090019	1.3449914
26.53539722105928	1.7927681	1.3389429
26.553404947619182	1.7752014	1.3323668
26.571413341939856	1.8127844	1.3463968
26.589422404540397	1.8349026	1.3545858
26.60743213594006	1.8244076	1.3507063
26.62544253665827	1.8277335	1.3519369
26.64345360721459	1.816526	1.3477856
26.66146534812879	1.8238723	1.3505082
26.679477759920758	1.8236899	1.3504406
26.69749084311057	1.7935456	1.3392332
26.71550459821847	1.7879875	1.3371565
26.733519025764842	1.8232739	1.3502866
26.751534126270258	1.8199655	1.349061
26.769549900255434	1.8316001	1.3533663
26.787566348241267	1.8206179	1.3493028
26.80558347074881	1.8083439	1.3447468
26.823601268299267	1.7626895	1.3276632
26.841619741414036	1.7508636	1.323202
26.85963889061465	1.7357126	1.3174645
26.877658716422832	1.7397665	1.319002
26.89567921936045	1.7850577	1.3360605
26.913700399949544	1.7562786	1.3252466
26.93172225871233	1.7452871	1.3210931
26.949744796171174	1.7652081	1.3286114
26.967768012848605	1.7647595	1.3284426
26.98579190926733	1.7300843	1.3153267
27.003816485950225	1.7455622	1.3211973
27.021841743420318	1.7964293	1.3403094
27.039867682200814	1.8072598	1.3443437
27.057894302815072	1.7689049	1.3300018
27.07592160578664	1.7564276	1.3253028
27.0939495916392	1.8392117	1.3561754
27.111978260896635	1.84101	1.3568382
27.13000761408296	1.8248124	1.3508562
27.148037651722397	1.7674721	1.3294631
27.166068374339304	1.8265043	1.3514823
27.184099782458215	1.8057674	1.3437885
27.20213187660384	1.7540648	1.3244112
27.22016465730105	1.7626294	1.3276405
27.23819812507487	1.7913938	1.3384296
27.256232280450533	1.7970744	1.3405501
27.274267123953383	1.7685589	1.3298718
27.292302656108987	1.7573843	1.3256637
27.31033887744306	1.7710779	1.3308185
27.32837578848146	1.7757998	1.3325914
27.34641338975026	1.8144435	1.3470128
27.364451681775673	1.7860823	1.3364439
27.382490665084074	1.7697877	1.3303337
27.400530340202046	1.8318112	1.3534442
27.41857070765629	1.888614	1.3742685
27.436611767973726	1.866542	1.3662145
27.454653521681404	1.8371241	1.3554056
27.472695969306564	1.8468093	1.3589736
27.490739111376627	1.8644145	1.3654356
27.508782948419153	1.8334063	1.3540334
27.526827480961902	1.8165729	1.347803
27.54487270953279	1.8432481	1.3576628
27.562918634659898	1.8608775	1.3641398
27.580965256871508	1.8441957	1.3580117
27.599012576696026	1.8257256	1.3511941
27.617060594662068	1.8503437	1.3602734
27.63510931129842	1.8599794	1.3638107
27.65315872713401	1.8275568	1.3518716
27.67120884269797	1.8432506	1.3576636
27.68925965851958	1.8215852	1.3496611
27.707311175128307	1.7893244	1.3376563
27.725363393053787	1.8242084	1.3506325
27.74341631282583	1.8231827	1.3502529
27.7614699349744	1.8417286	1.357103
27.77952426002968	2.0291085	1.4244678
27.797579288521973	2.111565	1.4531225
27.815635020981784	2.5440166	1.5949974
27.83369145793979	2.6308973	1.6220042
27.85174859992682	2.522091	1.5881093
27.869806447473923	2.3422298	1.5304345
27.887865001112267	1.9957316	1.4127036
27.905924261373233	1.8753672	1.3694404
27.92398422878836	1.8608794	1.3641405
27.94204490388936	1.8824916	1.3720392
27.96010628720813	1.8823195	1.3719765
27.978168379276728	1.8368292	1.3552967
27.9962311806274	1.8155504	1.3474237
28.014294691792568	1.8215735	1.3496568
28.0323589133048	1.840157	1.3565239
28.050423845696887	1.8220558	1.3498355
28.068489489501758	1.8235469	1.3503877
28.086555845252523	1.8246973	1.3508135
28.104622913482487	1.8299009	1.3527383
28.122690694725115	1.8628606	1.3648665
28.14075918951405	1.8935169	1.3760512
28.15882839838312	1.9206222	1.3858652
28.176898321866304	1.9527135	1.3973953
28.1949689604978	1.9393035	1.3925887
28.213040314811945	1.9076135	1.3811638
28.23111238534327	1.9226737	1.3866051
28.249185172626493	1.9582626	1.3993794
28.267258677196473	1.8893925	1.3745518
28.285332899588294	1.8350042	1.3546233
28.303407840337172	1.8190739	1.3487304
28.321483499978545	1.8468295	1.358981
28.33955987904799	1.9138938	1.3834355
28.357636978081285	1.9370232	1.3917698
28.37571479761439	1.9242625	1.387178
28.393793338183425	1.9531724	1.3975594
28.41187260032469	1.9395479	1.3926765
28.429952584574686	1.9375042	1.3919426
28.448033291470065	1.9234554	1.386887
28.46611472154769	1.9617912	1.4006395
28.484196875344566	1.9737173	1.4048905
28.502279753397914	1.953455	1.3976605
28.52036335624511	1.9353101	1.3911543
28.538447684423716	1.9649991	1.4017843
28.556532738471482	2.0039313	1.4156028
28.574618518926325	1.9945443	1.4122833
28.59270502632635	1.997955	1.4134903
28.61079226120985	2.036803	1.4271661
28.628880224115274	2.036941	1.4272144
28.646968915581287	2.0307837	1.4250556
28.66505833614671	2.0163581	1.4199853
28.68314848635055	2.0186229	1.4207824
28.701239366732004	2.06391	1.4366314
28.71933097783044	2.050768	1.4320502
28.737423320185403	2.0961483	1.447808
28.75551639433665	2.1195781	1.4558771
28.773610200824074	2.1207047	1.4562639
28.791704740187793	2.1296592	1.4593352
28.80980001296809	2.0854568	1.4441111
28.827896019705413	2.0683978	1.4381925
28.845992760940433	2.1054904	1.4510309
28.86409023721397	2.1980264	1.4825742
28.88218844906704	2.205007	1.4849266
28.900287397040845	2.2055638	1.4851141
28.918387081676755	2.2637234	1.5045675
28.936487503516343	2.2949355	1.5149045
28.954588663101365	2.284697	1.5115215
28.97269056097374	2.311364	1.5203171
28.990793197675597	2.3890688	1.5456613
29.00889657374923	2.405356	1.550921
29.027000689737125	2.4037375	1.5503992
29.04510554618196	2.3647153	1.5377631
29.06321114362659	2.360727	1.5364658
29.08131748261405	2.4146268	1.5539069
29.099424563687567	2.448604	1.5648016
29.11753238739057	2.4930892	1.578952
29.13564095426663	2.5135036	1.5854033
29.15375026485954	2.5093439	1.5840908
29.171860319713275	2.5237894	1.5886439
29.18997111937199	2.5826356	1.607058
29.20808266438002	2.6891136	1.6398517
29.226194955281898	2.834335	1.6835483
29.244307992622335	2.8703341	1.694206
29.26242177694624	2.884488	1.6983781
29.2805363087987	2.9158535	1.707587
29.29865158872498	2.924636	1.7101567
29.316767617270557	2.88473	1.6984494
29.334884394981064	2.8312352	1.6826274
29.353001922402367	2.871543	1.6945628
29.37112020008047	2.994661	1.7305089
29.389239228561596	3.0888777	1.7575203
29.407359008392152	3.2488897	1.8024677
29.42547954011872	3.6576402	1.9124959
29.44360082428809	4.275434	2.0677123
29.46172286144722	5.2557616	2.2925448
29.479845652143283	6.7429166	2.5967126
29.497969196923606	8.837453	2.9727855
29.516093496335728	11.462897	3.38569
29.5342185509274	14.315114	3.783532
29.55234436124651	16.474396	4.0588665
29.570470927841175	17.489548	4.1820507
29.588598251259686	17.085876	4.133507
29.60672633205055	15.865241	3.9831195
29.624855170762405	13.947589	3.734647
29.642984767944146	11.423205	3.3798232
29.66111512414481	8.833246	2.9720778
29.67924623991366	6.6481695	2.5784044
29.697378115800138	5.108412	2.2601795
29.71551075235387	4.0818033	2.0203474
29.733644150124675	3.6465545	1.9095954
29.751778309662576	3.4328623	1.8527985
29.769913231517766	3.353413	1.8312327
29.78804891624066	3.325311	1.8235435
29.806185364381818	3.2985713	1.8161969
29.82432257649206	3.2769873	1.8102452
29.842460553122333	3.3218932	1.8226062
29.86059929482382	3.3505952	1.8304632
29.878738802147872	3.3300493	1.8248422
29.896879075646048	3.294671	1.8151228
29.915020115870114	3.2555852	1.804324
29.933161923371976	3.2179663	1.7938691
29.951304498703777	3.255138	1.8042
29.969447842417857	3.3266447	1.8239092
29.987591955066733	3.307002	1.8185165
30.005736837203123	3.2336044	1.7982225
30.023882489379943	3.1508317	1.7750583
30.04202891215028	3.1446815	1.773325
30.060176106067455	3.105741	1.7623112
30.078324071684946	3.1072462	1.7627382
30.09647280955646	3.1476972	1.774175
30.114622320235863	3.1211882	1.7666885
30.132772604277257	3.0650058	1.7507157
30.1509236622349	3.0850544	1.7564323
30.16907549466328	3.1140704	1.7646729
30.18722810211705	3.102034	1.7612592
30.205381485151097	3.110805	1.7637475
30.22353564432045	3.081856	1.7555215
30.241690580180403	3.0561407	1.748182
30.25984629328638	3.0453076	1.745081
30.278002784194037	3.0705633	1.7523023
30.296160053459246	3.0688295	1.7518075
30.314318101638033	2.934409	1.7130116
30.332476929286646	2.8382678	1.684716
30.35063653696153	2.9067626	1.704923
30.368796925219307	2.98858	1.728751
30.386958094616844	2.9894176	1.7289932
30.40512004571115	2.8679864	1.693513
30.423282779059463	2.8344538	1.6835836
30.441446295219233	2.8480442	1.6876149
30.459610594748067	2.8354955	1.683893
30.47777567820382	2.8202357	1.6793557
30.495941546144504	2.8527298	1.6890026
30.51410819912835	2.8571098	1.6902987
30.532275637713795	2.9011075	1.7032638
30.55044386245946	2.8887217	1.699624
30.56861287392416	2.8849037	1.6985004
30.586782672666956	2.8059447	1.6750954
30.604953259247047	2.7731001	1.6652628
30.623124634223885	2.7279956	1.6516645
30.641296798157075	2.6895916	1.6399975
30.659469751606462	2.7171652	1.6483827
30.677643495132074	2.725937	1.6510412
30.695818029294152	2.7210698	1.6495665
30.713993354653116	2.7364557	1.6542236
30.73216947176962	2.7297912	1.652208
30.75034638120448	2.7411444	1.6556401
30.768524083518756	2.7298903	1.652238
30.786702579273673	2.7264686	1.6512022
30.80488186903069	2.7617419	1.6618489
30.82306195335144	2.8653703	1.6927404
30.841242832797782	3.052638	1.74718
30.85942450793176	3.4058616	1.8454976
30.877606979315637	3.749268	1.9363027
30.895790247511883	4.082515	2.0205233
30.913974313083134	4.456354	2.111008
30.932159176592283	4.8011093	2.1911433
30.95034483860237	4.874643	2.2078593
30.968531299676698	4.6528487	2.1570463
30.98671856037873	4.269932	2.0663812
31.00490662127215	3.8436472	1.9605222
31.023095482920848	3.4360797	1.8536665
31.04128514588892	3.0138202	1.7360357
31.059475610740662	2.7739363	1.6655139
31.07766687804056	2.6216779	1.6191596
31.09585894835335	2.5323818	1.5913459
31.11405182224393	2.5114176	1.5847453
31.132245500277417	2.5081174	1.5837038
31.15043998301914	2.5350378	1.5921801
31.168635271034628	2.5005455	1.5813113
31.18683136488964	2.4103305	1.552524
31.20502826515008	2.3285031	1.5259434
31.223225972382135	2.3366554	1.5286123
31.241424487152155	2.3682628	1.5389161
31.259623810026692	2.358528	1.5357499
31.27782394157253	2.3672888	1.5385996
31.296024882356644	2.369803	1.5394164
31.314226632946237	2.3758874	1.5413914
31.332429193908684	2.394211	1.5473238
31.350632565811598	2.405509	1.5509703
31.368836749222787	2.3769672	1.5417416
31.387041744710295	2.4464831	1.5641237
31.40524755284232	2.5690699	1.6028318
31.423454174187317	2.5468128	1.5958737
31.441661609313922	2.5084634	1.583813
31.459869858791002	2.4972847	1.58028
31.478078923187628	2.4601214	1.5684774
31.496288803073064	2.3529625	1.533937
31.514499499016807	2.3333082	1.527517
31.532711011588546	2.3172827	1.5222623
31.550923341358178	2.2981822	1.5159757
31.56913648889584	2.3219533	1.5237957
31.587350454771844	2.3491647	1.5326985
31.605565239556732	2.330996	1.52676
31.62378084382127	2.340406	1.5298386
31.641997268136382	2.337938	1.5290318
31.660214513073274	2.299291	1.5163413
31.67843257920331	2.271626	1.5071914
31.6966514670981	2.2544382	1.5014787
31.71487117732944	2.2565196	1.5021716
31.733091710469346	2.2918227	1.5138767
31.751313067090052	2.2752936	1.5084076
31.769535247764008	2.2009082	1.4835458
31.787758253063878	2.18893	1.4795033
31.805982083562526	2.2439218	1.4979726
31.824206739833024	2.3446057	1.5312105
31.84243222244869	2.3549836	1.5345956
31.860658531983013	2.290309	1.5133767
31.878885669009737	2.245846	1.4986147
31.897113634102784	2.2641459	1.5047079
31.91534242783632	2.2533557	1.5011182
31.933572050784694	2.1885889	1.479388
31.951802503522508	2.183703	1.4777358
31.970033786624548	2.3138447	1.5211327
31.988265900665834	2.34399	1.5310096
32.006498846221575	2.2710497	1.5070002
32.02473262386724	2.193494	1.4810449
32.04296723417845	2.2200491	1.489983
32.0612026777311	2.2553222	1.501773
32.07943895510129	2.1845257	1.4780141
32.097676066865304	2.1329484	1.4604617
32.115914013599685	2.181796	1.4770904
32.13415279588115	2.2101603	1.4866607
32.152392414286666	2.1444798	1.4644042
32.1706328693934	2.1857607	1.4784318
32.18887416177875	2.1662953	1.471834
32.20711629202032	2.1566653	1.4685589
32.225359260695924	2.0259466	1.4233575
32.243603068383614	2.0338163	1.4261193
32.26184771566166	2.066267	1.4374516
32.28009320310852	2.0795827	1.4420758
32.2983395313029	2.12035	1.4561421
32.31658670082372	2.1393216	1.462642
32.33483471225012	2.0448768	1.4299918
32.35308356616143	2.008256	1.4171295
32.371333263137245	2.1188133	1.4556144
32.38958380375734	2.1783662	1.4759289
32.407835188601744	2.0891082	1.4453747
32.42608741825067	2.077835	1.4414698
32.444340493284585	2.091995	1.4463731
32.46259441428416	2.0831373	1.4433078
32.48084918183028	2.0395155	1.4281161
32.49910479650405	2.1258867	1.458042
32.51736125888683	2.1749384	1.4747672
32.53561856956014	2.0742826	1.440237
32.5538767291058	1.9549147	1.3981826
32.572135738105764	1.962724	1.4009725
32.59039559714228	2.0256538	1.4232546
32.608656306797776	2.1065006	1.4513788
32.62691786765491	2.140359	1.4629966
32.645180280296586	2.131523	1.4599736
32.663443545305896	2.0737164	1.4400405
32.68170766326619	2.054567	1.4333761
32.69997263476099	1.9956346	1.4126693
32.7182384603741	1.991088	1.4110591
32.7365051406895	1.990577	1.4108781
32.75477267629144	2.0642385	1.4367458
32.77304106776434	2.0353358	1.426652
32.79131031569289	1.9663846	1.4022784
32.809580420661966	1.8835279	1.3724169
32.827851383256714	1.8840866	1.3726203
32.84612320406245	1.9360334	1.3914142
32.86439588366476	2.073553	1.4399837
32.88266942264945	2.2082741	1.4860263
32.9009438216025	2.1509745	1.4666201
32.9192190811102	2.0933857	1.4468538
32.937495201758985	2.080366	1.4423474
32.95577218413556	2.100141	1.4491863
32.974050028826866	1.9979098	1.4134743
32.992328736420035	1.8918626	1.37545
33.010608307502444	1.8793468	1.3708928
33.02888874266169	1.9110687	1.3824141
33.047170042485604	1.9338205	1.3906188
33.06545220756225	2.0229301	1.4222975
33.083735238479896	2.070316	1.4388593
33.10201913582707	1.9832093	1.4082646
33.12030390019248	1.9476563	1.3955846
33.138589532165135	1.8874657	1.3738507
33.15687603233419	1.8715311	1.3680391
33.17516340128909	1.8853987	1.3730983
33.19345163961947	1.9453418	1.3947551
33.211740747915215	1.9966552	1.4130305
33.23003072676643	1.971255	1.4040139
33.248321576763466	1.922532	1.386554
33.266613298496885	1.8862414	1.3734051
33.28490589255747	1.9146296	1.3837014
33.30319935953626	1.9696165	1.4034302
33.32149370002451	1.9687457	1.40312
33.339788914613706	1.9224714	1.3865322
33.358085003895575	1.8878556	1.3739926
33.376381968462034	1.8535146	1.3614384
33.39467980890529	1.8200898	1.349107
33.41297852581774	1.7156209	1.3098171
33.43127811979204	1.7731092	1.3315815
33.44957859142105	1.8160427	1.3476063
33.467879941297866	1.8563162	1.3624669
33.486182170015844	2.0194666	1.4210794
33.50448527816853	2.11121	1.4530004
33.522789266349754	2.0616314	1.4358382
33.541094135153514	1.9570992	1.3989636
33.55939988517411	1.9136741	1.3833561
33.57770651700602	1.8439765	1.357931
33.59601403124398	1.8646555	1.3655239
33.61432242848296	1.8296375	1.352641
33.632631709318154	1.8747592	1.3692185
33.650941874344994	1.8899996	1.3747725
33.66925292415916	1.8817271	1.3717606
33.68756485935654	1.9607393	1.400264
33.70587768053328	1.9947308	1.4123493
33.724191388285746	1.9635152	1.4012549
33.74250598321054	1.8400319	1.3564777
33.760821465904506	1.8142726	1.3469493
33.77913783696474	1.87403	1.3689522
33.79745509698852	1.867678	1.3666302
33.815773246573414	1.88356	1.3724285
33.8340922863172	1.8628358	1.3648574
33.852412216817896	1.8229079	1.3501511
33.87073303867377	1.8997289	1.3783065
33.889054752483304	1.9623325	1.4008328
33.907377358845245	1.9441123	1.3943143
33.92570085835853	1.967486	1.402671
33.94402525162239	2.0055776	1.4161842
33.96235053923627	1.9422714	1.393654
33.980676721799824	1.9805852	1.4073327
33.999003799912984	2.0692108	1.4384751
34.01733177417592	2.052936	1.4328071
34.03566064518901	2.0271144	1.4237677
34.0539904135529	2.0052402	1.4160651
34.07232107986846	1.9383899	1.3922607
34.090652644736785	1.8359286	1.3549644
34.108985108759235	1.8268489	1.3516097
34.12731847253742	2.0238853	1.4226332
34.14565273667313	2.0589428	1.4349017
34.16398790176847	2.0045376	1.4158169
34.18232396842574	2.0119367	1.4184276
34.20066093724749	1.9935068	1.411916
34.21899880883651	1.9274788	1.3883367
34.23733758379583	1.9186141	1.3851405
34.25567726272874	1.9453374	1.3947536
34.27401784623872	1.9753653	1.4054769
34.29235933492957	1.9455822	1.3948413
34.31070172940526	1.9605485	1.4001958
34.32904503027003	2.0527163	1.4327303
34.347389238128386	2.1192043	1.4557487
34.36573435358502	1.9980105	1.41351
34.38408037724492	1.8521615	1.3609414
34.402427309713296	1.8027751	1.3426746
34.42077515159559	1.7177343	1.3106236
34.43912390349752	1.8045369	1.3433305
34.45747356602499	1.9338452	1.3906276
34.47582413978423	1.9349102	1.3910105
34.49417562538163	1.9157547	1.384108
34.51252802342388	1.9661187	1.4021835
34.53088133451789	1.920879	1.3859578
34.54923555927084	2.0028515	1.4152213
34.567590698290104	2.0635948	1.4365218
34.58594675218336	2.1233609	1.4571756
34.6043037215585	2.133307	1.4605845
34.62266160702365	1.9885439	1.4101574
34.641020409187234	2.0280337	1.4240905
34.65938012865785	2.0895863	1.4455401
34.677740766044394	2.0502493	1.4318691
34.69610232195598	1.8805655	1.3713372
34.714464797002016	1.9148607	1.3837849
34.73282819179208	1.9428653	1.393867
34.751192506936064	1.9170778	1.3845857
34.76955774304408	1.9094559	1.3818306
34.7879239007265	1.937193	1.3918308
34.80629098059391	1.9592285	1.3997245
34.824658983257194	1.9932178	1.4118136
34.843027909327446	1.9491218	1.3961096
34.86139775941603	1.8411427	1.3568871
34.879768534134534	1.9271679	1.3882247
34.89814023409483	2.031565	1.4253298
34.91651285990901	1.921354	1.3861291
34.93488641218944	1.8246588	1.3507993
34.95326089154871	1.9153376	1.3839573
34.97163629859967	1.9940051	1.4120924
34.99001263395542	2.0984015	1.4485861
35.00838989822934	2.181109	1.4768578
35.02676809203499	2.108638	1.452115
35.04514721598624	2.0118742	1.4184055
35.063527270697215	1.8971244	1.3773614
35.081908256782256	1.9865353	1.409445
35.10029017485597	2.0891573	1.4453918
35.11867302553321	2.0973432	1.4482207
35.137056809429104	2.1473923	1.4653983
35.155441527159006	2.0935473	1.4469095
35.173827179338524	2.0513098	1.4322394
35.19221376658354	2.2233372	1.4910859
35.21060128951017	2.0179024	1.4205289
35.2289897487348	1.7294627	1.3150904
35.24737914487405	1.8118937	1.346066
35.26576947854479	1.9630469	1.4010878
35.28416075036418	1.9233795	1.3868597
35.30255296094958	1.8329468	1.3538636
35.32094611091867	1.6544589	1.2862577
35.33934020088932	1.7016209	1.304462
35.35773523147969	1.9913503	1.4111521
35.3761312033082	1.8790277	1.3707763
35.394528116993506	1.6997929	1.303761
35.41292597315452	1.8121327	1.3461548
35.431324772410434	2.2682774	1.5060802
35.449724515380666	2.5328228	1.5914844
35.46812520268491	2.5727792	1.6039885
35.486526834943106	2.6329157	1.6226262
35.504929412775454	2.6852694	1.6386791
35.52333293680242	2.1969495	1.482211
35.54173740764471	1.9913201	1.4111414
35.560142825923286	2.306268	1.5186402
35.5785491922594	1.9487135	1.3959633
35.59695650727454	0.867973	0.9316507
35.61536477159042	0.6149216	0.7841694
