0.008763373481513119	0.0	0.0
0.026290120649546365	0.0	0.0
0.043816868432600686	0.0	0.0
0.06134361724069026	0.0	0.0
0.07887036748382949	0.051972475	0.22797473
0.0963971195720331	0.13542223	0.3679976
0.11392387391531617	0.1847154	0.4297853
0.1314506309236943	0.19843546	0.44546095
0.1489773910071836	0.13043304	0.36115515
0.16650415457580078	0.16786928	0.40971854
0.18403092203956356	0.18257609	0.42728925
0.20155769380849	0.17999446	0.42425755
0.2190844702925996	0.14955667	0.38672557
0.2366112519019124	0.109688856	0.3311931
0.2541380390464497	0.12975486	0.360215
0.27166483213623416	0.1702833	0.41265398
0.28919163158128947	0.16777158	0.4095993
0.3067184377916406	0.14424558	0.37979677
0.324245251177314	0.12407353	0.3522407
0.34177207214833777	0.16489232	0.40606934
0.3592989011147415	0.1612213	0.4015237
0.37682573848655654	0.14919418	0.38625664
0.39435258467381573	0.14158723	0.37628078
0.41187944008655414	0.118778475	0.34464252
0.42940630513480854	0.12618786	0.35522932
0.446933180228618	0.118100785	0.34365794
0.4644600657780234	0.1232722	0.35110143
0.48198696219306775	0.11214188	0.3348759
0.49951386988379676	0.15330128	0.39153707
0.5170407892602581	0.16614015	0.40760294
0.5345677207325025	0.16436066	0.4054142
0.5520946647105822	0.14231324	0.37724426
0.5696216216045534	0.20441668	0.45212463
0.5871485918244737	0.20257288	0.45008096
0.6046755757804043	0.18973589	0.43558684
0.6222025738824094	0.15836796	0.39795473
0.6397295865405557	0.14441775	0.38002336
0.6572566141649129	0.1434746	0.3787804
0.6747836571655547	0.1315749	0.36273256
0.6923107159525568	0.12667249	0.35591078
0.7098377909359992	0.16179779	0.40224096
0.7273648825259653	0.19143191	0.43752933
0.7448919911325411	0.1543404	0.3928618
0.762419117165817	0.12638605	0.35550815
0.7799462610358868	0.09759282	0.3123985
0.7974734231528482	0.10217294	0.31964502
0.8150006039268024	0.13431095	0.36648458
0.8325278037678551	0.12770306	0.35735565
0.8500550230861152	0.14372133	0.37910596
0.8675822622916969	0.1434631	0.37876523
0.8851095217947171	0.1492679	0.38635203
0.9026368020052984	0.153669	0.39200637
0.9201641033335665	0.18296243	0.42774108
0.9376914261896523	0.20941143	0.45761493
0.9552187709836915	0.21092162	0.45926204
0.9727461381258234	0.20179321	0.44921398
0.990273528026193	0.20916733	0.45734814
1.0078009410949496	0.20173356	0.44914758
1.0253283777422473	0.255047	0.50502175
1.0428558383782454	0.23541154	0.48519227
1.0603833234131086	0.25294074	0.50293213
1.0779108332570058	0.29909444	0.54689527
1.0954383683201119	0.31858653	0.5644347
1.112965929012607	0.38686678	0.62198615
1.1304935157446763	0.47640735	0.6902227
1.1480211289265108	0.52674097	0.7257692
1.1655487689683062	1.3971357	1.1820049
1.1830764362802655	1.7083623	1.3070433
1.200604131272596	2.1185062	1.455509
1.2181318543555117	2.297389	1.515714
1.235659605939232	2.2827797	1.510887
1.253187386433982	3.7475822	1.9358673
1.270715196249994	5.992184	2.4478939
1.2882430357975057	11.474178	3.3873556
1.3057709054867608	16.304058	4.0378284
1.3232988057280106	22.400864	4.732955
1.3408267369315112	27.282549	5.22327
1.358354699507526	30.746605	5.544962
1.3758826938663256	34.74012	5.894075
1.3934107204181858	36.483032	6.0401187
1.410938779573391	36.987206	6.081711
1.4284668717422309	37.650562	6.1360054
1.4459949973350033	37.226036	6.101314
1.4635231567620117	37.293903	6.1068735
1.4810513504335687	36.293427	6.0244026
1.4985795787599925	35.589005	5.965652
1.5161078421516088	35.053577	5.920606
1.5336361410187505	34.20995	5.848927
1.5511644757717598	34.43494	5.8681293
1.5686928468209842	35.312706	5.9424496
1.58622125457678	36.03374	6.002811
1.6037496994495108	37.39216	6.114913
1.621278181849548	37.16859	6.096605
1.6388067021872719	37.65057	6.136006
1.6563352608730693	36.95517	6.0790763
1.673863858317336	35.86338	5.988604
1.6913924949304753	35.181664	5.931413
1.7089211711228998	34.34118	5.8601346
1.7264498873050296	33.856308	5.8186173
1.7439786438872935	32.978355	5.7426786
1.7615074412801288	31.94019	5.651565
1.779036279893981	31.583763	5.619943
1.796565160139305	30.484137	5.521244
1.814094082426564	29.551308	5.4361115
1.8316230471662298	28.461075	5.3348923
1.849152054768784	27.709028	5.2639365
1.8666811056447168	27.153082	5.2108617
1.8842102002045273	26.626892	5.1601253
1.901739338858724	26.05077	5.1039953
1.9192685220178245	25.40844	5.0406785
1.9367977500923557	24.707893	4.9707036
1.9543270234928547	24.353598	4.9349365
1.971856342629867	23.585958	4.856538
1.9893857079139496	23.240517	4.820842
2.006915119755667	22.529522	4.746527
2.0244445785655945	22.00777	4.691244
2.0419740847543175	21.52106	4.6390796
2.0595036387324317	20.994255	4.5819488
2.0770332409105414	20.609068	4.539721
2.094562891699263	20.365704	4.5128374
2.1120925915092217	20.00619	4.472828
2.129622340751053	19.715164	4.440176
2.1471521398354043	187.82759	13.705021
2.1646819891729323	444.18903	21.075792
2.182211889174303	440.5056	20.988226
2.1997418402501974	452.8626	21.28057
2.2172718428113023	432.74576	20.802542
2.234801897268317	320.47845	17.901913
2.2523320040319548	16.884415	4.109065
2.269862163512935	16.619015	4.0766425
2.287392376121992	16.33219	4.0413103
2.304922642269869	16.15352	4.019144
2.322452962367322	15.81242	3.9764833
2.3399833368251164	15.353162	3.918311
2.357513766054032	14.974064	3.8696337
2.3750442504648586	14.74303	3.8396654
2.3925747904683963	14.67437	3.830714
2.410105386475459	14.562278	3.8160553
2.4276360388968707	14.321774	3.784412
2.445166748143469	14.03025	3.7456975
2.4626975146261025	13.771525	3.7110007
2.4802283387556323	13.623773	3.6910396
2.4977592209429305	13.302542	3.647265
2.5152901615988825	13.113396	3.6212423
2.5328211611343865	12.747738	3.5703974
2.5503522199603523	12.420972	3.52434
2.5678833384877024	12.165301	3.4878793
2.5854145171273712	11.997758	3.463778
2.6029457562903064	11.909086	3.4509544
2.620477056387469	11.726351	3.424376
2.6380084178298326	11.675241	3.4169052
2.655539841028383	11.44715	3.3833637
2.673071326394119	11.02935	3.3210466
2.6906028743380523	10.679225	3.2679083
2.708134485271211	10.656879	3.2644875
2.7256661596046325	10.682989	3.268484
2.743197897749369	10.615671	3.25817
2.760729700116486	10.525017	3.2442281
2.778261567117063	10.339325	3.215482
2.795793499162193	10.305429	3.210207
2.8133254966629817	9.967811	3.157184
2.830857560030551	9.776153	3.126684
2.8483896896760337	9.550141	3.0903304
2.865921886010578	9.437026	3.0719743
2.883454149445347	9.332649	3.0549386
2.9009864803915177	9.134051	3.0222592
2.91851887926028	9.014697	3.0024486
2.9360513464628384	8.998572	2.999762
2.953583882410413	8.879984	2.9799302
2.9711164875142373	8.669225	2.9443548
2.9886491621855606	8.396641	2.8976958
3.0061819068356455	8.2107725	2.8654447
3.023714721875769	8.202421	2.863987
3.041247607717225	8.149276	2.8546937
3.0587805647713213	8.085998	2.8435888
3.0763135934493806	7.8554664	2.8027606
3.0938466941627407	7.6825447	2.7717404
3.1113798673227544	7.6288066	2.7620294
3.1289131133407904	7.6368413	2.7634835
3.1464464326282315	7.590329	2.7550552
3.1639798255964786	7.606562	2.7579997
3.1815132926569443	7.648651	2.7656195
3.1990468342210603	7.612488	2.7590737
3.216580450700272	7.5038195	2.73931
3.2341141425060416	7.342861	2.7097714
3.251647910049847	7.3021626	2.7022514
3.2691817537431813	7.2353024	2.6898518
3.286715673997555	7.1767564	2.678947
3.3042496712244938	7.126376	2.6695273
3.32178374583554	6.888918	2.6246748
3.339317898242251	6.7936773	2.6064684
3.3568521288562034	6.7167673	2.5916727
3.3743864380889876	6.778497	2.6035547
3.3919208263522127	6.8068533	2.6089947
3.4094552940575023	6.7657804	2.6011114
3.4269898416164972	6.6109843	2.5711834
3.444524469440858	6.486968	2.5469527
3.4620591779422587	6.416388	2.5330591
3.479593967532391	6.3749886	2.524874
3.4971288386229658	6.32128	2.5142155
3.5146637916257086	6.2705703	2.5041106
3.5321988269523628	6.210183	2.492024
3.5497339450146903	6.2724915	2.5044942
3.5672691462244708	6.2615643	2.5023117
3.5848044309934988	6.2991705	2.5098147
3.60233979973359	6.3137536	2.5127184
3.619875252856575	6.3703156	2.5239484
3.6374107907743034	6.4457603	2.53885
3.6549464138986427	6.271467	2.5042899
3.6724821226414788	6.17977	2.4859142
3.690017917414714	6.1654205	2.4830265
3.7075537986302702	6.1899023	2.4879515
3.7250897667000857	6.272723	2.5045404
3.7426258220361235	6.4434867	2.5384023
3.7601619650503553	6.7739525	2.6026819
3.777698196154779	7.2748747	2.6971977
3.7952345157614067	8.24903	2.8721125
3.8127709242822716	9.088807	3.0147648
3.830307422129425	11.44572	3.3831522
3.847844009714936	30.272552	5.50205
3.8653806874508954	97.73252	9.885976
3.882917455749409	96.91505	9.844544
3.900454315022606	96.64271	9.830703
3.917991265682631	41.24854	6.4225025
3.9355283081416506	10.883672	3.299041
3.9530654428118495	8.607438	2.9338436
3.970602670105433	7.3195357	2.7054641
3.9881399904346244	6.3632755	2.5225534
4.005677404211669	6.191628	2.4882982
4.023214911848827	6.298749	2.5097308
4.0407525137583855	6.3447566	2.5188801
4.058290210352644	6.3762074	2.5251153
4.075828002043927	6.265329	2.503064
4.0933658892445814	6.1454263	2.478997
4.110903872366966	6.0858903	2.4669597
4.128441951823468	6.0605683	2.4618223
4.145980128026488	6.0208282	2.4537375
4.163518401388452	6.029787	2.4555626
4.181056772321807	6.087998	2.467387
4.1985952412390155	6.1405697	2.4780173
4.216133808552567	6.192435	2.4884603
4.233672474674966	6.2362995	2.4972584
4.251211240018741	6.3852572	2.5269067
4.268750104996445	6.5537505	2.5600295
4.286289070020643	7.4752784	2.7340956
4.303828135503928	9.1435	3.023822
4.3213673018589125	29.427855	5.4247446
4.3389065694982305	90.576454	9.517166
4.356445938834537	165.83458	12.877678
4.3739854102805085	170.97314	13.07567
4.391524984248844	172.00218	13.114961
4.409064661152262	136.07137	11.664963
4.426604441403504	96.4755	9.822194
4.444144325415337	75.6021	8.694946
4.461684313600543	21.572365	4.644606
4.47922440637193	22.053728	4.69614
4.496764604142329	20.359068	4.5121026
4.5143049073245916	18.429155	4.292919
4.531845316331589	16.254173	4.0316463
4.5493858315762195	13.316653	3.649199
4.566926453471405	11.045586	3.32349
4.584467182430081	8.925074	2.9874861
4.602008018865218	7.821865	2.7967598
4.619548963189798	7.254737	2.693462
4.637090015816834	6.813196	2.61021
4.654631177159353	6.6472774	2.5782313
4.672172447630417	6.4213266	2.5340338
4.689713827643102	6.198278	2.489634
4.7072553176105085	5.9263344	2.4344063
4.724796917945764	5.761467	2.4003055
4.742338629062015	5.741271	2.396095
4.759880451372434	5.692943	2.385989
4.777422385290215	5.6883926	2.385035
4.794964431228581	5.747654	2.3974266
4.812506589600768	5.669532	2.3810778
4.830048860820047	5.577584	2.3616908
4.847591245299709	5.465659	2.337875
4.8651337434530655	5.484297	2.3418577
4.882676355693457	5.4872518	2.3424883
4.900219082434242	5.4744267	2.3397493
4.917761924088813	5.4462333	2.3337166
4.935304881070575	5.4554224	2.3356845
4.952847953792969	5.539335	2.353579
4.970391142669449	5.547651	2.3553452
4.9879344481135055	5.472694	2.339379
5.005477870538642	5.3310513	2.308907
5.023021410358394	5.318693	2.306229
5.040565067986324	5.3937707	2.3224492
5.05810884383601	5.465874	2.337921
5.075652738321066	5.4351287	2.3313363
5.09319675185512	5.413728	2.326742
5.110740884851836	5.3760953	2.318641
5.128285137724894	5.344793	2.3118808
5.145829510888007	5.3304977	2.308787
5.163374004754908	5.372293	2.3178208
5.1809186197393595	5.3322263	2.3091614
5.198463356255145	5.2802377	2.2978768
5.216008214716077	5.2463603	2.2904935
5.233553195535998	5.217048	2.2840858
5.251098299128764	5.315029	2.3054347
5.268643525908272	5.32022	2.3065603
5.286188876288432	5.277601	2.297303
5.3037343506831895	5.1773686	2.2753832
5.32127994950651	5.1500893	2.2693808
5.3388256731723915	5.2647815	2.294511
5.356371522094851	5.2826185	2.2983947
5.373917496687938	5.222388	2.2852545
5.391463597365729	5.115459	2.261738
5.40900982454232	5.0585318	2.249118
5.426556178631843	5.154304	2.2703092
5.444102660048449	5.1190004	2.2625208
5.4616492692063225	5.12266	2.2633295
5.479196006519669	5.1045113	2.2593164
5.496742872402727	5.141923	2.2675807
5.514289867269756	5.138782	2.2668881
5.531836991535049	5.0520473	2.247676
5.549384245612924	5.0376153	2.2444632
5.566931629917724	5.060915	2.2496479
5.584479144863822	5.175354	2.2749405
5.6020267908656205	5.2170215	2.28408
5.619574568337545	5.2391562	2.2889204
5.637122477694054	5.175957	2.275073
5.654670519349629	5.1655626	2.2727873
5.672218693718784	5.1144333	2.2615113
5.689767001216059	5.102762	2.2589295
5.707315442256021	5.0589657	2.2492144
5.724864017253266	5.020078	2.2405531
5.7424127266224225	5.039547	2.2448936
5.75996157077814	5.086388	2.2553022
5.777510550135105	5.126194	2.26411
5.795059665108022	5.123797	2.2635806
5.812608916111639	5.1469474	2.2686884
5.830158303560715	5.2703953	2.2957342
5.847707827870055	5.2123175	2.28305
5.86525748945448	5.2697296	2.2955892
5.8828072887288485	5.342459	2.311376
5.900357226108044	5.393878	2.3224723
5.917907302006979	5.5010576	2.3454335
5.9354575168406	6.1823416	2.4864316
5.9530078710238765	6.889529	2.6247914
5.970558364971812	7.4134297	2.7227614
5.988108999099438	7.7394066	2.7819788
6.005659773821818	8.297087	2.8804665
6.023210689554039	8.082039	2.8428926
6.040761746711227	8.505926	2.916492
6.058312945708531	7.8155203	2.7956252
6.075864286961132	7.328979	2.7072086
6.093415770884244	6.6833606	2.5852196
6.1109673978931065	6.1549807	2.4809234
6.128519168402993	5.54193	2.3541305
6.146071082829204	5.392101	2.3220897
6.163623141587075	5.2006984	2.280504
6.181175345091969	5.050878	2.2474158
6.198727693759281	5.021008	2.2407606
6.216280188004435	5.0552354	2.248385
6.233832828242885	5.1349287	2.2660382
6.251385614890126	5.152888	2.2699974
6.268938548361669	5.139475	2.267041
6.286491629073067	5.0561776	2.2485945
6.304044857439898	5.0863786	2.2553
6.321598233877777	5.0512257	2.2474933
6.339151758802344	5.105333	2.2594984
6.356705432629277	5.030355	2.2428453
6.37425925577428	4.9814305	2.231912
6.391813228653095	4.962348	2.2276328
6.409367351681486	4.893189	2.2120554
6.426921625275259	4.904159	2.2145336
6.44447604985025	4.919188	2.2179244
6.46203062582232	4.898231	2.2131948
6.47958535360737	4.9152126	2.217028
6.497140233621328	4.9007344	2.2137601
6.514695266280161	4.905254	2.2147808
6.532250451999859	4.96183	2.2275167
6.549805791196454	5.030315	2.2428365
6.567361284286002	5.068752	2.2513888
6.584916931684597	5.063551	2.2502337
6.602472733808367	4.978535	2.2312632
6.6200286910734665	4.915648	2.2171261
6.637584803896092	4.8927336	2.2119524
6.655141072692462	4.8773813	2.2084794
6.672697497878842	4.950458	2.2249625
6.690254079871514	4.9642167	2.2280521
6.707810819086808	5.020333	2.24061
6.725367715941078	4.9948215	2.2349098
6.742924770850719	5.021563	2.2408845
6.760481984232151	5.0185757	2.2402177
6.778039356501836	5.001212	2.236339
6.795596888076266	4.9847665	2.232659
6.813154579371963	4.996629	2.2353141
6.830712430805492	5.004704	2.2371197
6.84827044279344	4.963523	2.2278965
6.865828615752445	4.914627	2.2168958
6.883386950099159	4.8734484	2.207589
6.900945446250287	4.906177	2.2149892
6.918504104622553	4.9162607	2.2172642
6.936062925632727	4.8770385	2.2084017
6.953621909697607	4.895047	2.2124753
6.971181057234028	4.971922	2.2297807
6.988740368658859	5.0849786	2.2549896
7.006299844389007	5.1432433	2.267872
7.023859484841407	5.132267	2.2654507
7.041419290433036	5.1789994	2.2757416
7.058979261580902	5.296386	2.3013878
7.0765393987020495	5.551301	2.3561199
7.094099702213559	5.8959546	2.4281588
7.111660172532549	6.2846694	2.5069244
7.129220810076164	6.6586146	2.580429
7.146781615261595	7.1924386	2.6818721
7.16434258850606	7.5317225	2.7443984
7.181903730226821	7.954096	2.8203006
7.1994650408411704	8.0987625	2.8458326
7.217026520766437	8.176638	2.859482
7.234588170419983	8.286952	2.8787067
7.252149990219215	8.304758	2.8817978
7.269711980581568	8.224375	2.8678172
7.2872741419245175	8.123485	2.8501728
7.304836474665574	7.7913976	2.7913074
7.322398979222286	7.3962255	2.7196002
7.339961656012233	7.0364265	2.6526263
7.357524505453039	6.7146044	2.5912554
7.375087527962357	6.50868	2.5512114
7.392650723957886	6.244656	2.498931
7.410214093857353	5.91221	2.4315035
7.427777638078528	5.6765003	2.3825407
7.445341357039213	5.4966636	2.3444965
7.4629052511572525	5.3232865	2.3072248
7.480469320850524	5.248079	2.2908685
7.498033566536948	5.2299175	2.2869012
7.5155979886344735	5.1695576	2.2736661
7.5331625875610975	5.125671	2.2639945
7.550727363734844	5.1133614	2.2612743
7.568292317573788	5.118186	2.2623408
7.585857449496025	5.0655875	2.250686
7.603422759919705	5.0533204	2.2479591
7.620988249263007	5.0797114	2.2538216
7.638553917944147	5.155741	2.2706258
7.656119766381391	5.158783	2.2712955
7.673685794993023	5.183639	2.2767606
7.691252004197388	5.1992216	2.2801802
7.70881839441285	5.2229753	2.285383
7.726384966057826	5.247832	2.2908146
7.743951719550762	5.2536945	2.292094
7.761518655310149	5.210942	2.2827487
7.779085773754511	5.200261	2.2804081
7.796653075302419	5.2369647	2.2884417
7.814220560372475	5.301485	2.3024955
7.831788229383323	5.2994385	2.3020508
7.8493560827536495	5.2448816	2.2901707
7.866924120902174	5.1915736	2.2785025
7.884492344247663	5.194596	2.2791655
7.9020607532089135	5.232729	2.2875159
7.919629348204771	5.2617927	2.2938597
7.937198129654115	5.287515	2.2994597
7.954767097975865	5.3327417	2.309273
7.972336253588986	5.3786483	2.3191912
7.989905596912472	5.3822007	2.319957
8.007475128365371	5.3869233	2.3209746
8.025044848366756	5.38817	2.321243
8.042614757335754	5.5167975	2.3487864
8.060184855691523	5.5596666	2.3578944
8.07775514385327	5.690441	2.3854647
8.095325622240228	5.7229614	2.3922713
8.112896291271687	5.769679	2.4020157
8.130467151366968	5.7403464	2.395902
8.148038202945436	5.7573643	2.3994508
8.165609446426497	5.786685	2.4055529
8.183180882229594	5.86062	2.4208717
8.200752510774217	5.8932986	2.4276118
8.218324332479893	5.8640876	2.4215877
8.235896347766193	5.899761	2.4289424
8.253468557052724	5.9569454	2.4406855
8.27104096075914	5.9577913	2.4408588
8.288613559305137	5.982303	2.4458747
8.306186353110448	5.9665737	2.442657
8.32375934259485	6.0296082	2.455526
8.341332528178162	6.0615664	2.462025
8.358905910280246	6.175035	2.4849617
8.376479489321003	6.231708	2.4963388
8.394053265720377	6.3084946	2.5116718
8.411627239898356	6.310209	2.512013
8.42920141227497	6.281769	2.5063457
8.44677578327029	6.2394476	2.4978886
8.464350353304427	6.162732	2.482485
8.48192512279754	6.039354	2.4575098
8.499500092169827	6.0239763	2.454379
8.51707526184153	6.091749	2.4681468
8.534650632232934	6.1487007	2.4796574
8.552226203764365	6.1071477	2.4712644
8.569801976856192	6.0521984	2.4601216
8.587377951928834	6.1007	2.4699595
8.60495412940274	6.1217637	2.4742198
8.622530509698416	6.1602173	2.4819784
8.6401070932364	6.258273	2.5016541
8.657683880437283	6.3981185	2.5294502
8.675260871721695	6.5953035	2.5681324
8.692838067510303	6.7213807	2.5925627
8.710415468223834	6.833809	2.6141555
8.727993074283043	6.962252	2.638608
8.745570886108737	6.9952817	2.6448596
8.763148904121765	7.0573664	2.6565704
8.78072712874302	7.1619744	2.6761866
8.798305560393441	7.376797	2.716026
8.815884199494006	7.514615	2.7412798
8.833463046465745	7.613998	2.7593474
8.851042101729728	7.690305	2.77314
8.86862136570707	8.011181	2.8304029
8.886200838818924	8.190627	2.8619273
8.903780521486505	8.236331	2.869901
8.921360414131055	8.275168	2.8766592
8.938940517173874	8.359757	2.8913245
8.956520831036297	8.528361	2.9203358
8.97410135613971	8.850033	2.9749005
8.99168209290554	9.068902	3.0114617
9.009263041755265	9.3862915	3.0637054
9.026844203110405	9.67641	3.1106927
9.044425577392525	9.932387	3.1515691
9.062007165023239	10.001281	3.16248
9.079588966424197	10.204712	3.1944814
9.097170982017108	10.247651	3.2011952
9.11475321222372	11.378199	3.3731585
9.132335657465825	12.428417	3.525396
9.149918318165264	12.528391	3.5395467
9.167501194743924	13.25891	3.6412787
9.18508428762374	12.857784	3.5857754
9.202667597226693	12.708419	3.564887
9.220251123974803	12.314728	3.5092347
9.237834868290143	11.92868	3.453792
9.255418830594836	11.711177	3.4221597
9.273003011311046	11.166974	3.3417022
9.290587410860985	10.987307	3.3147106
9.308172029666911	10.484738	3.2380145
9.32575686815113	10.295077	3.2085943
9.343341926735997	8.828861	2.97134
9.360927205843916	8.579566	2.9290895
9.378512705897327	8.320042	2.8844483
9.396098427318728	8.11284	2.8483047
9.413684370530664	7.9568105	2.820782
9.431270535955722	7.8639717	2.8042774
9.448856924016539	7.789154	2.7909057
9.466443535135806	7.641236	2.7642787
9.484030369736251	7.6523957	2.7662964
9.501617428240658	7.6853075	2.7722387
9.519204711071852	7.7407217	2.7822154
9.536792218652714	7.7038093	2.7755737
9.55437995140617	7.673255	2.770064
9.571967909755191	7.683106	2.7718415
9.589556094122802	7.775595	2.7884755
9.60714450493207	7.897415	2.810234
9.624733142606116	7.9339824	2.8167326
9.642322007568108	7.967471	2.822671
9.659911100241267	7.970647	2.8232334
9.677500421048851	7.999753	2.8283834
9.695089970414175	7.9855194	2.8258662
9.712679748760609	7.9489827	2.819394
9.730269756511557	7.984898	2.8257563
9.747859994090492	8.022551	2.8324108
9.765450461920915	8.074048	2.841487
9.78304116042639	8.158718	2.856347
9.800632090030527	8.208347	2.8650212
9.81822325115699	8.183325	2.860651
9.835814644229481	8.1699095	2.8583055
9.853406269671762	8.1521	2.8551881
9.870998127907646	8.15479	2.8556592
9.888590219360985	8.219668	2.8669963
9.906182544455698	8.217382	2.8665977
9.923775103615734	8.187089	2.861309
9.941367897265108	8.106511	2.8471935
9.958960925827878	8.105799	2.8470685
9.97655418972816	8.135255	2.8522367
9.994147689390106	8.190752	2.861949
10.011741425237934	8.207939	2.8649502
10.029335397695904	8.252903	2.8727865
10.04692960718833	8.269986	2.8757584
10.06452405413958	8.270225	2.8758
10.082118738974064	8.266568	2.875164
10.099713662116246	8.256129	2.873348
10.117308823990651	8.267244	2.8752816
10.134904225021844	8.235447	2.869747
10.152499865634445	8.1674185	2.8578696
10.170095746253125	8.0904	2.8443627
10.18769186730261	8.120698	2.8496838
10.205288229207675	8.133863	2.8519928
10.222884832393145	8.088356	2.8440034
10.2404816772839	8.035727	2.8347356
10.258078764304868	8.033089	2.8342705
10.275676093881035	8.017359	2.831494
10.293273666437438	8.060778	2.839151
10.310871482399158	8.133044	2.8518493
10.32846954219134	8.13451	2.8521063
10.346067846239173	8.238756	2.8703234
10.363666394967908	8.21288	2.8658123
10.38126518880283	8.182062	2.8604305
10.398864228169298	8.131851	2.85164
10.416463513492713	8.172072	2.8586836
10.434063045198531	8.157872	2.856199
10.451662823712262	8.165901	2.857604
10.469262849459467	8.122399	2.8499823
10.486863122865758	7.9931183	2.8272104
10.504463644356806	7.971047	2.8233042
10.522064414358338	7.847561	2.8013499
10.539665433296118	7.7988358	2.7926395
10.557266701595987	7.746725	2.783294
10.574868219683818	7.7815514	2.7895432
10.592469987985552	7.7061143	2.7759888
10.610072006927185	7.6103497	2.7586863
10.627674276934751	7.4536476	2.7301369
10.64527679843435	7.304426	2.70267
10.662879571852143	7.177254	2.6790397
10.680482597614331	7.163733	2.676515
10.698085876147173	7.1109977	2.6666453
10.715689407876988	7.0153785	2.648656
10.733293193230146	6.86174	2.6194923
10.750897232633072	6.7315955	2.5945318
10.76850152651225	6.646003	2.5779843
10.786106075294207	6.605845	2.5701838
10.803710879405534	6.4943786	2.548407
10.821315939272877	6.432344	2.5362067
10.83892125532294	6.359074	2.5217204
10.856526827982472	6.309879	2.5119472
10.874132657678285	6.2204347	2.4940798
10.891738744837243	6.1683965	2.4836257
10.909345089886271	6.1462917	2.4791715
10.926951693252343	6.113483	2.4725459
10.944558555362494	6.073232	2.464393
10.96216567664381	6.0037317	2.4502513
10.979773057523436	6.003933	2.4502923
10.997380698428573	5.934859	2.4361565
11.014988599786477	5.8233285	2.4131575
11.032596762024461	5.676096	2.3824558
11.050205185569892	5.6037593	2.3672261
11.067813870850198	5.5236197	2.3502383
11.085422818292859	5.4773936	2.3403833
11.10303202832541	5.4119167	2.3263526
11.120641501375454	5.3300576	2.3086917
11.138251237870636	5.2599244	2.2934525
11.155861238238671	5.2035007	2.2811184
11.173471502907317	5.126652	2.2642112
11.191082032304402	5.091992	2.2565444
11.208692826857805	5.0728097	2.2522898
11.226303886995465	5.0658307	2.25074
11.243915213145371	4.974309	2.230316
11.261526805735578	4.9132633	2.2165883
11.279138665194196	4.8845553	2.210103
11.296750791949393	4.802398	2.1914375
11.314363186429393	4.7329745	2.17554
11.331975849062479	4.657751	2.1581824
11.34958878027699	4.623952	2.1503377
11.36720198050133	4.5727925	2.138409
11.384815450163948	4.532899	2.1290605
11.402429189693366	4.4264803	2.1039202
11.420043199518153	4.365226	2.0893123
11.437657480066942	63.37259	7.96069
11.455272031768422	85.15783	9.2281
11.472886855051353	107.571365	10.371661
11.490501950344528	99.168915	9.958359
11.508117318076819	84.48979	9.191833
11.52573295867715	45.833714	6.77006
11.543348872574514	4.1618543	2.0400624
11.560965060197946	4.141573	2.0350854
11.57858152197655	4.0536766	2.0133743
11.59619825833949	4.0174694	2.0043626
11.613815269715985	4.01882	2.0046995
11.631432556535323	38.584145	6.2116137
11.649050119226837	83.10066	9.115956
11.666667958219929	93.45681	9.667306
11.68428607394406	107.67999	10.376897
11.701904466828756	82.5084	9.083413
11.719523137303586	65.33736	8.083153
11.737142085798196	4.5675178	2.137175
11.754761312742286	3.6661568	1.914721
11.772380818565619	3.668535	1.915342
11.790000603698015	3.6303573	1.9053496
11.80762066856935	3.5894246	1.8945777
11.825241013609572	3.5334373	1.8797439
11.842861639248683	3.5150957	1.8748589
11.860482545916748	3.4537241	1.8584198
11.878103734043883	3.4088311	1.846302
11.895725204060282	3.3790653	1.8382235
11.91334695639619	3.3536525	1.831298
11.930968991481919	3.357987	1.832481
11.948591309747824	3.33668	1.8266581
11.966213911624347	3.3297021	1.8247471
11.98383679754198	3.3084555	1.818916
12.001459967931268	3.2910416	1.8141228
12.019083423222835	3.2936115	1.814831
12.036707163847352	3.3161573	1.8210319
12.05433119023556	3.2761056	1.8100016
12.071955502818259	3.225761	1.7960403
12.089580102026313	3.1403959	1.7721162
12.107204988290643	3.107849	1.7629092
12.12483016204224	3.1024551	1.7613788
12.142455623712152	3.0922077	1.7584674
12.16008137373149	3.0531485	1.7473261
12.177707412531431	3.0461426	1.7453202
12.19533374054321	3.074839	1.7535219
12.212960358198126	3.1249993	1.7677667
12.230587265927545	3.1445737	1.7732946
12.248214464162889	3.1540055	1.775952
12.265841953335649	3.0913317	1.7582183
12.283469733877375	3.014521	1.7362375
12.301097806219685	2.9826274	1.7270285
12.31872617079425	2.9710257	1.7236663
12.336354828032825	2.956752	1.7195209
12.353983778367205	2.9203596	1.7089059
12.371613022229262	2.9069118	1.7049668
12.389242560050928	2.8820126	1.6976491
12.406872392264201	2.8549268	1.6896529
12.424502519301143	2.8586621	1.6907579
12.442132941593874	2.8568692	1.6902275
12.459763659574586	2.8296642	1.6821606
12.477394673675532	2.8162744	1.6781759
12.49502598432903	2.8107078	1.6765165
12.51265759196746	2.7865975	1.6693105
12.530289497023267	2.7351174	1.6538191
12.547921699928967	2.7291026	1.6519996
12.565554201117134	2.7127814	1.6470523
12.583187001020404	2.728295	1.6517551
12.600820100071486	2.7665732	1.663302
12.618453498703152	2.7710629	1.6646509
12.636087197348235	2.7438116	1.6564455
12.65372119643964	2.7327175	1.6530933
12.671355496410326	2.7493315	1.6581109
12.68899009769333	2.7998273	1.6732684
12.706625000721749	2.8657162	1.6928426
12.724260205928752	2.9120476	1.7064723
12.741895713747551	2.940318	1.7147356
12.759531524611454	2.9522202	1.7182026
12.777167638953818	2.9882276	1.728649
12.794804057208072	3.0309246	1.7409551
12.812440779807702	3.0855746	1.7565804
12.830077807186271	3.2526522	1.803511
12.847715139777405	3.2919014	1.8143598
12.865352778014795	3.4881015	1.867646
12.882990722332197	3.607265	1.8992801
12.90062897316344	3.7168012	1.9279007
12.918267530942412	3.8065438	1.9510366
12.935906396103071	3.6482844	1.9100482
12.953545569079449	3.7852068	1.9455608
12.971185050305628	3.557084	1.8860234
12.988824840215775	3.591077	1.8950137
13.006464939244115	3.5955606	1.8961964
13.024105347824943	3.453482	1.8583546
13.041746066392617	3.5263064	1.8778462
13.05938709538157	3.3143427	1.8205336
13.077028435226296	3.3440282	1.8286685
13.094670086361363	3.2900758	1.8138566
13.112312049221401	3.1840684	1.7843958
13.129954324241112	3.0601974	1.749342
13.147596911855258	2.815782	1.6780292
13.165239812498685	2.7982857	1.6728077
13.182883026606293	2.7892444	1.6701031
13.200526554613058	2.7825544	1.668099
13.218170396954017	2.7539096	1.6594907
13.235814554064284	2.7291243	1.6520061
13.253459026379034	2.6928313	1.6409849
13.271103814333523	2.671903	1.6345956
13.288748918363058	2.6406562	1.6250097
13.306394338903031	2.6346595	1.6231635
13.32404007638889	2.6290045	1.6214205
13.341686131256164	2.605844	1.6142627
13.359332503940449	2.565989	1.6018704
13.376979194877402	2.5650585	1.60158
13.394626204502751	2.6442814	1.6261246
13.412273533252307	2.6587315	1.6305617
13.429921181561937	2.6536548	1.6290042
13.447569149867581	2.6651769	1.6325369
13.465217438605247	2.6972535	1.6423317
13.482866048211022	2.7160044	1.6480304
13.500514979121052	2.722467	1.64999
13.518164231771568	2.6682758	1.6334858
13.535813806598844	2.635933	1.6235557
13.553463704039254	2.6145284	1.6169504
13.571113924529229	2.6497793	1.6278143
13.588764468505275	2.6898963	1.6400903
13.606415336403956	2.7070727	1.6453184
13.624066528661917	2.7489061	1.6579826
13.641718045715882	2.8370075	1.6843419
13.659369888002635	2.882979	1.6979337
13.67702205595903	2.9505455	1.7177153
13.694674550021993	3.01567	1.7365685
13.712327370628532	3.0471833	1.7456183
13.729980518215713	3.1102643	1.7635942
13.747633993220681	3.1882625	1.7855706
13.765287796080647	3.2425072	1.8006964
13.7829419272329	3.2894735	1.8136905
13.800596387114801	3.3069646	1.8185061
13.818251176163775	3.328586	1.8244413
13.835906294817324	3.3672645	1.8350108
13.853561743513023	3.3632512	1.8339169
13.871217522688525	3.3940291	1.8422891
13.888873632781538	3.4328687	1.8528003
13.906530074229858	3.4459202	1.856319
13.92418684747135	3.4125924	1.8473203
13.941843952943948	3.4253378	1.8507668
13.959501391085665	3.421743	1.8497953
13.977159162334578	3.417	1.8485129
13.994817267128846	3.3730135	1.8365766
14.012475705906693	3.28488	1.8124238
14.030134479106424	3.1949904	1.7874537
14.047793587166414	3.1458344	1.77365
14.065453030525108	3.0950007	1.7592614
14.083112809621026	3.0063887	1.7338941
14.100772924892766	2.9109557	1.7061523
14.118433376778997	2.8883286	1.6995083
14.136094165718458	2.8411427	1.6855689
14.153755292149969	2.7824593	1.6680706
14.171416756512416	2.7157862	1.6479642
14.189078559244768	2.6755416	1.6357083
14.20674070078606	2.615372	1.6172111
14.224403181575408	2.5505557	1.5970459
14.242066002051999	2.5079148	1.5836397
14.259729162655093	2.4947965	1.5794924
14.277392663824022	2.470076	1.5716475
14.295056505998208	2.441273	1.5624573
14.312720689617128	2.4089885	1.5520916
14.330385215120348	2.397135	1.5482684
14.348050082947497	2.361885	1.5368426
14.3657152935383	2.3605983	1.5364239
14.383380847332528	2.3640282	1.5375397
14.401046744770051	2.3523498	1.5337372
14.418712986290798	2.3699648	1.539469
14.436379572334793	2.3514552	1.5334455
14.454046503342123	2.3562994	1.5350243
14.471713779752946	2.353176	1.5340066
14.489381402007504	2.3763008	1.5415255
14.507049370546113	2.3818605	1.5433277
14.524717685809168	2.3776405	1.54196
14.542386348237134	2.381579	1.5432365
14.560055358270553	2.3730006	1.5404546
14.577724716350051	2.4191315	1.5553558
14.595394422916325	2.4445949	1.5635201
14.61306447841015	2.5058634	1.582992
14.63073488327237	2.5028937	1.5820537
14.648405637943917	2.5235107	1.5885562
14.6660767428658	2.470953	1.5719265
14.683748198479094	2.4880803	1.5773649
14.701420005224954	2.463377	1.5695149
14.719092163544628	2.5301678	1.5906501
14.73676467387942	2.611964	1.6161572
14.754437536670727	2.6682317	1.6334723
14.772110752360014	2.7121382	1.646857
14.78978432138882	2.7033172	1.6441767
14.807458244198777	2.7044263	1.644514
14.82513252123159	2.649114	1.6276098
14.842807152929028	2.667765	1.6333294
14.860482139732962	2.6880727	1.6395342
14.87815748208531	2.6755118	1.6356992
14.8958331804281	2.6556914	1.6296293
14.91350923520342	2.6044936	1.6138444
14.931185646853438	2.5908995	1.6096271
14.948862415820408	2.5585058	1.599533
14.966539542546656	2.5896773	1.6092474
14.98421702747459	2.601803	1.6130105
15.001894871046696	2.6423144	1.6255198
15.019573073705542	2.6308565	1.6219915
15.037251635893766	2.6043942	1.6138135
15.054930558054092	2.6384673	1.624336
15.072609840629323	2.7212095	1.6496089
15.090289484062351	2.8690429	1.6938249
15.107969488796124	3.142288	1.77265
15.125649855273691	3.5164561	1.8752216
15.14333058393817	4.019393	2.0048423
15.161011675232768	4.939235	2.222439
15.17869312960076	6.220864	2.494166
15.196374947485506	8.024999	2.8328428
15.214057129330447	11.040401	3.32271
15.231739675579114	15.898203	3.987255
15.249422586675102	21.0593	4.589041
15.267105863062092	24.47768	4.947492
15.284789505183847	24.955572	4.9955554
15.302473513484218	23.16427	4.8129272
15.320157888407127	19.586082	4.4256167
15.337842630396578	15.244345	3.9044006
15.355527739896656	11.81641	3.4375005
15.37321321735153	9.143432	3.0238109
15.39089906320545	6.576231	2.5644164
15.408585277902748	4.884493	2.210089
15.42627186188783	3.711032	1.9264039
15.443958815605198	3.185444	1.7847812
15.461646139499424	2.8926468	1.7007782
15.479333834015168	2.7408543	1.6555525
15.497021899597165	2.6534853	1.6289523
15.514710336690234	2.5826733	1.6070698
15.53239914573928	2.5715046	1.6035912
15.550088327189297	2.5845692	1.6076596
15.567777881485336	2.5574994	1.5992184
15.58546780907256	2.5088372	1.583931
15.6031581103962	2.4790132	1.5744883
15.620848785901568	2.4842455	1.576149
15.638539836034063	2.492429	1.5787429
15.656231261239173	2.4362903	1.5608621
15.673923061962451	2.4305923	1.5590357
15.691615238649552	2.3831174	1.5437349
15.709307791746202	2.381217	1.5431192
15.727000721698221	2.35965	1.5361152
15.744694028951498	2.3566148	1.5351269
15.76238771395202	2.3494425	1.5327891
15.780081777145844	2.3364136	1.5285331
15.797776218979125	2.3266244	1.5253277
15.815471039898094	2.3201392	1.5232003
15.833166240349064	2.3321862	1.5271497
15.850861820778437	2.3715823	1.5399942
15.868557781632699	2.3484674	1.532471
15.886254123358412	2.3490105	1.5326482
15.903950846402232	2.3355079	1.5282369
15.921647951210897	2.3497872	1.5329015
15.939345438231225	2.3632967	1.5373018
15.957043307910133	2.3615625	1.5367376
15.974741560694602	2.3713565	1.5399209
15.992440197031714	2.377314	1.5418541
16.01013921736862	2.411099	1.5527713
16.02783862215259	2.4030366	1.550173
16.045538411830933	2.4039245	1.5504594
16.06323858685107	2.3532364	1.5340263
16.080939147660512	2.351119	1.5333359
16.09864009470684	2.3533375	1.5340592
16.11634142843774	2.3716753	1.5400244
16.134043149300954	2.3882697	1.5454028
16.15174525774433	2.3885589	1.5454963
16.169447754215817	2.3970673	1.5482465
16.18715063916342	2.3870964	1.5450231
16.204853913035244	2.3865952	1.544861
16.222557576279478	2.4029453	1.5501436
16.240261629344403	22.390005	4.7318077
16.257966072678386	42.926785	6.5518537
16.275670906729868	38.062847	6.1695094
16.293376131947387	2.500491	1.5812941
16.31108174877957	2.5210764	1.5877898
16.328787757675133	2.5400195	1.5937439
16.34649415908287	2.538342	1.5932175
16.364200953451657	2.5701797	1.603178
16.38190814123048	2.5921624	1.6100193
16.39961572286839	2.629295	1.6215101
16.41732369881455	2.6654077	1.6326076
16.43503206951817	2.6597183	1.6308643
16.45274083542859	2.6872473	1.6392826
16.47044999699522	2.7413065	1.6556891
16.488159554667558	2.8151283	1.6778344
16.505869508895184	2.883417	1.6980627
16.523579860127786	2.9030545	1.7038352
16.541290608815117	2.9487703	1.7171984
16.559001755407035	3.0000916	1.7320772
16.57671330035348	3.0757287	1.7537756
16.59442524410448	3.138434	1.7715626
16.61213758711015	3.2043805	1.7900784
16.629850329820705	3.2526484	1.80351
16.647563472686436	3.3232598	1.822981
16.665277016157724	3.3858984	1.8400811
16.682990960685053	3.4529543	1.8582127
16.70070530671898	3.5125287	1.8741741
16.718420054710155	3.5476196	1.8835126
16.736135205109335	3.5838523	1.8931065
16.753850758367335	3.6016793	1.897809
16.771566714935087	3.629687	1.9051738
16.789283075263597	3.66722	1.9149988
16.80699983980398	3.7268844	1.930514
16.82471700900741	3.7833989	1.9450961
16.84243458332518	3.8819087	1.970256
16.860152563208665	3.9814723	1.9953626
16.87787094910932	4.069777	2.0173688
16.89558974147871	4.109724	2.0272455
16.913308940768466	4.1451154	2.0359557
16.931028547430333	4.21867	2.05394
16.94874856191613	4.282159	2.0693378
16.966468984677785	4.338688	2.0829518
16.98418981616729	4.35389	2.0865977
17.00191105683676	4.4176354	2.1018171
17.019632707138374	4.4411454	2.1074026
17.03735476752442	4.500569	2.1214545
17.05507723844728	4.496646	2.1205297
17.072800120359403	4.536558	2.1299198
17.090523413713353	4.5887	2.1421251
17.108247118961785	4.5917044	2.1428263
17.125971236557437	4.5961103	2.1438541
17.143695766953133	4.6028547	2.1454265
17.161420710601806	4.6265225	2.1509352
17.179146067956477	4.640615	2.1542087
17.19687183947025	4.6565876	2.1579127
17.21459802559634	4.6752925	2.1622424
17.232324626788028	4.659023	2.158477
17.25005164349871	4.653677	2.1572382
17.267779076181863	4.6554394	2.1576467
17.285506925291074	4.640438	2.1541677
17.30323519127999	4.576279	2.139224
17.320963874602384	4.4889007	2.1187027
17.33869297571211	4.4063654	2.0991344
17.356422495063114	4.386134	2.09431
17.37415243310944	4.4530478	2.1102245
17.391882790305218	4.4412174	2.1074197
17.40961356710468	4.4551654	2.1107264
17.42734476396215	4.416493	2.1015453
17.445076381332044	4.448602	2.109171
17.462808419668868	4.522721	2.126669
17.48054087942723	4.682389	2.1638827
17.498273761061835	4.9530096	2.2255359
17.51600706502747	5.379752	2.3194292
17.533740791779024	6.0860643	2.466995
17.551474941771485	7.495819	2.7378495
17.56920951545993	8.545214	2.9232197
17.586944513299528	10.79104	3.284972
17.60467993574556	12.662666	3.558464
17.622415783253373	14.683567	3.8319142
17.64015205627843	16.337057	4.0419126
17.657888755276293	17.553251	4.18966
17.675625880702604	18.119745	4.2567296
17.69336343301311	17.93464	4.234931
17.71110141266366	17.02309	4.1259046
17.728839820110178	15.945738	3.9932115
17.746578655808705	14.768817	3.8430219
17.764317920215372	13.005366	3.6062953
17.7820576137864	11.328124	3.365728
17.79979773697811	9.29709	3.049113
17.81753829024692	7.3894978	2.718363
17.835279274049356	5.7395115	2.3957279
17.85302068884201	4.7527504	2.1800804
17.870762535081607	4.1266017	2.0314038
17.888504813224934	3.811698	1.952357
17.90624752372891	3.6956608	1.9224101
17.923990667050536	3.6220596	1.903171
17.941734243646895	3.5705276	1.889584
17.959478253975185	3.4964263	1.8698734
17.9772226984927	3.4136753	1.8476135
17.994967577656833	3.371798	1.8362457
18.01271289192506	3.3729382	1.8365561
18.030458641754965	3.3335183	1.8257926
18.04820482760425	3.312484	1.8200231
18.06595144993067	3.3208387	1.8223169
18.083698509192125	3.3270473	1.8240196
18.101446005846576	3.3152645	1.8207867
18.119193940352105	3.2493439	1.8025937
18.136942313166887	3.216911	1.7935749
18.1546911247492	3.1957965	1.7876791
18.1724403755574	3.1578033	1.7770209
18.19019006604997	3.1512501	1.775176
18.207940196685467	3.1370838	1.7711815
18.225690767922575	3.1409457	1.7722713
18.243441780220046	3.1039498	1.761803
18.261193234036764	3.0624642	1.7499897
18.278945129831676	3.0181088	1.7372705
18.29669746806386	3.0711415	1.7524673
18.314450249192483	3.0882013	1.7573279
18.3322034736768	3.0834146	1.7559655
18.349957141976184	3.0522335	1.7470642
18.3677112545501	3.0354283	1.742248
18.385465811858108	3.0315442	1.741133
18.403220814359884	3.0115426	1.7353797
18.420976262515172	3.0912125	1.7581844
18.43873215678387	3.131236	1.7695299
18.456488497625923	3.1601553	1.7776825
18.474245285501407	3.2076435	1.7909895
18.492002520870486	3.2700644	1.808332
18.50976020419343	3.3503337	1.8303916
18.527518335930615	3.6334934	1.9061724
18.545276916542516	4.238114	2.058668
18.563035946489688	4.4101267	2.1000302
18.580795426232832	4.8505654	2.2024
18.598555356232698	4.7127995	2.1708984
18.616315736950185	4.9946313	2.234867
18.63407656884626	4.6394987	2.1539495
18.65183785238201	4.817822	2.1949537
18.669599588018617	4.6349134	2.152885
18.68736177621737	4.6249704	2.1505744
18.705124417439652	4.622847	2.1500807
18.72288751214696	4.411655	2.100394
18.740651060800886	4.5836625	2.140949
18.758415063863115	4.3018456	2.074089
18.77617952179546	4.4016867	2.0980196
18.793944435059814	4.104382	2.0259275
18.811709804118184	4.1535616	2.038029
18.829475629432675	4.1346564	2.0333855
18.8472419114655	3.9247556	1.9810996
18.86500865067897	3.9359014	1.9839107
18.88277584753551	3.641698	1.9083233
18.90054350249763	3.6924534	1.9215758
18.918311616027957	3.3778648	1.8378968
18.936080188589226	3.299778	1.8165292
18.953849220644265	3.0345504	1.741996
18.971618712656007	2.892221	1.7006531
18.9893886650875	2.7807798	1.667567
19.007159078401887	7.9892535	2.8265266
19.024929953062408	32.86934	5.7331786
19.042701289532435	32.818073	5.728706
19.060473088275405	25.368841	5.036749
19.07824534975489	2.6589677	1.6306342
19.096018074434568	2.630339	1.621832
19.113791262778197	2.6379182	1.624167
19.13156491524966	2.6069825	1.6146153
19.149339032312945	2.543923	1.594968
19.167113614432136	2.5170236	1.586513
19.184888662071433	2.5320554	1.5912434
19.202664175695123	2.5359595	1.5924696
19.220440155767623	2.5037825	1.5823345
19.238216602753447	2.496736	1.5801064
19.2559935171172	2.4920974	1.5786378
19.27377089932361	2.5001204	1.5811769
19.291548749837514	2.4946017	1.5794308
19.309327069123835	2.5231419	1.5884401
19.32710585764763	2.5007308	1.5813699
19.344885115874032	2.4743643	1.5730112
19.362664844268313	2.4462311	1.5640432
19.380445043295822	2.4634616	1.5695418
19.39822571342203	2.481713	1.5753454
19.41600685511252	2.5055153	1.5828819
19.43378846883297	2.4833665	1.57587
19.451570555049173	2.4654064	1.5701612
19.469353114227037	2.4770849	1.5738758
19.48713614683254	2.4747148	1.5731226
19.50491965333182	2.4559953	1.5671616
19.52270363419109	2.450159	1.5652984
19.540488089876686	2.4906569	1.5781815
19.55827302085503	2.518585	1.587005
19.576058427592674	2.4980352	1.5805174
19.593844310556282	2.4382892	1.5615022
19.611630670212598	2.4209626	1.5559443
19.629417507028506	2.467621	1.5708663
19.64720482147098	2.5052025	1.5827831
19.6649926140071	2.5174317	1.5866417
19.682780885104084	2.5058436	1.5829856
19.70056963522921	2.4858198	1.5766482
19.718358864849908	2.485809	1.5766449
19.7361485744337	2.5200157	1.5874557
19.753938764448215	2.5240595	1.5887289
19.771729435361202	2.4974477	1.5803316
19.789520587640506	2.4462192	1.5640393
19.807312221754092	2.4323914	1.5596126
19.825104338170043	2.452005	1.5658879
19.842896937356517	2.4669247	1.5706446
19.860690019781824	2.4506266	1.5654477
19.87848358591436	2.4377058	1.5613154
19.896277636222635	2.426959	1.55787
19.914072171175278	2.4844794	1.5762231
19.931867191241015	2.5009856	1.5814505
19.94966269688869	2.4832585	1.5758358
19.967458688587264	2.4327955	1.5597421
19.985255166805807	2.4023755	1.5499598
20.00305213201348	2.4149299	1.5540044
20.020849584679578	2.4037554	1.5504049
20.038647525273507	2.4307897	1.559099
20.05644595426477	2.4180498	1.5550079
20.07424487212299	2.4067905	1.5513834
20.092044279317903	2.408892	1.5520605
20.109844176319353	2.4247863	1.5571725
20.127644563597304	2.445738	1.5638856
20.145445441621817	2.4159725	1.5543399
20.16324681086307	2.4072871	1.5515435
20.181048671791373	2.4233208	1.5567019
20.198851024877122	2.3977447	1.5484653
20.216653870590836	2.3632045	1.5372717
20.234457209403146	2.34835	1.5324327
20.252261041784802	2.3517225	1.5335327
20.270065368206662	2.357581	1.5354416
20.287870189139685	2.3364146	1.5285335
20.305675505054968	2.35585	1.5348779
20.323481316423702	2.3596246	1.536107
20.341287623717207	2.3464112	1.5318
20.359094427406884	2.347648	1.5322036
20.376901727964288	2.332892	1.5273807
20.39470952586107	2.3645954	1.5377241
20.41251782156899	2.3251643	1.5248489
20.430326615559935	2.3198478	1.5231047
20.448135908305886	2.3021204	1.517274
20.465945700278965	2.3277743	1.5257045
20.483755991951384	2.334559	1.5279263
20.50156678379548	2.3360326	1.5284085
20.519378076283708	2.3076859	1.519107
20.537189869888635	2.310151	1.5199181
20.55500216508294	2.2894917	1.5131066
20.572814962339415	2.3059402	1.5185323
20.59062826213098	2.3208673	1.5234393
20.60844206493066	2.3347518	1.5279895
20.626256371211593	2.3644898	1.5376898
20.644071181447032	2.3336468	1.5276278
20.66188649611036	2.295093	1.5149565
20.67970231567506	2.2865818	1.5121448
20.697518640614742	2.2994175	1.516383
20.715335471403122	2.3021424	1.5172813
20.73315280851404	2.3312929	1.5268571
20.750970652421447	2.330757	1.5266817
20.768789003599412	2.3087726	1.5194646
20.786607862522136	2.2785416	1.5094838
20.8044272296639	2.2948334	1.5148708
20.82224710549913	2.2670345	1.5056674
20.84006749050237	2.2351274	1.4950342
20.857888385148268	3.810077	1.9519418
20.8757097899116	45.966164	6.779835
20.893531705267254	64.81811	8.050969
20.911354131690224	83.82905	9.155821
20.92917706965566	69.06839	8.3107395
20.94700051963877	50.0978	7.07798
20.96482448211493	29.34084	5.4167185
20.982648957559622	4.0748286	2.0186205
21.00047394644843	2.1775002	1.4756355
21.01829944925707	2.1913934	1.4803356
21.036125466461375	2.214341	1.4880662
21.053951998537297	2.2473125	1.4991039
21.071779045960906	2.241011	1.4970007
21.089606609208378	2.190069	1.4798882
21.10743468875603	2.1910431	1.4802172
21.12526328508028	2.2271845	1.4923755
21.143092398657675	2.2318344	1.4939325
21.16092202996488	2.194005	1.4812174
21.17875217947867	2.1986363	1.48278
21.19658284767596	2.2031217	1.4842917
21.21441403503377	2.2080536	1.4859521
21.232245742029225	2.187464	1.4790077
21.2500779691396	2.1783743	1.4759316
21.26791071684227	2.1608474	1.4699821
21.28574398561475	2.1685455	1.4725982
21.30357777593465	2.1507611	1.4665474
21.321412088279704	2.1629295	1.4706901
21.339246923127792	2.163784	1.4709806
21.357082280956888	2.1743724	1.4745753
21.3749181622451	2.1676812	1.4723047
21.392754567470647	2.1550336	1.4680033
21.41059149711187	2.1376426	1.462068
21.42842895164726	2.140523	1.4630526
21.446266931555378	2.1315217	1.4599732
21.464105437314945	2.121251	1.4564515
21.481944469404798	2.103586	1.4503744
21.49978402830388	2.0942793	1.4471625
21.51762411449127	2.0957675	1.4476765
21.53546472844617	2.0894477	1.4454923
21.553305870647876	2.089464	1.4454979
21.571147541575865	2.0662072	1.4374307
21.58898974170967	2.0786421	1.4417497
21.60683247152899	2.05617	1.4339352
21.62467573151363	2.0522816	1.4325787
21.642519522143523	2.034566	1.4263821
21.660363843898722	2.0709991	1.4390967
21.6782086972594	2.0823214	1.4430251
21.696054082705864	2.0728827	1.4397509
21.713900000718535	2.0620062	1.4359688
21.73174645177795	2.052176	1.4325418
21.749593436364794	2.0723734	1.439574
21.767440954959845	2.0616496	1.4358445
21.785289008044032	2.0234656	1.4224857
21.803137596098388	1.9818712	1.4077895
21.820986719604086	1.9908123	1.4109615
21.838836379042412	2.0096655	1.4176267
21.85668657489478	2.0194223	1.4210638
21.87453730764273	2.002902	1.4152392
21.892388577767914	1.956712	1.3988252
21.91024038575213	1.9318053	1.389894
21.928092732077285	1.9488002	1.3959943
21.945945617225426	2.001183	1.4146317
21.963799041678694	2.0154257	1.4196569
21.981653005919398	31.332273	5.5975237
21.999507510429943	78.10575	8.837746
22.01736255569286	73.017395	8.545022
22.035218142190818	4.1355314	2.0336006
22.05307427040661	1.9703789	1.4037019
22.07093094082315	1.9902492	1.410762
22.088788153923474	1.9952604	1.4125369
22.106645910190746	1.980259	1.4072168
22.12450421010827	1.9867846	1.4095335
22.142363054159464	1.9917856	1.4113064
22.16022244282787	1.9848645	1.4088522
22.178082376597164	1.9534305	1.3976518
22.195942855951145	1.9495348	1.3962574
22.213803881373742	1.9714766	1.4040928
22.231665453349002	1.9617884	1.4006386
22.24952757236111	1.9633392	1.4011921
22.26739023889438	1.9805635	1.4073249
22.28525345343323	1.9579685	1.3992742
22.30311721646225	1.9380627	1.3921432
22.320981528466113	1.9353529	1.3911697
22.33884638992964	1.9530417	1.3975127
22.356711801337788	1.9344059	1.3908292
22.37457776317561	1.940487	1.3930136
22.392444275928337	1.9603014	1.4001076
22.410311340081282	1.9577711	1.3992038
22.428178956119904	1.9020206	1.3791376
22.446047124529805	1.8836929	1.3724769
22.46391584579669	1.92122	1.3860807
22.481785120406414	1.9598523	1.3999473
22.49965494884496	1.975086	1.4053775
22.51752533159841	2.0082254	1.4171187
22.53539626915302	1.9895301	1.4105071
22.553267761995137	1.9757829	1.4056255
22.571139810611264	1.94261	1.3937755
22.589012415488025	1.930708	1.3894992
22.60688557711216	1.9200747	1.3856676
22.624759295970566	1.9495282	1.396255
22.642633572550263	1.9290335	1.3888965
22.660508407338362	1.9031198	1.379536
22.67838380082217	1.8826408	1.3720936
22.696259753489077	1.8722644	1.3683071
22.714136265826614	1.9016484	1.3790027
22.73201333832246	1.9163182	1.3843114
22.74989097146439	1.9464185	1.395141
22.76776916574035	1.9689869	1.4032059
22.785647921638393	1.9874269	1.4097613
22.803527239646712	1.9773859	1.4061955
22.82140712025363	1.9163611	1.3843269
22.839287563947593	1.9088774	1.3816212
22.85716857121719	1.9223384	1.3864841
22.875050142551135	1.9400216	1.3928466
22.892932278438277	1.9276571	1.3884009
22.910814979367604	1.8845401	1.3727856
22.928698245828222	1.8725685	1.3684182
22.946582078309387	1.8815309	1.3716891
22.96446647730047	1.886181	1.373383
22.98235144329098	1.8590184	1.3634583
23.000236976770562	1.8786541	1.37064
23.018123078229	1.9378618	1.392071
23.03600974815619	1.9819084	1.4078027
23.053896987042194	1.9745699	1.4051939
23.071784795377173	1.9253216	1.3875595
23.08967317365145	1.9135821	1.3833228
23.10756212235546	1.9411964	1.3932682
23.125451641979787	1.9506936	1.3966724
23.143341733015134	1.9619641	1.4007013
23.161232395952357	1.9164714	1.3843668
23.179123631282426	1.9146838	1.383721
23.197015439496468	1.9149215	1.383807
23.214907821085717	1.9113964	1.3825326
23.23280077654157	1.9127244	1.3830128
23.250694306355538	1.9141536	1.3835294
23.268588411019277	1.9450828	1.3946623
23.28648309102458	1.9694449	1.4033691
23.304378346863356	1.9484926	1.3958842
23.322274179027676	1.9344176	1.3908334
23.340170588009723	1.8855716	1.3731612
23.358067574301852	1.8680637	1.3667712
23.37596513839651	1.8788599	1.3707151
23.39386328078629	1.9183042	1.3850286
23.411762001963947	1.9329592	1.390309
23.429661302422353	1.931164	1.3896632
23.4475611826545	1.907533	1.3811347
23.46546164315356	1.9253397	1.3875661
23.48336268441279	1.8992697	1.37814
23.501264306925638	1.8925167	1.3756877
23.51916651118564	1.8680214	1.3667557
23.537069297686497	1.8900465	1.3747896
23.554972666922037	1.9164656	1.3843647
23.57287661938623	1.9372548	1.391853
23.59078115557318	1.9112871	1.382493
23.608686275977128	1.8747407	1.3692117
23.62659198109246	1.8913335	1.3752576
23.6444982714137	1.914279	1.3835747
23.66240514743549	1.9279022	1.3884891
23.68031260965263	1.9049747	1.3802083
23.698220658560068	1.8959414	1.3769319
23.716129294652845	1.9067689	1.3808581
23.7340385184262	1.9042344	1.37994
23.75194833037546	1.8977402	1.3775849
23.769858730996123	1.8623146	1.3646665
23.78776972078382	1.8745551	1.369144
23.80568130023431	1.8578805	1.3630409
23.823593469843495	1.8802216	1.3712118
23.841506230107424	1.8995094	1.3782269
23.859419581522275	1.9266713	1.3880458
23.87733352458438	1.916948	1.3845389
23.89524805979019	1.9102137	1.3821048
23.913163187636318	1.907124	1.3809866
23.931078908619508	1.9327136	1.3902208
23.948995223236633	1.9969467	1.4131336
23.966912131984735	2.0377707	1.4275051
23.98482963536096	2.0541112	1.433217
24.002747733862616	2.0242586	1.4227644
24.020666427987155	2.028277	1.4241759
24.038585718232156	2.028016	1.4240843
24.056505605095353	2.0043235	1.4157413
24.074426089074617	2.0008914	1.4145287
24.092347170667946	2.001153	1.4146211
24.110268850373515	1.9985386	1.4136968
24.128191128689586	2.0270529	1.4237461
24.146114006114626	2.0106046	1.4179579
24.164037483147187	2.0173829	1.420346
24.181961560286005	2.0004356	1.4143676
24.199886238029926	1.9717869	1.4042033
24.21781151687797	2.0194254	1.4210649
24.235737397329274	2.0477345	1.4309907
24.253663879883135	2.01099	1.4180938
24.271590965038975	1.9903253	1.4107889
24.289518653296376	1.9920515	1.4114006
24.30744694515505	2.013163	1.4188598
24.32537584111486	2.036384	1.4270194
24.34330534167581	2.0700831	1.4387784
24.361235447338046	2.0737944	1.4400675
24.379166158601876	2.023058	1.4223424
24.39709747596772	1.9829344	1.408167
24.41502939993615	1.9547744	1.3981324
24.432961931007917	1.9481454	1.3957598
24.450895069683856	1.9376675	1.3920013
24.468828816465	1.9608407	1.4003003
24.4867631718525	1.9410058	1.3931998
24.504698136347656	1.940718	1.3930966
24.52263371045192	1.9340079	1.3906862
24.540569894666874	1.944396	1.394416
24.558506689494266	1.9470391	1.3953635
24.57644409543597	1.9978514	1.4134537
24.594382112994012	1.978206	1.4064871
24.61232074267057	1.934139	1.3907332
24.630259984967953	1.8818655	1.371811
24.64819984038863	1.8824719	1.372032
24.66614030943522	1.9006741	1.3786494
24.684081392610462	1.9565865	1.3987803
24.702023090417274	2.0023537	1.4150455
24.7199654033587	2.0258517	1.4233242
24.737908331937927	1.9882091	1.4100387
24.755851876658305	2.003383	1.4154091
24.773796038023324	2.0195584	1.4211117
24.79174081653661	2.0330963	1.4258668
24.809686212701962	2.0743241	1.4402515
24.827632227023294	2.0898015	1.4456146
24.8455788600047	2.1111717	1.4529872
24.8635261121504	2.1138327	1.4539026
24.88147398396475	2.1069553	1.4515355
24.899422475952303	2.0879228	1.4449646
24.917371588617698	2.086473	1.4444629
24.935321322465768	2.125025	1.4577465
24.953271678001478	2.248636	1.4995452
24.97122265572994	2.440885	1.5623332
24.989174256156414	2.7941616	1.6715746
25.00712647978632	3.2190747	1.794178
25.02507932712521	3.8097155	1.9518492
25.043032798678798	4.37753	2.0922549
25.060986894952933	5.0942116	2.257036
25.078941616453637	5.880697	2.4250147
25.096896963687055	6.926008	2.631731
25.114852937159508	8.12945	2.851219
25.132809537377444	8.6265335	2.937096
25.150766764847468	8.633961	2.9383602
25.168724620076347	7.9968433	2.827869
25.186683103570985	6.903777	2.6275039
25.204642215838426	5.6517816	2.3773477
25.222601957385894	4.298505	2.0732837
25.24056232872074	3.1982825	1.7883743
25.25852333035048	2.559318	1.5997869
25.276484962782778	2.2022703	1.4840049
25.294447226525435	2.0551453	1.4335778
25.312410122086423	2.0082896	1.4171413
25.330373649973843	1.9628395	1.4010137
25.348337810695988	1.93396	1.3906689
25.366302604761245	1.905804	1.3805087
25.384268032678207	1.8898793	1.3747288
25.40223409495558	1.8708259	1.3677814
25.420200792102257	1.9003872	1.3785453
25.438168124627246	1.9264652	1.3879716
25.45613609303974	1.9416548	1.3934327
25.474104697849057	1.9203565	1.3857692
25.492073939564698	1.8911151	1.3751782
25.510043818696285	1.8602062	1.3638937
25.528014335753614	1.8502694	1.3602461
25.54598549124664	1.8505645	1.3603545
25.56395728568544	1.8504695	1.3603196
25.58192971958028	1.845801	1.3586026
25.59990279344156	1.8327233	1.3537811
25.617876507779833	1.8469018	1.3590076
25.635850863105826	1.8490392	1.3597938
25.653825859930386	1.8453468	1.3584354
25.671801498764548	1.8695676	1.3673214
25.68977778011949	1.8805671	1.3713377
25.707754704506524	1.8468012	1.3589706
25.725732272437153	1.8153707	1.3473569
25.743710484423012	1.832437	1.3536754
25.761689340975888	1.8677859	1.3666697
25.77966884260774	1.8306695	1.3530223
25.797648989830662	1.8555715	1.3621936
25.815629783156922	1.8393188	1.3562149
25.83361122309895	1.8025101	1.3425759
25.85159331016929	1.7853454	1.3361682
25.869576044880695	1.7996262	1.3415015
25.887559427746034	1.8168943	1.3479222
25.90554345927836	1.8535801	1.3614625
25.92352813999086	1.8231882	1.3502549
25.94151347039689	1.8255026	1.3511117
25.959499451009965	1.8643253	1.3654029
25.97748608234374	1.9270473	1.3881813
25.995473364912062	1.8967078	1.3772101
26.013461299228904	1.8768814	1.3699932
26.03144988580839	1.8293788	1.3525453
26.04943912516483	1.8265301	1.3514918
26.067429017812675	1.8624824	1.364728
26.085419564266537	1.8669335	1.3663577
26.103410765041186	1.7943323	1.3395269
26.12140262065155	1.7851751	1.3361044
26.139395131612723	1.8243825	1.350697
26.157388298439948	1.87625	1.3697628
26.17538212164861	1.8809035	1.3714603
26.193376601754295	1.8470436	1.3590598
26.211371739272714	1.8497765	1.3600649
26.229367534719746	1.8459705	1.358665
26.247363988611433	1.861825	1.364487
26.26536110146397	1.8266813	1.3515477
26.283358873793727	1.7855657	1.3362507
26.301357306117204	1.7721754	1.3312308
26.319356398951104	1.810364	1.3454977
26.33735615281224	1.8368175	1.3552924
26.35535656821762	1.8841751	1.3726525
26.373357645684404	1.9191715	1.3853416
26.39135938572991	1.8984652	1.377848
26.409361788871614	1.8246952	1.3508128
26.427364855627165	1.7561843	1.325211
26.445368586514352	1.7300987	1.3153322
26.46337298205115	1.7201177	1.3115326
26.48137804275568	1.7502347	1.3229643
26.499383769146217	1.7596602	1.3265219
26.517390161741215	1.7813315	1.3346653
26.53539722105928	1.7604847	1.3268325
26.553404947619182	1.7981298	1.3409436
26.571413341939856	1.8151747	1.3472842
26.589422404540397	1.8261318	1.3513445
26.60743213594006	1.7913183	1.3384014
26.62544253665827	1.7841804	1.3357321
26.64345360721459	1.7788982	1.3337535
26.66146534812879	1.82032	1.3491924
26.679477759920758	1.8420117	1.3572073
26.69749084311057	1.7892755	1.337638
26.71550459821847	1.7727336	1.3314404
26.733519025764842	1.7609147	1.3269947
26.751534126270258	1.7554262	1.324925
26.769549900255434	1.7785692	1.3336301
26.787566348241267	1.7725055	1.3313547
26.80558347074881	1.8005553	1.3418478
26.823601268299267	1.8112181	1.3458151
26.841619741414036	1.8044096	1.3432832
26.85963889061465	1.8212662	1.349543
26.877658716422832	1.8340801	1.3542821
26.89567921936045	1.834392	1.3543973
26.913700399949544	1.8452079	1.3583843
26.93172225871233	1.8281845	1.3521037
26.949744796171174	1.8433906	1.3577152
26.967768012848605	1.8710217	1.3678529
26.98579190926733	1.8646376	1.3655174
27.003816485950225	1.8321197	1.3535582
27.021841743420318	1.7339014	1.3167769
27.039867682200814	1.7411243	1.3195167
27.057894302815072	1.8024398	1.3425498
27.07592160578664	1.811811	1.3460352
27.0939495916392	1.7898698	1.3378601
27.111978260896635	1.7778549	1.3333622
27.13000761408296	1.7498884	1.3228335
27.148037651722397	1.749677	1.3227535
27.166068374339304	1.7609326	1.3270013
27.184099782458215	1.785373	1.3361785
27.20213187660384	1.8064027	1.3440248
27.22016465730105	1.8389509	1.3560792
27.23819812507487	1.8513004	1.360625
27.256232280450533	1.849651	1.3600187
27.274267123953383	1.8211492	1.3494996
27.292302656108987	1.8096691	1.3452394
27.31033887744306	1.8139601	1.3468333
27.32837578848146	1.7858729	1.3363656
27.34641338975026	1.7882874	1.3372686
27.364451681775673	1.7853311	1.3361628
27.382490665084074	1.8091263	1.3450377
27.400530340202046	1.7974849	1.3407031
27.41857070765629	1.7942191	1.3394847
27.436611767973726	1.7825814	1.3351336
27.454653521681404	1.8274457	1.3518305
27.472695969306564	1.8245128	1.3507453
27.490739111376627	1.819066	1.3487276
27.508782948419153	1.8156506	1.3474607
27.526827480961902	1.8405008	1.3566506
27.54487270953279	1.823656	1.3504281
27.562918634659898	1.8126277	1.3463386
27.580965256871508	1.8182411	1.3484217
27.599012576696026	1.7989602	1.3412533
27.617060594662068	1.775289	1.3323997
27.63510931129842	1.7506421	1.3231183
27.65315872713401	1.8235997	1.3504072
27.67120884269797	1.8489581	1.359764
27.68925965851958	1.8812556	1.3715887
27.707311175128307	1.9004424	1.3785653
27.725363393053787	1.8818746	1.3718144
27.74341631282583	1.8920553	1.37552
27.7614699349744	1.9281228	1.3885686
27.77952426002968	2.0551267	1.4335713
27.797579288521973	2.1133742	1.4537449
27.815635020981784	2.424601	1.557113
27.83369145793979	2.5090048	1.5839839
27.85174859992682	2.3783524	1.5421908
27.869806447473923	2.271138	1.5070295
27.887865001112267	1.9975665	1.413353
27.905924261373233	1.8820615	1.3718824
27.92398422878836	1.8217874	1.349736
27.94204490388936	1.8227357	1.3500873
27.96010628720813	1.8122742	1.3462074
27.978168379276728	1.8705122	1.3676667
27.9962311806274	1.9239432	1.3870628
28.014294691792568	1.9363148	1.3915153
28.0323589133048	1.8837799	1.3725086
28.050423845696887	1.8214157	1.3495983
28.068489489501758	1.8118004	1.3460313
28.086555845252523	1.8904922	1.3749517
28.104622913482487	1.9366019	1.3916185
28.122690694725115	1.9227518	1.3866333
28.14075918951405	1.9249991	1.3874434
28.15882839838312	1.9394941	1.3926572
28.176898321866304	1.9283435	1.3886482
28.1949689604978	1.8992975	1.37815
28.213040314811945	1.8896652	1.374651
28.23111238534327	1.8540391	1.361631
28.249185172626493	1.8776647	1.3702791
28.267258677196473	1.9514986	1.3969605
28.285332899588294	1.9805675	1.4073263
28.303407840337172	1.928597	1.3887393
28.321483499978545	1.8977032	1.3775715
28.33955987904799	1.889675	1.3746545
28.357636978081285	1.9086856	1.3815519
28.37571479761439	1.9146725	1.383717
28.393793338183425	1.9313152	1.3897177
28.41187260032469	1.9594383	1.3997993
28.429952584574686	1.9627179	1.4009703
28.448033291470065	1.9545673	1.3980584
28.46611472154769	1.951164	1.3968407
28.484196875344566	1.9717569	1.4041927
28.502279753397914	2.0531678	1.4328879
28.52036335624511	2.039982	1.4282794
28.538447684423716	2.0156753	1.4197448
28.556532738471482	2.0054033	1.4161227
28.574618518926325	2.004485	1.4157983
28.59270502632635	1.9689679	1.4031992
28.61079226120985	1.9794255	1.4069206
28.628880224115274	2.0556052	1.4337382
28.646968915581287	2.0442572	1.4297752
28.66505833614671	2.0051818	1.4160445
28.68314848635055	1.9940357	1.4121033
28.701239366732004	2.0606093	1.4354823
28.71933097783044	2.073728	1.4400445
28.737423320185403	2.0773463	1.4413003
28.75551639433665	2.1109533	1.452912
28.773610200824074	2.1450992	1.4646157
28.791704740187793	2.0788276	1.441814
28.80980001296809	2.0522425	1.432565
28.827896019705413	2.1452367	1.4646627
28.845992760940433	2.2808206	1.5102386
28.86409023721397	2.279918	1.5099397
28.88218844906704	2.268372	1.5061116
28.900287397040845	2.2480273	1.4993423
28.918387081676755	2.2467728	1.4989239
28.936487503516343	2.2224607	1.490792
28.954588663101365	2.234876	1.4949502
28.97269056097374	2.2820656	1.5106508
28.990793197675597	2.3240132	1.5244714
29.00889657374923	2.34713	1.5320346
29.027000689737125	2.3465896	1.5318582
29.04510554618196	2.3349245	1.528046
29.06321114362659	2.401336	1.5496244
29.08131748261405	2.4495175	1.5650934
29.099424563687567	2.429859	1.5588005
29.11753238739057	2.469185	1.571364
29.13564095426663	2.5525126	1.5976585
29.15375026485954	2.5849602	1.6077812
29.171860319713275	2.5810535	1.6065657
29.18997111937199	2.6004272	1.612584
29.20808266438002	2.6732411	1.6350049
29.226194955281898	2.7684267	1.663859
29.244307992622335	2.8250709	1.6807947
29.26242177694624	2.850099	1.6882236
29.2805363087987	2.918194	1.7082722
29.29865158872498	2.87902	1.6967674
29.316767617270557	2.8664038	1.6930457
29.334884394981064	2.9204977	1.7089463
29.353001922402367	2.9925976	1.7299126
29.37112020008047	3.0407853	1.7437848
29.389239228561596	3.166366	1.7794286
29.407359008392152	3.3741505	1.836886
29.42547954011872	3.7813485	1.944569
29.44360082428809	4.359681	2.087985
29.46172286144722	5.322049	2.3069568
29.479845652143283	6.90485	2.6277082
29.497969196923606	9.180068	3.0298626
29.516093496335728	12.012994	3.4659767
29.5342185509274	14.975352	3.8698
29.55234436124651	17.656282	4.201938
29.570470927841175	19.273981	4.3902144
29.588598251259686	18.858137	4.3425956
29.60672633205055	17.139542	4.1399927
29.624855170762405	14.877623	3.8571522
29.642984767944146	12.060568	3.472833
29.66111512414481	9.161929	3.0268679
29.67924623991366	6.7068076	2.5897505
29.697378115800138	5.1349735	2.266048
29.71551075235387	4.2728186	2.0670798
29.733644150124675	3.8138957	1.9529198
29.751778309662576	3.5395617	1.8813723
29.769913231517766	3.4580123	1.8595731
29.78804891624066	3.4580233	1.8595761
29.806185364381818	3.4267974	1.8511611
29.82432257649206	3.3563235	1.8320272
29.842460553122333	3.3846276	1.8397357
29.86059929482382	3.3448062	1.8288811
29.878738802147872	3.2765381	1.810121
29.896879075646048	3.259682	1.8054589
29.915020115870114	3.2792494	1.8108698
29.933161923371976	3.2469203	1.8019212
29.951304498703777	3.252634	1.803506
29.969447842417857	3.3182454	1.8216052
29.987591955066733	3.3469906	1.8294783
30.005736837203123	3.2189875	1.7941537
30.023882489379943	3.1801007	1.7832837
30.04202891215028	3.2168708	1.7935637
30.060176106067455	3.2026503	1.789595
30.078324071684946	3.117766	1.7657197
30.09647280955646	3.0968173	1.7597777
30.114622320235863	3.102135	1.7612878
30.132772604277257	3.1118143	1.7640336
30.1509236622349	3.1295037	1.7690403
30.16907549466328	3.1222024	1.7669755
30.18722810211705	3.0242405	1.7390344
30.205381485151097	3.0636299	1.7503228
30.22353564432045	3.037856	1.7429447
30.241690580180403	2.9981825	1.731526
30.25984629328638	3.0049522	1.7334797
30.278002784194037	2.9795165	1.7261276
30.296160053459246	2.9882522	1.7286562
30.314318101638033	2.960657	1.7206559
30.332476929286646	2.9213076	1.7091833
30.35063653696153	2.921742	1.7093104
30.368796925219307	2.8701613	1.6941551
30.386958094616844	2.8244534	1.680611
30.40512004571115	2.8496442	1.6880889
30.423282779059463	2.8550801	1.6896982
30.441446295219233	2.8697634	1.6940376
30.459610594748067	2.8534245	1.6892083
30.47777567820382	2.825958	1.6810586
30.495941546144504	2.706865	1.6452553
30.51410819912835	2.6620653	1.6315837
30.532275637713795	2.7460246	1.6571133
30.55044386245946	2.8329875	1.6831481
30.56861287392416	2.8063717	1.6752229
30.586782672666956	2.7992454	1.6730945
30.604953259247047	2.785602	1.6690123
30.623124634223885	2.813036	1.6772108
30.641296798157075	2.8249888	1.6807703
30.659469751606462	2.8138084	1.677441
30.677643495132074	2.8187242	1.6789056
30.695818029294152	2.7161176	1.6480649
30.713993354653116	2.691294	1.6405164
30.73216947176962	2.6770713	1.6361759
30.75034638120448	2.6885924	1.6396928
30.768524083518756	2.7293484	1.652074
30.786702579273673	2.7397506	1.6552192
30.80488186903069	2.780939	1.6676148
30.82306195335144	2.983684	1.7273344
30.841242832797782	3.2368257	1.799118
30.85942450793176	3.514595	1.8747253
30.877606979315637	3.9198012	1.9798487
30.895790247511883	4.2950807	2.0724576
30.913974313083134	4.709772	2.1702008
30.932159176592283	5.015818	2.2396023
30.95034483860237	5.006659	2.2375565
30.968531299676698	4.811969	2.19362
30.98671856037873	4.523759	2.126913
31.00490662127215	4.07235	2.0180066
31.023095482920848	3.6020787	1.8979143
31.04128514588892	3.1384819	1.771576
31.059475610740662	2.823387	1.6802937
31.07766687804056	2.5842483	1.6075597
31.09585894835335	2.4666376	1.5705533
31.11405182224393	2.4241664	1.5569735
31.132245500277417	2.4448013	1.563586
31.15043998301914	2.514239	1.5856352
31.168635271034628	2.5542872	1.5982138
31.18683136488964	2.512194	1.5849901
31.20502826515008	2.4242651	1.5570052
31.223225972382135	2.4133837	1.553507
31.241424487152155	2.4043243	1.5505884
31.259623810026692	2.368759	1.5390773
31.27782394157253	2.345447	1.5314852
31.296024882356644	2.3594735	1.5360577
31.314226632946237	2.3968072	1.5481626
31.332429193908684	2.4583821	1.5679228
31.350632565811598	2.4520137	1.5658907
31.368836749222787	2.4180372	1.5550039
31.387041744710295	2.3813775	1.5431713
31.40524755284232	2.4309945	1.5591646
31.423454174187317	2.4468946	1.5642554
31.441661609313922	2.4154556	1.5541736
31.459869858791002	2.3781178	1.5421147
31.478078923187628	2.4142253	1.5537778
31.496288803073064	2.4227293	1.5565119
31.514499499016807	2.3901744	1.5460188
31.532711011588546	2.4420948	1.5627203
31.550923341358178	2.464411	1.5698442
31.56913648889584	2.4096134	1.552293
31.587350454771844	2.3633432	1.5373169
31.605565239556732	2.330949	1.5267446
31.62378084382127	2.2834508	1.5111091
31.641997268136382	2.3035612	1.5177487
31.660214513073274	2.2654366	1.5051367
31.67843257920331	2.219698	1.4898651
31.6966514670981	2.254147	1.5013818
31.71487117732944	2.3004255	1.5167154
31.733091710469346	2.3144715	1.5213387
31.751313067090052	2.2630372	1.5043395
31.769535247764008	2.2771137	1.5090108
31.787758253063878	2.303924	1.5178683
31.805982083562526	2.3522937	1.533719
31.824206739833024	2.290953	1.5135894
31.84243222244869	2.265548	1.5051737
31.860658531983013	2.273041	1.5076607
31.878885669009737	2.2320411	1.4940017
31.897113634102784	2.173267	1.4742004
31.91534242783632	2.1933792	1.4810061
31.933572050784694	2.1812077	1.4768912
31.951802503522508	2.2267365	1.4922254
31.970033786624548	2.2497525	1.4999175
31.988265900665834	2.2285275	1.4928254
32.006498846221575	2.2264125	1.4921168
32.02473262386724	2.2196095	1.4898354
32.04296723417845	2.2145593	1.4881395
32.0612026777311	2.2250867	1.4916724
32.07943895510129	2.1654894	1.4715602
32.097676066865304	2.047571	1.4309336
32.115914013599685	2.0775898	1.4413847
32.13415279588115	2.0528555	1.432779
32.152392414286666	2.0814092	1.442709
32.1706328693934	2.121223	1.4564419
32.18887416177875	2.182577	1.4773546
32.20711629202032	2.2222302	1.4907147
32.225359260695924	2.2380238	1.4960026
32.243603068383614	2.1761494	1.4751778
32.26184771566166	2.1041803	1.4505793
32.28009320310852	2.1298327	1.4593947
32.2983395313029	2.1540189	1.4676576
32.31658670082372	2.175167	1.4748448
32.33483471225012	2.1379988	1.4621898
32.35308356616143	2.1783936	1.4759382
32.371333263137245	2.1582863	1.4691107
32.38958380375734	2.0996969	1.4490331
32.407835188601744	1.9680908	1.4028866
32.42608741825067	1.9476744	1.395591
32.444340493284585	1.9598255	1.3999376
32.46259441428416	2.068742	1.4383122
32.48084918183028	2.0810392	1.4425807
32.49910479650405	2.092513	1.4465522
32.51736125888683	2.1080792	1.4519225
32.53561856956014	2.0876286	1.4448628
32.5538767291058	2.0627975	1.4362442
32.572135738105764	2.0551887	1.4335929
32.59039559714228	2.0636835	1.4365526
32.608656306797776	2.1042264	1.4505951
32.62691786765491	2.0737643	1.440057
32.645180280296586	2.0459516	1.4303676
32.663443545305896	2.0425339	1.4291724
32.68170766326619	2.0836692	1.443492
32.69997263476099	2.130403	1.4595901
32.7182384603741	2.1137495	1.453874
32.7365051406895	2.0097506	1.4176568
32.75477267629144	1.9669125	1.4024665
32.77304106776434	1.9700156	1.4035724
32.79131031569289	1.9821377	1.4078841
32.809580420661966	1.9975429	1.4133446
32.827851383256714	2.0617287	1.4358721
32.84612320406245	2.0339527	1.4261671
32.86439588366476	2.0135522	1.4189969
32.88266942264945	1.9820377	1.4078486
32.9009438216025	1.9408122	1.3931304
32.9192190811102	1.8861401	1.3733681
32.937495201758985	1.887388	1.3738225
32.95577218413556	1.9757173	1.4056021
32.974050028826866	2.087212	1.4447187
32.992328736420035	2.037882	1.4275441
33.010608307502444	1.984321	1.4086593
33.02888874266169	1.9066532	1.3808161
33.047170042485604	1.8751602	1.3693649
33.06545220756225	1.8747555	1.3692172
33.083735238479896	1.8489583	1.3597641
33.10201913582707	1.7739474	1.3318962
33.12030390019248	1.8153161	1.3473366
33.138589532165135	1.82173	1.3497148
33.15687603233419	1.8225279	1.3500103
33.17516340128909	1.8798838	1.3710885
33.19345163961947	1.916056	1.3842168
33.211740747915215	1.903779	1.379775
33.23003072676643	1.9203262	1.3857584
33.248321576763466	1.9378783	1.392077
33.266613298496885	1.9504724	1.3965931
33.28490589255747	1.9379011	1.3920852
33.30319935953626	1.8873932	1.3738244
33.32149370002451	1.9274484	1.3883258
33.339788914613706	2.0337305	1.4260893
33.358085003895575	2.049646	1.4316584
33.376381968462034	1.9830103	1.408194
33.39467980890529	1.9110389	1.3824033
33.41297852581774	1.8509718	1.3605043
33.43127811979204	1.8436725	1.3578191
33.44957859142105	1.8762332	1.3697566
33.467879941297866	1.9485437	1.3959025
33.486182170015844	1.9667048	1.4023925
33.50448527816853	1.9208242	1.385938
33.522789266349754	1.9485173	1.395893
33.541094135153514	1.9785271	1.4066012
33.55939988517411	1.9645677	1.4016304
33.57770651700602	1.9726784	1.4045208
33.59601403124398	1.9312154	1.3896818
33.61432242848296	1.8533927	1.3613937
33.632631709318154	1.7770982	1.3330785
33.650941874344994	1.7676936	1.3295465
33.66925292415916	1.8516215	1.360743
33.68756485935654	1.9015911	1.378982
33.70587768053328	1.9653199	1.4018986
33.724191388285746	1.9721853	1.4043452
33.74250598321054	1.9550977	1.3982481
33.760821465904506	1.9074715	1.3811125
33.77913783696474	1.897045	1.3773326
33.79745509698852	1.8447657	1.3582215
33.815773246573414	1.8575107	1.3629053
33.8340922863172	1.8899175	1.3747427
33.852412216817896	1.9783032	1.4065217
33.87073303867377	1.93989	1.3927994
33.889054752483304	1.9072766	1.3810419
33.907377358845245	1.9088919	1.3816266
33.92570085835853	1.9456233	1.394856
33.94402525162239	1.9285928	1.3887378
33.96235053923627	1.8753297	1.3694268
33.980676721799824	1.9755589	1.4055457
33.999003799912984	1.9540123	1.3978599
34.01733177417592	1.9419706	1.3935461
34.03566064518901	1.9739172	1.4049617
34.0539904135529	1.9377912	1.3920457
34.07232107986846	1.8813318	1.3716165
34.090652644736785	1.8738436	1.3688841
34.108985108759235	1.9641486	1.4014809
34.12731847253742	1.9745775	1.4051967
34.14565273667313	1.8618453	1.3644946
34.16398790176847	1.7986482	1.3411369
34.18232396842574	1.8081775	1.3446848
34.20066093724749	1.8119156	1.3460741
34.21899880883651	1.7815686	1.3347541
34.23733758379583	1.8051635	1.3435637
34.25567726272874	1.9808482	1.4074261
34.27401784623872	1.9617774	1.4006346
34.29235933492957	1.9041431	1.3799069
34.31070172940526	1.9418505	1.393503
34.32904503027003	1.9790533	1.4067882
34.347389238128386	1.9053273	1.3803359
34.36573435358502	1.886571	1.373525
34.38408037724492	1.8763516	1.3697999
34.402427309713296	1.9517854	1.3970631
34.42077515159559	1.9394797	1.392652
34.43912390349752	1.9769686	1.4060472
34.45747356602499	2.0528061	1.4327617
34.47582413978423	1.9326394	1.390194
34.49417562538163	1.8129703	1.3464658
34.51252802342388	1.7739072	1.331881
34.53088133451789	1.9624791	1.4008851
34.54923555927084	2.0986085	1.4486575
34.567590698290104	2.117063	1.455013
34.58594675218336	2.066087	1.4373889
34.6043037215585	2.0057323	1.4162388
34.62266160702365	2.0382304	1.4276661
34.641020409187234	1.9961046	1.4128357
34.65938012865785	2.0595288	1.4351058
34.677740766044394	2.1286154	1.4589775
34.69610232195598	2.1670723	1.4720979
34.714464797002016	2.1334207	1.4606234
34.73282819179208	2.112098	1.4533058
34.751192506936064	2.2157183	1.4885288
34.76955774304408	2.237324	1.4957687
34.7879239007265	2.0725446	1.4396335
34.80629098059391	1.9648913	1.4017458
34.824658983257194	2.097382	1.4482341
34.843027909327446	2.0619206	1.435939
34.86139775941603	2.0864189	1.4444442
34.879768534134534	2.1326737	1.4603677
34.89814023409483	2.147295	1.4653652
34.91651285990901	2.007779	1.4169612
34.93488641218944	1.879968	1.3711193
34.95326089154871	1.9397658	1.3927548
34.97163629859967	2.0114672	1.418262
34.99001263395542	1.9444917	1.3944503
35.00838989822934	1.7387401	1.3186129
35.02676809203499	1.6455213	1.2827787
35.04514721598624	1.8572041	1.3627927
35.063527270697215	1.9714288	1.4040757
35.081908256782256	1.8733741	1.3687125
35.10029017485597	1.9117066	1.3826448
35.11867302553321	2.1114826	1.4530941
35.137056809429104	2.1996226	1.4831125
35.155441527159006	2.2963164	1.5153601
35.173827179338524	2.1059062	1.4511741
35.19221376658354	1.9662877	1.4022439
35.21060128951017	1.9351745	1.3911055
35.2289897487348	2.0777225	1.4414307
35.24737914487405	2.059609	1.4351338
35.26576947854479	2.0151448	1.4195579
35.28416075036418	1.9035922	1.3797073
35.30255296094958	1.7966113	1.3403773
35.32094611091867	1.7881966	1.3372346
35.33934020088932	1.986552	1.409451
35.35773523147969	1.9277956	1.3884509
35.3761312033082	1.891164	1.375196
35.394528116993506	1.9748093	1.405279
35.41292597315452	2.192591	1.48074
35.431324772410434	2.3502748	1.5330606
35.449724515380666	2.2382653	1.4960833
35.46812520268491	1.9918575	1.4113318
35.486526834943106	1.7896602	1.3377818
35.504929412775454	1.8658289	1.3659534
35.52333293680242	1.7228819	1.312586
35.54173740764471	2.0347543	1.4264481
35.560142825923286	2.6580765	1.6303608
35.5785491922594	2.392636	1.5468148
35.59695650727454	1.578435	1.2563578
35.61536477159042	0.6898081	0.83054686
