0.008763373481513119	0.9483193	0.9738169
0.026290120649546365	0.5570174	0.746336
0.043816868432600686	0.34267876	0.5853877
0.06134361724069026	0.09818891	0.3133511
0.07887036748382949	0.06291249	0.25082362
0.0963971195720331	0.10266084	0.3204073
0.11392387391531617	0.18069626	0.42508385
0.1314506309236943	0.15956855	0.39946032
0.1489773910071836	0.10665417	0.32657948
0.16650415457580078	0.023533704	0.153407
0.18403092203956356	0.027379757	0.16546829
0.20155769380849	0.049347464	0.22214289
0.2190844702925996	0.07027011	0.2650851
0.2366112519019124	0.109255046	0.3305375
0.2541380390464497	0.08343398	0.2888494
0.27166483213623416	0.11588664	0.34042126
0.28919163158128947	0.11502	0.339146
0.3067184377916406	0.14437847	0.37997165
0.324245251177314	0.14617877	0.3823333
0.34177207214833777	0.15071686	0.3882227
0.3592989011147415	0.1527893	0.3908827
0.37682573848655654	0.146559	0.38283026
0.39435258467381573	0.124810845	0.3532858
0.41187944008655414	0.15363228	0.39195955
0.42940630513480854	0.16839473	0.41035926
0.446933180228618	0.18998702	0.435875
0.4644600657780234	0.18706974	0.4325156
0.48198696219306775	0.19330381	0.4396633
0.49951386988379676	0.16238865	0.40297475
0.5170407892602581	0.16467465	0.40580124
0.5345677207325025	0.13029484	0.36096376
0.5520946647105822	0.111511596	0.33393353
0.5696216216045534	0.0895938	0.29932222
0.5871485918244737	0.09783547	0.31278664
0.6046755757804043	0.10235309	0.31992668
0.6222025738824094	0.104630515	0.3234664
0.6397295865405557	0.099604696	0.31560212
0.6572566141649129	0.13052297	0.36127964
0.6747836571655547	0.16900024	0.4110964
0.6923107159525568	0.17445558	0.4176788
0.7098377909359992	0.1518216	0.38964292
0.7273648825259653	0.17418185	0.41735098
0.7448919911325411	0.2000749	0.44729733
0.762419117165817	0.25033715	0.50033706
0.7799462610358868	0.22773625	0.4772172
0.7974734231528482	0.2287239	0.47825086
0.8150006039268024	0.1976883	0.44462153
0.8325278037678551	0.22260366	0.47180894
0.8500550230861152	0.2354208	0.4852018
0.8675822622916969	0.23017924	0.47976997
0.8851095217947171	0.24250852	0.49245155
0.9026368020052984	0.25727057	0.5072185
0.9201641033335665	0.2562883	0.50624925
0.9376914261896523	0.26572165	0.51548195
0.9552187709836915	0.22335787	0.47260752
0.9727461381258234	0.21999207	0.46903312
0.990273528026193	0.24787022	0.49786568
1.0078009410949496	0.28785497	0.5365212
1.0253283777422473	0.30435646	0.5516851
1.0428558383782454	0.2931379	0.5414221
1.0603833234131086	0.27026168	0.519867
1.0779108332570058	0.28831652	0.5369511
1.0954383683201119	0.3000416	0.54776055
1.112965929012607	0.35916007	0.59929967
1.1304935157446763	0.5115671	0.7152392
1.1480211289265108	0.54455954	0.73794276
1.1655487689683062	1.3509609	1.1623085
1.1830764362802655	1.591724	1.2616354
1.200604131272596	2.0483415	1.4312028
1.2181318543555117	2.5044281	1.5825385
1.235659605939232	2.5697834	1.6030544
1.253187386433982	4.1199327	2.0297618
1.270715196249994	6.320706	2.5141015
1.2882430357975057	11.666672	3.415651
1.3057709054867608	16.30708	4.0382023
1.3232988057280106	21.983158	4.68862
1.3408267369315112	26.75162	5.172197
1.358354699507526	30.593008	5.5310946
1.3758826938663256	34.663586	5.887579
1.3934107204181858	36.860992	6.0713253
1.410938779573391	37.3053	6.1078067
1.4284668717422309	37.8133	6.149252
1.4459949973350033	37.377422	6.1137075
1.4635231567620117	37.597527	6.1316824
1.4810513504335687	36.839275	6.0695367
1.4985795787599925	35.867374	5.988938
1.5161078421516088	35.24434	5.936694
1.5336361410187505	34.24499	5.851922
1.5511644757717598	34.347588	5.8606815
1.5686928468209842	35.443127	5.953413
1.58622125457678	36.075356	6.006276
1.6037496994495108	37.534985	6.12658
1.621278181849548	37.512115	6.1247134
1.6388067021872719	38.10455	6.1728883
1.6563352608730693	37.432076	6.118176
1.673863858317336	36.719887	6.059694
1.6913924949304753	35.742313	5.9784875
1.7089211711228998	34.805214	5.8995943
1.7264498873050296	33.636005	5.7996554
1.7439786438872935	32.571056	5.7071056
1.7615074412801288	31.809912	5.6400275
1.779036279893981	31.512144	5.613568
1.796565160139305	30.880684	5.5570393
1.814094082426564	30.067394	5.483374
1.8316230471662298	29.146955	5.3987923
1.849152054768784	28.045736	5.2958226
1.8666811056447168	27.59344	5.252946
1.8842102002045273	27.064848	5.202389
1.901739338858724	26.698307	5.1670403
1.9192685220178245	26.310051	5.1293325
1.9367977500923557	25.452452	5.0450425
1.9543270234928547	24.63357	4.9632215
1.971856342629867	23.83561	4.8821726
1.9893857079139496	23.389626	4.8362823
2.006915119755667	22.919249	4.787405
2.0244445785655945	22.35803	4.728428
2.0419740847543175	21.889036	4.678572
2.0595036387324317	21.674763	4.6556163
2.0770332409105414	21.199875	4.604332
2.094562891699263	20.890333	4.5705943
2.1120925915092217	20.10431	4.483783
2.129622340751053	19.747252	4.443788
2.1471521398354043	187.97809	13.71051
2.1646819891729323	444.32492	21.079016
2.182211889174303	440.52484	20.988684
2.1997418402501974	452.77606	21.278536
2.2172718428113023	432.7943	20.803709
2.234801897268317	320.95944	17.91534
2.2523320040319548	17.310957	4.1606436
2.269862163512935	16.737268	4.0911207
2.287392376121992	16.207722	4.0258813
2.304922642269869	16.074833	4.009343
2.322452962367322	15.863572	3.98291
2.3399833368251164	15.633897	3.9539723
2.357513766054032	15.437699	3.9290838
2.3750442504648586	15.130703	3.8898203
2.3925747904683963	15.00809	3.8740277
2.410105386475459	14.872803	3.8565273
2.4276360388968707	14.560418	3.8158116
2.445166748143469	14.270941	3.77769
2.4626975146261025	13.940198	3.7336574
2.4802283387556323	13.757623	3.709127
2.4977592209429305	13.5618925	3.6826475
2.5152901615988825	13.206261	3.634042
2.5328211611343865	12.865166	3.5868044
2.5503522199603523	12.524926	3.5390573
2.5678833384877024	12.338317	3.512594
2.5854145171273712	12.268961	3.5027077
2.6029457562903064	12.242732	3.4989614
2.620477056387469	12.160818	3.4872365
2.6380084178298326	12.088405	3.4768384
2.655539841028383	11.74852	3.4276114
2.673071326394119	11.403048	3.3768399
2.6906028743380523	11.105507	3.3324926
2.708134485271211	11.108767	3.3329816
2.7256661596046325	10.972594	3.3124907
2.743197897749369	10.867207	3.2965446
2.760729700116486	10.599922	3.255752
2.778261567117063	10.315982	3.2118502
2.795793499162193	10.240202	3.2000315
2.8133254966629817	10.104653	3.1787817
2.830857560030551	10.006887	3.1633666
2.8483896896760337	9.7793	3.1271873
2.865921886010578	9.608914	3.099825
2.883454149445347	9.461513	3.075957
2.9009864803915177	9.451929	3.074399
2.91851887926028	9.443927	3.0730972
2.9360513464628384	9.243295	3.0402787
2.953583882410413	9.105563	3.0175426
2.9711164875142373	9.003775	3.000629
2.9886491621855606	8.895904	2.9826002
3.0061819068356455	8.864253	2.9772894
3.023714721875769	8.704395	2.9503212
3.041247607717225	8.452629	2.9073405
3.0587805647713213	8.249105	2.8721256
3.0763135934493806	8.107774	2.8474152
3.0938466941627407	8.096689	2.8454683
3.1113798673227544	8.209077	2.8651488
3.1289131133407904	8.183027	2.860599
3.1464464326282315	8.080565	2.8426335
3.1639798255964786	7.897643	2.8102746
3.1815132926569443	7.7425227	2.782539
3.1990468342210603	7.568687	2.7511246
3.216580450700272	7.561166	2.7497575
3.2341141425060416	7.466483	2.7324867
3.251647910049847	7.5103836	2.7405078
3.2691817537431813	7.434105	2.7265556
3.286715673997555	7.340046	2.7092519
3.3042496712244938	7.2393436	2.6906028
3.32178374583554	7.035915	2.65253
3.339317898242251	6.932705	2.633003
3.3568521288562034	6.8062325	2.6088758
3.3743864380889876	6.728591	2.5939527
3.3919208263522127	6.759206	2.5998473
3.4094552940575023	6.764867	2.6009357
3.4269898416164972	6.7786083	2.6035762
3.444524469440858	6.680792	2.5847228
3.4620591779422587	6.6215353	2.5732343
3.479593967532391	6.5467534	2.5586624
3.4971288386229658	6.515689	2.5525846
3.5146637916257086	6.393056	2.5284493
3.5321988269523628	6.4536724	2.540408
3.5497339450146903	6.4151583	2.5328162
3.5672691462244708	6.3696404	2.5238147
3.5848044309934988	6.234327	2.4968634
3.60233979973359	6.248996	2.4997993
3.619875252856575	6.275285	2.5050519
3.6374107907743034	6.310862	2.512143
3.6549464138986427	6.3452306	2.518974
3.6724821226414788	6.4253297	2.5348234
3.690017917414714	6.4839754	2.546365
3.7075537986302702	6.491103	2.5477643
3.7250897667000857	6.5924764	2.567582
3.7426258220361235	6.7861753	2.6050289
3.7601619650503553	6.9567657	2.6375682
3.777698196154779	7.325571	2.7065792
3.7952345157614067	8.341948	2.888243
3.8127709242822716	9.271207	3.0448656
3.830307422129425	11.521964	3.3944018
3.847844009714936	30.287596	5.5034165
3.8653806874508954	97.79702	9.889237
3.882917455749409	97.00813	9.849271
3.900454315022606	96.87044	9.8422785
3.917991265682631	41.413746	6.4353514
3.9355283081416506	11.186731	3.3446572
3.9530654428118495	8.962311	2.993712
3.970602670105433	7.6798196	2.7712488
3.9881399904346244	6.664104	2.5814927
4.005677404211669	6.515674	2.5525818
4.023214911848827	6.4326415	2.5362654
4.0407525137583855	6.394503	2.5287354
4.058290210352644	6.496185	2.5487614
4.075828002043927	6.406936	2.5311925
4.0933658892445814	6.433051	2.536346
4.110903872366966	6.311665	2.5123026
4.128441951823468	6.198462	2.489671
4.145980128026488	6.214108	2.4928112
4.163518401388452	6.300056	2.5099912
4.181056772321807	6.2478256	2.4995651
4.1985952412390155	6.2138658	2.4927626
4.216133808552567	6.157606	2.4814525
4.233672474674966	6.204977	2.4909792
4.251211240018741	6.4679003	2.5432067
4.268750104996445	6.655667	2.5798578
4.286289070020643	7.5556703	2.7487578
4.303828135503928	9.183531	3.0304341
4.3213673018589125	29.493263	5.43077
4.3389065694982305	90.672485	9.52221
4.356445938834537	165.91928	12.880966
4.3739854102805085	171.75668	13.1055975
4.391524984248844	172.7334	13.142808
4.409064661152262	137.00609	11.70496
4.426604441403504	97.195755	9.85879
4.444144325415337	76.23239	8.731116
4.461684313600543	22.127644	4.704003
4.47922440637193	22.205826	4.712306
4.496764604142329	20.346514	4.510711
4.5143049073245916	18.511293	4.3024755
4.531845316331589	16.526081	4.0652285
4.5493858315762195	13.926152	3.731776
4.566926453471405	11.497626	3.390815
4.584467182430081	9.425233	3.0700543
4.602008018865218	8.223044	2.8675852
4.619548963189798	7.651393	2.7661152
4.637090015816834	7.117199	2.6678078
4.654631177159353	6.861396	2.6194267
4.672172447630417	6.518568	2.5531487
4.689713827643102	6.3380175	2.517542
4.7072553176105085	6.0935717	2.468516
4.724796917945764	5.9429755	2.4378219
4.742338629062015	5.891555	2.4272525
4.759880451372434	5.877452	2.4243457
4.777422385290215	5.807545	2.409885
4.794964431228581	5.65248	2.3774946
4.812506589600768	5.653409	2.3776898
4.830048860820047	5.651971	2.3773873
4.847591245299709	5.677084	2.3826632
4.8651337434530655	5.6188426	2.3704097
4.882676355693457	5.6050878	2.3675067
4.900219082434242	5.623999	2.3714972
4.917761924088813	5.569715	2.3600245
4.935304881070575	5.5851474	2.3632917
4.952847953792969	5.600902	2.3666224
4.970391142669449	5.6542993	2.377877
4.9879344481135055	5.5892587	2.3641613
5.005477870538642	5.54054	2.353835
5.023021410358394	5.576523	2.3614662
5.040565067986324	5.625582	2.371831
5.05810884383601	5.5949492	2.3653646
5.075652738321066	5.477699	2.3404484
5.09319675185512	5.419539	2.3279903
5.110740884851836	5.3892894	2.3214843
5.128285137724894	5.3430014	2.3114934
5.145829510888007	5.2686057	2.2953444
5.163374004754908	5.243543	2.2898784
5.1809186197393595	5.292711	2.3005893
5.198463356255145	5.371661	2.3176844
5.216008214716077	5.3923717	2.322148
5.233553195535998	5.3344736	2.309648
5.251098299128764	5.310942	2.3045483
5.268643525908272	5.296236	2.3013554
5.286188876288432	5.2228694	2.2853599
5.3037343506831895	5.2343354	2.287867
5.32127994950651	5.2468305	2.290596
5.3388256731723915	5.2573104	2.2928824
5.356371522094851	5.310617	2.3044777
5.373917496687938	5.282995	2.2984767
5.391463597365729	5.2437034	2.2899134
5.40900982454232	5.168936	2.2735293
5.426556178631843	5.1534534	2.2701218
5.444102660048449	5.103807	2.2591608
5.4616492692063225	5.1439066	2.2680182
5.479196006519669	5.2389374	2.2888725
5.496742872402727	5.308946	2.304115
5.514289867269756	5.2524962	2.2918324
5.531836991535049	5.1299677	2.2649431
5.549384245612924	5.0702367	2.2517185
5.566931629917724	5.1056366	2.2595656
5.584479144863822	5.0997076	2.2582533
5.6020267908656205	5.1713624	2.2740629
5.619574568337545	5.2177997	2.2842503
5.637122477694054	5.264278	2.2944014
5.654670519349629	5.189829	2.2781196
5.672218693718784	5.119847	2.262708
5.689767001216059	5.068536	2.2513409
5.707315442256021	5.0618377	2.249853
5.724864017253266	5.1391788	2.2669756
5.7424127266224225	5.151144	2.2696133
5.75996157077814	5.1519504	2.269791
5.777510550135105	5.1473503	2.2687774
5.795059665108022	5.2024007	2.280877
5.812608916111639	5.308764	2.3040755
5.830158303560715	5.4116664	2.326299
5.847707827870055	5.4284396	2.3299012
5.86525748945448	5.4419065	2.3327894
5.8828072887288485	5.5391903	2.3535485
5.900357226108044	5.626874	2.3721032
5.917907302006979	5.70439	2.3883865
5.9354575168406	6.326948	2.5153425
5.9530078710238765	6.873528	2.6217413
5.970558364971812	7.410721	2.7222638
5.988108999099438	7.728292	2.7799807
6.005659773821818	8.161914	2.8569064
6.023210689554039	7.791612	2.7913458
6.040761746711227	8.206631	2.8647218
6.058312945708531	7.706058	2.7759788
6.075864286961132	7.33666	2.708627
6.093415770884244	6.742748	2.5966802
6.1109673978931065	6.1944695	2.4888692
6.128519168402993	5.5897408	2.3642633
6.146071082829204	5.452134	2.3349805
6.163623141587075	5.297382	2.3016043
6.181175345091969	5.246797	2.2905889
6.198727693759281	5.2592525	2.293306
6.216280188004435	5.248357	2.2909293
6.233832828242885	5.26023	2.2935193
6.251385614890126	5.24768	2.2907815
6.268938548361669	5.25936	2.2933295
6.286491629073067	5.2542696	2.2922194
6.304044857439898	5.2042155	2.281275
6.321598233877777	5.066586	2.250908
6.339151758802344	4.9866323	2.2330768
6.356705432629277	4.9400434	2.222621
6.37425925577428	4.9653196	2.2282996
6.391813228653095	4.9976044	2.2355323
6.409367351681486	5.075156	2.2528107
6.426921625275259	5.064681	2.2504847
6.44447604985025	5.027393	2.2421849
6.46203062582232	4.974643	2.2303908
6.47958535360737	4.9981422	2.2356524
6.497140233621328	4.993499	2.234614
6.514695266280161	4.992372	2.2343616
6.532250451999859	5.019431	2.2404087
6.549805791196454	5.0293837	2.2426288
6.567361284286002	5.0285363	2.2424397
6.584916931684597	5.0098267	2.2382643
6.602472733808367	4.9902563	2.2338881
6.6200286910734665	4.9803896	2.2316787
6.637584803896092	5.0653734	2.2506385
6.655141072692462	5.1301246	2.264978
6.672697497878842	5.139931	2.2671416
6.690254079871514	5.0511675	2.2474802
6.707810819086808	4.921851	2.2185245
6.725367715941078	4.900357	2.213675
6.742924770850719	4.973536	2.2301426
6.760481984232151	5.0333166	2.2435055
6.778039356501836	5.0707135	2.2518244
6.795596888076266	5.025022	2.241656
6.813154579371963	4.962654	2.2277014
6.830712430805492	4.951023	2.2250896
6.84827044279344	4.9976387	2.23554
6.865828615752445	4.9903	2.233898
6.883386950099159	4.9726205	2.2299373
6.900945446250287	5.010407	2.2383938
6.918504104622553	5.000689	2.236222
6.936062925632727	4.9944654	2.2348301
6.953621909697607	4.966947	2.2286649
6.971181057234028	5.0344167	2.2437506
6.988740368658859	5.1431146	2.2678435
7.006299844389007	5.2529354	2.2919283
7.023859484841407	5.314117	2.3052368
7.041419290433036	5.3897667	2.321587
7.058979261580902	5.535482	2.3527606
7.0765393987020495	5.7653103	2.401106
7.094099702213559	6.1188273	2.4736264
7.111660172532549	6.490079	2.5475633
7.129220810076164	6.788732	2.6055195
7.146781615261595	7.381305	2.7168558
7.16434258850606	7.6020145	2.7571752
7.181903730226821	8.067326	2.840304
7.1994650408411704	8.200748	2.863695
7.217026520766437	8.322944	2.8849514
7.234588170419983	8.524861	2.9197366
7.252149990219215	8.445451	2.9061058
7.269711980581568	8.347445	2.8891945
7.2872741419245175	8.16208	2.8569355
7.304836474665574	7.7174315	2.7780266
7.322398979222286	7.354122	2.7118485
7.339961656012233	7.081302	2.6610715
7.357524505453039	6.878621	2.6227126
7.375087527962357	6.6667657	2.5820081
7.392650723957886	6.390947	2.5280323
7.410214093857353	5.938438	2.436891
7.427777638078528	5.697308	2.3869035
7.445341357039213	5.5715013	2.3604028
7.4629052511572525	5.398436	2.3234534
7.480469320850524	5.3516536	2.313364
7.498033566536948	5.288174	2.299603
7.5155979886344735	5.271113	2.2958903
7.5331625875610975	5.184552	2.276961
7.550727363734844	5.2176948	2.2842274
7.568292317573788	5.2444954	2.2900863
7.585857449496025	5.2549677	2.2923715
7.603422759919705	5.2018456	2.2807555
7.620988249263007	5.2007256	2.28051
7.638553917944147	5.2722187	2.2961311
7.656119766381391	5.279166	2.2976437
7.673685794993023	5.260356	2.2935467
7.691252004197388	5.226696	2.286197
7.70881839441285	5.2608666	2.293658
7.726384966057826	5.298876	2.3019288
7.743951719550762	5.3873496	2.3210664
7.761518655310149	5.4327226	2.33082
7.779085773754511	5.468733	2.3385322
7.796653075302419	5.3609076	2.3153634
7.814220560372475	5.3468494	2.3123255
7.831788229383323	5.2673526	2.2950714
7.8493560827536495	5.2641053	2.2943637
7.866924120902174	5.28585	2.2990978
7.884492344247663	5.367828	2.3168573
7.9020607532089135	5.3855286	2.3206742
7.919629348204771	5.4457107	2.3336046
7.937198129654115	5.368766	2.3170598
7.954767097975865	5.365634	2.3163838
7.972336253588986	5.38061	2.3196142
7.989905596912472	5.4285884	2.3299332
8.007475128365371	5.5203385	2.34954
8.025044848366756	5.506164	2.3465216
8.042614757335754	5.533478	2.3523345
8.060184855691523	5.5508237	2.3560185
8.07775514385327	5.704506	2.3884108
8.095325622240228	5.82533	2.413572
8.112896291271687	5.89281	2.427511
8.130467151366968	5.911982	2.4314568
8.148038202945436	5.9354053	2.4362688
8.165609446426497	5.957086	2.4407144
8.183180882229594	6.001069	2.449708
8.200752510774217	6.072516	2.4642475
8.218324332479893	6.058885	2.4614804
8.235896347766193	6.050615	2.4597998
8.253468557052724	6.009133	2.4513533
8.27104096075914	5.972179	2.4438043
8.288613559305137	6.0014358	2.4497828
8.306186353110448	6.082935	2.4663606
8.32375934259485	6.225965	2.4951885
8.341332528178162	6.371693	2.5242212
8.358905910280246	6.4170165	2.533183
8.376479489321003	6.312444	2.5124578
8.394053265720377	6.2641544	2.5028293
8.411627239898356	6.2163515	2.4932613
8.42920141227497	6.3152823	2.5130227
8.44677578327029	6.354367	2.520787
8.464350353304427	6.331505	2.5162482
8.48192512279754	6.2768316	2.5053606
8.499500092169827	6.2446713	2.498934
8.51707526184153	6.2264004	2.4952755
8.534650632232934	6.3209176	2.5141435
8.552226203764365	6.3387446	2.5176864
8.569801976856192	6.3071814	2.5114102
8.587377951928834	6.286547	2.5072987
8.60495412940274	6.345146	2.5189574
8.622530509698416	6.45527	2.5407224
8.6401070932364	6.5656776	2.562358
8.657683880437283	6.6668944	2.582033
8.675260871721695	6.8688936	2.6208575
8.692838067510303	7.0107713	2.6477861
8.710415468223834	7.1452413	2.6730585
8.727993074283043	7.202245	2.6836998
8.745570886108737	7.182783	2.6800716
8.763148904121765	7.225398	2.68801
8.78072712874302	7.22468	2.6878765
8.798305560393441	7.391405	2.7187138
8.815884199494006	7.5412397	2.7461317
8.833463046465745	7.6754165	2.7704542
8.851042101729728	7.875478	2.806328
8.86862136570707	8.143876	2.8537476
8.886200838818924	8.30507	2.881852
8.903780521486505	8.399991	2.8982737
8.921360414131055	8.514373	2.91794
8.938940517173874	8.660631	2.942895
8.956520831036297	8.745826	2.9573343
8.97410135613971	8.935675	2.98926
8.99168209290554	9.13643	3.0226529
9.009263041755265	9.414947	3.0683784
9.026844203110405	9.68966	3.1128218
9.044425577392525	9.843271	3.1373987
9.062007165023239	9.954315	3.155046
9.079588966424197	10.224534	3.1975825
9.097170982017108	10.402743	3.2253284
9.11475321222372	11.490638	3.3897843
9.132335657465825	12.407812	3.5224724
9.149918318165264	12.513207	3.5374012
9.167501194743924	13.0114355	3.6071367
9.18508428762374	12.670875	3.5596173
9.202667597226693	12.613574	3.5515594
9.220251123974803	12.255063	3.5007231
9.237834868290143	11.904809	3.4503345
9.255418830594836	11.675061	3.416879
9.273003011311046	11.128456	3.3359342
9.290587410860985	10.925343	3.3053505
9.308172029666911	10.273678	3.205258
9.32575686815113	10.029917	3.1670043
9.343341926735997	8.709667	2.9512146
9.360927205843916	8.646642	2.9405172
9.378512705897327	8.498143	2.9151576
9.396098427318728	8.244077	2.87125
9.413684370530664	8.075793	2.841794
9.431270535955722	7.952325	2.8199866
9.448856924016539	7.9002824	2.810744
9.466443535135806	7.7909813	2.7912328
9.484030369736251	7.8067956	2.7940643
9.501617428240658	7.804488	2.7936513
9.519204711071852	7.818576	2.7961717
9.536792218652714	7.8355637	2.7992077
9.55437995140617	7.851528	2.8020577
9.571967909755191	7.893823	2.8095949
9.589556094122802	7.9504857	2.8196607
9.60714450493207	7.97096	2.823289
9.624733142606116	7.9924345	2.8270893
9.642322007568108	8.012983	2.8307214
9.659911100241267	8.062298	2.8394186
9.677500421048851	8.102048	2.8464096
9.695089970414175	8.032134	2.834102
9.712679748760609	8.073442	2.8413804
9.730269756511557	8.111123	2.8480034
9.747859994090492	8.16196	2.8569143
9.765450461920915	8.297746	2.880581
9.78304116042639	8.308682	2.8824785
9.800632090030527	8.240919	2.8707001
9.81822325115699	8.12495	2.8504298
9.835814644229481	8.076188	2.8418634
9.853406269671762	8.184339	2.8608284
9.870998127907646	8.274014	2.8764586
9.888590219360985	8.373018	2.893617
9.906182544455698	8.396596	2.8976882
9.923775103615734	8.434251	2.9041781
9.941367897265108	8.417829	2.9013495
9.958960925827878	8.40325	2.898836
9.97655418972816	8.369123	2.8929436
9.994147689390106	8.401249	2.898491
10.011741425237934	8.377012	2.894307
10.029335397695904	8.343357	2.888487
10.04692960718833	8.328006	2.8858285
10.06452405413958	8.350801	2.8897753
10.082118738974064	8.376082	2.8941462
10.099713662116246	8.365633	2.8923404
10.117308823990651	8.332203	2.8865554
10.134904225021844	8.196239	2.8629074
10.152499865634445	8.147174	2.8543255
10.170095746253125	8.101397	2.846295
10.18769186730261	8.098241	2.8457408
10.205288229207675	8.12625	2.850658
10.222884832393145	8.157943	2.8562112
10.2404816772839	8.134554	2.852114
10.258078764304868	8.12888	2.851119
10.275676093881035	8.1460905	2.8541358
10.293273666437438	8.177699	2.8596675
10.310871482399158	8.175648	2.859309
10.32846954219134	8.07438	2.8415453
10.346067846239173	8.055854	2.8382835
10.363666394967908	8.124748	2.8503945
10.38126518880283	8.225338	2.867985
10.398864228169298	8.214333	2.8660657
10.416463513492713	8.140039	2.8530755
10.434063045198531	8.098948	2.845865
10.451662823712262	8.141803	2.8533845
10.469262849459467	8.171725	2.858623
10.486863122865758	8.075212	2.8416917
10.504463644356806	8.03996	2.8354824
10.522064414358338	8.001851	2.8287544
10.539665433296118	8.0358305	2.834754
10.557266701595987	8.022065	2.832325
10.574868219683818	7.9303045	2.8160796
10.592469987985552	7.7844596	2.7900643
10.610072006927185	7.621676	2.7607384
10.627674276934751	7.5579443	2.7491715
10.64527679843435	7.4701705	2.7331612
10.662879571852143	7.4314528	2.7260692
10.680482597614331	7.3087854	2.7034764
10.698085876147173	7.056703	2.6564455
10.715689407876988	6.930792	2.6326396
10.733293193230146	6.8126435	2.610104
10.750897232633072	6.758781	2.5997655
10.76850152651225	6.6507854	2.5789118
10.786106075294207	6.575032	2.5641825
10.803710879405534	6.503344	2.5501654
10.821315939272877	6.514393	2.552331
10.83892125532294	6.4828844	2.546151
10.856526827982472	6.4443946	2.5385811
10.874132657678285	6.389892	2.5278237
10.891738744837243	6.3266335	2.51528
10.909345089886271	6.2136126	2.4927118
10.926951693252343	6.131103	2.4761064
10.944558555362494	6.0833735	2.4664495
10.96216567664381	5.975354	2.4444537
10.979773057523436	5.898419	2.428666
10.997380698428573	5.780996	2.40437
11.014988599786477	5.762154	2.4004488
11.032596762024461	5.6661887	2.3803759
11.050205185569892	5.636008	2.3740277
11.067813870850198	5.601286	2.3667035
11.085422818292859	5.5549836	2.3569012
11.10303202832541	5.5002174	2.3452542
11.120641501375454	5.479516	2.3408365
11.138251237870636	5.4093876	2.325809
11.155861238238671	5.4046187	2.3247836
11.173471502907317	5.3155003	2.305537
11.191082032304402	5.252162	2.2917595
11.208692826857805	5.1908197	2.278337
11.226303886995465	5.041637	2.245359
11.243915213145371	4.9632664	2.227839
11.261526805735578	4.9292755	2.2201972
11.279138665194196	4.9068046	2.2151308
11.296750791949393	4.817824	2.1949542
11.314363186429393	4.7809258	2.1865327
11.331975849062479	4.777222	2.1856856
11.34958878027699	4.771882	2.1844637
11.36720198050133	4.651584	2.156753
11.384815450163948	4.547786	2.1325538
11.402429189693366	4.49562	2.1202877
11.420043199518153	4.5023985	2.1218855
11.437657480066942	63.516895	7.969749
11.455272031768422	85.241844	9.232651
11.472886855051353	107.66188	10.376024
11.490501950344528	99.22769	9.961309
11.508117318076819	84.57334	9.196377
11.52573295867715	45.939987	6.7779045
11.543348872574514	4.2228127	2.0549483
11.560965060197946	4.194422	2.0480287
11.57858152197655	4.158239	2.039176
11.59619825833949	4.118047	2.029297
11.613815269715985	4.046934	2.0116992
11.631432556535323	38.504143	6.2051706
11.649050119226837	82.98714	9.109728
11.666667958219929	93.38465	9.663573
11.68428607394406	107.70693	10.378195
11.701904466828756	82.538536	9.0850725
11.719523137303586	65.40197	8.087149
11.737142085798196	4.612995	2.1477885
11.754761312742286	3.7074301	1.9254688
11.772380818565619	3.6789587	1.9180611
11.790000603698015	3.6445656	1.9090745
11.80762066856935	3.6244476	1.9037982
11.825241013609572	3.6208897	1.9028635
11.842861639248683	3.5706127	1.8896065
11.860482545916748	3.4942315	1.8692863
11.878103734043883	3.4613986	1.8604834
11.895725204060282	3.4646692	1.8613622
11.91334695639619	3.4124622	1.8472852
11.930968991481919	3.4011838	1.8442299
11.948591309747824	3.3415189	1.8279822
11.966213911624347	3.3179412	1.8215216
11.98383679754198	3.3173485	1.8213589
12.001459967931268	3.3452287	1.8289967
12.019083423222835	3.3391078	1.8273226
12.036707163847352	3.2759268	1.8099521
12.05433119023556	3.1851745	1.7847058
12.071955502818259	3.1658094	1.7792722
12.089580102026313	3.1571367	1.7768333
12.107204988290643	3.1637728	1.7786998
12.12483016204224	3.1361356	1.7709137
12.142455623712152	3.1419585	1.772557
12.16008137373149	3.1303074	1.7692674
12.177707412531431	3.0735762	1.7531618
12.19533374054321	3.076763	1.7540704
12.212960358198126	3.0666723	1.7511917
12.230587265927545	3.0826697	1.7557533
12.248214464162889	3.0429587	1.7444079
12.265841953335649	3.0212958	1.7381876
12.283469733877375	3.015572	1.7365403
12.301097806219685	3.0225832	1.7385578
12.31872617079425	3.0081713	1.734408
12.336354828032825	2.9951892	1.7306615
12.353983778367205	2.9786556	1.7258782
12.371613022229262	2.9435425	1.7156755
12.389242560050928	2.9398558	1.7146008
12.406872392264201	2.911335	1.7062634
12.424502519301143	2.882479	1.6977865
12.442132941593874	2.8970535	1.7020733
12.459763659574586	2.9093955	1.705695
12.477394673675532	2.9373066	1.7138573
12.49502598432903	2.924797	1.7102038
12.51265759196746	2.8961015	1.7017936
12.530289497023267	2.8372922	1.6844264
12.547921699928967	2.8170552	1.6784085
12.565554201117134	2.7966673	1.672324
12.583187001020404	2.7584913	1.6608707
12.600820100071486	2.7459376	1.6570871
12.618453498703152	2.7651997	1.662889
12.636087197348235	2.7853532	1.6689377
12.65372119643964	2.79394	1.6715083
12.671355496410326	2.8114064	1.6767249
12.68899009769333	2.843633	1.6863074
12.706625000721749	2.8595707	1.6910266
12.724260205928752	2.9105537	1.7060345
12.741895713747551	2.9146023	1.7072207
12.759531524611454	2.9701333	1.7234075
12.777167638953818	2.9920785	1.7297626
12.794804057208072	3.0527508	1.7472123
12.812440779807702	3.0834546	1.7559768
12.830077807186271	3.2096245	1.7915425
12.847715139777405	3.231032	1.7975072
12.865352778014795	3.4662778	1.8617942
12.882990722332197	3.6197665	1.9025683
12.90062897316344	3.7036998	1.9244999
12.918267530942412	3.7481918	1.9360248
12.935906396103071	3.6223745	1.9032537
12.953545569079449	3.7814503	1.9445951
12.971185050305628	3.6019533	1.8978813
12.988824840215775	3.5903208	1.8948141
13.006464939244115	3.5786257	1.8917255
13.024105347824943	3.439702	1.8546433
13.041746066392617	3.5459638	1.883073
13.05938709538157	3.385379	1.83994
13.077028435226296	3.4106288	1.8467888
13.094670086361363	3.3309906	1.8251002
13.112312049221401	3.2289615	1.7969311
13.129954324241112	3.1317208	1.7696669
13.147596911855258	2.9426384	1.715412
13.165239812498685	2.8689923	1.69381
13.182883026606293	2.7691607	1.6640795
13.200526554613058	2.6803145	1.6371666
13.218170396954017	2.6771867	1.636211
13.235814554064284	2.6765544	1.6360179
13.253459026379034	2.7234104	1.6502758
13.271103814333523	2.7518137	1.6588591
13.288748918363058	2.7337766	1.6534137
13.306394338903031	2.7092004	1.6459649
13.32404007638889	2.6754398	1.6356772
13.341686131256164	2.6522849	1.6285837
13.359332503940449	2.6471066	1.6269932
13.376979194877402	2.6453896	1.6264653
13.394626204502751	2.7207298	1.6494635
13.412273533252307	2.7572293	1.6604906
13.429921181561937	2.760404	1.6614463
13.447569149867581	2.7523088	1.6590084
13.465217438605247	2.7104955	1.6463583
13.482866048211022	2.6790528	1.6367812
13.500514979121052	2.660498	1.6311033
13.518164231771568	2.6948314	1.6415942
13.535813806598844	2.7116597	1.6467118
13.553463704039254	2.7425683	1.6560701
13.571113924529229	2.7468345	1.6573577
13.588764468505275	2.788573	1.6699021
13.606415336403956	2.7920961	1.6709566
13.624066528661917	2.79193	1.6709069
13.641718045715882	2.8462791	1.687092
13.659369888002635	2.896858	1.7020159
13.67702205595903	2.9400055	1.7146444
13.694674550021993	2.9805634	1.7264308
13.712327370628532	3.0222325	1.738457
13.729980518215713	3.096504	1.7596886
13.747633993220681	3.1398683	1.7719673
13.765287796080647	3.1853678	1.7847599
13.7829419272329	3.2863827	1.8128383
13.800596387114801	3.395125	1.8425865
13.818251176163775	3.4349523	1.8533624
13.835906294817324	3.446364	1.8564385
13.853561743513023	3.455651	1.8589381
13.871217522688525	3.4832006	1.8663335
13.888873632781538	3.5465984	1.8832414
13.906530074229858	3.5450807	1.8828385
13.92418684747135	3.5180657	1.8756508
13.941843952943948	3.4559283	1.8590127
13.959501391085665	3.423024	1.8501416
13.977159162334578	3.3606694	1.8332129
13.994817267128846	3.346463	1.829334
14.012475705906693	3.2665758	1.8073671
14.030134479106424	3.17569	1.7820466
14.047793587166414	3.1238315	1.7674364
14.065453030525108	3.088022	1.7572769
14.083112809621026	3.0572326	1.7484944
14.100772924892766	2.9639392	1.7216095
14.118433376778997	2.86844	1.6936469
14.136094165718458	2.805538	1.674974
14.153755292149969	2.7770638	1.6664525
14.171416756512416	2.7250433	1.6507705
14.189078559244768	2.644184	1.6260947
14.20674070078606	2.6039581	1.6136785
14.224403181575408	2.5872676	1.6084986
14.242066002051999	2.5376863	1.5930117
14.259729162655093	2.4671319	1.5707107
14.277392663824022	2.4172964	1.5547657
14.295056505998208	2.391959	1.5465959
14.312720689617128	2.38494	1.5443251
14.330385215120348	2.3878472	1.545266
14.348050082947497	2.364414	1.5376651
14.3657152935383	2.3713589	1.5399218
14.383380847332528	2.3828006	1.5436323
14.401046744770051	2.3866303	1.5448723
14.418712986290798	2.3643663	1.5376496
14.436379572334793	2.3764062	1.5415597
14.454046503342123	2.4129841	1.5533783
14.471713779752946	2.4329548	1.5597932
14.489381402007504	2.433858	1.5600827
14.507049370546113	2.401917	1.549812
14.524717685809168	2.3899195	1.5459365
14.542386348237134	2.4140022	1.5537059
14.560055358270553	2.4354615	1.5605966
14.577724716350051	2.4451005	1.5636817
14.595394422916325	2.4697986	1.5715593
14.61306447841015	2.4942262	1.579312
14.63073488327237	2.492732	1.5788388
14.648405637943917	2.4802847	1.5748919
14.6660767428658	2.4444044	1.5634592
14.683748198479094	2.4820008	1.5754367
14.701420005224954	2.557538	1.5992304
14.719092163544628	2.6708481	1.6342729
14.73676467387942	2.7210321	1.6495551
14.754437536670727	2.7316232	1.6527623
14.772110752360014	2.708811	1.6458466
14.78978432138882	2.6951354	1.6416868
14.807458244198777	2.669565	1.6338804
14.82513252123159	2.620465	1.618785
14.842807152929028	2.631368	1.6221491
14.860482139732962	2.6244233	1.6200072
14.87815748208531	2.603996	1.6136901
14.8958331804281	2.6174054	1.6178397
14.91350923520342	2.5957978	1.611148
14.931185646853438	2.6369069	1.6238556
14.948862415820408	2.6328259	1.6225985
14.966539542546656	2.6505866	1.6280622
14.98421702747459	2.6591837	1.6307003
15.001894871046696	2.711865	1.646774
15.019573073705542	2.711551	1.6466788
15.037251635893766	2.6786675	1.6366636
15.054930558054092	2.6858125	1.6388448
15.072609840629323	2.7322917	1.6529645
15.090289484062351	2.8702562	1.694183
15.107969488796124	3.1503274	1.7749162
15.125649855273691	3.5817761	1.8925581
15.14333058393817	4.086237	2.0214443
15.161011675232768	5.1162224	2.2619069
15.17869312960076	6.5690312	2.5630121
15.196374947485506	8.584403	2.9299152
15.214057129330447	11.747494	3.4274616
15.231739675579114	16.450548	4.0559278
15.249422586675102	21.382578	4.62413
15.267105863062092	24.375265	4.9371314
15.284789505183847	24.575106	4.9573283
15.302473513484218	22.25979	4.718028
15.320157888407127	18.595158	4.31221
15.337842630396578	14.319415	3.7841003
15.355527739896656	11.028765	3.3209584
15.37321321735153	8.568457	2.9271927
15.39089906320545	6.3092246	2.511817
15.408585277902748	4.8136716	2.194008
15.42627186188783	3.730847	1.93154
15.443958815605198	3.19103	1.7863455
15.461646139499424	2.912696	1.7066622
15.479333834015168	2.7990024	1.6730219
15.497021899597165	2.7297165	1.6521854
15.514710336690234	2.6558487	1.6296775
15.53239914573928	2.6132946	1.6165688
15.550088327189297	2.5628994	1.6009058
15.567777881485336	2.5359766	1.592475
15.58546780907256	2.50463	1.5826023
15.6031581103962	2.4592366	1.5681953
15.620848785901568	2.4373128	1.5611895
15.638539836034063	2.4668941	1.570635
15.656231261239173	2.4879234	1.5773152
15.673923061962451	2.5009193	1.5814295
15.691615238649552	2.4887202	1.5775678
15.709307791746202	2.4870248	1.5770304
15.727000721698221	2.4680352	1.5709982
15.744694028951498	2.4542298	1.5665982
15.76238771395202	2.446997	1.564288
15.780081777145844	2.45537	1.566962
15.797776218979125	2.450551	1.5654236
15.815471039898094	2.4116013	1.5529331
15.833166240349064	2.3870864	1.5450199
15.850861820778437	2.3857362	1.5445828
15.868557781632699	2.3837845	1.5439509
15.886254123358412	2.3686223	1.5390329
15.903950846402232	2.3549356	1.53458
15.921647951210897	2.3533554	1.534065
15.939345438231225	2.3711662	1.5398592
15.957043307910133	2.373227	1.540528
15.974741560694602	2.3662076	1.5382482
15.992440197031714	2.394136	1.5472996
16.01013921736862	2.4529154	1.5661786
16.02783862215259	2.4529438	1.5661876
16.045538411830933	2.44319	1.5630708
16.06323858685107	2.3878021	1.5452515
16.080939147660512	2.383655	1.5439091
16.09864009470684	2.4173627	1.554787
16.11634142843774	2.4551115	1.5668795
16.134043149300954	2.4273345	1.5579906
16.15174525774433	2.379705	1.5426292
16.169447754215817	2.3646984	1.5377576
16.18715063916342	2.3724594	1.540279
16.204853913035244	2.3824577	1.5435212
16.222557576279478	2.4392447	1.5618081
16.240261629344403	22.455334	4.738706
16.257966072678386	43.006023	6.5578976
16.275670906729868	38.123978	6.174462
16.293376131947387	2.5663817	1.6019931
16.31108174877957	2.58415	1.6075292
16.328787757675133	2.609721	1.615463
16.34649415908287	2.6077132	1.6148416
16.364200953451657	2.6585288	1.6304996
16.38190814123048	2.7166655	1.648231
16.39961572286839	2.728053	1.6516819
16.41732369881455	2.7222426	1.649922
16.43503206951817	2.7111616	1.6465605
16.45274083542859	2.732032	1.652886
16.47044999699522	2.7892537	1.6701059
16.488159554667558	2.854856	1.6896319
16.505869508895184	2.933417	1.7127222
16.523579860127786	2.983022	1.7271427
16.541290608815117	3.0166008	1.7368364
16.559001755407035	3.046268	1.7453561
16.57671330035348	3.0483613	1.7459557
16.59442524410448	3.095478	1.759397
16.61213758711015	3.1757212	1.7820554
16.629850329820705	3.2480571	1.8022367
16.647563472686436	3.324416	1.8232981
16.665277016157724	3.3815906	1.8389102
16.682990960685053	3.4453316	1.8561604
16.70070530671898	3.4757307	1.8643311
16.718420054710155	3.4932249	1.8690171
16.736135205109335	3.5639076	1.8878314
16.753850758367335	3.6207433	1.9028251
16.771566714935087	3.6826143	1.9190139
16.789283075263597	3.742758	1.9346209
16.80699983980398	3.8028347	1.9500859
16.82471700900741	3.88375	1.9707232
16.84243458332518	3.96109	1.9902488
16.860152563208665	4.013345	2.0033333
16.87787094910932	4.0222325	2.0055504
16.89558974147871	4.06761	2.0168316
16.913308940768466	4.154923	2.0383627
16.931028547430333	4.2800875	2.0688372
16.94874856191613	4.3366857	2.0824711
16.966468984677785	4.3600736	2.088079
16.98418981616729	4.3577633	2.0875256
17.00191105683676	4.3557324	2.0870392
17.019632707138374	4.408607	2.0996683
17.03735476752442	4.435077	2.1059623
17.05507723844728	4.5499153	2.133053
17.072800120359403	4.6082263	2.146678
17.090523413713353	4.648802	2.1561081
17.108247118961785	4.6464114	2.1555536
17.125971236557437	4.6535316	2.1572046
17.143695766953133	4.7151313	2.1714354
17.161420710601806	4.7152457	2.1714616
17.179146067956477	4.7456098	2.178442
17.19687183947025	4.7103486	2.1703339
17.21459802559634	4.6756625	2.162328
17.232324626788028	4.635619	2.1530488
17.25005164349871	4.6178837	2.1489263
17.267779076181863	4.5757837	2.1391082
17.285506925291074	4.5445623	2.131798
17.30323519127999	4.535972	2.1297822
17.320963874602384	4.5634737	2.1362288
17.33869297571211	4.547852	2.1325693
17.356422495063114	4.535636	2.1297033
17.37415243310944	4.512899	2.1243584
17.391882790305218	4.515782	2.125037
17.40961356710468	4.540106	2.1307523
17.42734476396215	4.5028973	2.122003
17.445076381332044	4.4602733	2.1119359
17.462808419668868	4.510139	2.1237087
17.48054087942723	4.723544	2.1733716
17.498273761061835	5.071162	2.251924
17.51600706502747	5.550587	2.3559685
17.533740791779024	6.363244	2.5225472
17.551474941771485	7.8762183	2.8064601
17.56920951545993	9.010474	3.0017452
17.586944513299528	11.038126	3.3223674
17.60467993574556	12.713963	3.5656643
17.622415783253373	14.52495	3.8111613
17.64015205627843	15.967996	3.9959974
17.657888755276293	17.001623	4.1233025
17.675625880702604	17.383808	4.1693892
17.69336343301311	17.123589	4.138066
17.71110141266366	16.294203	4.0366077
17.728839820110178	15.61583	3.951687
17.746578655808705	14.8732815	3.8565893
17.764317920215372	13.450603	3.6675062
17.7820576137864	11.812618	3.436949
17.79979773697811	9.655078	3.1072621
17.81753829024692	7.6618795	2.7680101
17.835279274049356	5.934128	2.4360065
17.85302068884201	4.8631325	2.2052512
17.870762535081607	4.192917	2.0476613
17.888504813224934	3.8776557	1.9691764
17.90624752372891	3.7470946	1.9357413
17.923990667050536	3.6638331	1.9141142
17.941734243646895	3.5739625	1.8904927
17.959478253975185	3.505258	1.8722334
17.9772226984927	3.4771674	1.8647164
17.994967577656833	3.4925041	1.8688242
18.01271289192506	3.4311683	1.8523413
18.030458641754965	3.3957927	1.8427677
18.04820482760425	3.3588197	1.8327084
18.06595144993067	3.3192456	1.8218796
18.083698509192125	3.2881284	1.8133197
18.101446005846576	3.284296	1.8122627
18.119193940352105	3.2809339	1.8113348
18.136942313166887	3.278728	1.8107258
18.1546911247492	3.2420833	1.8005786
18.1724403755574	3.1885793	1.7856593
18.19019006604997	3.1342695	1.7703868
18.207940196685467	3.1399362	1.7719865
18.225690767922575	3.1782453	1.7827634
18.243441780220046	3.1586053	1.7772466
18.261193234036764	3.1276433	1.7685144
18.278945129831676	3.0612288	1.7496368
18.29669746806386	3.05608	1.7481648
18.314450249192483	3.0439475	1.7446913
18.3322034736768	3.053038	1.7472944
18.349957141976184	3.0456336	1.7451744
18.3677112545501	3.0387983	1.743215
18.385465811858108	3.0306828	1.7408856
18.403220814359884	3.0577757	1.7486497
18.420976262515172	3.1376748	1.7713484
18.43873215678387	3.2084014	1.7912011
18.456488497625923	3.207958	1.7910774
18.474245285501407	3.2344093	1.7984464
18.492002520870486	3.2943206	1.8150263
18.50976020419343	3.3805215	1.8386195
18.527518335930615	3.6918614	1.9214218
18.545276916542516	4.3096395	2.075967
18.563035946489688	4.48693	2.1182375
18.580795426232832	4.909683	2.2157805
18.598555356232698	4.780589	2.1864557
18.616315736950185	5.07328	2.2523942
18.63407656884626	4.6877713	2.165126
18.65183785238201	4.882863	2.2097201
18.669599588018617	4.652355	2.1569319
18.68736177621737	4.6787815	2.1630492
18.705124417439652	4.6463084	2.1555297
18.72288751214696	4.425309	2.103642
18.740651060800886	4.493669	2.1198275
18.758415063863115	4.2096496	2.051743
18.77617952179546	4.4323583	2.1053166
18.793944435059814	4.242782	2.0598016
18.811709804118184	4.252893	2.0622544
18.829475629432675	4.1954484	2.0482793
18.8472419114655	3.9951756	1.9987935
18.86500865067897	4.082974	2.020637
18.88277584753551	3.7806194	1.9443815
18.90054350249763	3.814628	1.9531072
18.918311616027957	3.517892	1.8756044
18.936080188589226	3.4046948	1.8451815
18.953849220644265	3.0697324	1.7520652
18.971618712656007	2.9314795	1.7121564
18.9893886650875	2.8602128	1.6912163
19.007159078401887	8.012593	2.8306525
19.024929953062408	32.875393	5.733707
19.042701289532435	32.78255	5.725605
19.060473088275405	25.3463	5.034511
19.07824534975489	2.6205208	1.6188023
19.096018074434568	2.6217544	1.6191833
19.113791262778197	2.6091642	1.6152908
19.13156491524966	2.6322927	1.6224343
19.149339032312945	2.6212497	1.6190274
19.167113614432136	2.5871408	1.6084591
19.184888662071433	2.5573592	1.5991745
19.202664175695123	2.573813	1.6043108
19.220440155767623	2.573631	1.604254
19.238216602753447	2.5828924	1.6071379
19.2559935171172	2.5593054	1.599783
19.27377089932361	2.5592506	1.5997658
19.291548749837514	2.5492706	1.5966436
19.309327069123835	2.5363994	1.5926077
19.32710585764763	2.479568	1.5746644
19.344885115874032	2.480327	1.5749054
19.362664844268313	2.4640477	1.5697285
19.380445043295822	2.4752815	1.5733027
19.39822571342203	2.430683	1.5590647
19.41600685511252	2.4298017	1.5587821
19.43378846883297	2.431219	1.5592366
19.451570555049173	2.455811	1.5671028
19.469353114227037	2.4423614	1.5628057
19.48713614683254	2.446127	1.5640099
19.50491965333182	2.4636722	1.5696089
19.52270363419109	2.4987812	1.5807533
19.540488089876686	2.5367558	1.5927197
19.55827302085503	2.525755	1.5892624
19.576058427592674	2.527955	1.5899544
19.593844310556282	2.5314536	1.5910542
19.611630670212598	2.556995	1.5990607
19.629417507028506	2.518769	1.5870631
19.64720482147098	2.473975	1.5728874
19.6649926140071	2.4318714	1.5594459
19.682780885104084	2.4372587	1.5611722
19.70056963522921	2.4919987	1.5786066
19.718358864849908	2.5215666	1.5879441
19.7361485744337	2.5528986	1.5977793
19.753938764448215	2.5497417	1.596791
19.771729435361202	2.552368	1.5976132
19.789520587640506	2.521523	1.5879304
19.807312221754092	2.4976673	1.580401
19.825104338170043	2.512199	1.5849918
19.842896937356517	2.5129175	1.5852184
19.860690019781824	2.5161922	1.586251
19.87848358591436	2.5128977	1.5852122
19.896277636222635	2.5099843	1.584293
19.914072171175278	2.4917104	1.5785153
19.931867191241015	2.4932714	1.5790097
19.94966269688869	2.5036278	1.5822856
19.967458688587264	2.5282729	1.5900544
19.985255166805807	2.5363898	1.5926048
20.00305213201348	2.4973419	1.5802981
20.020849584679578	2.4601624	1.5684905
20.038647525273507	2.4294655	1.5586743
20.05644595426477	2.4480345	1.5646197
20.07424487212299	2.460861	1.5687132
20.092044279317903	2.466393	1.5704755
20.109844176319353	2.4622173	1.5691454
20.127644563597304	2.4674864	1.5708234
20.145445441621817	2.4865985	1.5768952
20.16324681086307	2.4761586	1.5735815
20.181048671791373	2.4636703	1.5696083
20.198851024877122	2.4301987	1.5589094
20.216653870590836	2.3918808	1.5465707
20.234457209403146	2.3592088	1.5359716
20.252261041784802	2.362219	1.5369512
20.270065368206662	2.3418946	1.530325
20.287870189139685	2.3393161	1.5294824
20.305675505054968	2.329434	1.5262483
20.323481316423702	2.3661573	1.5382318
20.341287623717207	2.3826828	1.5435941
20.359094427406884	2.39525	1.5476595
20.376901727964288	2.378357	1.5421922
20.39470952586107	2.3850977	1.5443761
20.41251782156899	2.3539333	1.5342534
20.430326615559935	2.3250337	1.5248061
20.448135908305886	2.3116605	1.5204146
20.465945700278965	2.3501236	1.5330113
20.483755991951384	2.366422	1.5383179
20.50156678379548	2.3746784	1.5409992
20.519378076283708	2.3451653	1.5313933
20.537189869888635	2.3250787	1.5248209
20.55500216508294	2.3432891	1.5307806
20.572814962339415	2.3364	1.5285287
20.59062826213098	2.348289	1.5324128
20.60844206493066	2.362005	1.5368816
20.626256371211593	2.3401005	1.5297387
20.644071181447032	2.3134205	1.5209932
20.66188649611036	2.2937005	1.5144968
20.67970231567506	2.2769396	1.5089532
20.697518640614742	2.2629805	1.5043206
20.715335471403122	2.289341	1.5130569
20.73315280851404	2.3290136	1.5261106
20.750970652421447	2.3579714	1.5355687
20.768789003599412	2.345456	1.5314882
20.786607862522136	2.3365126	1.5285655
20.8044272296639	2.3014894	1.517066
20.82224710549913	2.259153	1.5030478
20.84006749050237	2.2304258	1.493461
20.857888385148268	3.769731	1.9415796
20.8757097899116	45.885616	6.7738924
20.893531705267254	64.759995	8.047359
20.911354131690224	83.80471	9.154491
20.92917706965566	69.05186	8.309745
20.94700051963877	50.098343	7.078018
20.96482448211493	29.367954	5.419221
20.982648957559622	4.1519	2.037621
21.00047394644843	2.25492	1.5016391
21.01829944925707	2.2380953	1.4960265
21.036125466461375	2.2036078	1.4844553
21.053951998537297	2.234008	1.4946599
21.071779045960906	2.2518418	1.5006138
21.089606609208378	2.2336187	1.4945296
21.10743468875603	2.2293093	1.4930872
21.12526328508028	2.253171	1.5010567
21.143092398657675	2.2652857	1.5050867
21.16092202996488	2.2395523	1.4965134
21.17875217947867	2.2425404	1.4975114
21.19658284767596	2.2209387	1.4902815
21.21441403503377	2.1904502	1.480017
21.232245742029225	2.207036	1.4856097
21.2500779691396	2.2072496	1.4856815
21.26791071684227	2.1948302	1.481496
21.28574398561475	2.1534686	1.4674702
21.30357777593465	2.1466029	1.465129
21.321412088279704	2.1520147	1.4669747
21.339246923127792	2.158918	1.4693257
21.357082280956888	2.1947773	1.4814781
21.3749181622451	2.1970863	1.4822571
21.392754567470647	2.168485	1.4725777
21.41059149711187	2.1517725	1.4668921
21.42842895164726	2.175657	1.4750109
21.446266931555378	2.1506448	1.4665077
21.464105437314945	2.1431282	1.4639426
21.481944469404798	2.119446	1.4558318
21.49978402830388	2.1204515	1.456177
21.51762411449127	2.1089509	1.4522227
21.53546472844617	2.117025	1.4549999
21.553305870647876	2.114416	1.4541031
21.571147541575865	2.0924664	1.446536
21.58898974170967	2.1015475	1.4496715
21.60683247152899	2.0856926	1.4441928
21.62467573151363	2.0816405	1.4427891
21.642519522143523	2.087875	1.4449481
21.660363843898722	2.084118	1.4436474
21.6782086972594	2.0577385	1.434482
21.696054082705864	2.0439525	1.4296687
21.713900000718535	2.0398555	1.428235
21.73174645177795	2.0728402	1.4397361
21.749593436364794	2.069015	1.4384071
21.767440954959845	2.0454197	1.4301817
21.785289008044032	2.0155222	1.4196908
21.803137596098388	2.0115209	1.418281
21.820986719604086	2.0288763	1.4243863
21.838836379042412	2.0322757	1.4255791
21.85668657489478	2.0245395	1.4228631
21.87453730764273	2.0201445	1.4213178
21.892388577767914	2.017459	1.4203728
21.91024038575213	2.0013564	1.414693
21.928092732077285	1.9873986	1.4097513
21.945945617225426	1.996882	1.4131107
21.963799041678694	1.9933007	1.4118431
21.981653005919398	31.324192	5.5968018
21.999507510429943	78.131454	8.8392
22.01736255569286	73.076965	8.548507
22.035218142190818	4.183045	2.0452495
22.05307427040661	2.043625	1.4295542
22.07093094082315	2.05239	1.4326165
22.088788153923474	2.0335264	1.4260176
22.106645910190746	2.0055387	1.4161705
22.12450421010827	1.999999	1.4142132
22.142363054159464	1.9683325	1.4029727
22.16022244282787	1.9888285	1.4102583
22.178082376597164	2.0261116	1.4234154
22.195942855951145	2.0335686	1.4260324
22.213803881373742	2.0200846	1.4212968
22.231665453349002	2.022861	1.4222732
22.24952757236111	1.9937648	1.4120073
22.26739023889438	1.9526743	1.3973812
22.28525345343323	1.9345886	1.3908949
22.30311721646225	1.9495155	1.3962505
22.320981528466113	1.9887103	1.4102165
22.33884638992964	1.9679691	1.4028432
22.356711801337788	1.9378742	1.3920755
22.37457776317561	1.9378778	1.3920767
22.392444275928337	1.9755985	1.4055598
22.410311340081282	1.9525676	1.397343
22.428178956119904	1.9343706	1.3908166
22.446047124529805	1.9303719	1.3893782
22.46391584579669	1.9554769	1.3983836
22.481785120406414	1.9674672	1.4026643
22.49965494884496	2.0151026	1.4195431
22.51752533159841	1.9815764	1.4076848
22.53539626915302	1.9583715	1.3994182
22.553267761995137	1.9501755	1.3964869
22.571139810611264	1.9645125	1.4016106
22.589012415488025	1.9929973	1.4117355
22.60688557711216	2.0197244	1.4211701
22.624759295970566	2.0103986	1.4178853
22.642633572550263	1.967433	1.4026521
22.660508407338362	1.94604	1.3950053
22.67838380082217	1.9464153	1.3951399
22.696259753489077	1.9277033	1.3884175
22.714136265826614	1.9041082	1.3798943
22.73201333832246	1.9019095	1.3790973
22.74989097146439	1.8874171	1.373833
22.76776916574035	1.8681462	1.3668015
22.785647921638393	1.8768528	1.3699827
22.803527239646712	1.9234942	1.3869009
22.82140712025363	1.9350349	1.3910553
22.839287563947593	1.9234365	1.3868802
22.85716857121719	1.8994756	1.3782146
22.875050142551135	1.8995038	1.3782248
22.892932278438277	1.8773335	1.3701582
22.910814979367604	1.9038308	1.3797938
22.928698245828222	1.9053756	1.3803535
22.946582078309387	1.9024785	1.3793036
22.96446647730047	1.8864955	1.3734975
22.98235144329098	1.8877501	1.3739542
23.000236976770562	1.925583	1.3876538
23.018123078229	1.9640288	1.4014381
23.03600974815619	1.9648503	1.4017311
23.053896987042194	1.9179832	1.3849127
23.071784795377173	1.8864058	1.373465
23.08967317365145	1.8532122	1.3613274
23.10756212235546	1.8844863	1.3727659
23.125451641979787	1.9000057	1.378407
23.143341733015134	1.9343406	1.3908057
23.161232395952357	1.9476086	1.3955675
23.179123631282426	1.9648671	1.4017372
23.197015439496468	1.9561908	1.398639
23.214907821085717	1.9599708	1.3999896
23.23280077654157	1.9508088	1.3967136
23.250694306355538	1.9658985	1.402105
23.268588411019277	1.9470134	1.3953543
23.28648309102458	1.9024965	1.3793101
23.304378346863356	1.8762279	1.3697547
23.322274179027676	1.9097278	1.381929
23.340170588009723	1.9359503	1.3913842
23.358067574301852	1.9348361	1.3909838
23.37596513839651	1.9402941	1.3929445
23.39386328078629	1.9329802	1.3903166
23.411762001963947	1.9749091	1.4053146
23.429661302422353	1.9513221	1.3968973
23.4475611826545	1.8955135	1.3767765
23.46546164315356	1.8731388	1.3686266
23.48336268441279	1.8826783	1.3721073
23.501264306925638	1.8897642	1.374687
23.51916651118564	1.8863388	1.3734405
23.537069297686497	1.8969563	1.3773004
23.554972666922037	1.8911263	1.3751823
23.57287661938623	1.8473452	1.3591708
23.59078115557318	1.8334675	1.3540559
23.608686275977128	1.879363	1.3708986
23.62659198109246	1.9186851	1.385166
23.6444982714137	1.9425107	1.3937398
23.66240514743549	1.9221138	1.3864032
23.68031260965263	1.9392737	1.3925781
23.698220658560068	1.9712149	1.4039996
23.716129294652845	1.9773812	1.4061939
23.7340385184262	1.9229069	1.3866892
23.75194833037546	1.8822478	1.3719504
23.769858730996123	1.839425	1.356254
23.78776972078382	1.865215	1.3657287
23.80568130023431	1.8755043	1.3694905
23.823593469843495	1.896799	1.3772433
23.841506230107424	1.8925574	1.3757025
23.859419581522275	1.8912473	1.3752263
23.87733352458438	1.8825358	1.3720553
23.89524805979019	1.8962207	1.3770332
23.913163187636318	1.8923713	1.3756349
23.931078908619508	1.9338685	1.390636
23.948995223236633	1.9912789	1.4111269
23.966912131984735	2.0285866	1.4242846
23.98482963536096	2.0645733	1.4368623
24.002747733862616	2.0513036	1.4322373
24.020666427987155	2.0742047	1.44021
24.038585718232156	2.049239	1.4315163
24.056505605095353	2.0642288	1.4367424
24.074426089074617	2.0641804	1.4367256
24.092347170667946	2.0647771	1.4369333
24.110268850373515	2.037985	1.4275801
24.128191128689586	2.0274987	1.4239026
24.146114006114626	2.067987	1.4380497
24.164037483147187	2.086508	1.444475
24.181961560286005	2.0630867	1.436345
24.199886238029926	2.0395052	1.4281125
24.21781151687797	2.0511975	1.4322002
24.235737397329274	2.0848107	1.4438874
24.253663879883135	2.0816312	1.4427859
24.271590965038975	2.0803013	1.442325
24.289518653296376	2.1010242	1.449491
24.30744694515505	2.1099727	1.4525745
24.32537584111486	2.0630329	1.4363261
24.34330534167581	1.9996682	1.4140962
24.361235447338046	1.9913967	1.4111686
24.379166158601876	2.0315366	1.4253198
24.39709747596772	2.092225	1.4464526
24.41502939993615	2.034786	1.4264592
24.432961931007917	1.9978452	1.4134516
24.450895069683856	1.9685421	1.4030474
24.468828816465	1.986161	1.4093122
24.4867631718525	1.9782742	1.4065114
24.504698136347656	1.9869184	1.409581
24.52263371045192	1.9496679	1.3963051
24.540569894666874	1.9337001	1.3905754
24.558506689494266	1.9254482	1.3876052
24.57644409543597	1.940366	1.3929702
24.594382112994012	1.9239898	1.3870796
24.61232074267057	1.950186	1.3964906
24.630259984967953	1.9569639	1.3989153
24.64819984038863	1.9836494	1.4084209
24.66614030943522	1.9834573	1.4083527
24.684081392610462	2.0019948	1.4149187
24.702023090417274	2.0023906	1.4150585
24.7199654033587	1.9923589	1.4115094
24.737908331937927	2.0158641	1.4198112
24.755851876658305	2.0092647	1.4174854
24.773796038023324	1.9925715	1.4115847
24.79174081653661	2.0530655	1.4328523
24.809686212701962	2.0936823	1.4469562
24.827632227023294	2.1537712	1.4675732
24.8455788600047	2.159171	1.4694118
24.8635261121504	2.2014773	1.4837376
24.88147398396475	2.183251	1.4775828
24.899422475952303	2.1655977	1.471597
24.917371588617698	2.144417	1.4643828
24.935321322465768	2.169329	1.4728642
24.953271678001478	2.2711225	1.5070244
24.97122265572994	2.5248027	1.5889628
24.989174256156414	2.91005	1.7058868
25.00712647978632	3.403196	1.8447753
25.02507932712521	3.9217975	1.9803529
25.043032798678798	4.397842	2.097103
25.060986894952933	5.0418763	2.2454123
25.078941616453637	5.8268247	2.4138815
25.096896963687055	6.846262	2.6165361
25.114852937159508	7.97112	2.8233173
25.132809537377444	8.415248	2.9009047
25.150766764847468	8.382997	2.8953404
25.168724620076347	7.687618	2.7726552
25.186683103570985	6.6201496	2.5729651
25.204642215838426	5.406107	2.3251038
25.222601957385894	4.12482	2.0309653
25.24056232872074	3.161311	1.7780076
25.25852333035048	2.6054027	1.614126
25.276484962782778	2.2338364	1.4946024
25.294447226525435	2.1051927	1.4509282
25.312410122086423	2.0241663	1.422732
25.330373649973843	1.9635732	1.4012755
25.348337810695988	1.9089093	1.3816328
25.366302604761245	1.9072477	1.3810314
25.384268032678207	1.8783267	1.3705206
25.40223409495558	1.8617079	1.3644441
25.420200792102257	1.8623024	1.364662
25.438168124627246	1.9076422	1.3811742
25.45613609303974	1.8977927	1.377604
25.474104697849057	1.8589458	1.3634317
25.492073939564698	1.8370527	1.3553792
25.510043818696285	1.8559813	1.362344
25.528014335753614	1.8512484	1.3606058
25.54598549124664	1.8566895	1.3626039
25.56395728568544	1.823733	1.3504566
25.58192971958028	1.7888718	1.3374871
25.59990279344156	1.7807598	1.3344511
25.617876507779833	1.7788502	1.3337355
25.635850863105826	1.7494363	1.3226626
25.653825859930386	1.7810227	1.3345497
25.671801498764548	1.8614775	1.3643597
25.68977778011949	1.9513268	1.396899
25.707754704506524	1.9600809	1.4000288
25.725732272437153	1.923933	1.3870591
25.743710484423012	1.9042729	1.379954
25.761689340975888	1.9398547	1.3927867
25.77966884260774	1.9305542	1.3894439
25.797648989830662	1.8646653	1.3655275
25.815629783156922	1.842112	1.3572443
25.83361122309895	1.8418537	1.3571491
25.85159331016929	1.8515785	1.3607272
25.869576044880695	1.8420833	1.3572338
25.887559427746034	1.8515443	1.3607146
25.90554345927836	1.8698062	1.3674085
25.92352813999086	1.8699214	1.3674507
25.94151347039689	1.8501076	1.3601866
25.959499451009965	1.7809303	1.334515
25.97748608234374	1.7816606	1.3347886
25.995473364912062	1.8033092	1.3428735
26.013461299228904	1.8079766	1.3446102
26.03144988580839	1.7823665	1.335053
26.04943912516483	1.8096899	1.3452471
26.067429017812675	1.8318948	1.3534751
26.085419564266537	1.8665389	1.3662133
26.103410765041186	1.8562368	1.3624378
26.12140262065155	1.8339548	1.3542359
26.139395131612723	1.8186164	1.3485608
26.157388298439948	1.7930398	1.3390443
26.17538212164861	1.8544366	1.3617771
26.193376601754295	1.9120495	1.3827688
26.211371739272714	1.9301801	1.3893092
26.229367534719746	1.8665134	1.366204
26.247363988611433	1.8218	1.3497407
26.26536110146397	1.818632	1.3485667
26.283358873793727	1.8279828	1.3520291
26.301357306117204	1.8278409	1.3519766
26.319356398951104	1.836251	1.3550833
26.33735615281224	1.7906144	1.3381383
26.35535656821762	1.7381384	1.3183848
26.373357645684404	1.7703196	1.3305336
26.39135938572991	1.7855992	1.3362632
26.409361788871614	1.7851758	1.3361048
26.427364855627165	1.8341647	1.3543134
26.445368586514352	1.8279204	1.3520061
26.46337298205115	1.8089181	1.3449602
26.48137804275568	1.8318571	1.3534611
26.499383769146217	1.8928735	1.3758174
26.517390161741215	1.8701029	1.367517
26.53539722105928	1.8230443	1.3502016
26.553404947619182	1.7736056	1.3317678
26.571413341939856	1.7465419	1.321568
26.589422404540397	1.7458975	1.3213241
26.60743213594006	1.7957056	1.3400394
26.62544253665827	1.8530178	1.361256
26.64345360721459	1.8566865	1.3626028
26.66146534812879	1.8262676	1.3513947
26.679477759920758	1.8138024	1.3467748
26.69749084311057	1.8322307	1.3535992
26.71550459821847	1.8293784	1.3525451
26.733519025764842	1.8201187	1.3491178
26.751534126270258	1.7985641	1.3411056
26.769549900255434	1.7963706	1.3402876
26.787566348241267	1.7738843	1.3318725
26.80558347074881	1.7968874	1.3404803
26.823601268299267	1.7947875	1.3396968
26.841619741414036	1.837176	1.3554246
26.85963889061465	1.8171986	1.3480351
26.877658716422832	1.7802882	1.3342744
26.89567921936045	1.7894076	1.3376874
26.913700399949544	1.8274276	1.3518238
26.93172225871233	1.8522751	1.3609831
26.949744796171174	1.7866125	1.3366423
26.967768012848605	1.7324178	1.3162135
26.98579190926733	1.7443702	1.3207461
27.003816485950225	1.7528384	1.323948
27.021841743420318	1.7559803	1.325134
27.039867682200814	1.8055087	1.3436922
27.057894302815072	1.8453043	1.3584198
27.07592160578664	1.8473454	1.3591708
27.0939495916392	1.8089685	1.344979
27.111978260896635	1.8561976	1.3624234
27.13000761408296	1.8841747	1.3726524
27.148037651722397	1.8414693	1.3570075
27.166068374339304	1.7997495	1.3415474
27.184099782458215	1.7908344	1.3382206
27.20213187660384	1.7795597	1.3340014
27.22016465730105	1.7631944	1.3278533
27.23819812507487	1.8077743	1.344535
27.256232280450533	1.8878125	1.373977
27.274267123953383	1.8629473	1.3648983
27.292302656108987	1.8038949	1.3430915
27.31033887744306	1.8151851	1.347288
27.32837578848146	1.8241811	1.3506225
27.34641338975026	1.8343155	1.354369
27.364451681775673	1.8657947	1.3659409
27.382490665084074	1.8484541	1.3595786
27.400530340202046	1.8492159	1.3598588
27.41857070765629	1.8521637	1.3609422
27.436611767973726	1.8574462	1.3628815
27.454653521681404	1.8344052	1.3544022
27.472695969306564	1.814219	1.3469294
27.490739111376627	1.8204526	1.3492415
27.508782948419153	1.8215414	1.3496449
27.526827480961902	1.7573737	1.3256598
27.54487270953279	1.7510518	1.3232732
27.562918634659898	1.7295747	1.315133
27.580965256871508	1.7671363	1.3293368
27.599012576696026	1.7686378	1.3299015
27.617060594662068	1.8327328	1.3537846
27.63510931129842	1.8385742	1.3559403
27.65315872713401	1.8357128	1.3548847
27.67120884269797	1.8102945	1.3454719
27.68925965851958	1.8182133	1.3484114
27.707311175128307	1.8427852	1.3574922
27.725363393053787	1.8902276	1.3748555
27.74341631282583	1.9224296	1.386517
27.7614699349744	1.9105004	1.3822085
27.77952426002968	2.0534816	1.4329975
27.797579288521973	2.0827596	1.4431769
27.815635020981784	2.4784465	1.5743083
27.83369145793979	2.621804	1.6191986
27.85174859992682	2.5361972	1.5925442
27.869806447473923	2.3609128	1.5365262
27.887865001112267	2.020671	1.4215031
27.905924261373233	1.8863332	1.3734385
27.92398422878836	1.8694081	1.367263
27.94204490388936	1.861194	1.3642559
27.96010628720813	1.8306549	1.353017
27.978168379276728	1.8289412	1.3523835
27.9962311806274	1.8627375	1.3648214
28.014294691792568	1.9050416	1.3802325
28.0323589133048	1.9212679	1.386098
28.050423845696887	1.919789	1.3855644
28.068489489501758	1.8860763	1.3733449
28.086555845252523	1.8661636	1.366076
28.104622913482487	1.8509899	1.360511
28.122690694725115	1.836053	1.3550104
28.14075918951405	1.8754245	1.3694614
28.15882839838312	1.9693784	1.4033455
28.176898321866304	1.9876368	1.4098357
28.1949689604978	1.9630706	1.4010962
28.213040314811945	1.9055984	1.3804342
28.23111238534327	1.920784	1.3859235
28.249185172626493	1.9346511	1.3909174
28.267258677196473	1.9375616	1.3919632
28.285332899588294	1.8823175	1.3719758
28.303407840337172	1.9288408	1.3888271
28.321483499978545	1.9433563	1.3940431
28.33955987904799	1.9446578	1.3945099
28.357636978081285	1.9136667	1.3833535
28.37571479761439	1.9160745	1.3842235
28.393793338183425	1.9376794	1.3920056
28.41187260032469	1.9607955	1.400284
28.429952584574686	1.9666858	1.4023857
28.448033291470065	1.9797716	1.4070436
28.46611472154769	1.9814949	1.4076558
28.484196875344566	1.96624	1.4022268
28.502279753397914	1.9839567	1.40853
28.52036335624511	2.009112	1.4174315
28.538447684423716	2.0159547	1.4198432
28.556532738471482	1.9837807	1.4084675
28.574618518926325	1.9923583	1.4115093
28.59270502632635	1.9997134	1.4141122
28.61079226120985	2.0152414	1.419592
28.628880224115274	2.008117	1.4170804
28.646968915581287	2.0309896	1.425128
28.66505833614671	2.0477426	1.4309936
28.68314848635055	2.046672	1.4306195
28.701239366732004	2.072161	1.4395002
28.71933097783044	2.1178586	1.4552865
28.737423320185403	2.167931	1.4723896
28.75551639433665	2.1977456	1.4824796
28.773610200824074	2.1723251	1.473881
28.791704740187793	2.175597	1.4749905
28.80980001296809	2.1597693	1.4696153
28.827896019705413	2.1542294	1.4677293
28.845992760940433	2.1521335	1.4670151
28.86409023721397	2.2043073	1.484691
28.88218844906704	2.216124	1.4886652
28.900287397040845	2.203399	1.484385
28.918387081676755	2.2417977	1.4972634
28.936487503516343	2.3302276	1.5265083
28.954588663101365	2.3988256	1.5488143
28.97269056097374	2.3699276	1.539457
28.990793197675597	2.3574555	1.5354007
29.00889657374923	2.3646257	1.5377339
29.027000689737125	2.4005797	1.5493804
29.04510554618196	2.3457243	1.5315758
29.06321114362659	2.3761733	1.5414841
29.08131748261405	2.418068	1.5550138
29.099424563687567	2.4389431	1.5617115
29.11753238739057	2.4564903	1.5673195
29.13564095426663	2.5307798	1.5908425
29.15375026485954	2.6032708	1.6134654
29.171860319713275	2.6659718	1.6327804
29.18997111937199	2.79111	1.6706616
29.20808266438002	2.8346372	1.6836381
29.226194955281898	2.747088	1.6574341
29.244307992622335	2.7582016	1.6607834
29.26242177694624	2.8454964	1.68686
29.2805363087987	2.8708565	1.6943603
29.29865158872498	2.841407	1.6856474
29.316767617270557	2.8408337	1.6854773
29.334884394981064	2.9029982	1.7038187
29.353001922402367	2.958981	1.720169
29.37112020008047	3.0297167	1.7406081
29.389239228561596	3.1214955	1.7667755
29.407359008392152	3.328943	1.8245391
29.42547954011872	3.7867754	1.9459639
29.44360082428809	4.502436	2.1218944
29.46172286144722	5.6849523	2.3843138
29.479845652143283	7.298252	2.7015278
29.497969196923606	9.376746	3.0621474
29.516093496335728	12.03346	3.4689276
29.5342185509274	14.974478	3.869687
29.55234436124651	17.205772	4.147984
29.570470927841175	18.228283	4.2694592
29.588598251259686	17.671589	4.2037587
29.60672633205055	16.223967	4.0278983
29.624855170762405	14.021339	3.7445078
29.642984767944146	11.188735	3.3449566
29.66111512414481	8.454569	2.907674
29.67924623991366	6.2855506	2.5071
29.697378115800138	4.9588623	2.2268503
29.71551075235387	4.162027	2.0401046
29.733644150124675	3.7420928	1.934449
29.751778309662576	3.6052291	1.8987441
29.769913231517766	3.53742	1.880803
29.78804891624066	3.4655008	1.8615856
29.806185364381818	3.3761377	1.8374269
29.82432257649206	3.3991418	1.8436762
29.842460553122333	3.3987584	1.8435721
29.86059929482382	3.3382576	1.8270899
29.878738802147872	3.3676968	1.8351285
29.896879075646048	3.3362203	1.8265324
29.915020115870114	3.2746646	1.8096035
29.933161923371976	3.2580624	1.8050103
29.951304498703777	3.1851318	1.7846937
29.969447842417857	3.167951	1.7798738
29.987591955066733	3.1667838	1.7795459
30.005736837203123	3.1449006	1.7733867
30.023882489379943	3.1481588	1.7743051
30.04202891215028	3.1779506	1.7826807
30.060176106067455	3.1662602	1.7793988
30.078324071684946	3.094243	1.7590461
30.09647280955646	3.0435803	1.744586
30.114622320235863	3.1005058	1.7608253
30.132772604277257	3.0949411	1.7592444
30.1509236622349	3.1067088	1.7625858
30.16907549466328	3.0972257	1.7598937
30.18722810211705	3.0485375	1.7460061
30.205381485151097	2.9558	1.719244
30.22353564432045	2.9890313	1.7288815
30.241690580180403	3.0327747	1.7414863
30.25984629328638	3.0591695	1.7490482
30.278002784194037	2.995086	1.7306317
30.296160053459246	3.0223212	1.7384825
30.314318101638033	3.0535927	1.7474532
30.332476929286646	3.1218636	1.7668797
30.35063653696153	3.114078	1.764675
30.368796925219307	3.0649774	1.7507077
30.386958094616844	2.927258	1.7109232
30.40512004571115	2.892805	1.7008249
30.423282779059463	2.8586953	1.6907676
30.441446295219233	2.8375804	1.6845119
30.459610594748067	2.8686624	1.6937126
30.47777567820382	2.8758647	1.6958375
30.495941546144504	2.8623123	1.691837
30.51410819912835	2.8457766	1.6869429
30.532275637713795	2.8721688	1.6947474
30.55044386245946	2.928483	1.7112811
30.56861287392416	2.9212804	1.7091753
30.586782672666956	2.8711221	1.6944386
30.604953259247047	2.772808	1.6651751
30.623124634223885	2.7819617	1.6679214
30.641296798157075	2.756802	1.660362
30.659469751606462	2.7298858	1.6522366
30.677643495132074	2.7781296	1.6667722
30.695818029294152	2.8047187	1.6747295
30.713993354653116	2.7655637	1.6629984
30.73216947176962	2.7892754	1.6701124
30.75034638120448	2.8177657	1.6786202
30.768524083518756	2.7736316	1.6654223
30.786702579273673	2.7897046	1.6702409
30.80488186903069	2.857965	1.6905516
30.82306195335144	2.938369	1.7141671
30.841242832797782	3.1373537	1.7712576
30.85942450793176	3.4778676	1.8649042
30.877606979315637	3.9284494	1.9820316
30.895790247511883	4.268341	2.0659964
30.913974313083134	4.5484056	2.1326993
30.932159176592283	4.740627	2.177298
30.95034483860237	4.7659187	2.1830983
30.968531299676698	4.5257645	2.1273844
30.98671856037873	4.1677556	2.0415082
31.00490662127215	3.865889	1.9661864
31.023095482920848	3.51068	1.8736808
31.04128514588892	3.112525	1.7642349
31.059475610740662	2.8275561	1.6815338
31.07766687804056	2.6286848	1.6213219
31.09585894835335	2.5424979	1.5945212
31.11405182224393	2.4683788	1.5711075
31.132245500277417	2.4298275	1.5587903
31.15043998301914	2.3823993	1.5435023
31.168635271034628	2.4083462	1.5518848
31.18683136488964	2.4226868	1.5564983
31.20502826515008	2.4610574	1.5687758
31.223225972382135	2.411429	1.5528777
31.241424487152155	2.3870988	1.5450239
31.259623810026692	2.4264936	1.5577207
31.27782394157253	2.476693	1.5737512
31.296024882356644	2.4367702	1.5610157
31.314226632946237	2.3934708	1.5470846
31.332429193908684	2.3792124	1.5424696
31.350632565811598	2.3949423	1.5475601
31.368836749222787	2.4193122	1.5554138
31.387041744710295	2.5259557	1.5893255
31.40524755284232	2.635384	1.6233866
31.423454174187317	2.6270254	1.6208102
31.441661609313922	2.5597413	1.5999192
31.459869858791002	2.5280874	1.589996
31.478078923187628	2.4672782	1.5707573
31.496288803073064	2.3683352	1.5389396
31.514499499016807	2.2880766	1.5126389
31.532711011588546	2.2787251	1.5095447
31.550923341358178	2.3041306	1.5179362
31.56913648889584	2.2570975	1.5023639
31.587350454771844	2.2575178	1.5025039
31.605565239556732	2.2918308	1.5138794
31.62378084382127	2.3545947	1.5344689
31.641997268136382	2.2902985	1.5133733
31.660214513073274	2.2709184	1.5069567
31.67843257920331	2.3133612	1.5209738
31.6966514670981	2.3390102	1.5293823
31.71487117732944	2.3535578	1.5341309
31.733091710469346	2.3307214	1.52667
31.751313067090052	2.2818263	1.5105715
31.769535247764008	2.2994444	1.5163919
31.787758253063878	2.3345404	1.5279202
31.805982083562526	2.3033335	1.5176737
31.824206739833024	2.2113433	1.4870586
31.84243222244869	2.2172215	1.4890337
31.860658531983013	2.203284	1.4843463
31.878885669009737	2.2915347	1.5137815
31.897113634102784	2.4179876	1.554988
31.91534242783632	2.3617616	1.5368024
31.933572050784694	2.1887987	1.4794589
31.951802503522508	2.2000601	1.4832599
31.970033786624548	2.250465	1.500155
31.988265900665834	2.2637148	1.5045646
32.006498846221575	2.1992464	1.4829856
32.02473262386724	2.250882	1.500294
32.04296723417845	2.2556	1.5018655
32.0612026777311	2.257354	1.5024494
32.07943895510129	2.2260497	1.4919952
32.097676066865304	2.2122948	1.4873785
32.115914013599685	2.1934073	1.4810157
32.13415279588115	2.1992183	1.4829762
32.152392414286666	2.2056892	1.4851563
32.1706328693934	2.1188223	1.4556175
32.18887416177875	2.0868154	1.4445814
32.20711629202032	2.152521	1.4671472
32.225359260695924	2.1546693	1.4678792
32.243603068383614	2.1104958	1.4527546
32.26184771566166	2.1257703	1.4580022
32.28009320310852	2.112852	1.4535654
32.2983395313029	2.0940688	1.4470898
32.31658670082372	2.1290166	1.459115
32.33483471225012	2.2022653	1.4840031
32.35308356616143	2.198023	1.4825732
32.371333263137245	2.1700099	1.4730953
32.38958380375734	2.089512	1.4455144
32.407835188601744	2.0834973	1.4434325
32.42608741825067	2.1186671	1.4555641
32.444340493284585	2.2053323	1.4850361
32.46259441428416	2.2008524	1.4835271
32.48084918183028	2.1558127	1.4682686
32.49910479650405	2.0715275	1.4392802
32.51736125888683	1.9695405	1.4034032
32.53561856956014	1.9543397	1.397977
32.5538767291058	2.0087974	1.4173205
32.572135738105764	2.002691	1.4151647
32.59039559714228	1.99378	1.4120127
32.608656306797776	2.0684645	1.4382157
32.62691786765491	2.141048	1.463232
32.645180280296586	2.0903447	1.4458025
32.663443545305896	2.0075479	1.4168797
32.68170766326619	1.9458498	1.3949372
32.69997263476099	1.9641185	1.4014701
32.7182384603741	2.0303957	1.4249196
32.7365051406895	2.0785491	1.4417174
32.75477267629144	1.9907069	1.4109242
32.77304106776434	1.8879468	1.3740258
32.79131031569289	1.9195372	1.3854736
32.809580420661966	2.0099685	1.4177336
32.827851383256714	2.1321561	1.4601904
32.84612320406245	2.204368	1.4847114
32.86439588366476	2.1859438	1.4784938
32.88266942264945	2.0980673	1.4484707
32.9009438216025	2.0859163	1.4442701
32.9192190811102	2.0800724	1.4422456
32.937495201758985	1.9862676	1.40935
32.95577218413556	1.9139577	1.3834586
32.974050028826866	1.9338259	1.3906207
32.992328736420035	2.0480292	1.4310937
33.010608307502444	2.0171328	1.420258
33.02888874266169	1.9255054	1.3876258
33.047170042485604	1.9497213	1.3963243
33.06545220756225	2.008861	1.4173429
33.083735238479896	2.0062442	1.4164195
33.10201913582707	1.9869437	1.4095899
33.12030390019248	2.067241	1.4377903
33.138589532165135	2.1073484	1.4516709
33.15687603233419	1.9574419	1.3990861
33.17516340128909	1.8222476	1.3499066
33.19345163961947	1.8055335	1.3437015
33.211740747915215	1.8708525	1.367791
33.23003072676643	1.9456135	1.3948525
33.248321576763466	2.0180674	1.420587
33.266613298496885	2.010888	1.4180579
33.28490589255747	1.940722	1.393098
33.30319935953626	1.9111712	1.3824512
33.32149370002451	1.9322282	1.3900461
33.339788914613706	1.9215088	1.3861849
33.358085003895575	1.8590755	1.3634793
33.376381968462034	1.8808122	1.371427
33.39467980890529	1.9361473	1.391455
33.41297852581774	1.9263343	1.3879244
33.43127811979204	1.932201	1.3900363
33.44957859142105	1.886067	1.3733416
33.467879941297866	1.8599846	1.3638126
33.486182170015844	1.8934753	1.376036
33.50448527816853	1.9341476	1.3907363
33.522789266349754	1.9387254	1.3923812
33.541094135153514	1.8799442	1.3711106
33.55939988517411	1.9326491	1.3901975
33.57770651700602	1.9147297	1.3837376
33.59601403124398	1.9219066	1.3863285
33.61432242848296	1.9120809	1.3827801
33.632631709318154	1.8997334	1.3783082
33.650941874344994	1.880714	1.3713913
33.66925292415916	1.8126491	1.3463466
33.68756485935654	1.8169807	1.3479543
33.70587768053328	1.8779817	1.3703947
33.724191388285746	1.8814708	1.3716671
33.74250598321054	1.900959	1.3787527
33.760821465904506	1.9150994	1.3838712
33.77913783696474	1.9071244	1.3809867
33.79745509698852	1.8826342	1.3720912
33.815773246573414	1.8913736	1.3752722
33.8340922863172	2.021273	1.4217148
33.852412216817896	2.0793805	1.4420058
33.87073303867377	2.0229466	1.4223033
33.889054752483304	2.0353625	1.4266613
33.907377358845245	1.9554731	1.3983823
33.92570085835853	1.9385594	1.3923216
33.94402525162239	1.9383535	1.3922477
33.96235053923627	1.9467391	1.3952559
33.980676721799824	1.932701	1.3902161
33.999003799912984	1.9011413	1.3788188
34.01733177417592	1.9682978	1.4029604
34.03566064518901	2.0113852	1.4182332
34.0539904135529	2.0338118	1.4261178
34.07232107986846	2.0152295	1.4195877
34.090652644736785	2.0119336	1.4184264
34.108985108759235	1.9493066	1.3961757
34.12731847253742	1.9421748	1.3936193
34.14565273667313	1.9382677	1.3922168
34.16398790176847	1.896653	1.3771902
34.18232396842574	1.947973	1.3956981
34.20066093724749	1.9732727	1.4047322
34.21899880883651	2.0384314	1.4277365
34.23733758379583	2.0675151	1.4378856
34.25567726272874	2.078691	1.4417666
34.27401784623872	2.0720422	1.439459
34.29235933492957	1.9483039	1.3958166
34.31070172940526	1.8463213	1.3587941
34.32904503027003	1.8606632	1.3640612
34.347389238128386	1.8428628	1.3575208
34.36573435358502	1.7868459	1.3367295
34.38408037724492	1.7654743	1.3287115
34.402427309713296	1.7550181	1.3247709
34.42077515159559	1.8041055	1.3431699
34.43912390349752	1.9112784	1.3824899
34.45747356602499	1.902024	1.3791388
34.47582413978423	1.8978138	1.3776116
34.49417562538163	1.9027911	1.379417
34.51252802342388	1.9573162	1.3990412
34.53088133451789	2.0295413	1.4246197
34.54923555927084	2.1891062	1.4795629
34.567590698290104	2.0335052	1.4260103
34.58594675218336	1.9365525	1.3916007
34.6043037215585	2.0397036	1.4281819
34.62266160702365	2.0745015	1.440313
34.641020409187234	2.097694	1.4483417
34.65938012865785	2.1211295	1.4564098
34.677740766044394	2.04613	1.4304299
34.69610232195598	2.0488043	1.4313645
34.714464797002016	1.9798832	1.4070833
34.73282819179208	1.8734468	1.3687391
34.751192506936064	1.9456033	1.3948488
34.76955774304408	2.0114682	1.4182624
34.7879239007265	2.0150697	1.4195315
34.80629098059391	2.0974483	1.448257
34.824658983257194	2.1286745	1.4589977
34.843027909327446	2.0867667	1.4445646
34.86139775941603	1.9654366	1.4019403
34.879768534134534	1.7976236	1.3407549
34.89814023409483	1.9064114	1.3807286
34.91651285990901	2.1988177	1.4828411
34.93488641218944	2.208668	1.4861588
34.95326089154871	1.9929699	1.4117259
34.97163629859967	1.946671	1.3952315
34.99001263395542	2.1231256	1.4570949
35.00838989822934	2.2274768	1.4924734
35.02676809203499	2.2579935	1.5026622
35.04514721598624	2.3468113	1.5319306
35.063527270697215	2.0815067	1.4427428
35.081908256782256	1.9595393	1.3998355
35.10029017485597	2.0856342	1.4441725
35.11867302553321	2.283632	1.5111691
35.137056809429104	2.1644645	1.4712119
35.155441527159006	1.9651587	1.4018412
35.173827179338524	1.9419371	1.3935341
35.19221376658354	2.2916982	1.5138355
35.21060128951017	2.2976286	1.5157931
35.2289897487348	1.9518481	1.3970855
35.24737914487405	2.080277	1.4423165
35.26576947854479	2.2583394	1.5027772
35.28416075036418	2.1463466	1.4650415
35.30255296094958	2.036197	1.4269537
35.32094611091867	1.7763035	1.3327804
35.33934020088932	1.6993123	1.3035767
35.35773523147969	1.786547	1.3366177
35.3761312033082	2.033166	1.4258913
35.394528116993506	1.9117903	1.382675
35.41292597315452	1.8381879	1.3557979
35.431324772410434	1.9549031	1.3981785
35.449724515380666	1.8867581	1.3735931
35.46812520268491	1.955939	1.398549
35.486526834943106	1.961237	1.4004416
35.504929412775454	1.960773	1.4002761
35.52333293680242	1.7672372	1.3293748
35.54173740764471	1.3763969	1.1731994
35.560142825923286	1.6524241	1.2854664
35.5785491922594	2.038565	1.4277833
35.59695650727454	2.0673168	1.4378166
35.61536477159042	2.9185052	1.7083633
