0.008763373481513119	0.0	0.0
0.026290120649546365	0.0	0.0
0.043816868432600686	0.0	0.0
0.06134361724069026	0.06194876	0.24889508
0.07887036748382949	0.14334916	0.37861478
0.0963971195720331	0.14739029	0.38391444
0.11392387391531617	0.13125487	0.36229113
0.1314506309236943	0.07713535	0.27773252
0.1489773910071836	0.12179758	0.3489951
0.16650415457580078	0.11028838	0.33209693
0.18403092203956356	0.10639415	0.32618117
0.20155769380849	0.14285839	0.3779661
0.2190844702925996	0.15486313	0.39352652
0.2366112519019124	0.158559	0.39819467
0.2541380390464497	0.14608362	0.38220888
0.27166483213623416	0.16526656	0.4065299
0.28919163158128947	0.090673335	0.30112013
0.3067184377916406	0.1185086	0.34425077
0.324245251177314	0.10130344	0.318282
0.34177207214833777	0.11372757	0.33723518
0.3592989011147415	0.11306075	0.33624506
0.37682573848655654	0.103489816	0.32169834
0.39435258467381573	0.0940301	0.30664328
0.41187944008655414	0.105278105	0.32446587
0.42940630513480854	0.13242239	0.36389887
0.446933180228618	0.14723207	0.38370833
0.4644600657780234	0.16907167	0.41118327
0.48198696219306775	0.15164943	0.3894219
0.49951386988379676	0.21278739	0.46128884
0.5170407892602581	0.22031046	0.46937242
0.5345677207325025	0.20114653	0.44849363
0.5520946647105822	0.18902637	0.43477163
0.5696216216045534	0.17957851	0.42376706
0.5871485918244737	0.18206048	0.42668545
0.6046755757804043	0.16356671	0.40443382
0.6222025738824094	0.13300942	0.36470455
0.6397295865405557	0.11616219	0.34082574
0.6572566141649129	0.13706289	0.37022007
0.6747836571655547	0.14242162	0.37738788
0.6923107159525568	0.12525085	0.35390797
0.7098377909359992	0.113048315	0.33622658
0.7273648825259653	0.16186915	0.40232965
0.7448919911325411	0.20853703	0.45665854
0.762419117165817	0.260793	0.51067895
0.7799462610358868	0.2080306	0.4561037
0.7974734231528482	0.19679587	0.4436168
0.8150006039268024	0.15403613	0.39247438
0.8325278037678551	0.1500198	0.3873239
0.8500550230861152	0.14952661	0.3866867
0.8675822622916969	0.13340577	0.36524755
0.8851095217947171	0.14947301	0.3866174
0.9026368020052984	0.16709779	0.40877596
0.9201641033335665	0.18943293	0.43523893
0.9376914261896523	0.21790737	0.4668055
0.9552187709836915	0.23020872	0.4798007
0.9727461381258234	0.24768254	0.49767715
0.990273528026193	0.25490156	0.50487775
1.0078009410949496	0.2464926	0.4964802
1.0253283777422473	0.27394933	0.5234017
1.0428558383782454	0.28766665	0.53634566
1.0603833234131086	0.3031854	0.55062276
1.0779108332570058	0.30659288	0.5537083
1.0954383683201119	0.27789646	0.52715886
1.112965929012607	0.32408038	0.56928056
1.1304935157446763	0.44511896	0.6671724
1.1480211289265108	0.47595218	0.6898929
1.1655487689683062	1.3807994	1.1750742
1.1830764362802655	1.751907	1.3235962
1.200604131272596	2.1893861	1.4796574
1.2181318543555117	2.4472406	1.5643659
1.235659605939232	2.372062	1.5401499
1.253187386433982	3.9149106	1.9786133
1.270715196249994	6.2411795	2.4982352
1.2882430357975057	11.309475	3.3629563
1.3057709054867608	15.78194	3.972649
1.3232988057280106	21.466942	4.633243
1.3408267369315112	26.31819	5.1301255
1.358354699507526	30.134207	5.4894633
1.3758826938663256	34.01952	5.8326254
1.3934107204181858	35.871456	5.9892783
1.410938779573391	36.047375	6.003947
1.4284668717422309	36.15804	6.0131555
1.4459949973350033	36.069168	6.005761
1.4635231567620117	36.328297	6.027296
1.4810513504335687	36.104782	6.0087256
1.4985795787599925	35.1996	5.932925
1.5161078421516088	34.45593	5.8699174
1.5336361410187505	33.807793	5.814447
1.5511644757717598	34.098373	5.839381
1.5686928468209842	34.702496	5.8908825
1.58622125457678	35.274097	5.9392
1.6037496994495108	36.013474	6.0011225
1.621278181849548	36.245724	6.020442
1.6388067021872719	37.156445	6.0956087
1.6563352608730693	36.847385	6.0702047
1.673863858317336	35.77274	5.9810314
1.6913924949304753	34.744427	5.89444
1.7089211711228998	33.490658	5.7871113
1.7264498873050296	32.405243	5.69256
1.7439786438872935	31.742702	5.634066
1.7615074412801288	31.017757	5.569359
1.779036279893981	30.44862	5.518027
1.796565160139305	29.584484	5.4391623
1.814094082426564	28.626974	5.350418
1.8316230471662298	27.715242	5.264527
1.849152054768784	27.024796	5.198538
1.8666811056447168	26.890352	5.1855907
1.8842102002045273	26.169088	5.115573
1.901739338858724	25.70797	5.0703025
1.9192685220178245	25.003378	5.0003376
1.9367977500923557	24.425331	4.942199
1.9543270234928547	23.913244	4.890117
1.971856342629867	23.191406	4.815746
1.9893857079139496	22.709356	4.7654333
2.006915119755667	22.328169	4.7252693
2.0244445785655945	22.06944	4.6978126
2.0419740847543175	21.702477	4.6585917
2.0595036387324317	21.268621	4.6117916
2.0770332409105414	20.884594	4.5699663
2.094562891699263	20.39249	4.5158043
2.1120925915092217	19.648169	4.4326253
2.129622340751053	19.380348	4.402312
2.1471521398354043	187.53925	13.694497
2.1646819891729323	443.77063	21.065865
2.182211889174303	439.7315	20.969776
2.1997418402501974	451.92255	21.25847
2.2172718428113023	432.02783	20.785278
2.234801897268317	320.07132	17.890537
2.2523320040319548	16.718985	4.0888853
2.269862163512935	16.405924	4.0504227
2.287392376121992	16.151894	4.018942
2.304922642269869	15.895577	3.9869258
2.322452962367322	15.559161	3.9445102
2.3399833368251164	15.320561	3.9141488
2.357513766054032	15.067656	3.881708
2.3750442504648586	14.713869	3.8358662
2.3925747904683963	14.424301	3.7979338
2.410105386475459	14.310765	3.7829573
2.4276360388968707	14.160551	3.7630508
2.445166748143469	14.183575	3.7661088
2.4626975146261025	13.832251	3.7191734
2.4802283387556323	13.440884	3.666181
2.4977592209429305	13.003703	3.6060648
2.5152901615988825	12.545167	3.5419157
2.5328211611343865	12.429217	3.5255096
2.5503522199603523	12.49136	3.5343118
2.5678833384877024	12.599985	3.5496457
2.5854145171273712	12.528591	3.539575
2.6029457562903064	11.942646	3.4558134
2.620477056387469	11.379056	3.3732855
2.6380084178298326	11.141473	3.3378844
2.655539841028383	11.239536	3.3525417
2.673071326394119	11.376327	3.372881
2.6906028743380523	11.268063	3.3567934
2.708134485271211	10.949395	3.3089871
2.7256661596046325	10.666235	3.2659202
2.743197897749369	10.431342	3.2297587
2.760729700116486	10.298048	3.209057
2.778261567117063	10.072202	3.1736732
2.795793499162193	9.96916	3.1573977
2.8133254966629817	9.751288	3.1227052
2.830857560030551	9.652496	3.1068466
2.8483896896760337	9.508016	3.083507
2.865921886010578	9.471281	3.0775447
2.883454149445347	9.26671	3.0441272
2.9009864803915177	9.1345215	3.0223372
2.91851887926028	9.138368	3.0229733
2.9360513464628384	9.112287	3.0186565
2.953583882410413	9.0024395	3.0004065
2.9711164875142373	8.768708	2.9612005
2.9886491621855606	8.554355	2.9247828
3.0061819068356455	8.403831	2.898936
3.023714721875769	8.36324	2.8919268
3.041247607717225	8.329756	2.8861315
3.0587805647713213	8.366781	2.8925388
3.0763135934493806	8.207667	2.8649027
3.0938466941627407	8.074122	2.8415
3.1113798673227544	7.963599	2.821985
3.1289131133407904	7.753191	2.7844553
3.1464464326282315	7.716485	2.777856
3.1639798255964786	7.6850557	2.7721932
3.1815132926569443	7.6600704	2.7676833
3.1990468342210603	7.593929	2.7557085
3.216580450700272	7.322679	2.706045
3.2341141425060416	7.09302	2.6632724
3.251647910049847	6.997449	2.6452692
3.2691817537431813	7.0545497	2.6560402
3.286715673997555	7.1317787	2.6705391
3.3042496712244938	7.0848875	2.6617453
3.32178374583554	6.996879	2.6451614
3.339317898242251	6.866713	2.6204414
3.3568521288562034	6.748339	2.5977566
3.3743864380889876	6.715401	2.5914092
3.3919208263522127	6.693056	2.587094
3.4094552940575023	6.567724	2.5627573
3.4269898416164972	6.4813395	2.5458474
3.444524469440858	6.4311633	2.5359738
3.4620591779422587	6.3873377	2.5273182
3.479593967532391	6.2583413	2.5016677
3.4971288386229658	6.1680717	2.4835603
3.5146637916257086	6.199339	2.4898472
3.5321988269523628	6.2929497	2.5085752
3.5497339450146903	6.25141	2.500282
3.5672691462244708	6.154894	2.4809058
3.5848044309934988	6.114407	2.4727328
3.60233979973359	6.1271234	2.4753027
3.619875252856575	6.071607	2.4640632
3.6374107907743034	6.071259	2.4639926
3.6549464138986427	6.1003757	2.469894
3.6724821226414788	6.124632	2.4747994
3.690017917414714	6.1349044	2.4768739
3.7075537986302702	6.134089	2.4767094
3.7250897667000857	6.144898	2.4788904
3.7426258220361235	6.2671285	2.5034235
3.7601619650503553	6.598816	2.568816
3.777698196154779	7.196917	2.682707
3.7952345157614067	8.44876	2.906675
3.8127709242822716	9.319844	3.052842
3.830307422129425	11.60708	3.4069166
3.847844009714936	30.373516	5.511217
3.8653806874508954	97.67162	9.882895
3.882917455749409	96.84334	9.840901
3.900454315022606	96.60846	9.82896
3.917991265682631	41.19515	6.4183445
3.9355283081416506	10.969345	3.3120003
3.9530654428118495	8.723304	2.9535239
3.970602670105433	7.4337225	2.7264855
3.9881399904346244	6.4706845	2.543754
4.005677404211669	6.433545	2.5364435
4.023214911848827	6.444831	2.5386672
4.0407525137583855	6.473962	2.544398
4.058290210352644	6.4102726	2.5318515
4.075828002043927	6.2984924	2.5096798
4.0933658892445814	6.1899753	2.487966
4.110903872366966	6.103315	2.4704888
4.128441951823468	6.017584	2.4530764
4.145980128026488	6.0587993	2.4614627
4.163518401388452	6.0390477	2.4574473
4.181056772321807	6.021863	2.4539485
4.1985952412390155	5.9762335	2.4446337
4.216133808552567	5.9210987	2.4333308
4.233672474674966	6.030395	2.4556863
4.251211240018741	6.169798	2.4839077
4.268750104996445	6.378482	2.5255656
4.286289070020643	7.157628	2.6753743
4.303828135503928	8.635465	2.938616
4.3213673018589125	29.110458	5.395411
4.3389065694982305	90.346825	9.505095
4.356445938834537	165.74591	12.874234
4.3739854102805085	170.78714	13.068556
4.391524984248844	171.62411	13.100538
4.409064661152262	135.61722	11.64548
4.426604441403504	95.91738	9.793742
4.444144325415337	75.16563	8.669811
4.461684313600543	21.192236	4.6035028
4.47922440637193	21.619938	4.6497245
4.496764604142329	20.035744	4.4761305
4.5143049073245916	18.277283	4.2751937
4.531845316331589	16.335825	4.04176
4.5493858315762195	13.272902	3.6431994
4.566926453471405	10.98233	3.3139598
4.584467182430081	8.850101	2.974912
4.602008018865218	7.8264318	2.797576
4.619548963189798	7.183197	2.6801486
4.637090015816834	6.6612616	2.580942
4.654631177159353	6.499404	2.549393
4.672172447630417	6.311172	2.5122046
4.689713827643102	6.1583986	2.4816122
4.7072553176105085	5.980335	2.4454725
4.724796917945764	5.7877154	2.4057672
4.742338629062015	5.7398963	2.395808
4.759880451372434	5.623875	2.3714712
4.777422385290215	5.588107	2.3639178
4.794964431228581	5.580397	2.3622863
4.812506589600768	5.576847	2.3615348
4.830048860820047	5.534428	2.3525364
4.847591245299709	5.482377	2.3414476
4.8651337434530655	5.457546	2.3361392
4.882676355693457	5.404021	2.324655
4.900219082434242	5.47246	2.339329
4.917761924088813	5.5548816	2.3568797
4.935304881070575	5.5630603	2.358614
4.952847953792969	5.5526576	2.3564079
4.970391142669449	5.3796635	2.31941
4.9879344481135055	5.278537	2.2975066
5.005477870538642	5.277161	2.2972074
5.023021410358394	5.2777843	2.2973428
5.040565067986324	5.309263	2.304184
5.05810884383601	5.308118	2.3039353
5.075652738321066	5.245422	2.2902887
5.09319675185512	5.243726	2.2899182
5.110740884851836	5.253128	2.2919703
5.128285137724894	5.2095966	2.282454
5.145829510888007	5.1355453	2.266174
5.163374004754908	5.1949472	2.2792428
5.1809186197393595	5.291266	2.300275
5.198463356255145	5.3342686	2.3096035
5.216008214716077	5.2365923	2.28836
5.233553195535998	5.103064	2.2589962
5.251098299128764	5.0929303	2.2567523
5.268643525908272	5.1239524	2.263615
5.286188876288432	5.179198	2.2757852
5.3037343506831895	5.1699686	2.2737565
5.32127994950651	5.07858	2.2535706
5.3388256731723915	5.063042	2.2501204
5.356371522094851	5.0636764	2.2502613
5.373917496687938	5.1696286	2.2736816
5.391463597365729	5.162564	2.2721276
5.40900982454232	5.1868744	2.277471
5.426556178631843	5.136392	2.266361
5.444102660048449	5.0823183	2.2543998
5.4616492692063225	5.089566	2.2560067
5.479196006519669	5.141266	2.267436
5.496742872402727	5.17367	2.2745702
5.514289867269756	5.168032	2.2733307
5.531836991535049	5.064963	2.2505472
5.549384245612924	5.008084	2.2378747
5.566931629917724	4.9797826	2.2315426
5.584479144863822	5.067774	2.2511716
5.6020267908656205	5.069058	2.2514567
5.619574568337545	5.0193586	2.2403924
5.637122477694054	4.971157	2.2296093
5.654670519349629	4.9725795	2.229928
5.672218693718784	4.9664583	2.2285552
5.689767001216059	4.9605865	2.2272375
5.707315442256021	5.0177445	2.2400322
5.724864017253266	5.0768943	2.2531965
5.7424127266224225	5.067982	2.2512178
5.75996157077814	5.083685	2.2547028
5.777510550135105	5.090975	2.2563188
5.795059665108022	5.0187535	2.2402575
5.812608916111639	5.0351243	2.2439082
5.830158303560715	5.0559597	2.2485461
5.847707827870055	5.0734067	2.2524223
5.86525748945448	5.161707	2.271939
5.8828072887288485	5.272196	2.2961264
5.900357226108044	5.3638663	2.3160021
5.917907302006979	5.402024	2.3242254
5.9354575168406	6.0722933	2.4642024
5.9530078710238765	6.7925615	2.6062543
5.970558364971812	7.4321446	2.726196
5.988108999099438	7.8484964	2.8015168
6.005659773821818	8.375627	2.8940675
6.023210689554039	8.096736	2.8454764
6.040761746711227	8.461232	2.9088197
6.058312945708531	7.7457237	2.783114
6.075864286961132	7.1978207	2.6828754
6.093415770884244	6.568574	2.562923
6.1109673978931065	6.0494537	2.4595637
6.128519168402993	5.464334	2.3375914
6.146071082829204	5.315042	2.3054376
6.163623141587075	5.2325706	2.2874813
6.181175345091969	5.177016	2.2753057
6.198727693759281	5.17894	2.2757285
6.216280188004435	5.1044316	2.259299
6.233832828242885	5.083131	2.25458
6.251385614890126	5.105757	2.2595923
6.268938548361669	5.068757	2.25139
6.286491629073067	5.0398035	2.2449508
6.304044857439898	4.993177	2.2345417
6.321598233877777	4.915896	2.217182
6.339151758802344	4.9162593	2.217264
6.356705432629277	4.8610606	2.2047813
6.37425925577428	4.8433595	2.2007635
6.391813228653095	4.780409	2.1864147
6.409367351681486	4.8069353	2.1924725
6.426921625275259	4.8042192	2.1918528
6.44447604985025	4.8565426	2.2037566
6.46203062582232	4.869004	2.2065818
6.47958535360737	4.8447275	2.2010741
6.497140233621328	4.848081	2.2018359
6.514695266280161	4.902578	2.2141767
6.532250451999859	4.9679728	2.228895
6.549805791196454	4.955478	2.2260904
6.567361284286002	4.929949	2.2203488
6.584916931684597	4.892606	2.2119236
6.602472733808367	4.896468	2.2127964
6.6200286910734665	4.9488187	2.224594
6.637584803896092	4.9174166	2.2175248
6.655141072692462	4.934125	2.221289
6.672697497878842	4.9309754	2.2205799
6.690254079871514	4.926158	2.219495
6.707810819086808	4.923151	2.2188175
6.725367715941078	4.813458	2.1939595
6.742924770850719	4.763395	2.1825204
6.760481984232151	4.783161	2.187044
6.778039356501836	4.7947516	2.189692
6.795596888076266	4.875363	2.2080224
6.813154579371963	4.925223	2.2192843
6.830712430805492	4.9830775	2.2322807
6.84827044279344	4.953734	2.2256985
6.865828615752445	4.9312277	2.2206368
6.883386950099159	4.888524	2.2110007
6.900945446250287	4.8735313	2.2076075
6.918504104622553	4.865455	2.2057776
6.936062925632727	4.9246664	2.219159
6.953621909697607	4.948066	2.2244248
6.971181057234028	4.9786625	2.2312918
6.988740368658859	5.0025015	2.2366273
7.006299844389007	5.0268292	2.2420592
7.023859484841407	5.1318626	2.2653615
7.041419290433036	5.2252073	2.2858713
7.058979261580902	5.330285	2.308741
7.0765393987020495	5.549791	2.3557994
7.094099702213559	5.8863535	2.4261808
7.111660172532549	6.170732	2.4840958
7.129220810076164	6.456405	2.5409458
7.146781615261595	6.974374	2.640904
7.16434258850606	7.3813457	2.7168632
7.181903730226821	7.836686	2.7994082
7.1994650408411704	8.035195	2.834642
7.217026520766437	8.152324	2.8552275
7.234588170419983	8.295589	2.8802066
7.252149990219215	8.291856	2.8795583
7.269711980581568	8.2476845	2.8718781
7.2872741419245175	8.112695	2.8482792
7.304836474665574	7.7134867	2.7773166
7.322398979222286	7.302405	2.7022963
7.339961656012233	7.0312924	2.6516585
7.357524505453039	6.6911855	2.5867326
7.375087527962357	6.4213443	2.534037
7.392650723957886	6.154811	2.480889
7.410214093857353	5.76786	2.4016368
7.427777638078528	5.5712533	2.3603501
7.445341357039213	5.4071574	2.3253295
7.4629052511572525	5.27491	2.2967172
7.480469320850524	5.212142	2.2830117
7.498033566536948	5.1813407	2.2762558
7.5155979886344735	5.1277986	2.2644644
7.5331625875610975	5.0422277	2.2454906
7.550727363734844	4.987508	2.2332728
7.568292317573788	4.993332	2.2345765
7.585857449496025	4.9554195	2.226077
7.603422759919705	5.0433865	2.2457485
7.620988249263007	5.0304856	2.2428744
7.638553917944147	5.1278787	2.264482
7.656119766381391	5.135569	2.2661793
7.673685794993023	5.1421084	2.2676218
7.691252004197388	5.036561	2.2442284
7.70881839441285	5.055711	2.2484908
7.726384966057826	5.051632	2.2475836
7.743951719550762	5.0687284	2.2513838
7.761518655310149	5.1245503	2.263747
7.779085773754511	5.1609464	2.2717717
7.796653075302419	5.1771913	2.2753441
7.814220560372475	5.178496	2.275631
7.831788229383323	5.142938	2.2678046
7.8493560827536495	5.156618	2.2708187
7.866924120902174	5.188335	2.2777917
7.884492344247663	5.2264204	2.2861366
7.9020607532089135	5.3012886	2.3024528
7.919629348204771	5.255634	2.292517
7.937198129654115	5.2392316	2.2889369
7.954767097975865	5.184861	2.277029
7.972336253588986	5.133575	2.2657394
7.989905596912472	5.152851	2.2699893
8.007475128365371	5.231479	2.2872427
8.025044848366756	5.325566	2.3077188
8.042614757335754	5.41859	2.3277864
8.060184855691523	5.4404364	2.3324742
8.07775514385327	5.5283256	2.3512392
8.095325622240228	5.5832653	2.3628933
8.112896291271687	5.579347	2.3620641
8.130467151366968	5.623651	2.3714237
8.148038202945436	5.686118	2.3845582
8.165609446426497	5.687217	2.3847888
8.183180882229594	5.7738924	2.4028926
8.200752510774217	5.7587876	2.3997474
8.218324332479893	5.8046856	2.4092915
8.235896347766193	5.77809	2.4037657
8.253468557052724	5.779589	2.4040775
8.27104096075914	5.8589606	2.420529
8.288613559305137	5.9644127	2.4422147
8.306186353110448	6.0419908	2.4580462
8.32375934259485	6.061799	2.4620721
8.341332528178162	6.0574665	2.4611921
8.358905910280246	6.103906	2.4706085
8.376479489321003	6.1772456	2.4854066
8.394053265720377	6.1594195	2.4818177
8.411627239898356	6.1922784	2.4884288
8.42920141227497	6.159393	2.4818125
8.44677578327029	6.2045755	2.4908986
8.464350353304427	6.081424	2.4660544
8.48192512279754	5.9835434	2.4461281
8.499500092169827	5.9113035	2.4313173
8.51707526184153	5.9203067	2.433168
8.534650632232934	5.9879465	2.4470282
8.552226203764365	6.074758	2.4647024
8.569801976856192	6.125196	2.4749134
8.587377951928834	6.2007275	2.490126
8.60495412940274	6.2014995	2.490281
8.622530509698416	6.2825904	2.5065095
8.6401070932364	6.391712	2.5281835
8.657683880437283	6.4916344	2.5478685
8.675260871721695	6.54664	2.5586402
8.692838067510303	6.6522775	2.579201
8.710415468223834	6.7008047	2.5885913
8.727993074283043	6.7788515	2.6036227
8.745570886108737	6.822742	2.612038
8.763148904121765	6.8960013	2.6260238
8.78072712874302	6.976941	2.64139
8.798305560393441	7.1699376	2.6776738
8.815884199494006	7.367145	2.7142484
8.833463046465745	7.56503	2.75046
8.851042101729728	7.700766	2.7750254
8.86862136570707	7.936179	2.8171225
8.886200838818924	8.092618	2.8447528
8.903780521486505	8.146848	2.8542683
8.921360414131055	8.212179	2.86569
8.938940517173874	8.350552	2.8897321
8.956520831036297	8.476098	2.9113739
8.97410135613971	8.75348	2.958628
8.99168209290554	8.95746	2.9929016
9.009263041755265	9.310009	3.0512307
9.026844203110405	9.435174	3.071673
9.044425577392525	9.62642	3.1026473
9.062007165023239	9.693753	3.1134794
9.079588966424197	10.108673	3.179414
9.097170982017108	10.253666	3.2021346
9.11475321222372	11.356957	3.3700085
9.132335657465825	12.239613	3.4985158
9.149918318165264	12.292493	3.5060651
9.167501194743924	12.839447	3.5832174
9.18508428762374	12.547613	3.5422611
9.202667597226693	12.554384	3.5432167
9.220251123974803	12.228066	3.4968653
9.237834868290143	11.954419	3.4575164
9.255418830594836	11.851254	3.4425652
9.273003011311046	11.233901	3.3517013
9.290587410860985	10.92226	3.3048842
9.308172029666911	10.284367	3.2069247
9.32575686815113	9.974633	3.1582642
9.343341926735997	8.622351	2.936384
9.360927205843916	8.394333	2.8972976
9.378512705897327	8.244609	2.8713427
9.396098427318728	8.079399	2.8424284
9.413684370530664	7.9708343	2.8232665
9.431270535955722	7.82933	2.798094
9.448856924016539	7.7337084	2.7809546
9.466443535135806	7.6059833	2.7578948
9.484030369736251	7.6071706	2.75811
9.501617428240658	7.4826107	2.7354362
9.519204711071852	7.467372	2.7326493
9.536792218652714	7.4602323	2.7313426
9.55437995140617	7.5727477	2.7518625
9.571967909755191	7.6745787	2.770303
9.589556094122802	7.752849	2.7843938
9.60714450493207	7.8341384	2.798953
9.624733142606116	7.9249463	2.815128
9.642322007568108	7.911532	2.8127446
9.659911100241267	7.9429755	2.8183284
9.677500421048851	7.9064417	2.8118396
9.695089970414175	7.9621964	2.8217363
9.712679748760609	7.974125	2.8238492
9.730269756511557	7.976512	2.824272
9.747859994090492	8.004578	2.8292363
9.765450461920915	8.043057	2.8360286
9.78304116042639	8.095153	2.8451982
9.800632090030527	8.08275	2.8430178
9.81822325115699	8.112398	2.8482273
9.835814644229481	8.189236	2.861684
9.853406269671762	8.2646475	2.87483
9.870998127907646	8.264873	2.874869
9.888590219360985	8.235018	2.869672
9.906182544455698	8.223551	2.8676734
9.923775103615734	8.198641	2.8633268
9.941367897265108	8.212976	2.865829
9.958960925827878	8.139242	2.8529358
9.97655418972816	8.113011	2.8483348
9.994147689390106	8.149988	2.8548183
10.011741425237934	8.1982565	2.8632598
10.029335397695904	8.250369	2.8723457
10.04692960718833	8.240956	2.8707066
10.06452405413958	8.09162	2.8445773
10.082118738974064	8.038731	2.8352656
10.099713662116246	7.9884167	2.8263788
10.117308823990651	8.044893	2.836352
10.134904225021844	8.005926	2.8294744
10.152499865634445	8.0311165	2.8339224
10.170095746253125	8.071424	2.841025
10.18769186730261	8.067744	2.8403776
10.205288229207675	8.060125	2.839036
10.222884832393145	8.04005	2.835498
10.2404816772839	7.958317	2.821049
10.258078764304868	7.928915	2.8158329
10.275676093881035	7.944628	2.8186216
10.293273666437438	7.952319	2.8199856
10.310871482399158	8.022633	2.832425
10.32846954219134	7.9740086	2.8238287
10.346067846239173	8.000154	2.8284543
10.363666394967908	7.967925	2.8227513
10.38126518880283	7.9795623	2.824812
10.398864228169298	8.034144	2.8344567
10.416463513492713	8.026926	2.833183
10.434063045198531	7.9999723	2.8284223
10.451662823712262	7.976895	2.8243396
10.469262849459467	7.953474	2.8201904
10.486863122865758	7.9950004	2.8275433
10.504463644356806	8.050015	2.837255
10.522064414358338	8.01906	2.8317945
10.539665433296118	7.940789	2.8179407
10.557266701595987	7.775472	2.7884533
10.574868219683818	7.668037	2.7691221
10.592469987985552	7.617687	2.7600157
10.610072006927185	7.540185	2.7459397
10.627674276934751	7.498819	2.7383971
10.64527679843435	7.390008	2.718457
10.662879571852143	7.287437	2.6995254
10.680482597614331	7.1398745	2.6720543
10.698085876147173	7.0787654	2.660595
10.715689407876988	6.9555345	2.6373348
10.733293193230146	6.862542	2.6196454
10.750897232633072	6.7234683	2.5929651
10.76850152651225	6.5556355	2.5603976
10.786106075294207	6.4388094	2.5374808
10.803710879405534	6.3272943	2.5154114
10.821315939272877	6.276964	2.505387
10.83892125532294	6.1591563	2.4817648
10.856526827982472	6.131397	2.4761658
10.874132657678285	6.1541367	2.4807532
10.891738744837243	6.132791	2.4764473
10.909345089886271	6.084398	2.4666572
10.926951693252343	6.0021915	2.449937
10.944558555362494	5.9488034	2.4390168
10.96216567664381	5.847303	2.4181197
10.979773057523436	5.714326	2.3904657
10.997380698428573	5.705737	2.3886685
11.014988599786477	5.701414	2.3877635
11.032596762024461	5.6932726	2.3860579
11.050205185569892	5.607223	2.3679576
11.067813870850198	5.5683727	2.35974
11.085422818292859	5.4658227	2.33791
11.10303202832541	5.3814816	2.319802
11.120641501375454	5.260727	2.2936275
11.138251237870636	5.180942	2.2761683
11.155861238238671	5.141482	2.2674837
11.173471502907317	5.078389	2.253528
11.191082032304402	5.015945	2.2396305
11.208692826857805	4.926458	2.2195625
11.226303886995465	4.9042478	2.2145536
11.243915213145371	4.8249	2.1965656
11.261526805735578	4.7751703	2.1852164
11.279138665194196	4.72964	2.1747735
11.296750791949393	4.746019	2.178536
11.314363186429393	4.763358	2.1825118
11.331975849062479	4.714669	2.171329
11.34958878027699	4.598689	2.1444554
11.36720198050133	4.525249	2.1272633
11.384815450163948	4.4863257	2.118095
11.402429189693366	4.493105	2.1196945
11.420043199518153	4.4416604	2.1075246
11.437657480066942	63.41137	7.9631257
11.455272031768422	85.10345	9.225153
11.472886855051353	107.51924	10.369148
11.490501950344528	99.09294	9.954544
11.508117318076819	84.39963	9.186927
11.52573295867715	45.76747	6.765166
11.543348872574514	4.08384	2.0208514
11.560965060197946	4.083372	2.0207355
11.57858152197655	4.0557094	2.0138793
11.59619825833949	3.972977	1.9932327
11.613815269715985	3.945314	1.9862814
11.631432556535323	38.418495	6.1982656
11.649050119226837	82.94164	9.10723
11.666667958219929	93.339615	9.6612425
11.68428607394406	107.63233	10.3746
11.701904466828756	82.46704	9.081137
11.719523137303586	65.32758	8.082548
11.737142085798196	4.574114	2.138718
11.754761312742286	3.6787934	1.9180181
11.772380818565619	3.606926	1.8991909
11.790000603698015	3.53269	1.8795452
11.80762066856935	3.5183141	1.8757169
11.825241013609572	3.52726	1.8781002
11.842861639248683	3.509094	1.8732576
11.860482545916748	3.4561243	1.8590654
11.878103734043883	3.4186475	1.8489585
11.895725204060282	3.3437028	1.8285794
11.91334695639619	3.34198	1.8281083
11.930968991481919	3.3491356	1.8300644
11.948591309747824	3.362237	1.8336403
11.966213911624347	3.3436642	1.8285689
11.98383679754198	3.3010864	1.8168892
12.001459967931268	3.2933207	1.8147509
12.019083423222835	3.2501664	1.8028218
12.036707163847352	3.19937	1.7886783
12.05433119023556	3.1529884	1.7756656
12.071955502818259	3.1239262	1.7674632
12.089580102026313	3.1298244	1.769131
12.107204988290643	3.0859926	1.7566993
12.12483016204224	3.061009	1.749574
12.142455623712152	3.0626497	1.7500428
12.16008137373149	3.0859964	1.7567004
12.177707412531431	3.0803533	1.7550936
12.19533374054321	3.0147662	1.7363082
12.212960358198126	2.9566686	1.7194966
12.230587265927545	2.9051743	1.7044572
12.248214464162889	2.9420793	1.7152491
12.265841953335649	2.95286	1.7183888
12.283469733877375	2.9500341	1.7175664
12.301097806219685	2.951567	1.7180125
12.31872617079425	2.9557467	1.7192285
12.336354828032825	2.9674747	1.722636
12.353983778367205	2.9317915	1.7122475
12.371613022229262	2.865202	1.6926907
12.389242560050928	2.8259184	1.6810468
12.406872392264201	2.805689	1.6750191
12.424502519301143	2.7929926	1.6712248
12.442132941593874	2.789719	1.6702452
12.459763659574586	2.7384224	1.6548179
12.477394673675532	2.7611332	1.6616658
12.49502598432903	2.7575994	1.6606021
12.51265759196746	2.7829568	1.6682197
12.530289497023267	2.7664776	1.6632731
12.547921699928967	2.7696393	1.6642233
12.565554201117134	2.7363858	1.6542025
12.583187001020404	2.7286525	1.6518633
12.600820100071486	2.7209766	1.6495383
12.618453498703152	2.747253	1.6574839
12.636087197348235	2.7204957	1.6493925
12.65372119643964	2.6742527	1.6353142
12.671355496410326	2.6436734	1.6259377
12.68899009769333	2.651345	1.6282952
12.706625000721749	2.7677047	1.663642
12.724260205928752	2.8488173	1.687844
12.741895713747551	2.9046307	1.7042977
12.759531524611454	2.9236434	1.7098665
12.777167638953818	2.9106154	1.7060525
12.794804057208072	2.9468448	1.7166376
12.812440779807702	2.993076	1.7300509
12.830077807186271	3.1910117	1.7863404
12.847715139777405	3.2328014	1.7979993
12.865352778014795	3.4371998	1.8539686
12.882990722332197	3.5306742	1.8790089
12.90062897316344	3.6133075	1.9008702
12.918267530942412	3.7308426	1.9315389
12.935906396103071	3.6142418	1.9011159
12.953545569079449	3.792165	1.9473482
12.971185050305628	3.5840065	1.8931472
12.988824840215775	3.5823987	1.8927226
13.006464939244115	3.563077	1.8876114
13.024105347824943	3.4045293	1.8451366
13.041746066392617	3.5071142	1.8727291
13.05938709538157	3.3032355	1.8174806
13.077028435226296	3.3521113	1.8308772
13.094670086361363	3.2363665	1.7989904
13.112312049221401	3.1401327	1.7720419
13.129954324241112	3.0527713	1.7472181
13.147596911855258	2.8477902	1.6875397
13.165239812498685	2.8055446	1.674976
13.182883026606293	2.7293015	1.6520598
13.200526554613058	2.707218	1.6453625
13.218170396954017	2.6734543	1.6350701
13.235814554064284	2.6346972	1.623175
13.253459026379034	2.6230366	1.6195792
13.271103814333523	2.6169379	1.6176952
13.288748918363058	2.6275048	1.620958
13.306394338903031	2.622973	1.6195595
13.32404007638889	2.6012232	1.6128308
13.341686131256164	2.6363735	1.6236913
13.359332503940449	2.639208	1.6245639
13.376979194877402	2.6301188	1.6217641
13.394626204502751	2.628849	1.6213726
13.412273533252307	2.639746	1.6247295
13.429921181561937	2.6393564	1.6246096
13.447569149867581	2.6168973	1.6176827
13.465217438605247	2.6284814	1.6212592
13.482866048211022	2.6165695	1.6175814
13.500514979121052	2.666185	1.6328456
13.518164231771568	2.6642146	1.6322422
13.535813806598844	2.6666675	1.6329935
13.553463704039254	2.6318417	1.6222951
13.571113924529229	2.6076484	1.6148214
13.588764468505275	2.6106658	1.6157554
13.606415336403956	2.6363919	1.6236969
13.624066528661917	2.67582	1.6357934
13.641718045715882	2.73636	1.6541947
13.659369888002635	2.8139908	1.6774954
13.67702205595903	2.8669724	1.6932137
13.694674550021993	2.8980823	1.7023755
13.712327370628532	2.927665	1.711042
13.729980518215713	2.9963508	1.7309971
13.747633993220681	3.0816305	1.7554573
13.765287796080647	3.1372278	1.7712221
13.7829419272329	3.2050364	1.7902615
13.800596387114801	3.248608	1.8023895
13.818251176163775	3.274758	1.8096293
13.835906294817324	3.3462749	1.8292826
13.853561743513023	3.38191	1.838997
13.871217522688525	3.4329705	1.8528277
13.888873632781538	3.463248	1.8609804
13.906530074229858	3.5082273	1.8730263
13.92418684747135	3.5221033	1.8767267
13.941843952943948	3.5010076	1.8710979
13.959501391085665	3.4777567	1.8648745
13.977159162334578	3.4134989	1.8475657
13.994817267128846	3.3807454	1.8386804
14.012475705906693	3.2511694	1.8031
14.030134479106424	3.1873782	1.785323
14.047793587166414	3.1309001	1.7694349
14.065453030525108	3.096494	1.7596858
14.083112809621026	3.0188162	1.7374741
14.100772924892766	2.9179115	1.7081896
14.118433376778997	2.8396158	1.6851159
14.136094165718458	2.783238	1.668304
14.153755292149969	2.7120779	1.6468388
14.171416756512416	2.658988	1.6306404
14.189078559244768	2.5705445	1.6032917
14.20674070078606	2.5447173	1.595217
14.224403181575408	2.5231063	1.5884289
14.242066002051999	2.5213842	1.5878867
14.259729162655093	2.4944928	1.5793964
14.277392663824022	2.4427762	1.5629383
14.295056505998208	2.4004147	1.5493271
14.312720689617128	2.3723323	1.5402378
14.330385215120348	2.397672	1.5484418
14.348050082947497	2.4384274	1.5615464
14.3657152935383	2.4114177	1.552874
14.383380847332528	2.352027	1.5336319
14.401046744770051	2.311521	1.5203687
14.418712986290798	2.3353105	1.5281723
14.436379572334793	2.3450875	1.5313679
14.454046503342123	2.348042	1.5323322
14.471713779752946	2.338239	1.5291301
14.489381402007504	2.3432608	1.5307713
14.507049370546113	2.3458192	1.5316068
14.524717685809168	2.3375275	1.5288975
14.542386348237134	2.3401377	1.5297508
14.560055358270553	2.3509552	1.5332825
14.577724716350051	2.3975465	1.5484012
14.595394422916325	2.402813	1.5501009
14.61306447841015	2.4484274	1.5647452
14.63073488327237	2.4538732	1.5664843
14.648405637943917	2.47061	1.5718174
14.6660767428658	2.4319887	1.5594835
14.683748198479094	2.4486518	1.5648168
14.701420005224954	2.482552	1.5756116
14.719092163544628	2.5887918	1.6089723
14.73676467387942	2.6353624	1.62338
14.754437536670727	2.6749074	1.6355144
14.772110752360014	2.6457279	1.6265694
14.78978432138882	2.6235282	1.619731
14.807458244198777	2.6364515	1.6237153
14.82513252123159	2.6368322	1.6238326
14.842807152929028	2.700279	1.6432526
14.860482139732962	2.6492639	1.627656
14.87815748208531	2.615087	1.6171231
14.8958331804281	2.5791817	1.6059831
14.91350923520342	2.5571918	1.5991222
14.931185646853438	2.5718105	1.6036866
14.948862415820408	2.5592663	1.5997707
14.966539542546656	2.5711334	1.6034755
14.98421702747459	2.5720558	1.603763
15.001894871046696	2.5952084	1.610965
15.019573073705542	2.5895085	1.609195
15.037251635893766	2.5365503	1.5926551
15.054930558054092	2.5959485	1.6111947
15.072609840629323	2.6849515	1.6385822
15.090289484062351	2.8222806	1.6799644
15.107969488796124	3.0633264	1.750236
15.125649855273691	3.4806929	1.8656615
15.14333058393817	3.9518676	1.9879305
15.161011675232768	4.819703	2.195382
15.17869312960076	6.060764	2.4618618
15.196374947485506	7.8463144	2.8011274
15.214057129330447	10.887881	3.299679
15.231739675579114	15.69554	3.9617598
15.249422586675102	21.033945	4.586278
15.267105863062092	24.365454	4.9361377
15.284789505183847	24.926542	4.9926486
15.302473513484218	23.113962	4.8076982
15.320157888407127	19.655972	4.4335055
15.337842630396578	15.369332	3.920374
15.355527739896656	11.9275465	3.453628
15.37321321735153	9.211335	3.0350182
15.39089906320545	6.6251535	2.5739374
15.408585277902748	4.8621297	2.2050238
15.42627186188783	3.6936114	1.921877
15.443958815605198	3.1171982	1.765559
15.461646139499424	2.8133986	1.6773189
15.479333834015168	2.6647787	1.6324149
15.497021899597165	2.5828137	1.6071135
15.514710336690234	2.521211	1.5878321
15.53239914573928	2.454058	1.5665433
15.550088327189297	2.456163	1.567215
15.567777881485336	2.454973	1.5668353
15.58546780907256	2.416769	1.5545961
15.6031581103962	2.3889906	1.545636
15.620848785901568	2.3932164	1.5470024
15.638539836034063	2.4193726	1.5554333
15.656231261239173	2.4164467	1.5544925
15.673923061962451	2.4188235	1.5552567
15.691615238649552	2.4209306	1.555934
15.709307791746202	2.3673882	1.5386319
15.727000721698221	2.3563135	1.5350288
15.744694028951498	2.3546734	1.5344945
15.76238771395202	2.3736498	1.5406654
15.780081777145844	2.3913496	1.5463989
15.797776218979125	2.3708963	1.5397716
15.815471039898094	2.3680038	1.538832
15.833166240349064	2.3464067	1.5317985
15.850861820778437	2.3574724	1.5354062
15.868557781632699	2.332757	1.5273366
15.886254123358412	2.3522458	1.5337033
15.903950846402232	2.3542392	1.534353
15.921647951210897	2.3553507	1.5347152
15.939345438231225	2.3208008	1.5234175
15.957043307910133	2.319356	1.5229431
15.974741560694602	2.3286939	1.5260059
15.992440197031714	2.367301	1.5386035
16.01013921736862	2.3777678	1.5420012
16.02783862215259	2.3650346	1.537867
16.045538411830933	2.340951	1.5300167
16.06323858685107	2.3486912	1.532544
16.080939147660512	2.3519125	1.5335946
16.09864009470684	2.3493977	1.5327744
16.11634142843774	2.3601835	1.5362889
16.134043149300954	2.368676	1.5390503
16.15174525774433	2.3900917	1.5459921
16.169447754215817	2.3832936	1.543792
16.18715063916342	2.3752446	1.5411829
16.204853913035244	2.354651	1.5344872
16.222557576279478	2.3596144	1.5361036
16.240261629344403	22.362305	4.72888
16.257966072678386	42.93242	6.5522833
16.275670906729868	38.041718	6.1677966
16.293376131947387	2.418548	1.5551682
16.31108174877957	2.4354517	1.5605934
16.328787757675133	2.4917383	1.5785241
16.34649415908287	2.520799	1.5877024
16.364200953451657	2.5562696	1.5988338
16.38190814123048	2.566295	1.6019659
16.39961572286839	2.6027358	1.6132996
16.41732369881455	2.6206865	1.6188534
16.43503206951817	2.6435716	1.6259063
16.45274083542859	2.6852474	1.6386725
16.47044999699522	2.7223983	1.6499692
16.488159554667558	2.7751248	1.6658705
16.505869508895184	2.8091762	1.6760597
16.523579860127786	2.8448195	1.6866593
16.541290608815117	2.8864455	1.6989542
16.559001755407035	2.9337614	1.7128227
16.57671330035348	2.9589798	1.7201686
16.59442524410448	2.9823608	1.7269514
16.61213758711015	3.0791292	1.7547448
16.629850329820705	3.1572964	1.7768782
16.647563472686436	3.2607777	1.8057624
16.665277016157724	3.346884	1.829449
16.682990960685053	3.4118001	1.8471059
16.70070530671898	3.456548	1.8591794
16.718420054710155	3.460033	1.8601164
16.736135205109335	3.4778035	1.864887
16.753850758367335	3.5289397	1.8785472
16.771566714935087	3.5555472	1.8856158
16.789283075263597	3.6258538	1.9041675
16.80699983980398	3.6746058	1.9169261
16.82471700900741	3.77617	1.943237
16.84243458332518	3.8914716	1.9726813
16.860152563208665	3.9658713	1.9914496
16.87787094910932	3.9917998	1.9979489
16.89558974147871	4.0338454	2.0084436
16.913308940768466	4.097214	2.0241578
16.931028547430333	4.172938	2.042777
16.94874856191613	4.2147512	2.052986
16.966468984677785	4.2737207	2.067298
16.98418981616729	4.299322	2.0734806
17.00191105683676	4.362227	2.0885944
17.019632707138374	4.418474	2.1020167
17.03735476752442	4.46239	2.112437
17.05507723844728	4.518414	2.1256561
17.072800120359403	4.588261	2.1420226
17.090523413713353	4.5898423	2.1423917
17.108247118961785	4.566578	2.1369553
17.125971236557437	4.52799	2.1279073
17.143695766953133	4.5673184	2.1371286
17.161420710601806	4.614632	2.1481695
17.179146067956477	4.6066966	2.1463215
17.19687183947025	4.64082	2.1542563
17.21459802559634	4.6150475	2.148266
17.232324626788028	4.6300383	2.1517525
17.25005164349871	4.6074986	2.1465085
17.267779076181863	4.596145	2.1438622
17.285506925291074	4.5539203	2.1339917
17.30323519127999	4.505467	2.1226084
17.320963874602384	4.537279	2.130089
17.33869297571211	4.576375	2.1392465
17.356422495063114	4.6084065	2.14672
17.37415243310944	4.527232	2.1277294
17.391882790305218	4.3979	2.0971172
17.40961356710468	4.3432226	2.08404
17.42734476396215	4.344862	2.0844333
17.445076381332044	4.346161	2.0847447
17.462808419668868	4.438652	2.1068108
17.48054087942723	4.54541	2.1319969
17.498273761061835	4.8227262	2.1960707
17.51600706502747	5.232301	2.2874224
17.533740791779024	5.9138966	2.4318504
17.551474941771485	7.3376017	2.7088008
17.56920951545993	8.467455	2.9098892
17.586944513299528	10.833494	3.2914274
17.60467993574556	12.628772	3.5536983
17.622415783253373	14.487014	3.806181
17.64015205627843	16.027592	4.0034475
17.657888755276293	17.338894	4.1639996
17.675625880702604	18.085907	4.252753
17.69336343301311	17.981987	4.240517
17.71110141266366	16.993855	4.12236
17.728839820110178	15.74784	3.9683547
17.746578655808705	14.516017	3.8099892
17.764317920215372	12.798493	3.5774982
17.7820576137864	11.12758	3.3358028
17.79979773697811	9.170698	3.028316
17.81753829024692	7.2986255	2.7015967
17.835279274049356	5.6813273	2.3835535
17.85302068884201	4.6324725	2.152318
17.870762535081607	4.0229645	2.005733
17.888504813224934	3.781487	1.9446046
17.90624752372891	3.627926	1.9047116
17.923990667050536	3.5282316	1.8783587
17.941734243646895	3.4409268	1.8549736
17.959478253975185	3.391223	1.8415273
17.9772226984927	3.3654099	1.8345053
17.994967577656833	3.3407314	1.8277668
18.01271289192506	3.3286564	1.8244606
18.030458641754965	3.356827	1.8321645
18.04820482760425	3.3086817	1.8189782
18.06595144993067	3.2578294	1.8049458
18.083698509192125	3.2213526	1.7948127
18.101446005846576	3.1714575	1.7808586
18.119193940352105	3.1238663	1.7674463
18.136942313166887	3.1137846	1.7645919
18.1546911247492	3.130399	1.7692933
18.1724403755574	3.1370668	1.7711767
18.19019006604997	3.130052	1.7691953
18.207940196685467	3.1248162	1.767715
18.225690767922575	3.0868068	1.7569311
18.243441780220046	3.0602036	1.7493438
18.261193234036764	3.0434053	1.7445358
18.278945129831676	2.9975917	1.7313554
18.29669746806386	2.9449375	1.716082
18.314450249192483	2.9296625	1.7116257
18.3322034736768	2.947233	1.7167507
18.349957141976184	2.959306	1.7202634
18.3677112545501	2.9421945	1.7152826
18.385465811858108	2.9392905	1.7144359
18.403220814359884	2.9701037	1.7233989
18.420976262515172	3.0232556	1.7387512
18.43873215678387	3.030293	1.7407737
18.456488497625923	3.036536	1.7425659
18.474245285501407	3.1291502	1.7689404
18.492002520870486	3.2145302	1.792911
18.50976020419343	3.3057413	1.8181697
18.527518335930615	3.5771985	1.8913484
18.545276916542516	4.104362	2.0259225
18.563035946489688	4.201412	2.0497346
18.580795426232832	4.688126	2.165208
18.598555356232698	4.5980916	2.1443162
18.616315736950185	4.899441	2.213468
18.63407656884626	4.5772204	2.1394439
18.65183785238201	4.737887	2.176669
18.669599588018617	4.471952	2.1146991
18.68736177621737	4.4855647	2.1179152
18.705124417439652	4.48719	2.1182988
18.72288751214696	4.3373346	2.0826268
18.740651060800886	4.471149	2.114509
18.758415063863115	4.2336545	2.0575845
18.77617952179546	4.378588	2.0925076
18.793944435059814	4.145993	2.0361712
18.811709804118184	4.15461	2.038286
18.829475629432675	4.0845957	2.0210383
18.8472419114655	3.8822398	1.97034
18.86500865067897	3.9209547	1.9801401
18.88277584753551	3.6169722	1.9018339
18.90054350249763	3.6315923	1.9056737
18.918311616027957	3.3526063	1.8310124
18.936080188589226	3.2580068	1.804995
18.953849220644265	3.0030575	1.7329332
18.971618712656007	2.8565013	1.6901188
18.9893886650875	2.7786965	1.6669422
19.007159078401887	7.901257	2.8109174
19.024929953062408	32.75632	5.723314
19.042701289532435	32.729595	5.7209787
19.060473088275405	25.323273	5.032223
19.07824534975489	2.605339	1.6141063
19.096018074434568	2.603868	1.6136506
19.113791262778197	2.5613236	1.6004136
19.13156491524966	2.4981885	1.5805659
19.149339032312945	2.4840815	1.5760969
19.167113614432136	2.507811	1.583607
19.184888662071433	2.5342982	1.5919479
19.202664175695123	2.523335	1.5885009
19.220440155767623	2.5068767	1.5833119
19.238216602753447	2.5003533	1.5812505
19.2559935171172	2.4751432	1.5732588
19.27377089932361	2.480828	1.5750644
19.291548749837514	2.4640493	1.5697291
19.309327069123835	2.4841673	1.5761242
19.32710585764763	2.4717906	1.5721929
19.344885115874032	2.4670076	1.5706711
19.362664844268313	2.4233725	1.5567185
19.380445043295822	2.4181986	1.5550559
19.39822571342203	2.4117537	1.5529822
19.41600685511252	2.4229856	1.5565943
19.43378846883297	2.4232876	1.5566913
19.451570555049173	2.4287837	1.5584556
19.469353114227037	2.4025087	1.5500028
19.48713614683254	2.418058	1.5550106
19.50491965333182	2.402329	1.5499449
19.52270363419109	2.4005663	1.5493761
19.540488089876686	2.4492707	1.5650146
19.55827302085503	2.4794688	1.5746329
19.576058427592674	2.4883199	1.577441
19.593844310556282	2.4752748	1.5733006
19.611630670212598	2.4401336	1.5620927
19.629417507028506	2.457031	1.567492
19.64720482147098	2.4757767	1.5734601
19.6649926140071	2.4979248	1.5804825
19.682780885104084	2.494651	1.5794464
19.70056963522921	2.482222	1.5755069
19.718358864849908	2.479901	1.5747702
19.7361485744337	2.4489605	1.5649155
19.753938764448215	2.4778447	1.5741171
19.771729435361202	2.4870195	1.5770288
19.789520587640506	2.5254712	1.5891731
19.807312221754092	2.5311484	1.5909584
19.825104338170043	2.5384774	1.59326
19.842896937356517	2.5238	1.5886472
19.860690019781824	2.498634	1.5807068
19.87848358591436	2.4686754	1.5712019
19.896277636222635	2.4731445	1.5726235
19.914072171175278	2.467582	1.570854
19.931867191241015	2.4420729	1.5627133
19.94966269688869	2.4375665	1.5612708
19.967458688587264	2.4493914	1.5650531
19.985255166805807	2.4436147	1.5632066
20.00305213201348	2.4357243	1.5606807
20.020849584679578	2.4159257	1.5543249
20.038647525273507	2.4198585	1.5555894
20.05644595426477	2.41779	1.5549244
20.07424487212299	2.416414	1.5544819
20.092044279317903	2.392539	1.5467834
20.109844176319353	2.3629367	1.5371847
20.127644563597304	2.364724	1.5377659
20.145445441621817	2.375578	1.541291
20.16324681086307	2.3716958	1.5400311
20.181048671791373	2.392714	1.5468401
20.198851024877122	2.398329	1.548654
20.216653870590836	2.361168	1.5366092
20.234457209403146	2.3282619	1.5258642
20.252261041784802	2.3121762	1.5205842
20.270065368206662	2.3221679	1.523866
20.287870189139685	2.3540258	1.5342835
20.305675505054968	2.3643138	1.5376326
20.323481316423702	2.3261127	1.52516
20.341287623717207	2.287515	1.5124533
20.359094427406884	2.2735512	1.50783
20.376901727964288	2.3066063	1.5187515
20.39470952586107	2.3220983	1.5238433
20.41251782156899	2.3225079	1.5239776
20.430326615559935	2.2941835	1.5146562
20.448135908305886	2.2820103	1.5106324
20.465945700278965	2.2574482	1.5024806
20.483755991951384	2.295293	1.5150225
20.50156678379548	2.3127768	1.5207816
20.519378076283708	2.307273	1.518971
20.537189869888635	2.293807	1.514532
20.55500216508294	2.2890322	1.5129548
20.572814962339415	2.291201	1.5136714
20.59062826213098	2.2716646	1.5072043
20.60844206493066	2.2831244	1.5110011
20.626256371211593	2.2861257	1.5119939
20.644071181447032	2.3118439	1.5204749
20.66188649611036	2.2999828	1.5165694
20.67970231567506	2.2762318	1.5087186
20.697518640614742	2.2790728	1.5096598
20.715335471403122	2.2796245	1.5098425
20.73315280851404	2.3088632	1.5194944
20.750970652421447	2.3105032	1.520034
20.768789003599412	2.285232	1.5116984
20.786607862522136	2.265649	1.5052073
20.8044272296639	2.2961504	1.5153054
20.82224710549913	2.2797055	1.5098693
20.84006749050237	2.246345	1.4987812
20.857888385148268	3.754925	1.9377629
20.8757097899116	45.853924	6.7715526
20.893531705267254	64.72065	8.044914
20.911354131690224	83.751434	9.151581
20.92917706965566	69.05359	8.309849
20.94700051963877	50.146904	7.081448
20.96482448211493	29.421165	5.424128
20.982648957559622	4.159146	2.0393984
21.00047394644843	2.2712717	1.5070739
21.01829944925707	2.2260952	1.4920105
21.036125466461375	2.1805358	1.4766637
21.053951998537297	2.159051	1.469371
21.071779045960906	2.1986008	1.4827679
21.089606609208378	2.2239106	1.4912782
21.10743468875603	2.234906	1.4949602
21.12526328508028	2.2028105	1.4841868
21.143092398657675	2.1848762	1.4781327
21.16092202996488	2.1579742	1.4690045
21.17875217947867	2.1472836	1.4653612
21.19658284767596	2.156635	1.4685487
21.21441403503377	2.1732862	1.4742069
21.232245742029225	2.1940155	1.481221
21.2500779691396	2.174721	1.4746935
21.26791071684227	2.142492	1.4637254
21.28574398561475	2.0994906	1.448962
21.30357777593465	2.1032827	1.4502698
21.321412088279704	2.1333938	1.4606142
21.339246923127792	2.1461425	1.4649718
21.357082280956888	2.1230884	1.4570822
21.3749181622451	2.1295714	1.4593052
21.392754567470647	2.130991	1.4597914
21.41059149711187	2.1233249	1.4571633
21.42842895164726	2.0703993	1.4388882
21.446266931555378	2.0421276	1.4290303
21.464105437314945	2.0659142	1.4373288
21.481944469404798	2.103649	1.4503961
21.49978402830388	2.1161823	1.4547104
21.51762411449127	2.1211731	1.4564248
21.53546472844617	2.0950184	1.4474179
21.553305870647876	2.024656	1.4229041
21.571147541575865	2.0072854	1.416787
21.58898974170967	2.0231931	1.42239
21.60683247152899	2.0312402	1.4252158
21.62467573151363	2.0219674	1.421959
21.642519522143523	2.03064	1.4250052
21.660363843898722	2.0265286	1.4235619
21.6782086972594	1.9937496	1.412002
21.696054082705864	2.0023382	1.41504
21.713900000718535	2.0491683	1.4314916
21.73174645177795	2.079203	1.4419441
21.749593436364794	2.0701325	1.4387954
21.767440954959845	2.0351593	1.4265901
21.785289008044032	2.0154643	1.4196705
21.803137596098388	2.013613	1.4190183
21.820986719604086	2.0248287	1.4229647
21.838836379042412	1.9943827	1.4122262
21.85668657489478	1.97174	1.4041866
21.87453730764273	1.9759701	1.4056921
21.892388577767914	1.9912536	1.4111179
21.91024038575213	1.9900475	1.4106904
21.928092732077285	1.9827703	1.4081088
21.945945617225426	1.9749657	1.4053347
21.963799041678694	1.9685322	1.4030439
21.981653005919398	31.315472	5.5960226
21.999507510429943	78.09722	8.837263
22.01736255569286	73.07638	8.548472
22.035218142190818	4.153157	2.0379295
22.05307427040661	1.9497217	1.3963244
22.07093094082315	1.920045	1.3856568
22.088788153923474	1.9363964	1.3915446
22.106645910190746	1.9586455	1.3995161
22.12450421010827	1.970128	1.4036125
22.142363054159464	1.977592	1.4062688
22.16022244282787	1.9571491	1.3989815
22.178082376597164	1.9399848	1.3928334
22.195942855951145	1.9418954	1.393519
22.213803881373742	1.9364041	1.3915473
22.231665453349002	1.9327711	1.3902414
22.24952757236111	1.9319936	1.3899617
22.26739023889438	1.9228123	1.3866551
22.28525345343323	1.8982385	1.3777658
22.30311721646225	1.8791159	1.3708085
22.320981528466113	1.8763114	1.3697852
22.33884638992964	1.8710308	1.3678563
22.356711801337788	1.8644356	1.3654433
22.37457776317561	1.8744439	1.3691033
22.392444275928337	1.8992943	1.3781488
22.410311340081282	1.9350255	1.3910519
22.428178956119904	1.9531093	1.3975369
22.446047124529805	1.9632583	1.4011632
22.46391584579669	1.9279203	1.3884957
22.481785120406414	1.9542526	1.3979459
22.49965494884496	1.9679962	1.4028529
22.51752533159841	1.9264868	1.3879794
22.53539626915302	1.8993676	1.3781755
22.553267761995137	1.9104482	1.3821896
22.571139810611264	1.9358289	1.3913407
22.589012415488025	1.9436789	1.3941588
22.60688557711216	1.9268601	1.3881139
22.624759295970566	1.9400748	1.3928657
22.642633572550263	1.9307767	1.3895239
22.660508407338362	1.9437068	1.3941689
22.67838380082217	1.9332243	1.3904043
22.696259753489077	1.9297937	1.3891702
22.714136265826614	1.9052174	1.3802961
22.73201333832246	1.9105487	1.382226
22.74989097146439	1.9049174	1.3801874
22.76776916574035	1.8832127	1.3723019
22.785647921638393	1.8996156	1.3782655
22.803527239646712	1.9355642	1.3912455
22.82140712025363	1.9282838	1.3886266
22.839287563947593	1.9210317	1.3860129
22.85716857121719	1.9047008	1.380109
22.875050142551135	1.9199988	1.3856401
22.892932278438277	1.8852756	1.3730534
22.910814979367604	1.8808391	1.3714368
22.928698245828222	1.8794628	1.3709351
22.946582078309387	1.8961103	1.3769932
22.96446647730047	1.8870176	1.3736876
22.98235144329098	1.8306315	1.3530083
23.000236976770562	1.8522638	1.360979
23.018123078229	1.8577583	1.3629961
23.03600974815619	1.880098	1.3711667
23.053896987042194	1.8689122	1.3670816
23.071784795377173	1.8689542	1.367097
23.08967317365145	1.8622968	1.3646599
23.10756212235546	1.839041	1.3561125
23.125451641979787	1.891484	1.3753123
23.143341733015134	1.9313377	1.3897258
23.161232395952357	1.9589863	1.3996379
23.179123631282426	1.9549073	1.39818
23.197015439496468	1.8767487	1.3699448
23.214907821085717	1.8745975	1.3691595
23.23280077654157	1.8715603	1.3680499
23.250694306355538	1.9095112	1.3818506
23.268588411019277	1.8901474	1.3748263
23.28648309102458	1.8907887	1.3750595
23.304378346863356	1.9112539	1.3824811
23.322274179027676	1.9093493	1.3817921
23.340170588009723	1.9163668	1.384329
23.358067574301852	1.9204177	1.3857913
23.37596513839651	1.92926	1.388978
23.39386328078629	1.900266	1.3785014
23.411762001963947	1.8980813	1.3777087
23.429661302422353	1.9191082	1.3853188
23.4475611826545	1.9184439	1.385079
23.46546164315356	1.9316603	1.3898418
23.48336268441279	1.9293469	1.3890094
23.501264306925638	1.8757162	1.3695679
23.51916651118564	1.8271549	1.351723
23.537069297686497	1.8543708	1.3617529
23.554972666922037	1.8331213	1.3539281
23.57287661938623	1.8542707	1.361716
23.59078115557318	1.8868767	1.3736364
23.608686275977128	1.9399382	1.3928167
23.62659198109246	1.900519	1.3785931
23.6444982714137	1.8739713	1.3689307
23.66240514743549	1.868281	1.3668507
23.68031260965263	1.8744208	1.3690948
23.698220658560068	1.8565246	1.3625435
23.716129294652845	1.8631204	1.3649617
23.7340385184262	1.8648026	1.3655777
23.75194833037546	1.881491	1.3716745
23.769858730996123	1.8496324	1.3600119
23.78776972078382	1.8415467	1.357036
23.80568130023431	1.861009	1.3641881
23.823593469843495	1.8796096	1.3709885
23.841506230107424	1.870035	1.3674922
23.859419581522275	1.8521744	1.3609462
23.87733352458438	1.8557403	1.3622556
23.89524805979019	1.8241019	1.3505932
23.913163187636318	1.836733	1.3552612
23.931078908619508	1.9100418	1.3820426
23.948995223236633	1.9780408	1.4064283
23.966912131984735	1.9752449	1.405434
23.98482963536096	1.9698285	1.4035058
24.002747733862616	1.9902014	1.4107449
24.020666427987155	1.9741658	1.4050502
24.038585718232156	1.9506738	1.3966652
24.056505605095353	1.962259	1.4008065
24.074426089074617	2.046483	1.4305534
24.092347170667946	2.0230966	1.422356
24.110268850373515	2.009524	1.4175768
24.128191128689586	2.0330906	1.4258648
24.146114006114626	2.0649166	1.4369818
24.164037483147187	2.0727637	1.4397095
24.181961560286005	2.0055468	1.4161733
24.199886238029926	1.9830083	1.4081932
24.21781151687797	1.9968228	1.4130899
24.235737397329274	1.9997212	1.414115
24.253663879883135	1.9685204	1.4030397
24.271590965038975	1.9746032	1.4052057
24.289518653296376	1.9908173	1.4109633
24.30744694515505	2.0060976	1.4163678
24.32537584111486	2.0067601	1.4166017
24.34330534167581	2.0440936	1.429718
24.361235447338046	2.0617974	1.435896
24.379166158601876	2.0778694	1.4414817
24.39709747596772	2.0533197	1.432941
24.41502939993615	2.0201616	1.4213239
24.432961931007917	1.9944437	1.4122478
24.450895069683856	1.9879816	1.409958
24.468828816465	1.9955778	1.4126493
24.4867631718525	1.980896	1.407443
24.504698136347656	1.9731294	1.4046812
24.52263371045192	1.9607852	1.4002804
24.540569894666874	1.9300864	1.3892754
24.558506689494266	1.888011	1.3740491
24.57644409543597	1.8939505	1.3762088
24.594382112994012	1.9000176	1.3784113
24.61232074267057	1.9111826	1.3824553
24.630259984967953	1.891506	1.3753203
24.64819984038863	1.9200231	1.385649
24.66614030943522	1.9771684	1.4061183
24.684081392610462	2.0089664	1.4173801
24.702023090417274	2.000139	1.4142627
24.7199654033587	1.9989194	1.4138315
24.737908331937927	1.9646305	1.4016528
24.755851876658305	1.9109695	1.3823782
24.773796038023324	1.9174846	1.3847327
24.79174081653661	1.9986892	1.41375
24.809686212701962	2.0943062	1.4471718
24.827632227023294	2.1133723	1.4537443
24.8455788600047	2.1314106	1.4599352
24.8635261121504	2.122432	1.4568568
24.88147398396475	2.0768247	1.4411192
24.899422475952303	2.0659041	1.4373254
24.917371588617698	2.0702853	1.4388486
24.935321322465768	2.1063445	1.451325
24.953271678001478	2.233099	1.4943557
24.97122265572994	2.4762483	1.57361
24.989174256156414	2.8639383	1.6923175
25.00712647978632	3.3342526	1.8259935
25.02507932712521	3.8831363	1.9705675
25.043032798678798	4.4444666	2.1081903
25.060986894952933	5.101875	2.258733
25.078941616453637	5.8389893	2.4164
25.096896963687055	6.878349	2.6226606
25.114852937159508	8.077762	2.8421404
25.132809537377444	8.559885	2.925728
25.150766764847468	8.537017	2.9218173
25.168724620076347	7.920513	2.8143406
25.186683103570985	6.7717233	2.6022534
25.204642215838426	5.541988	2.3541427
25.222601957385894	4.21886	2.0539863
25.24056232872074	3.1650271	1.7790523
25.25852333035048	2.5825374	1.6070275
25.276484962782778	2.169432	1.4728992
25.294447226525435	1.9698708	1.4035208
25.312410122086423	1.9162714	1.3842945
25.330373649973843	1.9002656	1.3785012
25.348337810695988	1.8826281	1.3720889
25.366302604761245	1.8957238	1.3768529
25.384268032678207	1.9146328	1.3837025
25.40223409495558	1.9221728	1.3864244
25.420200792102257	1.9075571	1.3811435
25.438168124627246	1.8897332	1.3746756
25.45613609303974	1.9075946	1.3811569
25.474104697849057	1.8532269	1.3613328
25.492073939564698	1.840335	1.3565894
25.510043818696285	1.8302287	1.3528595
25.528014335753614	1.8462491	1.3587675
25.54598549124664	1.8405954	1.3566854
25.56395728568544	1.8770176	1.3700429
25.58192971958028	1.8631985	1.3649904
25.59990279344156	1.8107224	1.3456309
25.617876507779833	1.8265364	1.3514942
25.635850863105826	1.8881667	1.3741058
25.653825859930386	1.9198186	1.3855752
25.671801498764548	1.9006755	1.37865
25.68977778011949	1.8547778	1.3619022
25.707754704506524	1.8212426	1.3495342
25.725732272437153	1.793225	1.3391135
25.743710484423012	1.7532618	1.3241079
25.761689340975888	1.7440654	1.3206307
25.77966884260774	1.8072315	1.3443332
25.797648989830662	1.8077147	1.3445128
25.815629783156922	1.8620206	1.3645588
25.83361122309895	1.8652852	1.3657545
25.85159331016929	1.8798003	1.3710581
25.869576044880695	1.8070068	1.3442495
25.887559427746034	1.793264	1.3391281
25.90554345927836	1.8420457	1.3572198
25.92352813999086	1.852068	1.3609071
25.94151347039689	1.8188705	1.3486551
25.959499451009965	1.8063887	1.3440197
25.97748608234374	1.8039801	1.3431233
25.995473364912062	1.7909762	1.3382735
26.013461299228904	1.7714053	1.3309416
26.03144988580839	1.8258113	1.3512259
26.04943912516483	1.853751	1.3615252
26.067429017812675	1.8191451	1.3487569
26.085419564266537	1.8098441	1.3453045
26.103410765041186	1.8166394	1.3478277
26.12140262065155	1.7986332	1.3411313
26.139395131612723	1.8013042	1.3421267
26.157388298439948	1.8028433	1.3427
26.17538212164861	1.7535437	1.3242143
26.193376601754295	1.7598544	1.3265951
26.211371739272714	1.7880554	1.3371819
26.229367534719746	1.8151984	1.347293
26.247363988611433	1.8605009	1.3640018
26.26536110146397	1.9141842	1.3835405
26.283358873793727	1.9737985	1.4049194
26.301357306117204	1.9321841	1.3900303
26.319356398951104	1.8618506	1.3644965
26.33735615281224	1.80746	1.344418
26.35535656821762	1.7611815	1.3270952
26.373357645684404	1.7705797	1.3306313
26.39135938572991	1.8030432	1.3427745
26.409361788871614	1.8140397	1.3468629
26.427364855627165	1.8269805	1.3516585
26.445368586514352	1.8790324	1.370778
26.46337298205115	1.8476932	1.3592988
26.48137804275568	1.8339425	1.3542314
26.499383769146217	1.8482143	1.3594904
26.517390161741215	1.8257283	1.3511951
26.53539722105928	1.7727448	1.3314446
26.553404947619182	1.775175	1.3323569
26.571413341939856	1.8065466	1.3440783
26.589422404540397	1.8140771	1.3468769
26.60743213594006	1.8115916	1.3459538
26.62544253665827	1.7739873	1.3319111
26.64345360721459	1.768405	1.3298138
26.66146534812879	1.7873411	1.3369148
26.679477759920758	1.8070806	1.344277
26.69749084311057	1.8156258	1.3474516
26.71550459821847	1.8428437	1.3575138
26.733519025764842	1.8307351	1.3530465
26.751534126270258	1.7954198	1.3399328
26.769549900255434	1.768243	1.3297529
26.787566348241267	1.7713093	1.3309054
26.80558347074881	1.7948604	1.339724
26.823601268299267	1.7883483	1.3372914
26.841619741414036	1.7905393	1.3381103
26.85963889061465	1.8127652	1.3463897
26.877658716422832	1.7678579	1.3296082
26.89567921936045	1.7719505	1.3311464
26.913700399949544	1.8064494	1.3440422
26.93172225871233	1.8294798	1.3525827
26.949744796171174	1.8155098	1.3474085
26.967768012848605	1.7984211	1.3410523
26.98579190926733	1.7970374	1.3405362
27.003816485950225	1.7732487	1.3316338
27.021841743420318	1.7802296	1.3342525
27.039867682200814	1.7789549	1.3337747
27.057894302815072	1.7789735	1.3337816
27.07592160578664	1.7910569	1.3383037
27.0939495916392	1.8111507	1.34579
27.111978260896635	1.7835546	1.3354979
27.13000761408296	1.7699445	1.3303926
27.148037651722397	1.7675792	1.3295034
27.166068374339304	1.7783933	1.3335642
27.184099782458215	1.7752137	1.3323715
27.20213187660384	1.7759197	1.3326364
27.22016465730105	1.7840817	1.3356953
27.23819812507487	1.7898555	1.3378549
27.256232280450533	1.8073186	1.3443655
27.274267123953383	1.8339595	1.3542376
27.292302656108987	1.8633044	1.3650291
27.31033887744306	1.8490034	1.3597807
27.32837578848146	1.8327736	1.3537997
27.34641338975026	1.8031247	1.3428048
27.364451681775673	1.738868	1.3186615
27.382490665084074	1.7014315	1.3043894
27.400530340202046	1.7068714	1.3064729
27.41857070765629	1.7146395	1.3094424
27.436611767973726	1.7395205	1.3189088
27.454653521681404	1.7984407	1.3410596
27.472695969306564	1.7895309	1.3377335
27.490739111376627	1.7681243	1.3297083
27.508782948419153	1.7698919	1.3303728
27.526827480961902	1.7823993	1.3350652
27.54487270953279	1.7922636	1.3387545
27.562918634659898	1.7910076	1.3382853
27.580965256871508	1.7768303	1.332978
27.599012576696026	1.8110472	1.3457515
27.617060594662068	1.8333337	1.3540065
27.63510931129842	1.8010365	1.342027
27.65315872713401	1.7850177	1.3360455
27.67120884269797	1.7550386	1.3247787
27.68925965851958	1.7341075	1.3168552
27.707311175128307	1.735031	1.3172058
27.725363393053787	1.7637557	1.3280647
27.74341631282583	1.8062654	1.3439738
27.7614699349744	1.8637153	1.3651795
27.77952426002968	1.9212528	1.3860927
27.797579288521973	1.9341825	1.3907489
27.815635020981784	2.3058462	1.5185013
27.83369145793979	2.4780633	1.5741866
27.85174859992682	2.4161327	1.5543914
27.869806447473923	2.3296816	1.5263295
27.887865001112267	2.0732934	1.4398936
27.905924261373233	1.8835579	1.3724277
27.92398422878836	1.837923	1.3557003
27.94204490388936	1.8317055	1.3534051
27.96010628720813	1.8119442	1.3460848
27.978168379276728	1.788502	1.3373488
27.9962311806274	1.815573	1.347432
28.014294691792568	1.831334	1.3532679
28.0323589133048	1.7480344	1.3221325
28.050423845696887	1.7483832	1.3222644
28.068489489501758	1.8455528	1.3585112
28.086555845252523	1.8966619	1.3771935
28.104622913482487	1.8963224	1.3770702
28.122690694725115	1.8719206	1.3681815
28.14075918951405	1.867993	1.3667454
28.15882839838312	1.8724018	1.3683573
28.176898321866304	1.8916192	1.3753614
28.1949689604978	1.9191265	1.3853254
28.213040314811945	1.8808334	1.3714348
28.23111238534327	1.8786064	1.3706226
28.249185172626493	1.8942792	1.3763282
28.267258677196473	1.8971385	1.3773665
28.285332899588294	1.9633543	1.4011974
28.303407840337172	1.931683	1.38985
28.321483499978545	1.8965654	1.3771585
28.33955987904799	1.8914107	1.3752856
28.357636978081285	1.8564306	1.362509
28.37571479761439	1.8753825	1.369446
28.393793338183425	1.8538165	1.3615493
28.41187260032469	1.8480542	1.3594315
28.429952584574686	1.8194506	1.3488702
28.448033291470065	1.877359	1.3701675
28.46611472154769	1.9319329	1.3899399
28.484196875344566	1.9294026	1.3890294
28.502279753397914	1.930449	1.389406
28.52036335624511	1.9357111	1.3912984
28.538447684423716	1.939604	1.3926967
28.556532738471482	1.9367789	1.391682
28.574618518926325	1.9490533	1.396085
28.59270502632635	1.9476963	1.3955989
28.61079226120985	1.9157568	1.3841087
28.628880224115274	2.0046906	1.415871
28.646968915581287	2.02214	1.4220197
28.66505833614671	2.0392287	1.4280156
28.68314848635055	2.0319052	1.4254491
28.701239366732004	1.9976689	1.4133891
28.71933097783044	1.9983296	1.4136229
28.737423320185403	2.0668597	1.4376577
28.75551639433665	2.1510718	1.4666532
28.773610200824074	2.1411002	1.4632499
28.791704740187793	2.1451519	1.4646337
28.80980001296809	2.1460555	1.4649421
28.827896019705413	2.1187098	1.4555788
28.845992760940433	2.161074	1.4700592
28.86409023721397	2.1988802	1.4828621
28.88218844906704	2.2390428	1.4963431
28.900287397040845	2.2236714	1.491198
28.918387081676755	2.2358432	1.4952736
28.936487503516343	2.222588	1.4908347
28.954588663101365	2.1789956	1.4761422
28.97269056097374	2.2298577	1.4932708
28.990793197675597	2.2351575	1.4950444
29.00889657374923	2.2189903	1.4896276
29.027000689737125	2.3070195	1.5188875
29.04510554618196	2.3902328	1.5460378
29.06321114362659	2.4757903	1.5734644
29.08131748261405	2.4538674	1.5664825
29.099424563687567	2.4350836	1.5604755
29.11753238739057	2.47406	1.5729145
29.13564095426663	2.5787559	1.6058505
29.15375026485954	2.6095617	1.6154138
29.171860319713275	2.5791974	1.605988
29.18997111937199	2.595473	1.6110471
29.20808266438002	2.6641276	1.6322155
29.226194955281898	2.7389367	1.6549733
29.244307992622335	2.826671	1.6812706
29.26242177694624	2.9519815	1.7181332
29.2805363087987	2.9783194	1.7257808
29.29865158872498	2.932377	1.7124184
29.316767617270557	2.912492	1.7066025
29.334884394981064	2.9000757	1.7029608
29.353001922402367	2.9614625	1.72089
29.37112020008047	3.018869	1.7374892
29.389239228561596	3.1145988	1.7648226
29.407359008392152	3.2646816	1.806843
29.42547954011872	3.5775995	1.8914543
29.44360082428809	4.167847	2.0415306
29.46172286144722	5.2428284	2.2897224
29.479845652143283	6.9265814	2.63184
29.497969196923606	9.2677765	3.0443022
29.516093496335728	12.039998	3.46987
29.5342185509274	15.185313	3.8968337
29.55234436124651	17.86774	4.227025
29.570470927841175	19.425644	4.407453
29.588598251259686	19.2289	4.385077
29.60672633205055	17.752892	4.213418
29.624855170762405	15.227225	3.9022079
29.642984767944146	12.230402	3.497199
29.66111512414481	9.229323	3.03798
29.67924623991366	6.788299	2.6054366
29.697378115800138	5.1551332	2.2704918
29.71551075235387	4.159855	2.0395722
29.733644150124675	3.734019	1.932361
29.751778309662576	3.4867983	1.867297
29.769913231517766	3.3715727	1.8361843
29.78804891624066	3.309459	1.8191918
29.806185364381818	3.2838123	1.8121293
29.82432257649206	3.2552907	1.8042424
29.842460553122333	3.2384384	1.7995661
29.86059929482382	3.2291167	1.7969743
29.878738802147872	3.1975627	1.788173
29.896879075646048	3.1557379	1.7764397
29.915020115870114	3.190467	1.7861878
29.933161923371976	3.26704	1.8074955
29.951304498703777	3.2851522	1.8124989
29.969447842417857	3.217201	1.7936558
29.987591955066733	3.2496278	1.8026724
30.005736837203123	3.1862164	1.7849976
30.023882489379943	3.131687	1.7696573
30.04202891215028	3.1368277	1.7711092
30.060176106067455	3.1170578	1.7655191
30.078324071684946	3.046116	1.7453126
30.09647280955646	3.0143604	1.7361914
30.114622320235863	3.0627	1.7500571
30.132772604277257	3.1614523	1.7780473
30.1509236622349	3.1977043	1.7882127
30.16907549466328	3.1793697	1.7830787
30.18722810211705	3.1233008	1.7672863
30.205381485151097	3.0477636	1.7457845
30.22353564432045	3.0016675	1.7325321
30.241690580180403	2.9686701	1.7229829
30.25984629328638	3.0148404	1.7363296
30.278002784194037	3.0232105	1.7387382
30.296160053459246	3.0336692	1.7417432
30.314318101638033	3.0576012	1.7485998
30.332476929286646	2.9796114	1.726155
30.35063653696153	2.890311	1.7000915
30.368796925219307	2.855321	1.6897695
30.386958094616844	2.849041	1.6879102
30.40512004571115	2.885524	1.698683
30.423282779059463	2.8836658	1.698136
30.441446295219233	2.8643007	1.6924245
30.459610594748067	2.8686988	1.6937233
30.47777567820382	2.8497148	1.6881099
30.495941546144504	2.8236012	1.6803575
30.51410819912835	2.8489604	1.6878864
30.532275637713795	2.8207967	1.6795228
30.55044386245946	2.8386264	1.6848223
30.56861287392416	2.8179157	1.6786648
30.586782672666956	2.7862463	1.6692053
30.604953259247047	2.7879944	1.6697289
30.623124634223885	2.8116167	1.6767876
30.641296798157075	2.8309114	1.6825312
30.659469751606462	2.7681148	1.6637652
30.677643495132074	2.697297	1.642345
30.695818029294152	2.6780374	1.636471
30.713993354653116	2.7041183	1.6444204
30.73216947176962	2.7320657	1.6528962
30.75034638120448	2.701381	1.6435878
30.768524083518756	2.644041	1.6260507
30.786702579273673	2.739178	1.6550462
30.80488186903069	2.8232934	1.6802659
30.82306195335144	2.9910004	1.729451
30.841242832797782	3.1096754	1.7634271
30.85942450793176	3.321292	1.8224412
30.877606979315637	3.712362	1.9267491
30.895790247511883	4.119819	2.0297337
30.913974313083134	4.5931153	2.1431556
30.932159176592283	4.9085474	2.2155242
30.95034483860237	4.9836125	2.2324007
30.968531299676698	4.7460427	2.1785414
30.98671856037873	4.4015	2.0979753
31.00490662127215	4.0443997	2.0110693
31.023095482920848	3.5969007	1.8965497
31.04128514588892	3.0465472	1.7454361
31.059475610740662	2.6706622	1.6342161
31.07766687804056	2.503858	1.5823584
31.09585894835335	2.5126758	1.5851421
31.11405182224393	2.4423683	1.5628078
31.132245500277417	2.3712487	1.539886
31.15043998301914	2.4209118	1.555928
31.168635271034628	2.4657578	1.5702732
31.18683136488964	2.469024	1.5713128
31.20502826515008	2.3871145	1.5450289
31.223225972382135	2.3070862	1.5189096
31.241424487152155	2.309504	1.5197053
31.259623810026692	2.3472419	1.5320711
31.27782394157253	2.2755919	1.5085065
31.296024882356644	2.3324292	1.5272292
31.314226632946237	2.4611504	1.5688055
31.332429193908684	2.4512024	1.5656316
31.350632565811598	2.4732683	1.5726628
31.368836749222787	2.5541399	1.5981677
31.387041744710295	2.567344	1.6022934
31.40524755284232	2.5422318	1.5944377
31.423454174187317	2.5638447	1.601201
31.441661609313922	2.521904	1.5880504
31.459869858791002	2.4263017	1.557659
31.478078923187628	2.4178717	1.5549507
31.496288803073064	2.3874972	1.5451528
31.514499499016807	2.3423529	1.5304747
31.532711011588546	2.3561554	1.5349773
31.550923341358178	2.329639	1.5263155
31.56913648889584	2.2259572	1.4919642
31.587350454771844	2.2020805	1.4839408
31.605565239556732	2.272667	1.5075368
31.62378084382127	2.336323	1.5285035
31.641997268136382	2.2703118	1.5067554
31.660214513073274	2.2984056	1.5160494
31.67843257920331	2.3056746	1.5184448
31.6966514670981	2.252342	1.5007805
31.71487117732944	2.2097404	1.4865196
31.733091710469346	2.2059088	1.4852302
31.751313067090052	2.1743617	1.4745717
31.769535247764008	2.1887968	1.4794582
31.787758253063878	2.2732098	1.5077168
31.805982083562526	2.3056278	1.5184294
31.824206739833024	2.2260623	1.4919994
31.84243222244869	2.2241702	1.4913652
31.860658531983013	2.2343645	1.4947791
31.878885669009737	2.2223914	1.4907687
31.897113634102784	2.1332812	1.4605757
31.91534242783632	2.1395614	1.462724
31.933572050784694	2.200494	1.4834062
31.951802503522508	2.1750867	1.4748175
31.970033786624548	2.1408806	1.4631748
31.988265900665834	2.1077507	1.4518094
32.006498846221575	2.1242106	1.4574672
32.02473262386724	2.1581957	1.4690799
32.04296723417845	2.1427658	1.4638189
32.0612026777311	2.0933824	1.4468526
32.07943895510129	2.1600838	1.4697224
32.097676066865304	2.1803794	1.4766108
32.115914013599685	2.1056142	1.4510734
32.13415279588115	2.0561943	1.4339436
32.152392414286666	2.072624	1.439661
32.1706328693934	2.10397	1.4505068
32.18887416177875	1.9745948	1.4052027
32.20711629202032	1.9393417	1.3926024
32.225359260695924	1.9806819	1.407367
32.243603068383614	2.062697	1.4362092
32.26184771566166	2.0755801	1.4406874
32.28009320310852	2.0275497	1.4239205
32.2983395313029	2.075593	1.4406918
32.31658670082372	2.144959	1.4645679
32.33483471225012	2.138172	1.4622489
32.35308356616143	2.0682197	1.4381306
32.371333263137245	2.0655153	1.43719
32.38958380375734	2.0489888	1.4314289
32.407835188601744	2.0610793	1.4356459
32.42608741825067	2.1176286	1.4552073
32.444340493284585	2.1780157	1.4758102
32.46259441428416	2.07248	1.4396111
32.48084918183028	1.9396853	1.3927258
32.49910479650405	1.8518997	1.3608452
32.51736125888683	1.929029	1.3888949
32.53561856956014	1.9952861	1.4125459
32.5538767291058	2.0741088	1.4401767
32.572135738105764	1.9598564	1.3999487
32.59039559714228	1.8528646	1.3611997
32.608656306797776	1.9864463	1.4094135
32.62691786765491	2.022206	1.422043
32.645180280296586	2.0005672	1.414414
32.663443545305896	1.9953187	1.4125575
32.68170766326619	2.0888836	1.4452971
32.69997263476099	2.0289557	1.4244142
32.7182384603741	1.9894513	1.4104791
32.7365051406895	2.0268695	1.4236817
32.75477267629144	2.0447352	1.4299424
32.77304106776434	1.9785469	1.4066082
32.79131031569289	1.9107685	1.3823055
32.809580420661966	1.9515837	1.396991
32.827851383256714	2.0642073	1.4367349
32.84612320406245	2.0116527	1.4183275
32.86439588366476	1.9377015	1.3920134
32.88266942264945	1.8644985	1.3654664
32.9009438216025	1.8376071	1.3555837
32.9192190811102	1.8960849	1.376984
32.937495201758985	1.9909666	1.4110161
32.95577218413556	1.9880381	1.409978
32.974050028826866	1.9174227	1.3847103
32.992328736420035	1.9108566	1.3823373
33.010608307502444	1.9498664	1.3963761
33.02888874266169	1.9439236	1.3942466
33.047170042485604	1.8931065	1.375902
33.06545220756225	1.8499935	1.3601446
33.083735238479896	1.8813499	1.371623
33.10201913582707	1.8547698	1.3618994
33.12030390019248	1.8577789	1.3630036
33.138589532165135	1.8771666	1.3700973
33.15687603233419	1.9743527	1.4051167
33.17516340128909	2.0185866	1.4207697
33.19345163961947	1.9825838	1.4080426
33.211740747915215	1.9690986	1.4032457
33.23003072676643	1.8892816	1.3745114
33.248321576763466	1.7701275	1.3304614
33.266613298496885	1.8182975	1.3484427
33.28490589255747	2.0039263	1.415601
33.30319935953626	1.9563018	1.3986785
33.32149370002451	1.8672982	1.3664912
33.339788914613706	1.8989339	1.3780181
33.358085003895575	1.9930001	1.4117366
33.376381968462034	1.9355278	1.3912325
33.39467980890529	1.8865893	1.3735317
33.41297852581774	1.9387964	1.3924067
33.43127811979204	1.8593956	1.3635966
33.44957859142105	1.7570271	1.325529
33.467879941297866	1.7584134	1.3260518
33.486182170015844	1.9095217	1.3818544
33.50448527816853	1.9623985	1.4008564
33.522789266349754	1.9729456	1.4046158
33.541094135153514	1.8721546	1.368267
33.55939988517411	1.8735981	1.3687944
33.57770651700602	1.9007665	1.3786829
33.59601403124398	2.0073252	1.416801
33.61432242848296	1.9510809	1.396811
33.632631709318154	1.8560023	1.3623518
33.650941874344994	1.9441458	1.3943263
33.66925292415916	2.036065	1.4269075
33.68756485935654	2.0165677	1.4200591
33.70587768053328	1.912468	1.38292
33.724191388285746	1.8079319	1.3445935
33.74250598321054	1.8582232	1.3631666
33.760821465904506	1.9996587	1.4140929
33.77913783696474	2.0599515	1.4352531
33.79745509698852	2.0616977	1.4358613
33.815773246573414	2.0636954	1.4365568
33.8340922863172	2.0083995	1.4171801
33.852412216817896	1.8756174	1.3695319
33.87073303867377	1.82906	1.3524275
33.889054752483304	1.8235971	1.3504063
33.907377358845245	1.8623387	1.3646753
33.92570085835853	1.9523504	1.3972653
33.94402525162239	1.964614	1.4016469
33.96235053923627	2.045628	1.4302546
33.980676721799824	2.1090126	1.452244
33.999003799912984	1.9624329	1.4008687
34.01733177417592	1.7901909	1.3379802
34.03566064518901	1.8594313	1.3636097
34.0539904135529	1.9257133	1.3877007
34.07232107986846	1.8838508	1.3725344
34.090652644736785	1.9046453	1.3800889
34.108985108759235	1.9449116	1.3946009
34.12731847253742	1.9547875	1.3981371
34.14565273667313	1.9135929	1.3833268
34.16398790176847	2.019298	1.42102
34.18232396842574	2.1611664	1.4700906
34.20066093724749	2.2116907	1.4871753
34.21899880883651	2.103382	1.4503042
34.23733758379583	2.0568461	1.4341708
34.25567726272874	2.0206628	1.4215002
34.27401784623872	1.9250144	1.3874489
34.29235933492957	1.7885603	1.3373706
34.31070172940526	1.7455739	1.3212017
34.32904503027003	1.7844044	1.335816
34.347389238128386	1.779222	1.3338748
34.36573435358502	1.8249371	1.3509023
34.38408037724492	1.8969775	1.3773081
34.402427309713296	1.9230878	1.3867544
34.42077515159559	1.8677715	1.3666644
34.43912390349752	1.7339537	1.3167968
34.45747356602499	1.8380758	1.3557565
34.47582413978423	2.0170836	1.4202406
34.49417562538163	1.9813472	1.4076034
34.51252802342388	1.8358601	1.3549391
34.53088133451789	1.848854	1.3597257
34.54923555927084	1.9472865	1.395452
34.567590698290104	1.9346426	1.3909143
34.58594675218336	1.8709984	1.3678445
34.6043037215585	1.874736	1.36921
34.62266160702365	2.0406704	1.4285203
34.641020409187234	2.021012	1.421623
34.65938012865785	1.8253852	1.3510681
34.677740766044394	1.7971736	1.340587
34.69610232195598	1.9383776	1.3922563
34.714464797002016	1.938968	1.3924683
34.73282819179208	2.0820987	1.442948
34.751192506936064	2.204317	1.4846942
34.76955774304408	2.0993648	1.4489185
34.7879239007265	1.921067	1.3860257
34.80629098059391	1.8817931	1.3717847
34.824658983257194	1.8886255	1.3742727
34.843027909327446	2.049255	1.4315219
34.86139775941603	2.2329292	1.4942989
34.879768534134534	2.1314058	1.4599335
34.89814023409483	1.9573374	1.3990487
34.91651285990901	2.0384755	1.4277519
34.93488641218944	2.1313694	1.459921
34.95326089154871	1.9715558	1.404121
34.97163629859967	1.9087886	1.3815892
34.99001263395542	2.016818	1.4201472
35.00838989822934	2.0678978	1.4380187
35.02676809203499	1.9142776	1.3835742
35.04514721598624	2.1314316	1.4599423
35.063527270697215	2.2563212	1.5021056
35.081908256782256	1.9741633	1.4050492
35.10029017485597	1.9771941	1.4061273
35.11867302553321	2.0207393	1.4215271
35.137056809429104	2.0654593	1.4371706
35.155441527159006	1.9278063	1.3884547
35.173827179338524	1.9096308	1.3818939
35.19221376658354	2.0390022	1.4279363
35.21060128951017	2.2024424	1.4840628
35.2289897487348	2.3383262	1.5291587
35.24737914487405	2.2977931	1.5158473
35.26576947854479	1.933464	1.3904905
35.28416075036418	1.7986888	1.3411521
35.30255296094958	1.8340425	1.3542683
35.32094611091867	1.9726462	1.4045093
35.33934020088932	2.0087864	1.4173167
35.35773523147969	1.953161	1.3975554
35.3761312033082	1.9481416	1.3957584
35.394528116993506	1.9461854	1.3950574
35.41292597315452	2.1294901	1.4592773
35.431324772410434	2.2338192	1.4945967
35.449724515380666	2.0562146	1.4339507
35.46812520268491	2.06228	1.436064
35.486526834943106	2.0023918	1.415059
35.504929412775454	2.0112398	1.4181819
35.52333293680242	2.192374	1.4806668
35.54173740764471	1.988669	1.4102018
35.560142825923286	1.6673744	1.2912685
35.5785491922594	1.2832783	1.1328188
35.59695650727454	0.7342651	0.8568927
35.61536477159042	0.6149216	0.7841694
