0.008763373481513119	0.0	0.0
0.026290120649546365	0.0	0.0
0.043816868432600686	0.13170215	0.36290792
0.06134361724069026	0.09919149	0.3149468
0.07887036748382949	0.12359138	0.35155565
0.0963971195720331	0.05693081	0.23860179
0.11392387391531617	0.084976085	0.2915066
0.1314506309236943	0.07684356	0.27720672
0.1489773910071836	0.1027643	0.3205687
0.16650415457580078	0.13283233	0.3644617
0.18403092203956356	0.12678438	0.35606796
0.20155769380849	0.14981137	0.38705474
0.2190844702925996	0.17344412	0.41646624
0.2366112519019124	0.25676715	0.506722
0.2541380390464497	0.2349949	0.48476273
0.27166483213623416	0.20515095	0.45293593
0.28919163158128947	0.112918705	0.3360338
0.3067184377916406	0.080565274	0.28384024
0.324245251177314	0.06837258	0.2614815
0.34177207214833777	0.13554126	0.3681593
0.3592989011147415	0.17410755	0.41726196
0.37682573848655654	0.20670483	0.45464802
0.39435258467381573	0.17836474	0.4223325
0.41187944008655414	0.18601285	0.43129206
0.42940630513480854	0.14207672	0.37693065
0.446933180228618	0.1407807	0.37520754
0.4644600657780234	0.11140742	0.33377752
0.48198696219306775	0.13829288	0.3718775
0.49951386988379676	0.14640428	0.3826281
0.5170407892602581	0.12233616	0.34976587
0.5345677207325025	0.10336401	0.32150275
0.5520946647105822	0.14441377	0.38001812
0.5696216216045534	0.1640198	0.40499356
0.5871485918244737	0.20267692	0.45019653
0.6046755757804043	0.23195563	0.48161772
0.6222025738824094	0.2229569	0.4721831
0.6397295865405557	0.2274293	0.47689548
0.6572566141649129	0.20629326	0.45419517
0.6747836571655547	0.19704872	0.44390172
0.6923107159525568	0.22102083	0.47012854
0.7098377909359992	0.19539264	0.4420324
0.7273648825259653	0.18864581	0.43433374
0.7448919911325411	0.14280334	0.3778933
0.762419117165817	0.13569206	0.36836404
0.7799462610358868	0.13325162	0.36503646
0.7974734231528482	0.15536746	0.3941668
0.8150006039268024	0.198421	0.44544473
0.8325278037678551	0.2263574	0.47577032
0.8500550230861152	0.25355792	0.50354534
0.8675822622916969	0.23124358	0.48087794
0.8851095217947171	0.19610666	0.44283932
0.9026368020052984	0.22521798	0.47457138
0.9201641033335665	0.23041646	0.48001716
0.9376914261896523	0.25785476	0.507794
0.9552187709836915	0.2595677	0.50947785
0.9727461381258234	0.28570673	0.53451544
0.990273528026193	0.2670139	0.5167339
1.0078009410949496	0.23869826	0.48856756
1.0253283777422473	0.19410452	0.44057295
1.0428558383782454	0.22699833	0.4764434
1.0603833234131086	0.2718733	0.5214147
1.0779108332570058	0.3392425	0.58244526
1.0954383683201119	0.35233393	0.5935772
1.112965929012607	0.4140025	0.6434303
1.1304935157446763	0.5216791	0.7222736
1.1480211289265108	0.52602327	0.7252746
1.1655487689683062	1.4003034	1.1833441
1.1830764362802655	1.6818403	1.2968578
1.200604131272596	2.0889382	1.445316
1.2181318543555117	2.4193926	1.5554397
1.235659605939232	2.4193258	1.5554183
1.253187386433982	3.8619745	1.9651906
1.270715196249994	6.060148	2.4617367
1.2882430357975057	11.581531	3.4031649
1.3057709054867608	16.55744	4.069083
1.3232988057280106	22.335787	4.726075
1.3408267369315112	27.224323	5.2176933
1.358354699507526	31.003626	5.56809
1.3758826938663256	34.946503	5.9115567
1.3934107204181858	36.757015	6.0627565
1.410938779573391	37.092144	6.090332
1.4284668717422309	37.721214	6.14176
1.4459949973350033	37.45486	6.1200376
1.4635231567620117	37.378704	6.1138124
1.4810513504335687	36.776333	6.064349
1.4985795787599925	35.92173	5.993474
1.5161078421516088	35.09235	5.9238796
1.5336361410187505	33.89571	5.8220024
1.5511644757717598	33.566097	5.7936254
1.5686928468209842	34.237217	5.851258
1.58622125457678	35.063725	5.921463
1.6037496994495108	36.510574	6.042398
1.621278181849548	36.611526	6.050746
1.6388067021872719	37.042458	6.0862517
1.6563352608730693	35.95645	5.99637
1.673863858317336	35.033752	5.9189315
1.6913924949304753	34.523624	5.875681
1.7089211711228998	33.928684	5.8248334
1.7264498873050296	33.034782	5.747589
1.7439786438872935	32.516823	5.7023525
1.7615074412801288	31.682869	5.6287537
1.779036279893981	30.943886	5.5627227
1.796565160139305	29.517935	5.433041
1.814094082426564	28.981314	5.3834295
1.8316230471662298	28.599945	5.347892
1.849152054768784	28.24375	5.314485
1.8666811056447168	27.559998	5.2497616
1.8842102002045273	26.65726	5.163067
1.901739338858724	26.158895	5.114577
1.9192685220178245	25.41953	5.0417786
1.9367977500923557	24.589722	4.958802
1.9543270234928547	23.870722	4.8857675
1.971856342629867	23.175951	4.814141
1.9893857079139496	22.825851	4.777641
2.006915119755667	22.418941	4.734864
2.0244445785655945	21.824455	4.671665
2.0419740847543175	21.433735	4.629658
2.0595036387324317	20.915234	4.5733175
2.0770332409105414	20.226076	4.497341
2.094562891699263	20.021685	4.47456
2.1120925915092217	19.616583	4.429061
2.129622340751053	19.53279	4.4195914
2.1471521398354043	187.72707	13.701353
2.1646819891729323	444.09204	21.073492
2.182211889174303	440.25873	20.982344
2.1997418402501974	452.66696	21.275972
2.2172718428113023	432.74258	20.802465
2.234801897268317	320.72275	17.908733
2.2523320040319548	17.114037	4.1369114
2.269862163512935	16.89976	4.110932
2.287392376121992	16.478357	4.0593543
2.304922642269869	16.239668	4.029847
2.322452962367322	16.037453	4.0046787
2.3399833368251164	15.567543	3.9455726
2.357513766054032	15.272352	3.9079857
2.3750442504648586	14.746523	3.84012
2.3925747904683963	14.338788	3.7866592
2.410105386475459	14.212053	3.7698877
2.4276360388968707	13.95252	3.7353072
2.445166748143469	13.871721	3.7244759
2.4626975146261025	13.817789	3.7172287
2.4802283387556323	13.601342	3.6879997
2.4977592209429305	13.34529	3.6531205
2.5152901615988825	13.127729	3.623221
2.5328211611343865	12.846766	3.5842385
2.5503522199603523	12.587582	3.5478983
2.5678833384877024	12.392116	3.5202436
2.5854145171273712	12.232775	3.4975383
2.6029457562903064	11.930802	3.4540994
2.620477056387469	11.646634	3.4127166
2.6380084178298326	11.395308	3.3756936
2.655539841028383	11.140925	3.3378024
2.673071326394119	11.015052	3.3188932
2.6906028743380523	10.895239	3.3007936
2.708134485271211	10.746963	3.278256
2.7256661596046325	10.484056	3.2379093
2.743197897749369	10.341595	3.215835
2.760729700116486	10.182579	3.1910152
2.778261567117063	10.124576	3.1819139
2.795793499162193	10.057203	3.1713095
2.8133254966629817	9.923043	3.1500862
2.830857560030551	9.784766	3.128061
2.8483896896760337	9.613747	3.1006043
2.865921886010578	9.471791	3.0776274
2.883454149445347	9.277819	3.0459511
2.9009864803915177	9.064659	3.0107572
2.91851887926028	8.925987	2.9876392
2.9360513464628384	8.960446	2.9934006
2.953583882410413	8.772237	2.9617963
2.9711164875142373	8.728612	2.9544225
2.9886491621855606	8.661594	2.9430587
3.0061819068356455	8.69068	2.947996
3.023714721875769	8.614121	2.9349823
3.041247607717225	8.362011	2.891714
3.0587805647713213	8.271994	2.8761075
3.0763135934493806	8.085	2.8434134
3.0938466941627407	7.9523416	2.8199897
3.1113798673227544	7.8365726	2.799388
3.1289131133407904	7.73083	2.780437
3.1464464326282315	7.717705	2.7780757
3.1639798255964786	7.678555	2.7710207
3.1815132926569443	7.652143	2.7662506
3.1990468342210603	7.6190357	2.76026
3.216580450700272	7.509001	2.7402556
3.2341141425060416	7.492716	2.7372825
3.251647910049847	7.2694697	2.6961954
3.2691817537431813	7.056718	2.6564484
3.286715673997555	6.963628	2.6388686
3.3042496712244938	6.9707932	2.640226
3.32178374583554	6.9507804	2.6364334
3.339317898242251	6.9055576	2.6278427
3.3568521288562034	6.8350086	2.614385
3.3743864380889876	6.861815	2.6195066
3.3919208263522127	6.7426877	2.5966685
3.4094552940575023	6.571226	2.5634403
3.4269898416164972	6.4817185	2.545922
3.444524469440858	6.408213	2.5314448
3.4620591779422587	6.436662	2.5370579
3.479593967532391	6.4603777	2.5417273
3.4971288386229658	6.4909687	2.547738
3.5146637916257086	6.43961	2.5376387
3.5321988269523628	6.3437376	2.5186777
3.5497339450146903	6.279722	2.5059373
3.5672691462244708	6.2362866	2.4972558
3.5848044309934988	6.2896476	2.507917
3.60233979973359	6.2313495	2.496267
3.619875252856575	6.1882424	2.4876177
3.6374107907743034	6.1739693	2.4847474
3.6549464138986427	6.2376227	2.4975233
3.6724821226414788	6.2682333	2.503644
3.690017917414714	6.302994	2.5105765
3.7075537986302702	6.380947	2.5260537
3.7250897667000857	6.4681435	2.5432546
3.7426258220361235	6.544883	2.558297
3.7601619650503553	6.747337	2.5975637
3.777698196154779	7.1944866	2.682254
3.7952345157614067	8.138274	2.852766
3.8127709242822716	8.897645	2.982892
3.830307422129425	10.93617	3.306988
3.847844009714936	12.269686	3.5028112
3.8653806874508954	15.628891	3.9533393
3.882917455749409	15.354455	3.918476
3.900454315022606	15.427993	3.9278483
3.917991265682631	12.453067	3.5288904
3.9355283081416506	10.62519	3.2596302
3.9530654428118495	8.600766	2.9327064
3.970602670105433	7.390693	2.7185829
3.9881399904346244	6.415663	2.5329158
4.005677404211669	6.2236085	2.4947162
4.023214911848827	6.265918	2.5031815
4.0407525137583855	6.330514	2.5160513
4.058290210352644	6.3734474	2.5245688
4.075828002043927	6.2835298	2.506697
4.0933658892445814	6.198459	2.4896705
4.110903872366966	6.083793	2.4665346
4.128441951823468	6.0327134	2.4561582
4.145980128026488	5.9355764	2.4363039
4.163518401388452	5.865419	2.4218626
4.181056772321807	5.9397416	2.4371586
4.1985952412390155	6.015131	2.4525764
4.216133808552567	6.091257	2.4680471
4.233672474674966	6.1097007	2.4717808
4.251211240018741	6.258407	2.5016809
4.268750104996445	6.3896446	2.5277746
4.286289070020643	7.4635587	2.7319515
4.303828135503928	9.0512705	3.008533
4.3213673018589125	29.289602	5.411987
4.3389065694982305	90.443344	9.510171
4.356445938834537	165.62318	12.869467
4.3739854102805085	171.3791	13.091185
4.391524984248844	172.32458	13.127246
4.409064661152262	136.462	11.681695
4.426604441403504	96.81098	9.839257
4.444144325415337	75.47238	8.687484
4.461684313600543	21.354939	4.6211405
4.47922440637193	21.509615	4.637846
4.496764604142329	19.842543	4.454497
4.5143049073245916	18.248568	4.2718344
4.531845316331589	16.141493	4.0176477
4.5493858315762195	13.33035	3.6510751
4.566926453471405	11.010338	3.318183
4.584467182430081	9.178075	3.0295339
4.602008018865218	8.142735	2.8535478
4.619548963189798	7.4955544	2.737801
4.637090015816834	7.007018	2.6470773
4.654631177159353	6.6435046	2.5774996
4.672172447630417	6.2946324	2.5089107
4.689713827643102	6.072591	2.4642627
4.7072553176105085	5.9147034	2.4320164
4.724796917945764	5.7887006	2.4059718
4.742338629062015	5.7203603	2.3917274
4.759880451372434	5.606606	2.3678272
4.777422385290215	5.5832114	2.362882
4.794964431228581	5.5337396	2.3523903
4.812506589600768	5.555963	2.357109
4.830048860820047	5.5859704	2.3634658
4.847591245299709	5.548938	2.3556182
4.8651337434530655	5.51697	2.348823
4.882676355693457	5.4950647	2.3441556
4.900219082434242	5.5853896	2.363343
4.917761924088813	5.567953	2.359651
4.935304881070575	5.507156	2.346733
4.952847953792969	5.4110947	2.326176
4.970391142669449	5.460943	2.3368661
4.9879344481135055	5.4708314	2.338981
5.005477870538642	5.372422	2.3178487
5.023021410358394	5.32891	2.308443
5.040565067986324	5.2777586	2.2973373
5.05810884383601	5.30489	2.3032348
5.075652738321066	5.2888303	2.2997458
5.09319675185512	5.285102	2.298935
5.110740884851836	5.2856493	2.299054
5.128285137724894	5.28293	2.2984624
5.145829510888007	5.264439	2.2944365
5.163374004754908	5.277686	2.2973216
5.1809186197393595	5.337453	2.3102927
5.198463356255145	5.342603	2.311407
5.216008214716077	5.3296895	2.308612
5.233553195535998	5.241249	2.2893775
5.251098299128764	5.2667093	2.2949312
5.268643525908272	5.2689104	2.2954106
5.286188876288432	5.29223	2.3004847
5.3037343506831895	5.311677	2.3047075
5.32127994950651	5.3090377	2.3041348
5.3388256731723915	5.28678	2.2993
5.356371522094851	5.2050524	2.2814584
5.373917496687938	5.2032666	2.281067
5.391463597365729	5.2777753	2.2973409
5.40900982454232	5.30381	2.3030002
5.426556178631843	5.288039	2.2995737
5.444102660048449	5.1958194	2.279434
5.4616492692063225	5.1541314	2.2702713
5.479196006519669	5.1447153	2.2681966
5.496742872402727	5.1431465	2.2678506
5.514289867269756	5.148875	2.2691133
5.531836991535049	5.0368433	2.2442913
5.549384245612924	5.003722	2.2369
5.566931629917724	5.0470276	2.2465591
5.584479144863822	5.084674	2.2549222
5.6020267908656205	5.069609	2.2515793
5.619574568337545	5.0000005	2.236068
5.637122477694054	4.9727006	2.2299552
5.654670519349629	5.0085783	2.2379854
5.672218693718784	5.0810065	2.254109
5.689767001216059	5.110344	2.260607
5.707315442256021	5.1541886	2.270284
5.724864017253266	5.1309104	2.2651513
5.7424127266224225	5.1790195	2.2757459
5.75996157077814	5.091403	2.2564137
5.777510550135105	5.125974	2.2640615
5.795059665108022	5.1034036	2.2590714
5.812608916111639	5.1852484	2.2771142
5.830158303560715	5.299321	2.3020256
5.847707827870055	5.3359756	2.309973
5.86525748945448	5.328129	2.308274
5.8828072887288485	5.342999	2.311493
5.900357226108044	5.334347	2.3096204
5.917907302006979	5.4193187	2.327943
5.9354575168406	5.9608965	2.4414947
5.9530078710238765	6.5927343	2.567632
5.970558364971812	7.220455	2.6870904
5.988108999099438	7.6394715	2.7639594
6.005659773821818	8.159921	2.8565576
6.023210689554039	7.8747163	2.8061924
6.040761746711227	8.232268	2.869193
6.058312945708531	7.616589	2.759817
6.075864286961132	7.2163625	2.686329
6.093415770884244	6.559651	2.5611815
6.1109673978931065	6.0419188	2.4580314
6.128519168402993	5.4709277	2.3390014
6.146071082829204	5.338621	2.3105457
6.163623141587075	5.2037954	2.281183
6.181175345091969	5.159187	2.2713842
6.198727693759281	5.1315756	2.2652981
6.216280188004435	5.095664	2.2573578
6.233832828242885	5.066997	2.2509992
6.251385614890126	5.0457892	2.2462835
6.268938548361669	5.0444503	2.2459853
6.286491629073067	4.9881034	2.2334063
6.304044857439898	4.9674506	2.228778
6.321598233877777	4.9370317	2.2219431
6.339151758802344	5.0378113	2.2445068
6.356705432629277	5.0255623	2.2417767
6.37425925577428	4.929128	2.220164
6.391813228653095	4.7982216	2.1904843
6.409367351681486	4.849375	2.2021296
6.426921625275259	4.817668	2.1949186
6.44447604985025	4.8575153	2.203977
6.46203062582232	4.8344727	2.1987433
6.47958535360737	4.8712068	2.207081
6.497140233621328	4.906961	2.215166
6.514695266280161	4.8978305	2.2131042
6.532250451999859	4.865004	2.2056754
6.549805791196454	4.8492875	2.2021098
6.567361284286002	4.8771267	2.2084217
6.584916931684597	4.9128184	2.216488
6.602472733808367	4.984494	2.232598
6.6200286910734665	4.9866304	2.2330763
6.637584803896092	4.9736357	2.230165
6.655141072692462	5.0175414	2.239987
6.672697497878842	5.041665	2.2453651
6.690254079871514	4.988616	2.233521
6.707810819086808	4.9542913	2.2258236
6.725367715941078	4.90193	2.2140303
6.742924770850719	4.9137397	2.2166958
6.760481984232151	4.9324265	2.2209067
6.778039356501836	4.885591	2.2103374
6.795596888076266	4.8851495	2.2102375
6.813154579371963	4.9382505	2.2222176
6.830712430805492	5.001475	2.2363977
6.84827044279344	5.018369	2.2401717
6.865828615752445	4.9715633	2.2297003
6.883386950099159	4.9219365	2.2185438
6.900945446250287	4.9188395	2.2178457
6.918504104622553	4.97165	2.2297196
6.936062925632727	4.9824805	2.232147
6.953621909697607	4.9765296	2.2308137
6.971181057234028	5.0175066	2.2399793
6.988740368658859	5.0640154	2.2503366
7.006299844389007	5.101024	2.2585447
7.023859484841407	5.1963243	2.2795448
7.041419290433036	5.3006587	2.302316
7.058979261580902	5.4154835	2.327119
7.0765393987020495	5.54556	2.3549013
7.094099702213559	5.9541235	2.4401073
7.111660172532549	6.3100557	2.5119824
7.129220810076164	6.739427	2.5960407
7.146781615261595	7.3534136	2.7117178
7.16434258850606	7.578772	2.7529569
7.181903730226821	7.9465876	2.8189692
7.1994650408411704	7.982375	2.8253098
7.217026520766437	8.10759	2.847383
7.234588170419983	8.241844	2.8708613
7.252149990219215	8.266381	2.8751316
7.269711980581568	8.162444	2.8569992
7.2872741419245175	8.054488	2.838043
7.304836474665574	7.6524997	2.7663152
7.322398979222286	7.379002	2.7164319
7.339961656012233	7.2076135	2.6846998
7.357524505453039	6.886582	2.6242297
7.375087527962357	6.6103735	2.5710647
7.392650723957886	6.3570113	2.5213115
7.410214093857353	6.0124173	2.452023
7.427777638078528	5.765285	2.4011009
7.445341357039213	5.4676023	2.3382905
7.4629052511572525	5.3063583	2.3035533
7.480469320850524	5.2527175	2.2918808
7.498033566536948	5.2357993	2.2881868
7.5155979886344735	5.1518416	2.2697668
7.5331625875610975	5.1458125	2.2684383
7.550727363734844	5.1667566	2.27305
7.568292317573788	5.2010975	2.2805915
7.585857449496025	5.190456	2.2782571
7.603422759919705	5.2545643	2.2922835
7.620988249263007	5.2755065	2.296847
7.638553917944147	5.2477665	2.2908003
7.656119766381391	5.199062	2.2801452
7.673685794993023	5.174296	2.2747078
7.691252004197388	5.1561465	2.270715
7.70881839441285	5.1198335	2.2627048
7.726384966057826	5.1799946	2.2759602
7.743951719550762	5.178515	2.275635
7.761518655310149	5.193748	2.2789795
7.779085773754511	5.1833463	2.2766964
7.796653075302419	5.1390796	2.2669537
7.814220560372475	5.1469865	2.268697
7.831788229383323	5.1460958	2.2685008
7.8493560827536495	5.1918745	2.2785685
7.866924120902174	5.284069	2.2987103
7.884492344247663	5.294296	2.3009336
7.9020607532089135	5.3477182	2.3125134
7.919629348204771	5.311527	2.3046749
7.937198129654115	5.3034806	2.3029287
7.954767097975865	5.331224	2.3089442
7.972336253588986	5.2936125	2.3007853
7.989905596912472	5.397358	2.3232214
8.007475128365371	5.417774	2.3276112
8.025044848366756	5.418479	2.3277626
8.042614757335754	5.450534	2.3346379
8.060184855691523	5.5020328	2.3456411
8.07775514385327	5.626806	2.372089
8.095325622240228	5.6872997	2.384806
8.112896291271687	5.7234726	2.392378
8.130467151366968	5.8762445	2.4240966
8.148038202945436	5.980627	2.445532
8.165609446426497	5.9309525	2.4353547
8.183180882229594	5.870219	2.4228535
8.200752510774217	5.7971287	2.4077227
8.218324332479893	5.8750997	2.4238605
8.235896347766193	5.9775043	2.4448936
8.253468557052724	5.9819508	2.4458027
8.27104096075914	5.933606	2.4358995
8.288613559305137	5.921845	2.433484
8.306186353110448	6.01862	2.4532876
8.32375934259485	6.0913296	2.468062
8.341332528178162	6.164158	2.482772
8.358905910280246	6.1787124	2.4857016
8.376479489321003	6.236513	2.497301
8.394053265720377	6.277368	2.5054677
8.411627239898356	6.2895627	2.5079
8.42920141227497	6.2151585	2.493022
8.44677578327029	6.179169	2.4857934
8.464350353304427	6.137428	2.4773834
8.48192512279754	6.1305075	2.4759862
8.499500092169827	6.1275153	2.4753819
8.51707526184153	6.1284857	2.4755778
8.534650632232934	6.134605	2.4768136
8.552226203764365	6.1048727	2.470804
8.569801976856192	6.0940046	2.4686038
8.587377951928834	6.1322007	2.4763281
8.60495412940274	6.222715	2.494537
8.622530509698416	6.2226996	2.494534
8.6401070932364	6.28444	2.5068786
8.657683880437283	6.3682914	2.5235474
8.675260871721695	6.5127563	2.5520103
8.692838067510303	6.708207	2.5900207
8.710415468223834	6.884044	2.6237462
8.727993074283043	7.050616	2.6552997
8.745570886108737	7.0416875	2.6536179
8.763148904121765	7.068629	2.6586893
8.78072712874302	7.0512314	2.6554155
8.798305560393441	7.3230553	2.7061145
8.815884199494006	7.5238485	2.7429636
8.833463046465745	7.690661	2.773204
8.851042101729728	7.80117	2.7930574
8.86862136570707	8.13399	2.852015
8.886200838818924	8.288533	2.8789814
8.903780521486505	8.3427	2.8883731
8.921360414131055	8.450323	2.906944
8.938940517173874	8.642826	2.9398685
8.956520831036297	8.714973	2.9521134
8.97410135613971	8.950824	2.9917927
8.99168209290554	9.087326	3.0145192
9.009263041755265	9.439156	3.072321
9.026844203110405	9.603367	3.09893
9.044425577392525	9.759775	3.124064
9.062007165023239	9.883567	3.143814
9.079588966424197	10.173279	3.1895578
9.097170982017108	10.217668	3.1965086
9.11475321222372	11.081831	3.3289385
9.132335657465825	11.907155	3.4506745
9.149918318165264	12.010109	3.4655604
9.167501194743924	12.596252	3.54912
9.18508428762374	12.317069	3.5095682
9.202667597226693	12.303204	3.5075922
9.220251123974803	11.91232	3.451423
9.237834868290143	11.631223	3.4104578
9.255418830594836	11.492036	3.3899906
9.273003011311046	10.977641	3.3132524
9.290587410860985	10.754439	3.2793963
9.308172029666911	10.116897	3.180707
9.32575686815113	9.915051	3.1488175
9.343341926735997	8.709025	2.9511058
9.360927205843916	8.469356	2.9102156
9.378512705897327	8.276254	2.876848
9.396098427318728	8.035547	2.8347042
9.413684370530664	7.88069	2.8072567
9.431270535955722	7.7882924	2.7907512
9.448856924016539	7.700005	2.7748883
9.466443535135806	7.6400023	2.7640555
9.484030369736251	7.615244	2.7595732
9.501617428240658	7.570147	2.75139
9.519204711071852	7.592451	2.7554402
9.536792218652714	7.6333666	2.7628548
9.55437995140617	7.646715	2.7652695
9.571967909755191	7.639778	2.764015
9.589556094122802	7.63163	2.7625406
9.60714450493207	7.7004666	2.7749715
9.624733142606116	7.762519	2.7861297
9.642322007568108	7.874602	2.8061721
9.659911100241267	8.023674	2.832609
9.677500421048851	8.044411	2.836267
9.695089970414175	8.024385	2.8327346
9.712679748760609	7.945357	2.8187509
9.730269756511557	8.035658	2.8347237
9.747859994090492	8.055516	2.8382242
9.765450461920915	8.172867	2.8588226
9.78304116042639	8.21296	2.8658264
9.800632090030527	8.243461	2.8711426
9.81822325115699	8.255762	2.873284
9.835814644229481	8.208241	2.8650029
9.853406269671762	8.1884985	2.8615553
9.870998127907646	8.228049	2.8684576
9.888590219360985	8.324932	2.8852959
9.906182544455698	8.40983	2.8999708
9.923775103615734	8.350599	2.8897405
9.941367897265108	8.335918	2.8871992
9.958960925827878	8.346588	2.8890462
9.97655418972816	8.299642	2.88091
9.994147689390106	8.243202	2.8710978
10.011741425237934	8.113869	2.8484852
10.029335397695904	8.148543	2.8545654
10.04692960718833	8.206595	2.8647156
10.06452405413958	8.239453	2.8704448
10.082118738974064	8.180569	2.8601694
10.099713662116246	8.106253	2.8471482
10.117308823990651	8.072029	2.8411317
10.134904225021844	8.079831	2.8425043
10.152499865634445	8.111155	2.8480089
10.170095746253125	8.065827	2.84004
10.18769186730261	8.097565	2.845622
10.205288229207675	8.099109	2.8458934
10.222884832393145	8.116263	2.8489056
10.2404816772839	8.039571	2.8354137
10.258078764304868	8.030732	2.8338547
10.275676093881035	7.9579782	2.820989
10.293273666437438	7.986352	2.8260133
10.310871482399158	8.029365	2.8336134
10.32846954219134	8.107746	2.8474104
10.346067846239173	8.051292	2.8374798
10.363666394967908	7.9601927	2.8213813
10.38126518880283	7.919221	2.814111
10.398864228169298	7.9853587	2.8258376
10.416463513492713	8.10601	2.8471057
10.434063045198531	8.052212	2.837642
10.451662823712262	8.012196	2.8305821
10.469262849459467	7.9362288	2.8171313
10.486863122865758	7.8882785	2.8086078
10.504463644356806	7.9431934	2.8183672
10.522064414358338	7.9805417	2.8249853
10.539665433296118	7.8849125	2.8080087
10.557266701595987	7.8348513	2.7990804
10.574868219683818	7.6688166	2.7692628
10.592469987985552	7.6029897	2.7573519
10.610072006927185	7.497287	2.7381175
10.627674276934751	7.411393	2.7223873
10.64527679843435	7.2941604	2.7007704
10.662879571852143	7.2315307	2.6891506
10.680482597614331	7.09762	2.664136
10.698085876147173	6.9963374	2.645059
10.715689407876988	6.8556175	2.6183233
10.733293193230146	6.8032923	2.6083121
10.750897232633072	6.7679524	2.601529
10.76850152651225	6.7479424	2.59768
10.786106075294207	6.6775265	2.584091
10.803710879405534	6.5204263	2.5535126
10.821315939272877	6.3933516	2.5285077
10.83892125532294	6.2871766	2.5074244
10.856526827982472	6.230993	2.4961956
10.874132657678285	6.1705303	2.4840553
10.891738744837243	6.135836	2.477062
10.909345089886271	6.125122	2.4748983
10.926951693252343	6.0374503	2.4571223
10.944558555362494	5.9106154	2.4311757
10.96216567664381	5.8053603	2.4094315
10.979773057523436	5.8075213	2.40988
10.997380698428573	5.854402	2.4195871
11.014988599786477	5.835009	2.4155765
11.032596762024461	5.768923	2.401858
11.050205185569892	5.6309733	2.3729672
11.067813870850198	5.4786973	2.3406618
11.085422818292859	5.410932	2.326141
11.10303202832541	5.3173876	2.305946
11.120641501375454	5.29207	2.3004498
11.138251237870636	5.2471166	2.2906585
11.155861238238671	5.2980447	2.3017483
11.173471502907317	5.249803	2.291245
11.191082032304402	5.193274	2.2788756
11.208692826857805	5.084529	2.25489
11.226303886995465	5.0178833	2.2400632
11.243915213145371	4.987311	2.233229
11.261526805735578	4.947027	2.2241914
11.279138665194196	4.918756	2.2178268
11.296750791949393	4.8706813	2.206962
11.314363186429393	4.783278	2.1870706
11.331975849062479	4.678037	2.162877
11.34958878027699	4.6189947	2.1491847
11.36720198050133	4.607952	2.146614
11.384815450163948	4.5917687	2.1428413
11.402429189693366	4.5472393	2.1324258
11.420043199518153	4.4761972	2.1157026
11.437657480066942	63.386597	7.96157
11.455272031768422	85.08062	9.223916
11.472886855051353	107.47609	10.367067
11.490501950344528	99.11664	9.955734
11.508117318076819	84.455696	9.189978
11.52573295867715	45.892662	6.774412
11.543348872574514	4.229638	2.0566084
11.560965060197946	4.1127086	2.0279815
11.57858152197655	4.028563	2.007128
11.59619825833949	3.9160542	1.9789023
11.613815269715985	3.9194245	1.9797536
11.631432556535323	38.46117	6.201707
11.649050119226837	83.01175	9.111078
11.666667958219929	93.42028	9.665417
11.68428607394406	107.671135	10.376471
11.701904466828756	82.518684	9.08398
11.719523137303586	65.351555	8.084031
11.737142085798196	4.567631	2.1372015
11.754761312742286	3.6835184	1.9192494
11.772380818565619	3.66839	1.9153042
11.790000603698015	3.6396945	1.9077983
11.80762066856935	3.6098201	1.8999527
11.825241013609572	3.5686305	1.889082
11.842861639248683	3.5146682	1.8747449
11.860482545916748	3.4834824	1.866409
11.878103734043883	3.4526567	1.8581326
11.895725204060282	3.4324286	1.8526815
11.91334695639619	3.4299166	1.8520035
11.930968991481919	3.341363	1.8279395
11.948591309747824	3.2635882	1.8065404
11.966213911624347	3.2031305	1.7897291
11.98383679754198	3.2433212	1.8009223
12.001459967931268	3.3006222	1.8167615
12.019083423222835	3.298927	1.8162949
12.036707163847352	3.2778766	1.8104907
12.05433119023556	3.25662	1.8046107
12.071955502818259	3.2524583	1.8034574
12.089580102026313	3.2222192	1.7950541
12.107204988290643	3.1793272	1.7830669
12.12483016204224	3.1215594	1.7667935
12.142455623712152	3.1031191	1.7615672
12.16008137373149	3.1106737	1.7637101
12.177707412531431	3.1380613	1.7714574
12.19533374054321	3.1340287	1.7703187
12.212960358198126	3.0821493	1.7556051
12.230587265927545	2.9991813	1.7318145
12.248214464162889	2.979882	1.7262335
12.265841953335649	3.0004253	1.7321736
12.283469733877375	3.0116181	1.7354014
12.301097806219685	2.9650588	1.7219346
12.31872617079425	2.9135234	1.7069046
12.336354828032825	2.896444	1.7018943
12.353983778367205	2.877108	1.6962041
12.371613022229262	2.8854017	1.698647
12.389242560050928	2.843498	1.6862675
12.406872392264201	2.8275893	1.6815437
12.424502519301143	2.8060777	1.6751351
12.442132941593874	2.783992	1.6685299
12.459763659574586	2.783771	1.6684637
12.477394673675532	2.8230236	1.6801856
12.49502598432903	2.8696525	1.6940049
12.51265759196746	2.882345	1.697747
12.530289497023267	2.8609188	1.6914251
12.547921699928967	2.8294556	1.6820986
12.565554201117134	2.8118403	1.6768543
12.583187001020404	2.8133075	1.6772918
12.600820100071486	2.7936127	1.6714104
12.618453498703152	2.7814314	1.6677624
12.636087197348235	2.7481148	1.6577439
12.65372119643964	2.8142881	1.677584
12.671355496410326	2.8109171	1.676579
12.68899009769333	2.794472	1.6716675
12.706625000721749	2.7911603	1.6706766
12.724260205928752	2.834619	1.6836327
12.741895713747551	2.9343123	1.7129835
12.759531524611454	2.9760067	1.7251107
12.777167638953818	2.9501917	1.7176123
12.794804057208072	2.9262695	1.7106342
12.812440779807702	2.9808803	1.7265226
12.830077807186271	3.1889508	1.7857634
12.847715139777405	3.244266	1.8011847
12.865352778014795	3.4073768	1.8459082
12.882990722332197	3.4933636	1.8690542
12.90062897316344	3.5621524	1.8873665
12.918267530942412	3.6093934	1.8998404
12.935906396103071	3.4894602	1.8680097
12.953545569079449	3.7051084	1.9248658
12.971185050305628	3.5746334	1.8906701
12.988824840215775	3.549885	1.8841139
13.006464939244115	3.5032754	1.8717039
13.024105347824943	3.3623233	1.833664
13.041746066392617	3.4676776	1.8621701
13.05938709538157	3.2732687	1.8092177
13.077028435226296	3.2613633	1.8059245
13.094670086361363	3.2008028	1.7890787
13.112312049221401	3.1205606	1.7665108
13.129954324241112	3.0372849	1.7427808
13.147596911855258	2.8077347	1.6756296
13.165239812498685	2.7524214	1.6590424
13.182883026606293	2.7018907	1.6437429
13.200526554613058	2.6999638	1.6431566
13.218170396954017	2.7030535	1.6440965
13.235814554064284	2.6961503	1.6419958
13.253459026379034	2.6787815	1.6366984
13.271103814333523	2.6614785	1.6314038
13.288748918363058	2.6694148	1.6338344
13.306394338903031	2.661609	1.6314439
13.32404007638889	2.6485102	1.6274244
13.341686131256164	2.682071	1.637703
13.359332503940449	2.645599	1.6265297
13.376979194877402	2.6313744	1.6221511
13.394626204502751	2.6368237	1.62383
13.412273533252307	2.6626484	1.6317624
13.429921181561937	2.6823437	1.6377863
13.447569149867581	2.704294	1.6444738
13.465217438605247	2.7078655	1.6455593
13.482866048211022	2.70693	1.645275
13.500514979121052	2.6835904	1.6381668
13.518164231771568	2.683384	1.6381037
13.535813806598844	2.6474102	1.6270864
13.553463704039254	2.6526031	1.6286814
13.571113924529229	2.644417	1.6261663
13.588764468505275	2.655685	1.6296272
13.606415336403956	2.7207887	1.6494813
13.624066528661917	2.7700288	1.6643404
13.641718045715882	2.836446	1.6841751
13.659369888002635	2.8554258	1.6898005
13.67702205595903	2.8974254	1.7021825
13.694674550021993	2.963926	1.7216057
13.712327370628532	3.0072234	1.7341348
13.729980518215713	3.0862377	1.7567691
13.747633993220681	3.134986	1.7705891
13.765287796080647	3.1699202	1.780427
13.7829419272329	3.2064593	1.790659
13.800596387114801	3.2464833	1.8018
13.818251176163775	3.2694838	1.8081714
13.835906294817324	3.3446198	1.8288301
13.853561743513023	3.379525	1.8383484
13.871217522688525	3.3877716	1.84059
13.888873632781538	3.403292	1.8448013
13.906530074229858	3.449182	1.8571974
13.92418684747135	3.4716015	1.8632234
13.941843952943948	3.4620776	1.8606659
13.959501391085665	3.4519947	1.8579544
13.977159162334578	3.3757453	1.8373201
13.994817267128846	3.3165495	1.8211396
14.012475705906693	3.1730182	1.7812967
14.030134479106424	3.0923188	1.758499
14.047793587166414	3.0136938	1.7359993
14.065453030525108	2.9709806	1.7236533
14.083112809621026	2.9293728	1.711541
14.100772924892766	2.8834643	1.6980766
14.118433376778997	2.8743656	1.6953954
14.136094165718458	2.8078897	1.6756759
14.153755292149969	2.7513962	1.6587332
14.171416756512416	2.691344	1.6405317
14.189078559244768	2.633338	1.6227562
14.20674070078606	2.554825	1.598382
14.224403181575408	2.5074651	1.5834978
14.242066002051999	2.4749494	1.5731971
14.259729162655093	2.4408429	1.5623198
14.277392663824022	2.4298744	1.5588055
14.295056505998208	2.3864908	1.5448271
14.312720689617128	2.383651	1.5439078
14.330385215120348	2.4033911	1.5502875
14.348050082947497	2.4274592	1.5580306
14.3657152935383	2.4258819	1.5575243
14.383380847332528	2.4119613	1.5530491
14.401046744770051	2.4258358	1.5575095
14.418712986290798	2.4144726	1.5538573
14.436379572334793	2.4131093	1.5534186
14.454046503342123	2.4124973	1.5532216
14.471713779752946	2.4392278	1.5618027
14.489381402007504	2.466468	1.5704993
14.507049370546113	2.4694815	1.5714583
14.524717685809168	2.4420884	1.5627183
14.542386348237134	2.4086938	1.5519967
14.560055358270553	2.411063	1.5527598
14.577724716350051	2.4480422	1.564622
14.595394422916325	2.4229968	1.5565978
14.61306447841015	2.4064121	1.5512614
14.63073488327237	2.3936899	1.5471554
14.648405637943917	2.4263334	1.5576693
14.6660767428658	2.4850905	1.576417
14.683748198479094	2.5335395	1.5917096
14.701420005224954	2.5536358	1.59801
14.719092163544628	2.6078205	1.6148747
14.73676467387942	2.6537602	1.6290365
14.754437536670727	2.7165709	1.6482023
14.772110752360014	2.7239323	1.650434
14.78978432138882	2.7260864	1.6510864
14.807458244198777	2.688177	1.6395662
14.82513252123159	2.6893175	1.6399139
14.842807152929028	2.6977992	1.6424979
14.860482139732962	2.6738493	1.635191
14.87815748208531	2.6499748	1.6278744
14.8958331804281	2.622475	1.6194057
14.91350923520342	2.598771	1.6120704
14.931185646853438	2.6126194	1.61636
14.948862415820408	2.6118777	1.6161305
14.966539542546656	2.6424685	1.6255671
14.98421702747459	2.636523	1.6237373
15.001894871046696	2.6613784	1.6313732
15.019573073705542	2.6608455	1.6312099
15.037251635893766	2.638623	1.6243839
15.054930558054092	2.648893	1.627542
15.072609840629323	2.662192	1.6316226
15.090289484062351	2.7832222	1.6682992
15.107969488796124	2.9312828	1.712099
15.125649855273691	3.1409333	1.7722678
15.14333058393817	3.5112648	1.8738369
15.161011675232768	4.076413	2.019013
15.17869312960076	4.751817	2.1798663
15.196374947485506	5.3992815	2.3236353
15.214057129330447	6.7405353	2.596254
15.231739675579114	8.874812	2.9790623
15.249422586675102	13.426124	3.6641674
15.267105863062092	17.839993	4.2237415
15.284789505183847	24.69742	4.96965
15.302473513484218	29.173576	5.401257
15.320157888407127	33.077053	5.7512655
15.337842630396578	32.0022	5.6570487
15.355527739896656	29.347773	5.4173584
15.37321321735153	22.89675	4.7850547
15.39089906320545	15.78422	3.972936
15.408585277902748	10.218225	3.1965957
15.42627186188783	6.435321	2.5367935
15.443958815605198	4.646549	2.1555855
15.461646139499424	3.8070881	1.951176
15.479333834015168	3.3660338	1.8346754
15.497021899597165	3.0816984	1.7554767
15.514710336690234	2.837378	1.6844518
15.53239914573928	2.7056084	1.6448734
15.550088327189297	2.5815904	1.6067328
15.567777881485336	2.5595329	1.599854
15.58546780907256	2.5151937	1.5859362
15.6031581103962	2.5288167	1.5902253
15.620848785901568	2.5164983	1.5863475
15.638539836034063	2.49708	1.5802152
15.656231261239173	2.4491117	1.5649638
15.673923061962451	2.4560978	1.5671942
15.691615238649552	2.4490778	1.564953
15.709307791746202	2.416886	1.5546337
15.727000721698221	2.4093454	1.5522066
15.744694028951498	2.3759332	1.5414063
15.76238771395202	2.350267	1.533058
15.780081777145844	2.315904	1.5218095
15.797776218979125	2.335152	1.5281204
15.815471039898094	2.3448687	1.5312964
15.833166240349064	2.37647	1.5415804
15.850861820778437	2.4411168	1.5624074
15.868557781632699	2.4871688	1.5770761
15.886254123358412	2.519815	1.5873924
15.903950846402232	2.467242	1.5707457
15.921647951210897	2.4356828	1.5606674
15.939345438231225	2.432325	1.5595913
15.957043307910133	2.470334	1.5717297
15.974741560694602	2.4303274	1.5589508
15.992440197031714	2.4218483	1.5562289
16.01013921736862	2.421359	1.5560716
16.02783862215259	2.4572666	1.5675671
16.045538411830933	2.493121	1.578962
16.06323858685107	2.5122154	1.5849969
16.080939147660512	2.4775395	1.5740201
16.09864009470684	2.4465764	1.5641536
16.11634142843774	2.4091306	1.5521374
16.134043149300954	2.3862863	1.544761
16.15174525774433	2.3733773	1.5405769
16.169447754215817	2.407367	1.5515692
16.18715063916342	2.4279134	1.5581763
16.204853913035244	2.4113925	1.5528659
16.222557576279478	2.3794167	1.5425358
16.240261629344403	22.41525	4.7344747
16.257966072678386	43.007202	6.5579877
16.275670906729868	38.106194	6.1730213
16.293376131947387	2.4714148	1.5720735
16.31108174877957	2.4951088	1.5795914
16.328787757675133	2.5367951	1.592732
16.34649415908287	2.5828161	1.6071142
16.364200953451657	2.5996094	1.6123304
16.38190814123048	2.6417782	1.6253548
16.39961572286839	2.6656113	1.6326699
16.41732369881455	2.6707656	1.6342478
16.43503206951817	2.727065	1.6513828
16.45274083542859	2.8060553	1.6751285
16.47044999699522	2.8626428	1.6919346
16.488159554667558	2.8600109	1.6911566
16.505869508895184	2.8356228	1.6839308
16.523579860127786	2.873871	1.6952496
16.541290608815117	2.956217	1.7193654
16.559001755407035	3.0610816	1.7495947
16.57671330035348	3.1433828	1.7729588
16.59442524410448	3.2544017	1.8039961
16.61213758711015	3.3825312	1.8391659
16.629850329820705	3.4665534	1.8618683
16.647563472686436	3.470606	1.8629563
16.665277016157724	3.3700497	1.8357695
16.682990960685053	3.308937	1.8190484
16.70070530671898	3.310797	1.8195596
16.718420054710155	3.4043791	1.845096
16.736135205109335	3.5090244	1.873239
16.753850758367335	3.6540422	1.9115549
16.771566714935087	3.6800492	1.9183455
16.789283075263597	3.7467186	1.9356443
16.80699983980398	3.7482705	1.936045
16.82471700900741	3.8564801	1.9637923
16.84243458332518	3.9029036	1.9755768
16.860152563208665	3.9272017	1.9817169
16.87787094910932	3.958655	1.9896369
16.89558974147871	4.0098667	2.0024652
16.913308940768466	4.106694	2.026498
16.931028547430333	4.143195	2.035484
16.94874856191613	4.2372985	2.05847
16.966468984677785	4.291655	2.071631
16.98418981616729	4.2996855	2.0735683
17.00191105683676	4.340728	2.0834413
17.019632707138374	4.3720207	2.0909379
17.03735476752442	4.433934	2.105691
17.05507723844728	4.465807	2.1132455
17.072800120359403	4.51791	2.1255376
17.090523413713353	4.5982127	2.1443443
17.108247118961785	4.63819	2.1536458
17.125971236557437	4.6639485	2.1596177
17.143695766953133	4.624771	2.1505282
17.161420710601806	4.6868024	2.1649024
17.179146067956477	4.6436915	2.1549227
17.19687183947025	4.6282344	2.151333
17.21459802559634	4.617192	2.148765
17.232324626788028	4.6388507	2.153799
17.25005164349871	4.6757274	2.162343
17.267779076181863	4.6402607	2.1541264
17.285506925291074	4.5769434	2.1393793
17.30323519127999	4.56114	2.1356826
17.320963874602384	4.593104	2.1431527
17.33869297571211	4.5608025	2.1356034
17.356422495063114	4.534547	2.1294475
17.37415243310944	4.4637785	2.1127656
17.391882790305218	4.42527	2.1036327
17.40961356710468	4.4165826	2.1015668
17.42734476396215	4.495401	2.1202362
17.445076381332044	4.625098	2.1506042
17.462808419668868	4.681728	2.1637301
17.48054087942723	4.7897325	2.1885457
17.498273761061835	4.8721285	2.20729
17.51600706502747	5.219686	2.2846632
17.533740791779024	5.7737374	2.4028602
17.551474941771485	6.6480603	2.5783832
17.56920951545993	8.627276	2.9372225
17.586944513299528	10.016607	3.1649024
17.60467993574556	13.040652	3.6111844
17.622415783253373	15.641734	3.9549632
17.64015205627843	18.216879	4.2681236
17.657888755276293	20.250317	4.5000353
17.675625880702604	21.647678	4.6527066
17.69336343301311	20.117176	4.4852176
17.71110141266366	18.05423	4.249027
17.728839820110178	15.344325	3.9171834
17.746578655808705	12.239523	3.498503
17.764317920215372	10.098794	3.17786
17.7820576137864	8.442622	2.9056191
17.79979773697811	7.138926	2.671877
17.81753829024692	5.9828324	2.445983
17.835279274049356	5.1710005	2.2739835
17.85302068884201	4.465062	2.1130693
17.870762535081607	4.0285234	2.0071182
17.888504813224934	3.785991	1.9457623
17.90624752372891	3.6634736	1.9140203
17.923990667050536	3.5928292	1.895476
17.941734243646895	3.5649095	1.8880968
17.959478253975185	3.5007865	1.8710389
17.9772226984927	3.415535	1.8481166
17.994967577656833	3.3860612	1.8401253
18.01271289192506	3.3849492	1.8398231
18.030458641754965	3.3558917	1.8319093
18.04820482760425	3.297049	1.8157778
18.06595144993067	3.291997	1.8143861
18.083698509192125	3.3017516	1.8170723
18.101446005846576	3.2834918	1.8120408
18.119193940352105	3.2200787	1.7944578
18.136942313166887	3.1615536	1.7780758
18.1546911247492	3.1497273	1.7747471
18.1724403755574	3.1201375	1.766391
18.19019006604997	3.1112547	1.7638749
18.207940196685467	3.0839245	1.7561107
18.225690767922575	3.066309	1.7510879
18.243441780220046	3.0653534	1.750815
18.261193234036764	3.0610259	1.7495787
18.278945129831676	3.0281792	1.7401664
18.29669746806386	3.0392554	1.743346
18.314450249192483	3.0289457	1.7403866
18.3322034736768	3.0279925	1.7401128
18.349957141976184	2.975001	1.7248192
18.3677112545501	2.9706993	1.7235717
18.385465811858108	2.9694731	1.7232159
18.403220814359884	3.017439	1.7370777
18.420976262515172	3.078396	1.7545359
18.43873215678387	3.1079412	1.7629354
18.456488497625923	3.127509	1.7684765
18.474245285501407	3.2390673	1.7997409
18.492002520870486	3.2561166	1.8044713
18.50976020419343	3.355382	1.8317702
18.527518335930615	3.6553552	1.9118984
18.545276916542516	4.2438235	2.0600543
18.563035946489688	4.399113	2.0974064
18.580795426232832	4.857926	2.2040703
18.598555356232698	4.7353644	2.1760893
18.616315736950185	5.053119	2.2479143
18.63407656884626	4.7191377	2.1723576
18.65183785238201	4.961381	2.2274158
18.669599588018617	4.766071	2.1831334
18.68736177621737	4.750857	2.179646
18.705124417439652	4.704799	2.169055
18.72288751214696	4.477985	2.1161249
18.740651060800886	4.626097	2.1508365
18.758415063863115	4.25887	2.063703
18.77617952179546	4.362229	2.088595
18.793944435059814	4.1103663	2.0274038
18.811709804118184	4.1610417	2.039863
18.829475629432675	4.1975355	2.0487888
18.8472419114655	4.0056643	2.0014155
18.86500865067897	4.0798078	2.0198534
18.88277584753551	3.7399008	1.9338824
18.90054350249763	3.7697525	1.9415851
18.918311616027957	3.445133	1.856107
18.936080188589226	3.322862	1.8228719
18.953849220644265	3.0377471	1.7429134
18.971618712656007	2.8730068	1.6949947
18.9893886650875	2.8245642	1.680644
19.007159078401887	7.964386	2.8221245
19.024929953062408	32.8528	5.731736
19.042701289532435	32.800167	5.727143
19.060473088275405	25.360771	5.035948
19.07824534975489	2.6076853	1.6148329
19.096018074434568	2.6112168	1.615926
19.113791262778197	2.6105995	1.6157349
19.13156491524966	2.599269	1.6122248
19.149339032312945	2.5861478	1.6081505
19.167113614432136	2.5954347	1.6110352
19.184888662071433	2.5506973	1.5970902
19.202664175695123	2.521203	1.5878297
19.220440155767623	2.475825	1.5734755
19.238216602753447	2.4649436	1.5700139
19.2559935171172	2.456804	1.5674195
19.27377089932361	2.4616857	1.568976
19.291548749837514	2.471697	1.5721632
19.309327069123835	2.5106547	1.5845046
19.32710585764763	2.519308	1.5872328
19.344885115874032	2.5326111	1.5914179
19.362664844268313	2.5250814	1.5890504
19.380445043295822	2.509681	1.5841973
19.39822571342203	2.484533	1.5762402
19.41600685511252	2.4787464	1.5744035
19.43378846883297	2.473909	1.5728664
19.451570555049173	2.4538589	1.5664798
19.469353114227037	2.44879	1.564861
19.48713614683254	2.4566379	1.5673665
19.50491965333182	2.4662712	1.5704366
19.52270363419109	2.463819	1.5696557
19.540488089876686	2.452282	1.5659764
19.55827302085503	2.4435024	1.5631707
19.576058427592674	2.4743366	1.5730025
19.593844310556282	2.4810662	1.5751401
19.611630670212598	2.5004663	1.5812863
19.629417507028506	2.480067	1.5748229
19.64720482147098	2.4548416	1.5667934
19.6649926140071	2.4595034	1.5682805
19.682780885104084	2.4629035	1.5693641
19.70056963522921	2.438513	1.5615739
19.718358864849908	2.4695299	1.5714738
19.7361485744337	2.5015557	1.5816307
19.753938764448215	2.513089	1.5852726
19.771729435361202	2.5189111	1.5871078
19.789520587640506	2.5415366	1.5942197
19.807312221754092	2.5387495	1.5933454
19.825104338170043	2.5022366	1.581846
19.842896937356517	2.475156	1.5732629
19.860690019781824	2.4518738	1.5658461
19.87848358591436	2.4680517	1.5710034
19.896277636222635	2.4670365	1.5706803
19.914072171175278	2.494741	1.5794749
19.931867191241015	2.4631221	1.5694337
19.94966269688869	2.4583325	1.5679071
19.967458688587264	2.4550993	1.5668757
19.985255166805807	2.4740593	1.5729142
20.00305213201348	2.476935	1.5738281
20.020849584679578	2.4550319	1.5668541
20.038647525273507	2.442029	1.5626993
20.05644595426477	2.4299266	1.5588222
20.07424487212299	2.423459	1.5567462
20.092044279317903	2.4364994	1.5609291
20.109844176319353	2.4670858	1.570696
20.127644563597304	2.4744122	1.5730264
20.145445441621817	2.4570174	1.5674876
20.16324681086307	2.4437504	1.56325
20.181048671791373	2.4309232	1.5591419
20.198851024877122	2.442896	1.5629766
20.216653870590836	2.3760073	1.5414302
20.234457209403146	2.3372781	1.5288159
20.252261041784802	2.333691	1.5276423
20.270065368206662	2.3634849	1.5373629
20.287870189139685	2.3693883	1.5392817
20.305675505054968	2.3837125	1.5439277
20.323481316423702	2.3880148	1.5453203
20.341287623717207	2.3766553	1.5416405
20.359094427406884	2.3778806	1.5420378
20.376901727964288	2.3172164	1.5222406
20.39470952586107	2.294335	1.5147063
20.41251782156899	2.3107786	1.5201246
20.430326615559935	2.3487744	1.5325712
20.448135908305886	2.367244	1.5385851
20.465945700278965	2.387428	1.5451304
20.483755991951384	2.386625	1.5448706
20.50156678379548	2.3794332	1.5425411
20.519378076283708	2.3532298	1.534024
20.537189869888635	2.331567	1.526947
20.55500216508294	2.320819	1.5234234
20.572814962339415	2.302201	1.5173006
20.59062826213098	2.2833025	1.5110601
20.60844206493066	2.2814476	1.5104462
20.626256371211593	2.3088307	1.5194837
20.644071181447032	2.300784	1.5168335
20.66188649611036	2.2964432	1.515402
20.67970231567506	2.27393	1.5079556
20.697518640614742	2.2879777	1.5126063
20.715335471403122	2.2670105	1.5056595
20.73315280851404	2.2669513	1.5056398
20.750970652421447	2.2795815	1.5098283
20.768789003599412	2.295156	1.5149772
20.786607862522136	2.2541301	1.501376
20.8044272296639	2.2390535	1.4963467
20.82224710549913	2.2568703	1.5022883
20.84006749050237	2.2935054	1.5144324
20.857888385148268	3.8375328	1.9589622
20.8757097899116	45.93758	6.7777267
20.893531705267254	64.81295	8.050649
20.911354131690224	83.82911	9.155824
20.92917706965566	69.08753	8.311891
20.94700051963877	50.12475	7.0798836
20.96482448211493	29.367691	5.4191966
20.982648957559622	4.113738	2.0282352
21.00047394644843	2.2394152	1.4964676
21.01829944925707	2.250425	1.5001417
21.036125466461375	2.2661495	1.5053736
21.053951998537297	2.25658	1.5021918
21.071779045960906	2.2369268	1.4956359
21.089606609208378	2.2402935	1.496761
21.10743468875603	2.235949	1.495309
21.12526328508028	2.2113805	1.4870712
21.143092398657675	2.1804504	1.4766349
21.16092202996488	2.1750984	1.4748214
21.17875217947867	2.1698775	1.4730505
21.19658284767596	2.1647975	1.471325
21.21441403503377	2.154542	1.4678358
21.232245742029225	2.1600544	1.4697124
21.2500779691396	2.154564	1.4678433
21.26791071684227	2.1613631	1.4701575
21.28574398561475	2.158756	1.4692706
21.30357777593465	2.1516783	1.46686
21.321412088279704	2.1368737	1.461805
21.339246923127792	2.0957155	1.4476587
21.357082280956888	2.086232	1.4443794
21.3749181622451	2.1106699	1.4528145
21.392754567470647	2.101383	1.4496148
21.41059149711187	2.1135066	1.4537904
21.42842895164726	2.1111574	1.4529823
21.446266931555378	2.1392107	1.462604
21.464105437314945	2.1305258	1.459632
21.481944469404798	2.128273	1.4588602
21.49978402830388	2.1499164	1.4662594
21.51762411449127	2.1329293	1.4604552
21.53546472844617	2.1055796	1.4510616
21.553305870647876	2.035599	1.4267442
21.571147541575865	2.0381157	1.4276259
21.58898974170967	2.0592349	1.4350034
21.60683247152899	2.060697	1.4355128
21.62467573151363	2.069223	1.4384794
21.642519522143523	2.0672362	1.4377886
21.660363843898722	2.0605438	1.4354594
21.6782086972594	2.0205283	1.4214529
21.696054082705864	1.9914881	1.411201
21.713900000718535	1.985267	1.408995
21.73174645177795	1.9933193	1.4118496
21.749593436364794	1.9943624	1.4122189
21.767440954959845	1.9858512	1.4092023
21.785289008044032	2.0210824	1.4216478
21.803137596098388	2.0507493	1.4320438
21.820986719604086	2.05046	1.4319428
21.838836379042412	1.9984041	1.4136492
21.85668657489478	1.9662946	1.4022462
21.87453730764273	1.9423286	1.3936745
21.892388577767914	1.9688082	1.4031422
21.91024038575213	1.9787961	1.4066969
21.928092732077285	1.9653487	1.401909
21.945945617225426	1.9825896	1.4080446
21.963799041678694	1.9969534	1.413136
21.981653005919398	31.34332	5.5985107
21.999507510429943	78.12688	8.838941
22.01736255569286	73.03343	8.54596
22.035218142190818	4.092643	2.0230281
22.05307427040661	1.9382465	1.3922092
22.07093094082315	1.9834114	1.4083364
22.088788153923474	2.0108736	1.4180528
22.106645910190746	1.992633	1.4116066
22.12450421010827	1.9816144	1.4076983
22.142363054159464	2.0017946	1.4148479
22.16022244282787	2.0008771	1.4145236
22.178082376597164	1.9713157	1.4040356
22.195942855951145	1.9655546	1.4019824
22.213803881373742	1.9590691	1.3996675
22.231665453349002	1.9752728	1.405444
22.24952757236111	1.9653394	1.4019057
22.26739023889438	1.9759146	1.4056723
22.28525345343323	1.9658905	1.4021022
22.30311721646225	1.9916842	1.4112704
22.320981528466113	1.9866123	1.4094723
22.33884638992964	1.9751403	1.4053968
22.356711801337788	1.9514441	1.396941
22.37457776317561	1.9665643	1.4023424
22.392444275928337	1.9628366	1.4010127
22.410311340081282	1.9276973	1.3884153
22.428178956119904	1.8682059	1.3668233
22.446047124529805	1.9036148	1.3797154
22.46391584579669	1.9276781	1.3884084
22.481785120406414	1.9520253	1.397149
22.49965494884496	1.9657072	1.4020368
22.51752533159841	1.9726384	1.4045064
22.53539626915302	1.9740348	1.4050034
22.553267761995137	1.9916288	1.4112508
22.571139810611264	1.9759421	1.4056821
22.589012415488025	1.9490256	1.3960751
22.60688557711216	1.9543653	1.3979862
22.624759295970566	1.9929566	1.4117211
22.642633572550263	2.0080614	1.4170609
22.660508407338362	1.9595363	1.3998344
22.67838380082217	1.9426911	1.3938046
22.696259753489077	1.9432297	1.3939978
22.714136265826614	1.9405075	1.393021
22.73201333832246	1.9266728	1.3880464
22.74989097146439	1.9047817	1.3801383
22.76776916574035	1.9120694	1.382776
22.785647921638393	1.9272022	1.3882371
22.803527239646712	1.9725937	1.4044906
22.82140712025363	1.9896342	1.4105439
22.839287563947593	1.9747941	1.4052737
22.85716857121719	1.9459844	1.3949854
22.875050142551135	1.9178447	1.3848627
22.892932278438277	1.9146342	1.3837031
22.910814979367604	1.9630945	1.4011047
22.928698245828222	1.9952863	1.412546
22.946582078309387	1.9908724	1.4109827
22.96446647730047	1.973216	1.4047121
22.98235144329098	1.9718661	1.4042315
23.000236976770562	1.9418882	1.3935165
23.018123078229	1.9112467	1.3824785
23.03600974815619	1.8974943	1.3774956
23.053896987042194	1.9203892	1.385781
23.071784795377173	1.925833	1.3877438
23.08967317365145	1.932503	1.390145
23.10756212235546	1.9197725	1.3855586
23.125451641979787	1.9427335	1.3938198
23.143341733015134	1.9162021	1.3842695
23.161232395952357	1.9014003	1.3789127
23.179123631282426	1.8830916	1.3722578
23.197015439496468	1.9113747	1.3825247
23.214907821085717	1.8979985	1.3776786
23.23280077654157	1.8721936	1.3682812
23.250694306355538	1.8948276	1.3765274
23.268588411019277	1.9444529	1.3944364
23.28648309102458	1.95191	1.3971077
23.304378346863356	1.9587785	1.3995637
23.322274179027676	1.9541658	1.3979148
23.340170588009723	1.9485661	1.3959105
23.358067574301852	1.9210284	1.3860117
23.37596513839651	1.9268	1.3880923
23.39386328078629	1.8964393	1.3771126
23.411762001963947	1.9018192	1.3790647
23.429661302422353	1.9176785	1.3848027
23.4475611826545	1.9413537	1.3933247
23.46546164315356	1.9579352	1.3992624
23.48336268441279	1.9778055	1.4063448
23.501264306925638	1.9364557	1.3915659
23.51916651118564	1.9210618	1.3860238
23.537069297686497	1.8944883	1.3764042
23.554972666922037	1.8763264	1.3697907
23.57287661938623	1.8957851	1.3768752
23.59078115557318	1.9814056	1.4076241
23.608686275977128	1.9807925	1.4074063
23.62659198109246	1.9636837	1.401315
23.6444982714137	1.940648	1.3930714
23.66240514743549	1.9451731	1.3946947
23.68031260965263	1.8892686	1.3745067
23.698220658560068	1.8753226	1.3694242
23.716129294652845	1.8897802	1.3746928
23.7340385184262	1.9171251	1.3846029
23.75194833037546	1.9185202	1.3851066
23.769858730996123	1.9177347	1.384823
23.78776972078382	1.9079946	1.3813018
23.80568130023431	1.8739059	1.3689069
23.823593469843495	1.8557261	1.3622504
23.841506230107424	1.8967134	1.3772122
23.859419581522275	1.920582	1.3858507
23.87733352458438	1.9535265	1.3976861
23.89524805979019	1.9447335	1.394537
23.913163187636318	1.9206873	1.3858887
23.931078908619508	1.9191313	1.3853271
23.948995223236633	1.9539682	1.3978441
23.966912131984735	1.995787	1.4127233
23.98482963536096	2.0336196	1.4260503
24.002747733862616	2.0378513	1.4275333
24.020666427987155	2.0440228	1.4296932
24.038585718232156	2.0763617	1.4409586
24.056505605095353	2.0694757	1.4385673
24.074426089074617	2.0611174	1.4356592
24.092347170667946	2.043551	1.4295282
24.110268850373515	2.054405	1.4333196
24.128191128689586	2.0566342	1.434097
24.146114006114626	2.0243275	1.4227886
24.164037483147187	2.007702	1.416934
24.181961560286005	2.0062878	1.4164349
24.199886238029926	1.9755617	1.4055468
24.21781151687797	1.9920977	1.4114169
24.235737397329274	2.0090013	1.4173924
24.253663879883135	2.0730388	1.4398052
24.271590965038975	2.0890362	1.4453498
24.289518653296376	2.0693693	1.4385302
24.30744694515505	2.0681138	1.4380938
24.32537584111486	2.0473015	1.4308394
24.34330534167581	2.020282	1.4213662
24.361235447338046	2.0033188	1.4153864
24.379166158601876	2.01894	1.420894
24.39709747596772	2.0125751	1.4186525
24.41502939993615	1.9927981	1.411665
24.432961931007917	2.0003443	1.4143353
24.450895069683856	2.009934	1.4177214
24.468828816465	1.9490509	1.3960842
24.4867631718525	1.9302878	1.389348
24.504698136347656	1.9719803	1.4042722
24.52263371045192	1.9804673	1.4072908
24.540569894666874	1.9495757	1.3962721
24.558506689494266	1.9102755	1.3821272
24.57644409543597	1.9280096	1.3885279
24.594382112994012	1.9436584	1.3941514
24.61232074267057	1.9313748	1.3897392
24.630259984967953	1.9572836	1.3990295
24.64819984038863	1.9685386	1.4030463
24.66614030943522	1.9474424	1.3955079
24.684081392610462	1.9400398	1.3928531
24.702023090417274	1.9593097	1.3997535
24.7199654033587	1.9731039	1.4046721
24.737908331937927	1.9862634	1.4093486
24.755851876658305	1.9708854	1.4038823
24.773796038023324	2.0237257	1.4225771
24.79174081653661	2.0675402	1.4378943
24.809686212701962	2.110541	1.4527701
24.827632227023294	2.115737	1.4545573
24.8455788600047	2.091941	1.4463544
24.8635261121504	2.1100285	1.4525937
24.88147398396475	2.084867	1.4439069
24.899422475952303	2.0910225	1.4460368
24.917371588617698	2.069425	1.4385496
24.935321322465768	2.1852274	1.4782515
24.953271678001478	2.3157372	1.5217546
24.97122265572994	2.4701312	1.571665
24.989174256156414	2.7774074	1.6665555
25.00712647978632	3.3306189	1.8249983
25.02507932712521	4.402772	2.0982783
25.043032798678798	5.890953	2.4271286
25.060986894952933	7.451746	2.7297885
25.078941616453637	8.899202	2.983153
25.096896963687055	9.848016	3.1381547
25.114852937159508	10.576279	3.252119
25.132809537377444	10.328084	3.2137337
25.150766764847468	9.7408085	3.1210268
25.168724620076347	8.481104	2.9122336
25.186683103570985	7.3147926	2.7045872
25.204642215838426	5.849648	2.4186046
25.222601957385894	4.657936	2.1582253
25.24056232872074	3.5935931	1.8956774
25.25852333035048	2.9015656	1.7033982
25.276484962782778	2.4459548	1.5639548
25.294447226525435	2.2240136	1.4913127
25.312410122086423	2.0933983	1.446858
25.330373649973843	2.0629864	1.4363099
25.348337810695988	2.0532348	1.4329113
25.366302604761245	2.0347903	1.4264607
25.384268032678207	1.9954541	1.4126054
25.40223409495558	1.9405757	1.3930454
25.420200792102257	1.8872687	1.3737789
25.438168124627246	1.8618244	1.3644868
25.45613609303974	1.8648466	1.3655939
25.474104697849057	1.8742652	1.3690381
25.492073939564698	1.8536509	1.3614885
25.510043818696285	1.8609893	1.3641808
25.528014335753614	1.8543334	1.3617392
25.54598549124664	1.8484979	1.3595947
25.56395728568544	1.8527582	1.3611606
25.58192971958028	1.8797815	1.3710512
25.59990279344156	1.8485907	1.3596289
25.617876507779833	1.8572509	1.3628099
25.635850863105826	1.835535	1.3548192
25.653825859930386	1.8483042	1.3595235
25.671801498764548	1.8299685	1.3527633
25.68977778011949	1.8300579	1.3527963
25.707754704506524	1.8056084	1.3437293
25.725732272437153	1.7678654	1.329611
25.743710484423012	1.7808484	1.3344843
25.761689340975888	1.8025868	1.3426045
25.77966884260774	1.7856792	1.3362931
25.797648989830662	1.7888943	1.3374956
25.815629783156922	1.8023323	1.3425097
25.83361122309895	1.8202281	1.3491583
25.85159331016929	1.8167458	1.3478671
25.869576044880695	1.815963	1.3475767
25.887559427746034	1.8176198	1.3481913
25.90554345927836	1.8447442	1.3582137
25.92352813999086	1.8177836	1.348252
25.94151347039689	1.826365	1.3514308
25.959499451009965	1.8622477	1.364642
25.97748608234374	1.8673912	1.3665253
25.995473364912062	1.7975613	1.3407316
26.013461299228904	1.7596287	1.32651
26.03144988580839	1.8347955	1.3545462
26.04943912516483	1.8906467	1.3750079
26.067429017812675	1.8844439	1.3727505
26.085419564266537	1.8098929	1.3453226
26.103410765041186	1.7616534	1.3272729
26.12140262065155	1.7679244	1.3296332
26.139395131612723	1.8010997	1.3420506
26.157388298439948	1.8138351	1.346787
26.17538212164861	1.7812613	1.3346391
26.193376601754295	1.784356	1.3357979
26.211371739272714	1.8317963	1.3534387
26.229367534719746	1.8564764	1.3625257
26.247363988611433	1.8184587	1.3485024
26.26536110146397	1.8038024	1.3430572
26.283358873793727	1.8039495	1.3431119
26.301357306117204	1.7875978	1.3370107
26.319356398951104	1.8209747	1.349435
26.33735615281224	1.8197051	1.3489645
26.35535656821762	1.818763	1.3486152
26.373357645684404	1.8483292	1.3595327
26.39135938572991	1.8614053	1.3643333
26.409361788871614	1.8537917	1.3615402
26.427364855627165	1.7958392	1.3400892
26.445368586514352	1.7758676	1.3326168
26.46337298205115	1.8239965	1.3505541
26.48137804275568	1.8537608	1.3615289
26.499383769146217	1.8269179	1.3516352
26.517390161741215	1.7898299	1.3378452
26.53539722105928	1.782087	1.3349483
26.553404947619182	1.7653912	1.3286803
26.571413341939856	1.7904779	1.3380874
26.589422404540397	1.7675788	1.3295032
26.60743213594006	1.7679422	1.3296399
26.62544253665827	1.7578328	1.3258328
26.64345360721459	1.8173205	1.3480803
26.66146534812879	1.8743657	1.3690747
26.679477759920758	1.8100319	1.3453742
26.69749084311057	1.7528633	1.3239574
26.71550459821847	1.7260283	1.313784
26.733519025764842	1.7566426	1.3253839
26.751534126270258	1.7627448	1.327684
26.769549900255434	1.7915833	1.3385004
26.787566348241267	1.779882	1.3341222
26.80558347074881	1.7923012	1.3387685
26.823601268299267	1.8297077	1.3526669
26.841619741414036	1.8659437	1.3659955
26.85963889061465	1.8249611	1.3509111
26.877658716422832	1.7935174	1.3392227
26.89567921936045	1.7825948	1.3351384
26.913700399949544	1.8027465	1.342664
26.93172225871233	1.8065119	1.3440654
26.949744796171174	1.8102621	1.3454598
26.967768012848605	1.8122162	1.3461858
26.98579190926733	1.7853494	1.3361697
27.003816485950225	1.7422302	1.3199357
27.021841743420318	1.7277308	1.3144317
27.039867682200814	1.7092607	1.307387
27.057894302815072	1.7780627	1.3334402
27.07592160578664	1.809678	1.3452427
27.0939495916392	1.8051602	1.3435625
27.111978260896635	1.7883414	1.3372889
27.13000761408296	1.7396173	1.3189455
27.148037651722397	1.7174668	1.3105216
27.166068374339304	1.7540301	1.324398
27.184099782458215	1.8045166	1.343323
27.20213187660384	1.81969	1.3489588
27.22016465730105	1.8283124	1.352151
27.23819812507487	1.8220907	1.3498484
27.256232280450533	1.7837468	1.3355699
27.274267123953383	1.745509	1.3211771
27.292302656108987	1.7580585	1.325918
27.31033887744306	1.7911979	1.3383564
27.32837578848146	1.8096029	1.3452148
27.34641338975026	1.7770928	1.3330765
27.364451681775673	1.7757903	1.3325878
27.382490665084074	1.7617058	1.3272927
27.400530340202046	1.8166876	1.3478456
27.41857070765629	1.8479756	1.3594027
27.436611767973726	1.8807502	1.3714044
27.454653521681404	1.8594652	1.3636221
27.472695969306564	1.8465779	1.3588885
27.490739111376627	1.8549653	1.3619711
27.508782948419153	1.8778294	1.3703392
27.526827480961902	1.8752422	1.3693949
27.54487270953279	1.839772	1.3563819
27.562918634659898	1.8620197	1.3645585
27.580965256871508	1.8646555	1.3655239
27.599012576696026	1.8344483	1.354418
27.617060594662068	1.850009	1.3601503
27.63510931129842	1.844129	1.357987
27.65315872713401	1.8444475	1.3581043
27.67120884269797	1.8157437	1.3474953
27.68925965851958	1.7977097	1.3407869
27.707311175128307	1.8121479	1.3461604
27.725363393053787	1.8588824	1.3634083
27.74341631282583	1.8962092	1.3770292
27.7614699349744	1.9145707	1.3836801
27.77952426002968	2.0763316	1.4409481
27.797579288521973	2.1222565	1.4567966
27.815635020981784	2.599431	1.6122751
27.83369145793979	2.7289717	1.65196
27.85174859992682	2.6674018	1.6332183
27.869806447473923	2.562604	1.6008135
27.887865001112267	2.1165385	1.4548328
27.905924261373233	1.9633642	1.401201
27.92398422878836	1.9077327	1.381207
27.94204490388936	1.8692518	1.3672059
27.96010628720813	1.8262649	1.3513937
27.978168379276728	1.7712674	1.3308897
27.9962311806274	1.7837584	1.3355742
28.014294691792568	1.8474382	1.359205
28.0323589133048	1.8459609	1.3586614
28.050423845696887	1.8118112	1.3460354
28.068489489501758	1.7841991	1.3357391
28.086555845252523	1.8083504	1.3447492
28.104622913482487	1.8948214	1.3765252
28.122690694725115	1.9078665	1.3812554
28.14075918951405	1.9070786	1.3809701
28.15882839838312	1.8883026	1.3741552
28.176898321866304	1.8908381	1.3750775
28.1949689604978	1.8997123	1.3783005
28.213040314811945	1.9151978	1.3839067
28.23111238534327	1.9068563	1.3808897
28.249185172626493	1.9183478	1.3850443
28.267258677196473	1.9014443	1.3789287
28.285332899588294	1.8701947	1.3675506
28.303407840337172	1.917004	1.3845592
28.321483499978545	1.9436795	1.3941591
28.33955987904799	1.9638796	1.4013848
28.357636978081285	2.003539	1.4154643
28.37571479761439	2.03729	1.4273367
28.393793338183425	2.0447166	1.4299358
28.41187260032469	2.0910568	1.4460487
28.429952584574686	2.0877557	1.4449068
28.448033291470065	2.0817668	1.442833
28.46611472154769	2.049549	1.4316247
28.484196875344566	2.0277514	1.4239913
28.502279753397914	2.012739	1.4187104
28.52036335624511	2.0365808	1.4270883
28.538447684423716	2.023774	1.4225941
28.556532738471482	1.9834911	1.4083647
28.574618518926325	1.9787005	1.406663
28.59270502632635	1.9989467	1.4138411
28.61079226120985	2.0128913	1.418764
28.628880224115274	2.0022328	1.4150027
28.646968915581287	2.0297651	1.4246982
28.66505833614671	2.0148642	1.4194591
28.68314848635055	2.0183768	1.4206959
28.701239366732004	2.0828857	1.4432206
28.71933097783044	2.1410398	1.4632293
28.737423320185403	2.112849	1.4535643
28.75551639433665	2.1007245	1.4493877
28.773610200824074	2.0785432	1.4417154
28.791704740187793	2.0839262	1.443581
28.80980001296809	2.086124	1.444342
28.827896019705413	2.168466	1.4725713
28.845992760940433	2.2279608	1.4926355
28.86409023721397	2.2728493	1.5075972
28.88218844906704	2.2649724	1.5049826
28.900287397040845	2.2085495	1.4861189
28.918387081676755	2.196231	1.4819686
28.936487503516343	2.2456179	1.4985386
28.954588663101365	2.2274916	1.4924784
28.97269056097374	2.2351062	1.4950272
28.990793197675597	2.2485576	1.4995191
29.00889657374923	2.2879648	1.512602
29.027000689737125	2.3268933	1.5254158
29.04510554618196	2.3506708	1.5331898
29.06321114362659	2.4325178	1.559653
29.08131748261405	2.4938014	1.5791774
29.099424563687567	2.5001917	1.5811994
29.11753238739057	2.4945319	1.5794088
29.13564095426663	2.4790459	1.5744987
29.15375026485954	2.505086	1.5827464
29.171860319713275	2.5678396	1.602448
29.18997111937199	2.6079948	1.6149287
29.20808266438002	2.604383	1.6138101
29.226194955281898	2.6516778	1.6283973
29.244307992622335	2.69428	1.6414262
29.26242177694624	2.7559657	1.6601101
29.2805363087987	2.8655202	1.6927848
29.29865158872498	2.9581838	1.7199371
29.316767617270557	2.9759798	1.7251028
29.334884394981064	2.917796	1.7081558
29.353001922402367	2.9230516	1.7096934
29.37112020008047	3.0228086	1.7386225
29.389239228561596	3.1382556	1.7715123
29.407359008392152	3.335193	1.826251
29.42547954011872	3.631083	1.9055401
29.44360082428809	4.126973	2.0314953
29.46172286144722	4.96412	2.2280304
29.479845652143283	6.4887767	2.5473077
29.497969196923606	9.207559	3.034396
29.516093496335728	13.195011	3.6324937
29.5342185509274	16.749165	4.092574
29.55234436124651	19.688772	4.4372034
29.570470927841175	20.96014	4.5782247
29.588598251259686	20.8546	4.566684
29.60672633205055	19.036612	4.3630967
29.624855170762405	15.973167	3.9966445
29.642984767944146	12.516508	3.5378678
29.66111512414481	9.367471	3.0606325
29.67924623991366	7.018267	2.6492012
29.697378115800138	5.2709546	2.295856
29.71551075235387	4.340125	2.0832968
29.733644150124675	3.8010123	1.9496185
29.751778309662576	3.5496292	1.884046
29.769913231517766	3.4550724	1.8587825
29.78804891624066	3.478948	1.8651938
29.806185364381818	3.4846435	1.86672
29.82432257649206	3.3916197	1.8416351
29.842460553122333	3.3302646	1.8249012
29.86059929482382	3.353063	1.8311371
29.878738802147872	3.4180958	1.8488092
29.896879075646048	3.3520606	1.8308634
29.915020115870114	3.2507107	1.8029728
29.933161923371976	3.1984484	1.7884207
29.951304498703777	3.2273843	1.7964922
29.969447842417857	3.201255	1.7892052
29.987591955066733	3.2009108	1.789109
30.005736837203123	3.1813538	1.783635
30.023882489379943	3.1508276	1.7750571
30.04202891215028	3.174809	1.7817993
30.060176106067455	3.2276213	1.7965581
30.078324071684946	3.1904483	1.7861826
30.09647280955646	3.0713232	1.7525191
30.114622320235863	3.038306	1.7430737
30.132772604277257	3.0403938	1.7436725
30.1509236622349	3.0742073	1.7533418
30.16907549466328	3.1329794	1.7700224
30.18722810211705	3.1585333	1.7772263
30.205381485151097	3.061144	1.7496126
30.22353564432045	3.0026429	1.7328136
30.241690580180403	3.054596	1.7477403
30.25984629328638	3.1028602	1.7614938
30.278002784194037	3.115753	1.7651496
30.296160053459246	3.0291624	1.740449
30.314318101638033	2.96754	1.7226549
30.332476929286646	2.9409034	1.7149062
30.35063653696153	2.8393157	1.6850269
30.368796925219307	2.7556083	1.6600025
30.386958094616844	2.8089025	1.6759781
30.40512004571115	2.8923948	1.7007042
30.423282779059463	2.921981	1.7093803
30.441446295219233	2.9093964	1.7056953
30.459610594748067	2.8922517	1.7006621
30.47777567820382	2.8791668	1.6968108
30.495941546144504	2.9203663	1.708908
30.51410819912835	2.9313233	1.7121108
30.532275637713795	2.838765	1.6848634
30.55044386245946	2.7976997	1.6726326
30.56861287392416	2.8268135	1.681313
30.586782672666956	2.8087187	1.6759232
30.604953259247047	2.7857373	1.6690528
30.623124634223885	2.7841408	1.6685745
30.641296798157075	2.7647493	1.6627536
30.659469751606462	2.765262	1.6629077
30.677643495132074	2.7711062	1.664664
30.695818029294152	2.7354605	1.6539228
30.713993354653116	2.700287	1.643255
30.73216947176962	2.6686432	1.6335982
30.75034638120448	2.6722903	1.6347141
30.768524083518756	2.7386947	1.6549002
30.786702579273673	2.8065586	1.6752787
30.80488186903069	2.9701653	1.7234167
30.82306195335144	3.1525686	1.7755474
30.841242832797782	3.3359091	1.8264471
30.85942450793176	3.5275853	1.8781867
30.877606979315637	3.9030306	1.975609
30.895790247511883	4.2863793	2.0703573
30.913974313083134	4.71209	2.170735
30.932159176592283	5.2529316	2.2919276
30.95034483860237	5.8140774	2.4112399
30.968531299676698	5.8129	2.4109957
30.98671856037873	5.4027658	2.324385
31.00490662127215	4.969387	2.2292123
31.023095482920848	4.5438547	2.1316319
31.04128514588892	4.0003705	2.0000925
31.059475610740662	3.4019294	1.844432
31.07766687804056	2.947855	1.7169318
31.09585894835335	2.6352954	1.6233593
31.11405182224393	2.47617	1.5735852
31.132245500277417	2.4721193	1.5722975
31.15043998301914	2.5107474	1.5845338
31.168635271034628	2.502059	1.5817899
31.18683136488964	2.4192288	1.555387
31.20502826515008	2.3726044	1.5403261
31.223225972382135	2.4094203	1.5522307
31.241424487152155	2.5367603	1.5927211
31.259623810026692	2.536144	1.5925275
31.27782394157253	2.4576814	1.5676994
31.296024882356644	2.4532275	1.5662782
31.314226632946237	2.511371	1.5847305
31.332429193908684	2.5344374	1.5919917
31.350632565811598	2.4607615	1.5686815
31.368836749222787	2.437749	1.5613292
31.387041744710295	2.496709	1.5800978
31.40524755284232	2.5607393	1.600231
31.423454174187317	2.5886137	1.608917
31.441661609313922	2.578317	1.6057138
31.459869858791002	2.5741494	1.6044155
31.478078923187628	2.504283	1.5824926
31.496288803073064	2.3678656	1.538787
31.514499499016807	2.2512865	1.5004288
31.532711011588546	2.2619922	1.5039921
31.550923341358178	2.30815	1.5192597
31.56913648889584	2.2777889	1.5092345
31.587350454771844	2.2390418	1.4963428
31.605565239556732	2.3293443	1.5262189
31.62378084382127	2.395609	1.5477755
31.641997268136382	2.3355005	1.5282345
31.660214513073274	2.2457175	1.4985719
31.67843257920331	2.185969	1.4785023
31.6966514670981	2.2257648	1.4918997
31.71487117732944	2.300786	1.5168343
31.733091710469346	2.3268683	1.5254076
31.751313067090052	2.2918293	1.513879
31.769535247764008	2.2918818	1.5138962
31.787758253063878	2.3246703	1.5246869
31.805982083562526	2.3596818	1.5361255
31.824206739833024	2.2655141	1.5051625
31.84243222244869	2.162533	1.4705553
31.860658531983013	2.1741545	1.4745015
31.878885669009737	2.2124531	1.4874318
31.897113634102784	2.203118	1.4842905
31.91534242783632	2.2260342	1.49199
31.933572050784694	2.3098252	1.5198109
31.951802503522508	2.226046	1.491994
31.970033786624548	2.2022877	1.4840107
31.988265900665834	2.2580843	1.5026923
32.006498846221575	2.3248034	1.5247306
32.02473262386724	2.298803	1.5161804
32.04296723417845	2.2824414	1.5107751
32.0612026777311	2.2483416	1.4994471
32.07943895510129	2.2429469	1.4976472
32.097676066865304	2.2145941	1.4881512
32.115914013599685	2.1730876	1.4741396
32.13415279588115	2.1399992	1.4628736
32.152392414286666	2.1769173	1.475438
32.1706328693934	2.2386124	1.4961994
32.18887416177875	2.2489872	1.4996624
32.20711629202032	2.2215126	1.490474
32.225359260695924	2.165739	1.471645
32.243603068383614	2.135171	1.4612224
32.26184771566166	2.1401126	1.4629124
32.28009320310852	2.1424515	1.4637115
32.2983395313029	2.1548722	1.4679483
32.31658670082372	2.1650078	1.4713966
32.33483471225012	2.1048026	1.4507937
32.35308356616143	2.0742686	1.4402322
32.371333263137245	2.1261544	1.4581339
32.38958380375734	2.140374	1.4630017
32.407835188601744	2.1005082	1.449313
32.42608741825067	2.0164046	1.4200016
32.444340493284585	1.9936453	1.411965
32.46259441428416	2.0167913	1.4201378
32.48084918183028	2.0549371	1.4335052
32.49910479650405	2.1529405	1.4672902
32.51736125888683	2.1838398	1.477782
32.53561856956014	2.0965142	1.4479345
32.5538767291058	2.0253518	1.4231485
32.572135738105764	2.0483797	1.4312161
32.59039559714228	2.0528111	1.4327635
32.608656306797776	1.9826337	1.4080603
32.62691786765491	1.935932	1.3913778
32.645180280296586	1.9744564	1.4051535
32.663443545305896	1.9548889	1.3981735
32.68170766326619	2.0153182	1.419619
32.69997263476099	2.0265102	1.4235555
32.7182384603741	1.9802535	1.4072148
32.7365051406895	1.9397329	1.392743
32.75477267629144	1.9617091	1.4006103
32.77304106776434	1.9784055	1.406558
32.79131031569289	2.0341928	1.4262513
32.809580420661966	2.096501	1.44793
32.827851383256714	2.088177	1.4450526
32.84612320406245	2.0300221	1.4247885
32.86439588366476	1.9581119	1.3993255
32.88266942264945	1.9708278	1.4038618
32.9009438216025	1.9703264	1.4036832
32.9192190811102	1.8989717	1.3780318
32.937495201758985	1.8531808	1.3613158
32.95577218413556	1.8801913	1.3712007
32.974050028826866	1.898786	1.3779644
32.992328736420035	1.9012232	1.3788486
33.010608307502444	1.9464844	1.3951646
33.02888874266169	1.9579237	1.3992583
33.047170042485604	1.962264	1.4008083
33.06545220756225	1.9428172	1.3938497
33.083735238479896	1.962263	1.400808
33.10201913582707	1.9802666	1.4072194
33.12030390019248	1.9662637	1.4022353
33.138589532165135	1.9363567	1.3915303
33.15687603233419	1.9168826	1.3845153
33.17516340128909	1.8635404	1.3651155
33.19345163961947	1.8409104	1.3568015
33.211740747915215	1.9197844	1.3855629
33.23003072676643	1.9494251	1.3962182
33.248321576763466	1.9511421	1.3968328
33.266613298496885	1.9972634	1.4132457
33.28490589255747	1.995362	1.4125729
33.30319935953626	1.9970709	1.4131776
33.32149370002451	1.9152606	1.3839294
33.339788914613706	1.8419294	1.357177
33.358085003895575	1.9399393	1.392817
33.376381968462034	1.9988257	1.4137983
33.39467980890529	1.9667459	1.4024072
33.41297852581774	1.9156823	1.3840817
33.43127811979204	1.9508746	1.3967371
33.44957859142105	1.9275624	1.3883668
33.467879941297866	1.8780422	1.3704168
33.486182170015844	1.9431324	1.3939629
33.50448527816853	1.9650356	1.4017973
33.522789266349754	1.8559813	1.362344
33.541094135153514	1.7889401	1.3375126
33.55939988517411	1.8604379	1.3639787
33.57770651700602	1.9600319	1.4000114
33.59601403124398	1.9675225	1.4026841
33.61432242848296	1.9515724	1.396987
33.632631709318154	1.8711308	1.3678929
33.650941874344994	1.8202438	1.3491641
33.66925292415916	1.8899224	1.3747445
33.68756485935654	1.964251	1.4015174
33.70587768053328	2.0205264	1.4214522
33.724191388285746	1.9647022	1.4016783
33.74250598321054	2.0198362	1.4212095
33.760821465904506	2.0067432	1.4165956
33.77913783696474	1.9355646	1.3912457
33.79745509698852	1.8983785	1.3778166
33.815773246573414	1.9057248	1.3804799
33.8340922863172	1.9620054	1.4007161
33.852412216817896	1.8950326	1.3766018
33.87073303867377	1.9210454	1.3860178
33.889054752483304	1.9773054	1.4061669
33.907377358845245	2.0399132	1.4282553
33.92570085835853	1.9271619	1.3882226
33.94402525162239	1.9044006	1.3800002
33.96235053923627	1.9414583	1.3933623
33.980676721799824	2.0287764	1.4243512
33.999003799912984	1.9874026	1.4097526
34.01733177417592	1.9667352	1.4024034
34.03566064518901	1.9605321	1.40019
34.0539904135529	1.941215	1.3932749
34.07232107986846	1.9083548	1.3814322
34.090652644736785	1.9969723	1.4131427
34.108985108759235	2.0387108	1.4278343
34.12731847253742	1.9991598	1.4139165
34.14565273667313	1.901658	1.3790061
34.16398790176847	2.006426	1.4164838
34.18232396842574	2.1441138	1.4642793
34.20066093724749	2.0600386	1.4352834
34.21899880883651	1.9481694	1.3957684
34.23733758379583	1.9585718	1.3994899
34.25567726272874	1.995579	1.4126496
34.27401784623872	1.9195375	1.3854737
34.29235933492957	1.8507953	1.3604394
34.31070172940526	1.9815999	1.4076931
34.32904503027003	2.0310867	1.425162
34.347389238128386	2.0184064	1.4207063
34.36573435358502	2.0464246	1.4305329
34.38408037724492	2.1211238	1.4564078
34.402427309713296	2.034237	1.4262668
34.42077515159559	1.906377	1.3807161
34.43912390349752	1.9207319	1.3859047
34.45747356602499	1.9562944	1.3986759
34.47582413978423	2.085058	1.443973
34.49417562538163	2.014036	1.4191674
34.51252802342388	1.9441942	1.3943436
34.53088133451789	1.896299	1.3770617
34.54923555927084	1.7601235	1.3266965
34.567590698290104	1.872945	1.3685558
34.58594675218336	1.9414076	1.393344
34.6043037215585	2.0274923	1.4239004
34.62266160702365	1.9993734	1.413992
34.641020409187234	1.985121	1.4089432
34.65938012865785	1.917697	1.3848094
34.677740766044394	2.1094553	1.4523964
34.69610232195598	2.1544785	1.4678142
34.714464797002016	2.101913	1.4497975
34.73282819179208	2.0227518	1.4222348
34.751192506936064	1.9477866	1.3956312
34.76955774304408	1.9747038	1.4052415
34.7879239007265	1.8813589	1.3716264
34.80629098059391	1.8145697	1.3470596
34.824658983257194	1.8062804	1.3439794
34.843027909327446	1.9430653	1.3939388
34.86139775941603	2.0048857	1.4159398
34.879768534134534	1.902736	1.3793969
34.89814023409483	1.6981221	1.3031201
34.91651285990901	1.6887873	1.2995335
34.93488641218944	2.012349	1.4185728
34.95326089154871	2.061579	1.43582
34.97163629859967	1.7388227	1.3186443
34.99001263395542	1.6201468	1.2728498
35.00838989822934	1.6658764	1.2906884
35.02676809203499	1.7843558	1.3357978
35.04514721598624	2.0181248	1.4206072
35.063527270697215	1.9546216	1.3980778
35.081908256782256	1.9010041	1.378769
35.10029017485597	1.8908211	1.3750713
35.11867302553321	1.7756354	1.3325297
35.137056809429104	1.835715	1.3548856
35.155441527159006	2.0519595	1.4324663
35.173827179338524	2.1705954	1.473294
35.19221376658354	2.0663164	1.4374688
35.21060128951017	1.8820463	1.371877
35.2289897487348	1.9186158	1.3851411
35.24737914487405	2.1360486	1.4615227
35.26576947854479	2.2108917	1.4869068
35.28416075036418	2.156546	1.4685184
35.30255296094958	2.0573764	1.4343557
35.32094611091867	1.7876295	1.3370227
35.33934020088932	1.8284984	1.3522198
35.35773523147969	2.0745385	1.4403259
35.3761312033082	1.9771417	1.4061087
35.394528116993506	2.1107595	1.4528453
35.41292597315452	2.4458268	1.563914
35.431324772410434	2.595207	1.6109647
35.449724515380666	2.373979	1.5407722
35.46812520268491	1.9632359	1.4011552
35.486526834943106	1.5330871	1.238179
35.504929412775454	1.4506862	1.2044444
35.52333293680242	1.671678	1.2929338
35.54173740764471	1.8529932	1.361247
35.560142825923286	2.0529027	1.4327954
35.5785491922594	1.7963597	1.3402834
35.59695650727454	1.5387685	1.2404711
35.61536477159042	1.4857981	1.2189332
