0.008763373481513119	0.0	0.0
0.026290120649546365	0.0	0.0
0.043816868432600686	0.0	0.0
0.06134361724069026	0.0	0.0
0.07887036748382949	0.007021293	0.083793156
0.0963971195720331	0.10507945	0.3241596
0.11392387391531617	0.15316156	0.3913586
0.1314506309236943	0.19395457	0.44040275
0.1489773910071836	0.16293283	0.4036494
0.16650415457580078	0.15974861	0.39968565
0.18403092203956356	0.1941367	0.44060946
0.20155769380849	0.21602209	0.46478176
0.2190844702925996	0.2564734	0.506432
0.2366112519019124	0.2061184	0.45400265
0.2541380390464497	0.17161508	0.4142645
0.27166483213623416	0.21893051	0.4679001
0.28919163158128947	0.23406607	0.48380375
0.3067184377916406	0.26139015	0.5112633
0.324245251177314	0.21459256	0.46324137
0.34177207214833777	0.19925493	0.4463798
0.3592989011147415	0.20929314	0.45748568
0.37682573848655654	0.19349436	0.43987995
0.39435258467381573	0.17164542	0.41430113
0.41187944008655414	0.11504813	0.33918747
0.42940630513480854	0.10448165	0.32323623
0.446933180228618	0.11131301	0.33363605
0.4644600657780234	0.11375763	0.33727977
0.48198696219306775	0.13347955	0.36534855
0.49951386988379676	0.17124738	0.41382048
0.5170407892602581	0.20799151	0.45606086
0.5345677207325025	0.20965612	0.45788223
0.5520946647105822	0.15802388	0.39752218
0.5696216216045534	0.14391628	0.379363
0.5871485918244737	0.14867704	0.38558662
0.6046755757804043	0.1692071	0.4113479
0.6222025738824094	0.15304548	0.39121026
0.6397295865405557	0.13483068	0.36719298
0.6572566141649129	0.17529158	0.41867837
0.6747836571655547	0.1771791	0.42092648
0.6923107159525568	0.1865714	0.43193913
0.7098377909359992	0.1353133	0.36784956
0.7273648825259653	0.14554985	0.38150996
0.7448919911325411	0.17041963	0.41281912
0.762419117165817	0.2062787	0.45417914
0.7799462610358868	0.21683984	0.46566063
0.7974734231528482	0.20598796	0.45385897
0.8150006039268024	0.20531288	0.45311463
0.8325278037678551	0.2244105	0.47371987
0.8500550230861152	0.22954284	0.47910628
0.8675822622916969	0.23905008	0.48892748
0.8851095217947171	0.2381354	0.48799118
0.9026368020052984	0.252216	0.5022111
0.9201641033335665	0.2373036	0.48713818
0.9376914261896523	0.27166542	0.5212153
0.9552187709836915	0.27750188	0.5267845
0.9727461381258234	0.24905331	0.4990524
0.990273528026193	0.26187614	0.51173836
1.0078009410949496	0.20659365	0.45452574
1.0253283777422473	0.22185682	0.4710168
1.0428558383782454	0.23360558	0.4833276
1.0603833234131086	0.2659364	0.5156902
1.0779108332570058	0.3096286	0.5564428
1.0954383683201119	0.30485365	0.5521355
1.112965929012607	0.3170129	0.563039
1.1304935157446763	0.36455527	0.60378414
1.1480211289265108	0.42376432	0.65097183
1.1655487689683062	1.3158139	1.1470894
1.1830764362802655	1.6755705	1.2944382
1.200604131272596	2.126334	1.4581954
1.2181318543555117	2.38496	1.5443316
1.235659605939232	2.3566809	1.5351485
1.253187386433982	3.9379632	1.9844302
1.270715196249994	6.247751	2.49955
1.2882430357975057	11.723078	3.423898
1.3057709054867608	16.597311	4.07398
1.3232988057280106	22.563288	4.750083
1.3408267369315112	27.350105	5.229733
1.358354699507526	30.935097	5.561933
1.3758826938663256	34.781948	5.897622
1.3934107204181858	37.128635	6.093327
1.410938779573391	37.65352	6.136246
1.4284668717422309	38.21916	6.1821647
1.4459949973350033	37.53456	6.1265454
1.4635231567620117	37.162437	6.0961003
1.4810513504335687	36.371456	6.030875
1.4985795787599925	35.698093	5.974788
1.5161078421516088	35.241447	5.936451
1.5336361410187505	34.874622	5.9054737
1.5511644757717598	34.886387	5.90647
1.5686928468209842	35.4549	5.9544015
1.58622125457678	36.190155	6.0158253
1.6037496994495108	37.215122	6.10042
1.621278181849548	37.009132	6.0835133
1.6388067021872719	37.76659	6.145453
1.6563352608730693	37.247284	6.1030555
1.673863858317336	36.353912	6.0294204
1.6913924949304753	35.56747	5.963847
1.7089211711228998	34.64402	5.885917
1.7264498873050296	33.94759	5.826456
1.7439786438872935	33.07596	5.75117
1.7615074412801288	32.03926	5.6603236
1.779036279893981	31.160393	5.5821495
1.796565160139305	29.830044	5.4616885
1.814094082426564	29.236588	5.407087
1.8316230471662298	29.00415	5.38555
1.849152054768784	28.418133	5.330866
1.8666811056447168	28.093233	5.300305
1.8842102002045273	26.780352	5.1749735
1.901739338858724	25.903204	5.089519
1.9192685220178245	25.063393	5.0063353
1.9367977500923557	24.655321	4.9654126
1.9543270234928547	24.317503	4.931278
1.971856342629867	24.15339	4.91461
1.9893857079139496	23.635191	4.8616037
2.006915119755667	23.128365	4.809196
2.0244445785655945	22.387098	4.7315006
2.0419740847543175	21.923489	4.6822524
2.0595036387324317	21.29856	4.615036
2.0770332409105414	20.772629	4.5577
2.094562891699263	20.386063	4.515093
2.1120925915092217	20.097227	4.482993
2.129622340751053	19.72538	4.441326
2.1471521398354043	187.67847	13.699579
2.1646819891729323	444.07828	21.073164
2.182211889174303	440.41055	20.98596
2.1997418402501974	452.70203	21.276796
2.2172718428113023	432.68698	20.801128
2.234801897268317	320.46616	17.90157
2.2523320040319548	16.904861	4.1115522
2.269862163512935	16.621923	4.076999
2.287392376121992	16.236633	4.0294704
2.304922642269869	15.828817	3.9785447
2.322452962367322	15.654335	3.9565558
2.3399833368251164	15.436999	3.9289947
2.357513766054032	15.295174	3.9109044
2.3750442504648586	14.873202	3.856579
2.3925747904683963	14.667251	3.8297846
2.410105386475459	14.532221	3.812115
2.4276360388968707	14.19261	3.767308
2.445166748143469	14.017428	3.7439857
2.4626975146261025	13.564688	3.683027
2.4802283387556323	13.351786	3.6540096
2.4977592209429305	13.20365	3.6336827
2.5152901615988825	13.003264	3.606004
2.5328211611343865	12.888683	3.5900812
2.5503522199603523	12.751709	3.5709536
2.5678833384877024	12.51393	3.5375035
2.5854145171273712	12.212351	3.4946175
2.6029457562903064	11.939242	3.4553208
2.620477056387469	11.752295	3.4281619
2.6380084178298326	11.696171	3.4199665
2.655539841028383	11.56996	3.4014642
2.673071326394119	11.3531275	3.3694403
2.6906028743380523	11.044999	3.3234017
2.708134485271211	10.839132	3.2922838
2.7256661596046325	10.632	3.2606747
2.743197897749369	10.416944	3.227529
2.760729700116486	10.220683	3.1969802
2.778261567117063	10.128451	3.1825228
2.795793499162193	10.147631	3.1855347
2.8133254966629817	10.022905	3.1658971
2.830857560030551	9.728205	3.119007
2.8483896896760337	9.591832	3.0970683
2.865921886010578	9.448641	3.0738642
2.883454149445347	9.349847	3.057752
2.9009864803915177	9.19726	3.0326984
2.91851887926028	9.171689	3.0284796
2.9360513464628384	9.188226	3.0312085
2.953583882410413	9.158819	3.026354
2.9711164875142373	8.965194	2.9941933
2.9886491621855606	8.856273	2.975949
3.0061819068356455	8.793606	2.9654014
3.023714721875769	8.69996	2.9495695
3.041247607717225	8.506679	2.9166212
3.0587805647713213	8.222141	2.8674276
3.0763135934493806	8.072843	2.8412747
3.0938466941627407	8.109212	2.8476677
3.1113798673227544	8.006077	2.8295012
3.1289131133407904	7.897264	2.8102071
3.1464464326282315	7.6832223	2.7718625
3.1639798255964786	7.654578	2.7666907
3.1815132926569443	7.61444	2.7594275
3.1990468342210603	7.6414657	2.7643201
3.216580450700272	7.4781766	2.7346256
3.2341141425060416	7.2693567	2.6961744
3.251647910049847	7.2166653	2.6863852
3.2691817537431813	7.1365495	2.671432
3.286715673997555	7.1136503	2.6671426
3.3042496712244938	7.054396	2.6560113
3.32178374583554	7.0078645	2.647237
3.339317898242251	6.929883	2.632467
3.3568521288562034	6.732738	2.594752
3.3743864380889876	6.720177	2.5923305
3.3919208263522127	6.693885	2.5872543
3.4094552940575023	6.6031313	2.569656
3.4269898416164972	6.5520287	2.559693
3.444524469440858	6.3868823	2.527228
3.4620591779422587	6.323123	2.5145822
3.479593967532391	6.3451023	2.5189486
3.4971288386229658	6.32643	2.5152395
3.5146637916257086	6.4497066	2.5396273
3.5321988269523628	6.4127493	2.5323408
3.5497339450146903	6.3534923	2.5206134
3.5672691462244708	6.2295313	2.495903
3.5848044309934988	6.1485453	2.479626
3.60233979973359	6.21561	2.4931126
3.619875252856575	6.253446	2.500689
3.6374107907743034	6.2577286	2.5015452
3.6549464138986427	6.1683774	2.4836218
3.6724821226414788	6.2540293	2.5008056
3.690017917414714	6.343718	2.518674
3.7075537986302702	6.410943	2.531984
3.7250897667000857	6.4251237	2.534783
3.7426258220361235	6.635706	2.5759864
3.7601619650503553	6.913881	2.629426
3.777698196154779	7.4558277	2.7305362
3.7952345157614067	8.545523	2.9232726
3.8127709242822716	9.378806	3.0624835
3.830307422129425	11.615476	3.4081485
3.847844009714936	30.305532	5.505046
3.8653806874508954	97.77856	9.888304
3.882917455749409	96.917114	9.844649
3.900454315022606	96.742165	9.835759
3.917991265682631	41.4535	6.4384394
3.9355283081416506	11.137474	3.3372855
3.9530654428118495	8.905361	2.9841852
3.970602670105433	7.564647	2.7503903
3.9881399904346244	6.628268	2.5745423
4.005677404211669	6.518805	2.553195
4.023214911848827	6.530361	2.555457
4.0407525137583855	6.4836135	2.546294
4.058290210352644	6.4598804	2.5416296
4.075828002043927	6.313324	2.5126328
4.0933658892445814	6.2255325	2.4951017
4.110903872366966	6.1642528	2.4827914
4.128441951823468	6.155767	2.4810817
4.145980128026488	6.1750135	2.4849575
4.163518401388452	6.097606	2.4693332
4.181056772321807	6.059139	2.4615319
4.1985952412390155	6.039646	2.4575691
4.216133808552567	6.0395393	2.4575474
4.233672474674966	6.1139235	2.472635
4.251211240018741	6.379802	2.525827
4.268750104996445	6.6432824	2.5774565
4.286289070020643	7.6508613	2.766019
4.303828135503928	9.233727	3.0387049
4.3213673018589125	29.481781	5.429713
4.3389065694982305	90.57613	9.51715
4.356445938834537	165.73654	12.873871
4.3739854102805085	170.98918	13.076283
4.391524984248844	171.91606	13.111676
4.409064661152262	136.00029	11.661916
4.426604441403504	96.41562	9.819145
4.444144325415337	75.63602	8.696897
4.461684313600543	21.63589	4.6514397
4.47922440637193	22.029802	4.6935916
4.496764604142329	20.15554	4.4894924
4.5143049073245916	18.305176	4.278455
4.531845316331589	16.213266	4.02657
4.5493858315762195	13.326724	3.6505785
4.566926453471405	11.015806	3.319007
4.584467182430081	8.929104	2.9881606
4.602008018865218	7.9269223	2.815479
4.619548963189798	7.3683286	2.7144666
4.637090015816834	6.904824	2.6277032
4.654631177159353	6.698057	2.5880606
4.672172447630417	6.4039836	2.5306094
4.689713827643102	6.258283	2.501656
4.7072553176105085	6.0384655	2.457329
4.724796917945764	5.8559384	2.4199047
4.742338629062015	5.7850566	2.4052145
4.759880451372434	5.6998453	2.387435
4.777422385290215	5.6898007	2.3853304
4.794964431228581	5.6878424	2.38492
4.812506589600768	5.658195	2.378696
4.830048860820047	5.635278	2.3738742
4.847591245299709	5.652827	2.3775673
4.8651337434530655	5.619392	2.3705256
4.882676355693457	5.6015882	2.3667674
4.900219082434242	5.5914035	2.364615
4.917761924088813	5.5017343	2.3455775
4.935304881070575	5.4568834	2.3359973
4.952847953792969	5.4210696	2.328319
4.970391142669449	5.4344788	2.3311968
4.9879344481135055	5.4368596	2.3317075
5.005477870538642	5.4334183	2.3309693
5.023021410358394	5.4305067	2.3303447
5.040565067986324	5.415268	2.3270729
5.05810884383601	5.4154534	2.3271127
5.075652738321066	5.4300103	2.3302383
5.09319675185512	5.4061246	2.3251073
5.110740884851836	5.35742	2.31461
5.128285137724894	5.317989	2.3060765
5.145829510888007	5.3365207	2.310091
5.163374004754908	5.3643312	2.3161025
5.1809186197393595	5.388016	2.3212101
5.198463356255145	5.3640757	2.3160474
5.216008214716077	5.280535	2.2979414
5.233553195535998	5.241754	2.2894878
5.251098299128764	5.222082	2.2851875
5.268643525908272	5.16293	2.2722082
5.286188876288432	5.175439	2.274959
5.3037343506831895	5.1802216	2.27601
5.32127994950651	5.1823583	2.2764792
5.3388256731723915	5.166074	2.2728999
5.356371522094851	5.1836114	2.2767546
5.373917496687938	5.180438	2.2760575
5.391463597365729	5.1505017	2.2694716
5.40900982454232	5.100084	2.2583365
5.426556178631843	5.046307	2.2463987
5.444102660048449	5.114423	2.261509
5.4616492692063225	5.148874	2.269113
5.479196006519669	5.228534	2.286599
5.496742872402727	5.258471	2.2931356
5.514289867269756	5.2758675	2.2969255
5.531836991535049	5.227563	2.2863865
5.549384245612924	5.1504974	2.2694707
5.566931629917724	5.1164556	2.2619584
5.584479144863822	5.098245	2.2579293
5.6020267908656205	5.0952234	2.25726
5.619574568337545	5.0522633	2.247724
5.637122477694054	5.01443	2.2392924
5.654670519349629	5.1001573	2.2583528
5.672218693718784	5.155771	2.2706323
5.689767001216059	5.142412	2.2676888
5.707315442256021	5.1054306	2.25952
5.724864017253266	5.0886683	2.2558076
5.7424127266224225	5.151948	2.2697904
5.75996157077814	5.103035	2.2589898
5.777510550135105	5.1318254	2.2653532
5.795059665108022	5.0756555	2.2529216
5.812608916111639	5.1409364	2.2673633
5.830158303560715	5.3139753	2.305206
5.847707827870055	5.3605886	2.3152945
5.86525748945448	5.3546605	2.314014
5.8828072887288485	5.4449368	2.3334389
5.900357226108044	5.5119987	2.3477645
5.917907302006979	5.658036	2.3786626
5.9354575168406	6.289641	2.5079157
5.9530078710238765	6.856192	2.6184332
5.970558364971812	7.392124	2.718846
5.988108999099438	7.732061	2.7806582
6.005659773821818	8.3516245	2.8899176
6.023210689554039	8.106171	2.8471339
6.040761746711227	8.544484	2.923095
6.058312945708531	7.9351764	2.8169446
6.075864286961132	7.417713	2.723548
6.093415770884244	6.7226663	2.5928104
6.1109673978931065	6.096781	2.469166
6.128519168402993	5.4855304	2.342121
6.146071082829204	5.446767	2.3338308
6.163623141587075	5.3091803	2.3041658
6.181175345091969	5.2446084	2.290111
6.198727693759281	5.117838	2.2622638
6.216280188004435	5.098041	2.2578843
6.233832828242885	5.0948462	2.2571766
6.251385614890126	5.137994	2.2667143
6.268938548361669	5.1534085	2.270112
6.286491629073067	5.107144	2.2598991
6.304044857439898	5.038728	2.2447112
6.321598233877777	4.9681444	2.2289336
6.339151758802344	4.9508257	2.2250452
6.356705432629277	4.9332585	2.221094
6.37425925577428	4.9496937	2.2247908
6.391813228653095	4.95781	2.226614
6.409367351681486	4.973659	2.2301702
6.426921625275259	4.98192	2.2320216
6.44447604985025	4.9598904	2.227081
6.46203062582232	4.951972	2.2253027
6.47958535360737	4.986218	2.232984
6.497140233621328	5.018173	2.240128
6.514695266280161	5.040591	2.245126
6.532250451999859	5.021989	2.2409794
6.549805791196454	5.015612	2.2395563
6.567361284286002	5.0499673	2.2472131
6.584916931684597	5.1210337	2.2629702
6.602472733808367	5.1112657	2.2608109
6.6200286910734665	5.0349927	2.2438788
6.637584803896092	4.9788737	2.231339
6.655141072692462	4.9547725	2.225932
6.672697497878842	4.9974303	2.2354934
6.690254079871514	5.0038877	2.236937
6.707810819086808	5.0365896	2.2442348
6.725367715941078	5.001683	2.2364442
6.742924770850719	4.949873	2.224831
6.760481984232151	5.004727	2.2371247
6.778039356501836	5.019164	2.240349
6.795596888076266	5.086934	2.2554233
6.813154579371963	5.06645	2.2508776
6.830712430805492	5.0609894	2.2496643
6.84827044279344	5.0357685	2.2440517
6.865828615752445	4.96097	2.2273235
6.883386950099159	5.022597	2.241115
6.900945446250287	5.0651975	2.2505994
6.918504104622553	5.082076	2.2543461
6.936062925632727	5.010088	2.2383225
6.953621909697607	4.9955716	2.2350776
6.971181057234028	5.024679	2.2415795
6.988740368658859	5.0896993	2.2560363
7.006299844389007	5.129866	2.2649207
7.023859484841407	5.1859245	2.2772624
7.041419290433036	5.216847	2.284042
7.058979261580902	5.328574	2.3083704
7.0765393987020495	5.5614657	2.3582761
7.094099702213559	5.9619937	2.4417195
7.111660172532549	6.324852	2.514926
7.129220810076164	6.66804	2.582255
7.146781615261595	7.27575	2.6973598
7.16434258850606	7.518529	2.7419937
7.181903730226821	7.930937	2.816192
7.1994650408411704	8.000646	2.8285413
7.217026520766437	8.075016	2.8416572
7.234588170419983	8.277477	2.8770604
7.252149990219215	8.324587	2.885236
7.269711980581568	8.252068	2.8726413
7.2872741419245175	8.141455	2.8533235
7.304836474665574	7.754193	2.784635
7.322398979222286	7.4567266	2.7307007
7.339961656012233	7.26658	2.6956594
7.357524505453039	6.8706994	2.621202
7.375087527962357	6.623502	2.5736165
7.392650723957886	6.24816	2.499632
7.410214093857353	5.8814716	2.4251745
7.427777638078528	5.6715975	2.3815117
7.445341357039213	5.469176	2.3386269
7.4629052511572525	5.3850417	2.3205693
7.480469320850524	5.34475	2.3118715
7.498033566536948	5.298125	2.3017657
7.5155979886344735	5.2491865	2.2911103
7.5331625875610975	5.168201	2.2733676
7.550727363734844	5.250936	2.291492
7.568292317573788	5.2647905	2.2945132
7.585857449496025	5.2764816	2.2970593
7.603422759919705	5.188056	2.2777305
7.620988249263007	5.1632175	2.2722714
7.638553917944147	5.141466	2.2674801
7.656119766381391	5.1770606	2.2753155
7.673685794993023	5.1982417	2.2799654
7.691252004197388	5.2222576	2.2852259
7.70881839441285	5.2287908	2.286655
7.726384966057826	5.299881	2.3021472
7.743951719550762	5.3367367	2.3101377
7.761518655310149	5.3856926	2.3207095
7.779085773754511	5.3911324	2.3218813
7.796653075302419	5.340387	2.3109276
7.814220560372475	5.2947702	2.3010368
7.831788229383323	5.250005	2.2912889
7.8493560827536495	5.223381	2.2854717
7.866924120902174	5.225291	2.2858894
7.884492344247663	5.2392993	2.2889516
7.9020607532089135	5.2739573	2.2965097
7.919629348204771	5.3307657	2.308845
7.937198129654115	5.341021	2.311065
7.954767097975865	5.311725	2.304718
7.972336253588986	5.3003345	2.3022456
7.989905596912472	5.348013	2.312577
8.007475128365371	5.3245926	2.307508
8.025044848366756	5.309392	2.3042119
8.042614757335754	5.4707446	2.3389623
8.060184855691523	5.5725513	2.3606253
8.07775514385327	5.724166	2.3925228
8.095325622240228	5.702504	2.3879917
8.112896291271687	5.686014	2.3845365
8.130467151366968	5.6826477	2.3838305
8.148038202945436	5.7053676	2.388591
8.165609446426497	5.760122	2.4000254
8.183180882229594	5.8755765	2.4239588
8.200752510774217	5.945306	2.4383
8.218324332479893	5.996895	2.4488559
8.235896347766193	5.9684668	2.4430447
8.253468557052724	5.941969	2.4376154
8.27104096075914	5.92964	2.435085
8.288613559305137	6.049756	2.4596252
8.306186353110448	6.142864	2.4784803
8.32375934259485	6.2409234	2.498184
8.341332528178162	6.2422814	2.4984558
8.358905910280246	6.2199206	2.4939768
8.376479489321003	6.167583	2.4834619
8.394053265720377	6.188107	2.4875906
8.411627239898356	6.243305	2.4986606
8.42920141227497	6.277832	2.5055602
8.44677578327029	6.353247	2.5205648
8.464350353304427	6.2854266	2.5070753
8.48192512279754	6.2348423	2.4969666
8.499500092169827	6.1300592	2.4758956
8.51707526184153	6.074838	2.4647186
8.534650632232934	6.105187	2.4708676
8.552226203764365	6.060819	2.461873
8.569801976856192	6.092599	2.468319
8.587377951928834	6.1175504	2.4733682
8.60495412940274	6.241143	2.498228
8.622530509698416	6.320028	2.5139666
8.6401070932364	6.449695	2.539625
8.657683880437283	6.513003	2.5520585
8.675260871721695	6.6635995	2.581395
8.692838067510303	6.7896953	2.6057043
8.710415468223834	6.994366	2.6446865
8.727993074283043	7.1155195	2.667493
8.745570886108737	7.1295824	2.6701279
8.763148904121765	7.0948515	2.6636162
8.78072712874302	7.107028	2.665901
8.798305560393441	7.343493	2.709888
8.815884199494006	7.5424223	2.7463472
8.833463046465745	7.7364326	2.7814443
8.851042101729728	7.8868947	2.8083615
8.86862136570707	8.220823	2.8671978
8.886200838818924	8.354931	2.8904898
8.903780521486505	8.468807	2.9101214
8.921360414131055	8.512477	2.917615
8.938940517173874	8.691613	2.9481542
8.956520831036297	8.866621	2.9776871
8.97410135613971	9.125639	3.0208673
8.99168209290554	9.278609	3.046081
9.009263041755265	9.38049	3.0627587
9.026844203110405	9.546737	3.0897794
9.044425577392525	9.660837	3.1081886
9.062007165023239	9.855943	3.1394176
9.079588966424197	10.13489	3.1835341
9.097170982017108	10.18106	3.1907773
9.11475321222372	11.241758	3.352873
9.132335657465825	12.242732	3.4989614
9.149918318165264	12.418497	3.5239887
9.167501194743924	12.862427	3.5864224
9.18508428762374	12.486032	3.533558
9.202667597226693	12.497834	3.5352275
9.220251123974803	12.176403	3.4894702
9.237834868290143	11.843814	3.4414842
9.255418830594836	11.612892	3.4077694
9.273003011311046	11.147383	3.3387697
9.290587410860985	10.880439	3.298551
9.308172029666911	10.271595	3.204933
9.32575686815113	10.060448	3.1718209
9.343341926735997	8.854717	2.9756877
9.360927205843916	8.56226	2.9261339
9.378512705897327	8.341158	2.8881063
9.396098427318728	8.100706	2.846174
9.413684370530664	8.021544	2.8322332
9.431270535955722	7.941092	2.8179944
9.448856924016539	7.7772217	2.788767
9.466443535135806	7.6635447	2.7683108
9.484030369736251	7.6968718	2.7743237
9.501617428240658	7.7797174	2.7892144
9.519204711071852	7.8433533	2.8005986
9.536792218652714	7.840598	2.8001068
9.55437995140617	7.7842636	2.7900293
9.571967909755191	7.812868	2.7951508
9.589556094122802	7.830072	2.7982266
9.60714450493207	7.8751264	2.8062656
9.624733142606116	7.905	2.8115833
9.642322007568108	7.8698864	2.8053317
9.659911100241267	7.928715	2.8157973
9.677500421048851	7.9983582	2.828137
9.695089970414175	8.040831	2.835636
9.712679748760609	8.0072565	2.8297095
9.730269756511557	8.006145	2.829513
9.747859994090492	8.050447	2.837331
9.765450461920915	8.133065	2.851853
9.78304116042639	8.153196	2.8553803
9.800632090030527	8.151017	2.8549986
9.81822325115699	8.133463	2.8519228
9.835814644229481	8.251283	2.8725047
9.853406269671762	8.358778	2.8911552
9.870998127907646	8.424565	2.9025102
9.888590219360985	8.343704	2.8885472
9.906182544455698	8.199625	2.8634987
9.923775103615734	8.179044	2.8599029
9.941367897265108	8.15983	2.8565416
9.958960925827878	8.192338	2.862226
9.97655418972816	8.188534	2.8615615
9.994147689390106	8.282143	2.8778713
10.011741425237934	8.21662	2.8664649
10.029335397695904	8.195021	2.8626947
10.04692960718833	8.110467	2.8478882
10.06452405413958	8.124425	2.8503377
10.082118738974064	8.214485	2.8660922
10.099713662116246	8.19835	2.863276
10.117308823990651	8.270869	2.875912
10.134904225021844	8.205346	2.8644974
10.152499865634445	8.261974	2.874365
10.170095746253125	8.228264	2.868495
10.18769186730261	8.188652	2.861582
10.205288229207675	8.197234	2.8630812
10.222884832393145	8.170778	2.8584573
10.2404816772839	8.188333	2.8615263
10.258078764304868	8.20933	2.8651927
10.275676093881035	8.254033	2.8729832
10.293273666437438	8.243755	2.8711941
10.310871482399158	8.200287	2.8636143
10.32846954219134	8.153352	2.8554075
10.346067846239173	8.186231	2.861159
10.363666394967908	8.172998	2.8588457
10.38126518880283	8.102212	2.8464384
10.398864228169298	8.028429	2.8334482
10.416463513492713	8.02249	2.8323998
10.434063045198531	8.058746	2.838793
10.451662823712262	8.119931	2.8495493
10.469262849459467	8.13277	2.8518012
10.486863122865758	8.05759	2.8385894
10.504463644356806	8.09028	2.8443418
10.522064414358338	8.10345	2.8466558
10.539665433296118	8.115548	2.8487802
10.557266701595987	7.982901	2.8254027
10.574868219683818	7.842457	2.8004386
10.592469987985552	7.705187	2.775822
10.610072006927185	7.5443316	2.7466946
10.627674276934751	7.437174	2.7271183
10.64527679843435	7.3248434	2.7064447
10.662879571852143	7.236505	2.6900754
10.680482597614331	7.1181865	2.667993
10.698085876147173	7.0004067	2.6458282
10.715689407876988	6.88966	2.6248162
10.733293193230146	6.865028	2.6201198
10.750897232633072	6.7654295	2.601044
10.76850152651225	6.666029	2.5818653
10.786106075294207	6.590771	2.5672498
10.803710879405534	6.527912	2.554978
10.821315939272877	6.4655476	2.5427442
10.83892125532294	6.36703	2.5232975
10.856526827982472	6.323715	2.5147
10.874132657678285	6.2450943	2.4990187
10.891738744837243	6.225573	2.4951098
10.909345089886271	6.2443414	2.498868
10.926951693252343	6.234292	2.4968565
10.944558555362494	6.1480484	2.4795258
10.96216567664381	6.003207	2.4501443
10.979773057523436	5.9124694	2.431557
10.997380698428573	5.8321986	2.4149945
11.014988599786477	5.779627	2.4040854
11.032596762024461	5.714076	2.3904133
11.050205185569892	5.669125	2.3809924
11.067813870850198	5.659913	2.3790572
11.085422818292859	5.5652456	2.3590772
11.10303202832541	5.493394	2.343799
11.120641501375454	5.335531	2.309877
11.138251237870636	5.3039923	2.3030398
11.155861238238671	5.217912	2.284275
11.173471502907317	5.208985	2.28232
11.191082032304402	5.1341457	2.2658653
11.208692826857805	5.037455	2.2444277
11.226303886995465	4.9976745	2.235548
11.243915213145371	4.9831643	2.2323003
11.261526805735578	4.976506	2.2308085
11.279138665194196	4.923335	2.218859
11.296750791949393	4.8395586	2.1998997
11.314363186429393	4.822562	2.1960332
11.331975849062479	4.7531734	2.1801775
11.34958878027699	4.6767898	2.1625886
11.36720198050133	4.617587	2.148857
11.384815450163948	4.5599318	2.1353996
11.402429189693366	4.5161204	2.1251166
11.420043199518153	4.4365025	2.1063006
11.437657480066942	63.395905	7.9621544
11.455272031768422	85.183266	9.229478
11.472886855051353	107.55187	10.370722
11.490501950344528	99.14297	9.957056
11.508117318076819	84.41608	9.187822
11.52573295867715	45.7672	6.765146
11.543348872574514	4.0417576	2.0104122
11.560965060197946	4.04356	2.0108604
11.57858152197655	4.017818	2.0044496
11.59619825833949	4.013456	2.0033612
11.613815269715985	3.9691248	1.9922663
11.631432556535323	38.49092	6.2041054
11.649050119226837	83.01925	9.11149
11.666667958219929	93.42615	9.66572
11.68428607394406	107.65739	10.375808
11.701904466828756	82.45495	9.080471
11.719523137303586	65.316986	8.081892
11.737142085798196	4.5322123	2.1288993
11.754761312742286	3.676343	1.9173791
11.772380818565619	3.6156437	1.9014846
11.790000603698015	3.584109	1.8931743
11.80762066856935	3.5449069	1.8827924
11.825241013609572	3.561354	1.8871549
11.842861639248683	3.5534675	1.8850644
11.860482545916748	3.5165951	1.8752587
11.878103734043883	3.4806619	1.8656532
11.895725204060282	3.4015856	1.8443388
11.91334695639619	3.3629603	1.8338376
11.930968991481919	3.3270624	1.8240237
11.948591309747824	3.322492	1.8227704
11.966213911624347	3.325335	1.8235501
11.98383679754198	3.3094375	1.819186
12.001459967931268	3.2844718	1.8123112
12.019083423222835	3.2677839	1.8077012
12.036707163847352	3.263687	1.8065677
12.05433119023556	3.2928243	1.814614
12.071955502818259	3.2838957	1.8121523
12.089580102026313	3.2771604	1.810293
12.107204988290643	3.240211	1.8000586
12.12483016204224	3.1903098	1.7861438
12.142455623712152	3.116463	1.7653507
12.16008137373149	3.090204	1.7578976
12.177707412531431	3.0699172	1.7521179
12.19533374054321	3.1018963	1.7612201
12.212960358198126	3.0794523	1.7548368
12.230587265927545	3.0336914	1.7417495
12.248214464162889	3.002519	1.7327778
12.265841953335649	2.9832995	1.727223
12.283469733877375	2.9743028	1.7246166
12.301097806219685	2.9785025	1.7258339
12.31872617079425	2.9722776	1.7240294
12.336354828032825	2.9449131	1.716075
12.353983778367205	2.9087598	1.7055087
12.371613022229262	2.8676689	1.6934193
12.389242560050928	2.8741026	1.6953179
12.406872392264201	2.892149	1.700632
12.424502519301143	2.9018679	1.7034869
12.442132941593874	2.856988	1.6902627
12.459763659574586	2.8237987	1.6804162
12.477394673675532	2.812108	1.6769341
12.49502598432903	2.8180482	1.6787044
12.51265759196746	2.8136806	1.677403
12.530289497023267	2.8023834	1.6740321
12.547921699928967	2.798237	1.6727931
12.565554201117134	2.7905166	1.670484
12.583187001020404	2.788803	1.669971
12.600820100071486	2.7814384	1.6677644
12.618453498703152	2.770179	1.6643854
12.636087197348235	2.7522876	1.659002
12.65372119643964	2.7594016	1.6611446
12.671355496410326	2.7643752	1.662641
12.68899009769333	2.790786	1.6705645
12.706625000721749	2.8042	1.6745745
12.724260205928752	2.840935	1.6855073
12.741895713747551	2.8624344	1.6918731
12.759531524611454	2.9265893	1.7107277
12.777167638953818	2.9583468	1.7199845
12.794804057208072	2.9695692	1.7232438
12.812440779807702	2.9967632	1.7311162
12.830077807186271	3.160382	1.7777463
12.847715139777405	3.2254398	1.7959509
12.865352778014795	3.4491332	1.8571842
12.882990722332197	3.566095	1.8884107
12.90062897316344	3.6526682	1.9111955
12.918267530942412	3.7659428	1.9406037
12.935906396103071	3.6356833	1.9067467
12.953545569079449	3.7758808	1.9431626
12.971185050305628	3.5506346	1.8843127
12.988824840215775	3.560036	1.8868058
13.006464939244115	3.5693386	1.8892694
13.024105347824943	3.4391687	1.8544996
13.041746066392617	3.5740428	1.8905139
13.05938709538157	3.3621914	1.8336279
13.077028435226296	3.3389528	1.8272802
13.094670086361363	3.211112	1.7919576
13.112312049221401	3.1236713	1.7673911
13.129954324241112	3.0409756	1.7438393
13.147596911855258	2.8762925	1.6959636
13.165239812498685	2.875587	1.6957556
13.182883026606293	2.844009	1.686419
13.200526554613058	2.7768092	1.6663761
13.218170396954017	2.7383988	1.6548108
13.235814554064284	2.7004964	1.6433188
13.253459026379034	2.7115133	1.6466674
13.271103814333523	2.676239	1.6359215
13.288748918363058	2.689885	1.6400869
13.306394338903031	2.6603103	1.6310458
13.32404007638889	2.6495557	1.6277456
13.341686131256164	2.6729472	1.634915
13.359332503940449	2.6651325	1.6325234
13.376979194877402	2.6526833	1.628706
13.394626204502751	2.6579359	1.6303177
13.412273533252307	2.6867287	1.6391244
13.429921181561937	2.6766882	1.6360587
13.447569149867581	2.674716	1.6354558
13.465217438605247	2.6623402	1.6316679
13.482866048211022	2.656409	1.6298494
13.500514979121052	2.6834729	1.6381309
13.518164231771568	2.6860662	1.6389222
13.535813806598844	2.6905084	1.6402769
13.553463704039254	2.6798058	1.6370112
13.571113924529229	2.6868215	1.6391526
13.588764468505275	2.6659	1.6327584
13.606415336403956	2.6639986	1.632176
13.624066528661917	2.6928453	1.6409892
13.641718045715882	2.762448	1.6620613
13.659369888002635	2.861518	1.6916022
13.67702205595903	2.9488375	1.7172179
13.694674550021993	3.0048592	1.7334529
13.712327370628532	3.01421	1.736148
13.729980518215713	3.072818	1.7529455
13.747633993220681	3.1820698	1.7838356
13.765287796080647	3.2403767	1.8001046
13.7829419272329	3.2567012	1.8046333
13.800596387114801	3.209457	1.7914957
13.818251176163775	3.246787	1.8018843
13.835906294817324	3.322148	1.8226761
13.853561743513023	3.3839226	1.8395442
13.871217522688525	3.4301298	1.8520609
13.888873632781538	3.4475696	1.8567632
13.906530074229858	3.5077586	1.8729011
13.92418684747135	3.5217168	1.8766237
13.941843952943948	3.5271578	1.8780729
13.959501391085665	3.4715962	1.863222
13.977159162334578	3.4345117	1.8532436
13.994817267128846	3.4067733	1.8457446
14.012475705906693	3.3064632	1.8183683
14.030134479106424	3.1971126	1.7880472
14.047793587166414	3.087045	1.7569989
14.065453030525108	3.0342262	1.7419031
14.083112809621026	2.9749434	1.7248024
14.100772924892766	2.9243	1.7100585
14.118433376778997	2.8679912	1.6935145
14.136094165718458	2.8095155	1.6761609
14.153755292149969	2.7220256	1.6498562
14.171416756512416	2.634345	1.6230665
14.189078559244768	2.5785134	1.605775
14.20674070078606	2.5316648	1.5911206
14.224403181575408	2.5177166	1.5867314
14.242066002051999	2.4830868	1.5757813
14.259729162655093	2.4600382	1.5684509
14.277392663824022	2.434741	1.5603657
14.295056505998208	2.4184577	1.5551392
14.312720689617128	2.4005144	1.5493593
14.330385215120348	2.3633447	1.5373174
14.348050082947497	2.3497975	1.5329049
14.3657152935383	2.3293161	1.5262097
14.383380847332528	2.3606944	1.5364552
14.401046744770051	2.3886013	1.54551
14.418712986290798	2.4088044	1.5520324
14.436379572334793	2.4029953	1.5501598
14.454046503342123	2.3767529	1.5416721
14.471713779752946	2.3684914	1.5389904
14.489381402007504	2.3851883	1.5444055
14.507049370546113	2.390682	1.546183
14.524717685809168	2.3771174	1.5417904
14.542386348237134	2.3719046	1.5400989
14.560055358270553	2.3718154	1.5400699
14.577724716350051	2.4207118	1.5558636
14.595394422916325	2.4084427	1.5519159
14.61306447841015	2.4398692	1.562008
14.63073488327237	2.4347746	1.5603764
14.648405637943917	2.4666324	1.5705516
14.6660767428658	2.4625518	1.569252
14.683748198479094	2.5260878	1.5893672
14.701420005224954	2.5587873	1.599621
14.719092163544628	2.6503983	1.6280044
14.73676467387942	2.6569464	1.6300142
14.754437536670727	2.6534042	1.6289274
14.772110752360014	2.6268437	1.620754
14.78978432138882	2.6560266	1.629732
14.807458244198777	2.6554492	1.6295549
14.82513252123159	2.6085265	1.6150934
14.842807152929028	2.6197772	1.6185726
14.860482139732962	2.6308415	1.6219869
14.87815748208531	2.6343367	1.623064
14.8958331804281	2.6485353	1.6274321
14.91350923520342	2.59661	1.6114
14.931185646853438	2.6342356	1.6230328
14.948862415820408	2.6051788	1.6140566
14.966539542546656	2.62191	1.6192313
14.98421702747459	2.5823424	1.6069669
15.001894871046696	2.5755765	1.6048603
15.019573073705542	2.5987885	1.6120758
15.037251635893766	2.6445818	1.626217
15.054930558054092	2.682569	1.637855
15.072609840629323	2.7376988	1.6545993
15.090289484062351	2.839205	1.6849941
15.107969488796124	3.1141171	1.7646861
15.125649855273691	3.4818375	1.8659682
15.14333058393817	3.9746735	1.9936583
15.161011675232768	4.927093	2.2197056
15.17869312960076	6.261108	2.5022206
15.196374947485506	8.1326885	2.8517869
15.214057129330447	11.263118	3.356057
15.231739675579114	16.075949	4.0094824
15.249422586675102	21.204315	4.6048145
15.267105863062092	24.339603	4.9335184
15.284789505183847	24.678734	4.9677696
15.302473513484218	22.708662	4.765361
15.320157888407127	19.262674	4.3889265
15.337842630396578	15.114747	3.887769
15.355527739896656	11.846697	3.441903
15.37321321735153	9.190756	3.031626
15.39089906320545	6.615519	2.572065
15.408585277902748	4.8450427	2.201146
15.42627186188783	3.7057889	1.9250425
15.443958815605198	3.1934764	1.7870301
15.461646139499424	2.929414	1.7115531
15.479333834015168	2.753437	1.6593484
15.497021899597165	2.6579983	1.6303369
15.514710336690234	2.6021793	1.6131272
15.53239914573928	2.536203	1.592546
15.550088327189297	2.5105982	1.5844867
15.567777881485336	2.5346808	1.5920681
15.58546780907256	2.5384405	1.5932484
15.6031581103962	2.5040214	1.58241
15.620848785901568	2.4740648	1.572916
15.638539836034063	2.4414387	1.5625104
15.656231261239173	2.400495	1.5493531
15.673923061962451	2.4048002	1.5507418
15.691615238649552	2.4152076	1.5540938
15.709307791746202	2.424743	1.5571586
15.727000721698221	2.3712437	1.5398843
15.744694028951498	2.3607526	1.5364741
15.76238771395202	2.3720222	1.540137
15.780081777145844	2.3952594	1.5476625
15.797776218979125	2.39986	1.5491481
15.815471039898094	2.383556	1.5438769
15.833166240349064	2.3545985	1.5344701
15.850861820778437	2.3111253	1.5202385
15.868557781632699	2.317799	1.522432
15.886254123358412	2.3130312	1.5208653
15.903950846402232	2.3249068	1.5247645
15.921647951210897	2.3313591	1.5268788
15.939345438231225	2.3625202	1.5370492
15.957043307910133	2.395872	1.5478605
15.974741560694602	2.441751	1.5626103
15.992440197031714	2.4415047	1.5625315
16.01013921736862	2.408167	1.551827
16.02783862215259	2.420018	1.5556407
16.045538411830933	2.4029837	1.550156
16.06323858685107	2.4158862	1.5543121
16.080939147660512	2.376878	1.5417126
16.09864009470684	2.3522747	1.5337127
16.11634142843774	2.3474197	1.5321292
16.134043149300954	2.3773513	1.5418662
16.15174525774433	2.4009385	1.5494962
16.169447754215817	2.4027076	1.550067
16.18715063916342	2.3790517	1.5424175
16.204853913035244	2.3695345	1.5393293
16.222557576279478	2.3983877	1.5486729
16.240261629344403	22.385284	4.731309
16.257966072678386	42.93859	6.5527544
16.275670906729868	38.083008	6.171143
16.293376131947387	2.5120227	1.5849361
16.31108174877957	2.50112	1.581493
16.328787757675133	2.451575	1.5657506
16.34649415908287	2.4779384	1.5741469
16.364200953451657	2.5331285	1.5915805
16.38190814123048	2.6071913	1.6146799
16.39961572286839	2.6302688	1.6218103
16.41732369881455	2.678165	1.63651
16.43503206951817	2.693173	1.641089
16.45274083542859	2.7065852	1.6451702
16.47044999699522	2.7025201	1.6439344
16.488159554667558	2.7696865	1.6642375
16.505869508895184	2.8297503	1.6821861
16.523579860127786	2.9034185	1.7039421
16.541290608815117	2.9524822	1.7182789
16.559001755407035	2.99001	1.7291646
16.57671330035348	3.0115724	1.7353883
16.59442524410448	3.099503	1.7605406
16.61213758711015	3.1896348	1.7859548
16.629850329820705	3.246374	1.8017696
16.647563472686436	3.2968004	1.8157094
16.665277016157724	3.36926	1.8355545
16.682990960685053	3.432336	1.8526565
16.70070530671898	3.4667027	1.8619083
16.718420054710155	3.493948	1.8692105
16.736135205109335	3.5200946	1.8761915
16.753850758367335	3.5669315	1.8886322
16.771566714935087	3.593981	1.8957798
16.789283075263597	3.663718	1.9140841
16.80699983980398	3.7272928	1.9306198
16.82471700900741	3.8136637	1.9528604
16.84243458332518	3.9286337	1.9820781
16.860152563208665	3.9781032	1.9945183
16.87787094910932	4.0238414	2.0059514
16.89558974147871	4.097715	2.0242813
16.913308940768466	4.172927	2.0427742
16.931028547430333	4.1854844	2.0458457
16.94874856191613	4.221016	2.054511
16.966468984677785	4.315358	2.077344
16.98418981616729	4.4223065	2.1029282
17.00191105683676	4.443946	2.1080668
17.019632707138374	4.4828677	2.1172783
17.03735476752442	4.4918127	2.1193898
17.05507723844728	4.5298367	2.1283412
17.072800120359403	4.551241	2.1333637
17.090523413713353	4.6407104	2.1542308
17.108247118961785	4.638361	2.1536853
17.125971236557437	4.632002	2.1522086
17.143695766953133	4.6114664	2.1474326
17.161420710601806	4.5776067	2.1395342
17.179146067956477	4.5835943	2.140933
17.19687183947025	4.5886064	2.1421032
17.21459802559634	4.5970273	2.144068
17.232324626788028	4.5909104	2.142641
17.25005164349871	4.61355	2.1479177
17.267779076181863	4.599829	2.1447213
17.285506925291074	4.5995164	2.1446483
17.30323519127999	4.5556693	2.1344013
17.320963874602384	4.56381	2.1363075
17.33869297571211	4.5055523	2.1226287
17.356422495063114	4.498743	2.1210241
17.37415243310944	4.391298	2.0955424
17.391882790305218	4.3744683	2.091523
17.40961356710468	4.4397216	2.1070647
17.42734476396215	4.5247655	2.1271496
17.445076381332044	4.5563984	2.1345723
17.462808419668868	4.565689	2.1367474
17.48054087942723	4.651273	2.156681
17.498273761061835	4.952761	2.22548
17.51600706502747	5.4012794	2.3240652
17.533740791779024	6.1076584	2.4713676
17.551474941771485	7.6073856	2.758149
17.56920951545993	8.778431	2.9628417
17.586944513299528	10.951503	3.3093054
17.60467993574556	12.590096	3.5482526
17.622415783253373	14.319845	3.784157
17.64015205627843	15.836803	3.9795482
17.657888755276293	17.06037	4.13042
17.675625880702604	17.661396	4.2025466
17.69336343301311	17.486973	4.1817427
17.71110141266366	16.620243	4.076793
17.728839820110178	15.582905	3.9475188
17.746578655808705	14.422323	3.7976735
17.764317920215372	12.805272	3.5784454
17.7820576137864	11.251082	3.3542633
17.79979773697811	9.307467	3.0508142
17.81753829024692	7.4298086	2.7257676
17.835279274049356	5.7429967	2.396455
17.85302068884201	4.707418	2.1696584
17.870762535081607	4.0573263	2.0142806
17.888504813224934	3.7963715	1.9484279
17.90624752372891	3.6460025	1.9094509
17.923990667050536	3.562047	1.8873386
17.941734243646895	3.496868	1.8699914
17.959478253975185	3.4645612	1.8613331
17.9772226984927	3.4422379	1.8553269
17.994967577656833	3.390435	1.8413134
18.01271289192506	3.3716035	1.8361926
18.030458641754965	3.3710523	1.8360425
18.04820482760425	3.359434	1.8328758
18.06595144993067	3.352489	1.8309803
18.083698509192125	3.319253	1.8218817
18.101446005846576	3.2739196	1.8093976
18.119193940352105	3.2341185	1.7983655
18.136942313166887	3.179978	1.7832493
18.1546911247492	3.1612918	1.7780023
18.1724403755574	3.1214726	1.7667689
18.19019006604997	3.090665	1.7580287
18.207940196685467	3.0627902	1.7500829
18.225690767922575	3.0616045	1.7497442
18.243441780220046	3.0476012	1.745738
18.261193234036764	3.0490918	1.7461649
18.278945129831676	3.0708127	1.7523735
18.29669746806386	3.0772865	1.7542197
18.314450249192483	3.0836098	1.756021
18.3322034736768	3.0636878	1.7503394
18.349957141976184	3.0132966	1.7358849
18.3677112545501	3.0039475	1.73319
18.385465811858108	3.0219162	1.7383659
18.403220814359884	3.056682	1.7483369
18.420976262515172	3.0605865	1.7494532
18.43873215678387	3.0655262	1.7508644
18.456488497625923	3.1492064	1.7746004
18.474245285501407	3.3088338	1.81902
18.492002520870486	3.3963437	1.8429172
18.50976020419343	3.42654	1.8510915
18.527518335930615	3.6986148	1.9231783
18.545276916542516	4.3019195	2.074107
18.563035946489688	4.463415	2.1126797
18.580795426232832	4.9617567	2.2275002
18.598555356232698	4.843998	2.2009084
18.616315736950185	5.143818	2.2679987
18.63407656884626	4.7282877	2.1744626
18.65183785238201	4.9313536	2.2206652
18.669599588018617	4.7022223	2.1684608
18.68736177621737	4.681173	2.1636019
18.705124417439652	4.6588	2.1584253
18.72288751214696	4.477058	2.115906
18.740651060800886	4.6389666	2.153826
18.758415063863115	4.332032	2.0813534
18.77617952179546	4.4635363	2.1127083
18.793944435059814	4.180663	2.044667
18.811709804118184	4.1681395	2.0416021
18.829475629432675	4.1941433	2.0479608
18.8472419114655	4.0195746	2.0048876
18.86500865067897	4.1370277	2.0339684
18.88277584753551	3.8013616	1.9497081
18.90054350249763	3.8193169	1.9543073
18.918311616027957	3.495446	1.8696111
18.936080188589226	3.3972588	1.8431654
18.953849220644265	3.0429692	1.7444109
18.971618712656007	2.8768215	1.6961195
18.9893886650875	2.8254805	1.6809165
19.007159078401887	7.988253	2.8263497
19.024929953062408	32.832184	5.7299376
19.042701289532435	32.765873	5.7241483
19.060473088275405	25.320925	5.03199
19.07824534975489	2.598821	1.6120859
19.096018074434568	2.614493	1.6169393
19.113791262778197	2.6289873	1.6214153
19.13156491524966	2.628568	1.6212859
19.149339032312945	2.5790296	1.6059357
19.167113614432136	2.5194921	1.5872908
19.184888662071433	2.4912128	1.5783577
19.202664175695123	2.5326252	1.5914224
19.220440155767623	2.5478187	1.5961888
19.238216602753447	2.5616534	1.6005166
19.2559935171172	2.526037	1.5893512
19.27377089932361	2.4888856	1.5776203
19.291548749837514	2.4845998	1.5762614
19.309327069123835	2.4953456	1.5796663
19.32710585764763	2.5008404	1.5814046
19.344885115874032	2.453735	1.5664402
19.362664844268313	2.4472673	1.5643744
19.380445043295822	2.4708145	1.5718825
19.39822571342203	2.5043592	1.5825168
19.41600685511252	2.5103707	1.584415
19.43378846883297	2.4688458	1.5712562
19.451570555049173	2.4685824	1.5711724
19.469353114227037	2.4597583	1.5683616
19.48713614683254	2.4574656	1.5676305
19.50491965333182	2.456868	1.5674399
19.52270363419109	2.4980068	1.5805084
19.540488089876686	2.531832	1.5911732
19.55827302085503	2.5634208	1.6010686
19.576058427592674	2.5749242	1.604657
19.593844310556282	2.5581737	1.5994291
19.611630670212598	2.5112646	1.584697
19.629417507028506	2.504934	1.5826983
19.64720482147098	2.5144248	1.5856938
19.6649926140071	2.5313582	1.5910243
19.682780885104084	2.5649781	1.6015549
19.70056963522921	2.5582576	1.5994554
19.718358864849908	2.5387383	1.5933418
19.7361485744337	2.519159	1.5871859
19.753938764448215	2.530663	1.5908058
19.771729435361202	2.5443592	1.5951048
19.789520587640506	2.5083084	1.583764
19.807312221754092	2.5076668	1.5835614
19.825104338170043	2.4921398	1.5786513
19.842896937356517	2.482073	1.5754596
19.860690019781824	2.4761667	1.5735841
19.87848358591436	2.457655	1.567691
19.896277636222635	2.4573376	1.5675898
19.914072171175278	2.4619584	1.569063
19.931867191241015	2.4803627	1.5749167
19.94966269688869	2.4825597	1.5756141
19.967458688587264	2.4937627	1.5791652
19.985255166805807	2.4802654	1.5748858
20.00305213201348	2.4573054	1.5675795
20.020849584679578	2.4678085	1.570926
20.038647525273507	2.4436266	1.5632104
20.05644595426477	2.448211	1.564676
20.07424487212299	2.4393609	1.5618453
20.092044279317903	2.4471328	1.5643314
20.109844176319353	2.413131	1.5534256
20.127644563597304	2.3955793	1.547766
20.145445441621817	2.3734984	1.5406163
20.16324681086307	2.3617215	1.5367893
20.181048671791373	2.3549638	1.5345892
20.198851024877122	2.3636997	1.5374328
20.216653870590836	2.3735218	1.5406238
20.234457209403146	2.3864298	1.5448073
20.252261041784802	2.3947954	1.5475127
20.270065368206662	2.3444953	1.5311745
20.287870189139685	2.3474188	1.5321288
20.305675505054968	2.3768458	1.5417023
20.323481316423702	2.374195	1.5408423
20.341287623717207	2.3533642	1.5340679
20.359094427406884	2.3512106	1.5333657
20.376901727964288	2.3876357	1.5451976
20.39470952586107	2.398458	1.5486956
20.41251782156899	2.368327	1.538937
20.430326615559935	2.336173	1.5284544
20.448135908305886	2.3166971	1.52207
20.465945700278965	2.3062701	1.5186409
20.483755991951384	2.3131845	1.5209156
20.50156678379548	2.317705	1.5224011
20.519378076283708	2.3166044	1.5220395
20.537189869888635	2.322143	1.523858
20.55500216508294	2.3358982	1.5283645
20.572814962339415	2.3380787	1.5290778
20.59062826213098	2.3826473	1.5435826
20.60844206493066	2.3599722	1.5362201
20.626256371211593	2.3500493	1.532987
20.644071181447032	2.2981985	1.5159811
20.66188649611036	2.2876165	1.5124868
20.67970231567506	2.2746809	1.5082045
20.697518640614742	2.3010962	1.5169364
20.715335471403122	2.2694495	1.5064692
20.73315280851404	2.263535	1.5045049
20.750970652421447	2.2862442	1.5120331
20.768789003599412	2.2823405	1.5107417
20.786607862522136	2.2764778	1.5088001
20.8044272296639	2.2830977	1.5109923
20.82224710549913	2.3110845	1.5202252
20.84006749050237	2.275779	1.5085685
20.857888385148268	3.8327777	1.9577482
20.8757097899116	45.932323	6.777339
20.893531705267254	64.79916	8.049792
20.911354131690224	83.77606	9.152926
20.92917706965566	69.04639	8.309416
20.94700051963877	50.14386	7.081233
20.96482448211493	29.440287	5.4258904
20.982648957559622	4.157032	2.03888
21.00047394644843	2.2107637	1.4868637
21.01829944925707	2.1732943	1.4742097
21.036125466461375	2.1672587	1.4721613
21.053951998537297	2.168993	1.4727502
21.071779045960906	2.1699517	1.4730756
21.089606609208378	2.158151	1.4690646
21.10743468875603	2.174671	1.4746766
21.12526328508028	2.2023787	1.4840413
21.143092398657675	2.2156162	1.4884946
21.16092202996488	2.2094595	1.486425
21.17875217947867	2.2204883	1.4901303
21.19658284767596	2.1970804	1.4822552
21.21441403503377	2.1667376	1.4719843
21.232245742029225	2.1424692	1.4637176
21.2500779691396	2.1753392	1.4749031
21.26791071684227	2.2022245	1.4839894
21.28574398561475	2.1973398	1.4823427
21.30357777593465	2.164816	1.4713314
21.321412088279704	2.1352582	1.4612522
21.339246923127792	2.1045675	1.4507128
21.357082280956888	2.0794463	1.4420285
21.3749181622451	2.1079073	1.4518634
21.392754567470647	2.1254776	1.4579017
21.41059149711187	2.129108	1.4591463
21.42842895164726	2.1287522	1.4590244
21.446266931555378	2.0981514	1.4484997
21.464105437314945	2.102907	1.4501404
21.481944469404798	2.1041327	1.4505628
21.49978402830388	2.092588	1.446578
21.51762411449127	2.064692	1.4369036
21.53546472844617	2.0553572	1.4336517
21.553305870647876	2.0858846	1.4442592
21.571147541575865	2.1127815	1.453541
21.58898974170967	2.105322	1.4509728
21.60683247152899	2.1016989	1.4497237
21.62467573151363	2.1187382	1.4555886
21.642519522143523	2.10946	1.4523981
21.660363843898722	2.051048	1.4321481
21.6782086972594	2.023588	1.4225287
21.696054082705864	2.0184894	1.4207355
21.713900000718535	2.017264	1.4203042
21.73174645177795	2.054009	1.4331814
21.749593436364794	2.0647259	1.4369154
21.767440954959845	2.0657742	1.4372802
21.785289008044032	2.0438719	1.4296405
21.803137596098388	2.0465121	1.4305636
21.820986719604086	2.052209	1.4325533
21.838836379042412	2.0349312	1.4265101
21.85668657489478	2.0164263	1.4200093
21.87453730764273	1.9763383	1.405823
21.892388577767914	1.9783872	1.4065516
21.91024038575213	1.9745101	1.4051726
21.928092732077285	1.9803146	1.4072365
21.945945617225426	1.978564	1.4066144
21.963799041678694	2.0075316	1.4168739
21.981653005919398	31.321915	5.5965986
21.999507510429943	78.08699	8.836684
22.01736255569286	73.04711	8.546761
22.035218142190818	4.1584105	2.0392182
22.05307427040661	2.0219636	1.4219576
22.07093094082315	2.0075746	1.4168891
22.088788153923474	2.01794	1.4205421
22.106645910190746	2.0046453	1.4158549
22.12450421010827	1.9912328	1.4111105
22.142363054159464	1.9726576	1.4045132
22.16022244282787	1.9844061	1.4086895
22.178082376597164	1.9963721	1.4129304
22.195942855951145	1.999862	1.4141648
22.213803881373742	1.9915581	1.4112257
22.231665453349002	1.9546268	1.3980796
22.24952757236111	1.9322429	1.3900514
22.26739023889438	1.9582351	1.3993696
22.28525345343323	1.9948515	1.4123921
22.30311721646225	2.0056593	1.416213
22.320981528466113	1.9874946	1.4097853
22.33884638992964	1.9676127	1.4027162
22.356711801337788	1.959143	1.399694
22.37457776317561	1.9784337	1.406568
22.392444275928337	1.9815798	1.407686
22.410311340081282	1.9649713	1.4017743
22.428178956119904	1.9787997	1.4066981
22.446047124529805	1.9911033	1.4110646
22.46391584579669	1.9311814	1.3896695
22.481785120406414	1.8965797	1.3771636
22.49965494884496	1.8998159	1.3783381
22.51752533159841	1.910257	1.3821205
22.53539626915302	1.9179242	1.3848914
22.553267761995137	1.9533856	1.3976357
22.571139810611264	1.9150352	1.383848
22.589012415488025	1.9109008	1.3823534
22.60688557711216	1.9084705	1.381474
22.624759295970566	1.9180721	1.3849448
22.642633572550263	1.8952551	1.3766826
22.660508407338362	1.8881378	1.3740953
22.67838380082217	1.9033127	1.379606
22.696259753489077	1.9406985	1.3930895
22.714136265826614	1.9370525	1.3917804
22.73201333832246	1.9217211	1.3862616
22.74989097146439	1.912251	1.3828416
22.76776916574035	1.9291354	1.3889332
22.785647921638393	1.907009	1.380945
22.803527239646712	1.8892645	1.3745052
22.82140712025363	1.9150786	1.3838637
22.839287563947593	1.9185685	1.385124
22.85716857121719	1.9008614	1.3787173
22.875050142551135	1.8723457	1.3683368
22.892932278438277	1.9123911	1.3828923
22.910814979367604	1.92733	1.3882831
22.928698245828222	1.9098359	1.3819681
22.946582078309387	1.9046861	1.3801037
22.96446647730047	1.8932368	1.3759494
22.98235144329098	1.9112628	1.3824843
23.000236976770562	1.909307	1.3817768
23.018123078229	1.9165196	1.3843842
23.03600974815619	1.8496171	1.3600063
23.053896987042194	1.8375231	1.3555527
23.071784795377173	1.8460543	1.3586959
23.08967317365145	1.9030025	1.3794936
23.10756212235546	1.9043041	1.3799653
23.125451641979787	1.9267666	1.3880802
23.143341733015134	1.909205	1.3817399
23.161232395952357	1.9119184	1.3827214
23.179123631282426	1.9366727	1.3916439
23.197015439496468	1.9659256	1.4021146
23.214907821085717	1.9702986	1.4036733
23.23280077654157	1.9308043	1.3895339
23.250694306355538	1.9279605	1.3885102
23.268588411019277	1.9437934	1.3942
23.28648309102458	1.9306178	1.3894668
23.304378346863356	1.8804922	1.3713104
23.322274179027676	1.8963869	1.3770937
23.340170588009723	1.9081552	1.3813599
23.358067574301852	1.9499359	1.396401
23.37596513839651	1.941607	1.3934156
23.39386328078629	1.9011188	1.3788106
23.411762001963947	1.8813274	1.3716149
23.429661302422353	1.8725182	1.3683999
23.4475611826545	1.9124019	1.3828962
23.46546164315356	1.969923	1.4035394
23.48336268441279	1.9501363	1.3964728
23.501264306925638	1.9230486	1.3867403
23.51916651118564	1.8602629	1.3639145
23.537069297686497	1.9007974	1.378694
23.554972666922037	1.8925728	1.3757081
23.57287661938623	1.8603456	1.3639449
23.59078115557318	1.845206	1.3583837
23.608686275977128	1.9233446	1.386847
23.62659198109246	1.9852315	1.4089824
23.6444982714137	2.002571	1.4151223
23.66240514743549	1.9386849	1.3923666
23.68031260965263	1.9051931	1.3802873
23.698220658560068	1.8842212	1.3726693
23.716129294652845	1.8873879	1.3738223
23.7340385184262	1.9073229	1.3810586
23.75194833037546	1.9156767	1.3840797
23.769858730996123	1.9137654	1.3833891
23.78776972078382	1.9143802	1.3836113
23.80568130023431	1.8974992	1.3774974
23.823593469843495	1.8794621	1.3709347
23.841506230107424	1.8806181	1.3713562
23.859419581522275	1.891405	1.3752836
23.87733352458438	1.8914973	1.3753171
23.89524805979019	1.8794096	1.3709155
23.913163187636318	1.8554889	1.3621633
23.931078908619508	1.907697	1.381194
23.948995223236633	1.9889005	1.4102838
23.966912131984735	2.0076613	1.4169197
23.98482963536096	2.0134156	1.4189488
24.002747733862616	2.0039825	1.4156209
24.020666427987155	2.0397987	1.4282153
24.038585718232156	2.0587637	1.4348392
24.056505605095353	2.0506876	1.4320222
24.074426089074617	2.047212	1.4308081
24.092347170667946	2.068373	1.4381839
24.110268850373515	2.0604198	1.4354162
24.128191128689586	2.0539622	1.4331651
24.146114006114626	2.0553617	1.4336532
24.164037483147187	2.0378385	1.4275287
24.181961560286005	2.0344236	1.4263322
24.199886238029926	2.0406623	1.4285175
24.21781151687797	2.0800831	1.4422493
24.235737397329274	2.0915391	1.4462155
24.253663879883135	2.0548356	1.4334698
24.271590965038975	1.9990188	1.4138666
24.289518653296376	2.0134318	1.4189545
24.30744694515505	2.050138	1.4318303
24.32537584111486	2.0464394	1.4305382
24.34330534167581	2.0512178	1.4322073
24.361235447338046	2.0468352	1.4306765
24.379166158601876	2.005905	1.4162997
24.39709747596772	2.0145926	1.4193635
24.41502939993615	2.0421991	1.4290553
24.432961931007917	2.0331855	1.4258981
24.450895069683856	2.0253942	1.4231634
24.468828816465	2.0128815	1.4187605
24.4867631718525	2.0278668	1.4240319
24.504698136347656	2.0376155	1.4274507
24.52263371045192	2.0001714	1.4142742
24.540569894666874	1.9725566	1.4044774
24.558506689494266	1.9378349	1.3920614
24.57644409543597	1.9112145	1.3824668
24.594382112994012	1.8879881	1.3740408
24.61232074267057	1.9023746	1.379266
24.630259984967953	1.8857303	1.3732189
24.64819984038863	1.8947991	1.376517
24.66614030943522	1.9356617	1.3912805
24.684081392610462	1.9524413	1.3972979
24.702023090417274	1.9472957	1.3954554
24.7199654033587	1.9447621	1.3945472
24.737908331937927	1.9334757	1.3904948
24.755851876658305	1.9548422	1.3981568
24.773796038023324	1.9860127	1.4092597
24.79174081653661	2.0611296	1.4356635
24.809686212701962	2.1100338	1.4525955
24.827632227023294	2.1475883	1.4654652
24.8455788600047	2.1319036	1.460104
24.8635261121504	2.1127586	1.4535332
24.88147398396475	2.0873384	1.4447625
24.899422475952303	2.0978642	1.4484005
24.917371588617698	2.1471467	1.4653145
24.935321322465768	2.1945903	1.481415
24.953271678001478	2.2645888	1.504855
24.97122265572994	2.415694	1.5542504
24.989174256156414	2.7178607	1.6485935
25.00712647978632	3.2256598	1.7960122
25.02507932712521	3.8039787	1.9503791
25.043032798678798	4.3359833	2.0823023
25.060986894952933	5.0016727	2.236442
25.078941616453637	5.717512	2.3911319
25.096896963687055	6.6535335	2.5794444
25.114852937159508	7.7684813	2.7871995
25.132809537377444	8.293423	2.8798304
25.150766764847468	8.319599	2.8843715
25.168724620076347	7.7646637	2.7865145
25.186683103570985	6.6989946	2.5882416
25.204642215838426	5.5227976	2.3500633
25.222601957385894	4.1406317	2.0348542
25.24056232872074	3.1628964	1.7784534
25.25852333035048	2.5523806	1.5976171
25.276484962782778	2.1908746	1.4801604
25.294447226525435	1.997021	1.41316
25.312410122086423	1.8933499	1.3759905
25.330373649973843	1.8624914	1.3647312
25.348337810695988	1.9004737	1.3785768
25.366302604761245	1.9370377	1.391775
25.384268032678207	1.9359688	1.3913909
25.40223409495558	1.8968347	1.3772563
25.420200792102257	1.8655268	1.3658429
25.438168124627246	1.8596032	1.3636727
25.45613609303974	1.8785375	1.3705975
25.474104697849057	1.920083	1.3856707
25.492073939564698	1.9281585	1.3885815
25.510043818696285	1.8969301	1.3772908
25.528014335753614	1.8691328	1.3671623
25.54598549124664	1.851721	1.3607795
25.56395728568544	1.831986	1.3535087
25.58192971958028	1.8424346	1.3573631
25.59990279344156	1.8500501	1.3601655
25.617876507779833	1.8869524	1.3736639
25.635850863105826	1.8983437	1.3778039
25.653825859930386	1.8890865	1.3744404
25.671801498764548	1.8361164	1.3550338
25.68977778011949	1.8538018	1.3615439
25.707754704506524	1.8743865	1.3690823
25.725732272437153	1.9311184	1.3896469
25.743710484423012	1.915538	1.3840296
25.761689340975888	1.8641394	1.3653349
25.77966884260774	1.8281823	1.3521029
25.797648989830662	1.868182	1.3668145
25.815629783156922	1.8890789	1.3744377
25.83361122309895	1.8807814	1.3714159
25.85159331016929	1.8482014	1.3594857
25.869576044880695	1.8237076	1.3504472
25.887559427746034	1.8297755	1.3526919
25.90554345927836	1.8283129	1.3521512
25.92352813999086	1.8368922	1.35532
25.94151347039689	1.8203379	1.3491989
25.959499451009965	1.806646	1.3441154
25.97748608234374	1.788498	1.3373474
25.995473364912062	1.7896478	1.3377771
26.013461299228904	1.8309243	1.3531165
26.03144988580839	1.8177229	1.3482295
26.04943912516483	1.845827	1.3586122
26.067429017812675	1.8465297	1.3588707
26.085419564266537	1.8578736	1.3630383
26.103410765041186	1.8375969	1.3555799
26.12140262065155	1.853127	1.361296
26.139395131612723	1.8555307	1.3621787
26.157388298439948	1.8254806	1.3511034
26.17538212164861	1.8015994	1.3422368
26.193376601754295	1.8082442	1.3447098
26.211371739272714	1.8356035	1.3548445
26.229367534719746	1.8124233	1.3462627
26.247363988611433	1.794905	1.3397406
26.26536110146397	1.8317406	1.3534181
26.283358873793727	1.8564961	1.362533
26.301357306117204	1.8319937	1.3535116
26.319356398951104	1.8090191	1.3449978
26.33735615281224	1.7964702	1.3403246
26.35535656821762	1.8173044	1.3480743
26.373357645684404	1.8577018	1.3629754
26.39135938572991	1.8575193	1.3629084
26.409361788871614	1.8437308	1.3578405
26.427364855627165	1.8044633	1.3433031
26.445368586514352	1.8260642	1.3513194
26.46337298205115	1.8221296	1.3498628
26.48137804275568	1.8107396	1.3456372
26.499383769146217	1.8125712	1.3463176
26.517390161741215	1.8253738	1.351064
26.53539722105928	1.7962066	1.3402263
26.553404947619182	1.8213526	1.3495749
26.571413341939856	1.8344431	1.3544161
26.589422404540397	1.8165116	1.3477802
26.60743213594006	1.7887504	1.3374417
26.62544253665827	1.7578083	1.3258237
26.64345360721459	1.7454599	1.3211585
26.66146534812879	1.7786512	1.3336608
26.679477759920758	1.7916136	1.3385117
26.69749084311057	1.8209105	1.3494111
26.71550459821847	1.8396202	1.356326
26.733519025764842	1.8498734	1.3601005
26.751534126270258	1.826209	1.351373
26.769549900255434	1.8498727	1.3601003
26.787566348241267	1.8671503	1.3664371
26.80558347074881	1.8738909	1.3689014
26.823601268299267	1.8366704	1.3552381
26.841619741414036	1.796933	1.3404974
26.85963889061465	1.7787828	1.3337102
26.877658716422832	1.7602587	1.3267474
26.89567921936045	1.7963815	1.3402916
26.913700399949544	1.8312525	1.3532377
26.93172225871233	1.8600799	1.3638475
26.949744796171174	1.8368635	1.3553094
26.967768012848605	1.7994437	1.3414334
26.98579190926733	1.7926633	1.3389038
27.003816485950225	1.792111	1.3386976
27.021841743420318	1.801636	1.3422503
27.039867682200814	1.806602	1.3440989
27.057894302815072	1.8293701	1.3525422
27.07592160578664	1.8235093	1.3503737
27.0939495916392	1.8283952	1.3521817
27.111978260896635	1.8475834	1.3592584
27.13000761408296	1.8176817	1.3482143
27.148037651722397	1.7788355	1.33373
27.166068374339304	1.7506531	1.3231225
27.184099782458215	1.7779595	1.3334014
27.20213187660384	1.8173025	1.3480736
27.22016465730105	1.8464918	1.3588568
27.23819812507487	1.8084527	1.3447872
27.256232280450533	1.7922065	1.3387332
27.274267123953383	1.7860242	1.3364222
27.292302656108987	1.7719934	1.3311625
27.31033887744306	1.796124	1.3401955
27.32837578848146	1.8087382	1.3448933
27.34641338975026	1.8453407	1.3584332
27.364451681775673	1.7915891	1.3385025
27.382490665084074	1.764925	1.3285048
27.400530340202046	1.7866607	1.3366603
27.41857070765629	1.8261184	1.3513395
27.436611767973726	1.8336169	1.3541111
27.454653521681404	1.8242619	1.3506525
27.472695969306564	1.907449	1.3811042
27.490739111376627	1.9130019	1.3831131
27.508782948419153	1.9037806	1.3797755
27.526827480961902	1.8348999	1.3545848
27.54487270953279	1.8106246	1.3455945
27.562918634659898	1.8119744	1.346096
27.580965256871508	1.8068309	1.344184
27.599012576696026	1.798131	1.340944
27.617060594662068	1.771886	1.331122
27.63510931129842	1.7967768	1.3404391
27.65315872713401	1.8211968	1.3495172
27.67120884269797	1.7837796	1.3355821
27.68925965851958	1.8291942	1.3524771
27.707311175128307	1.8530958	1.3612846
27.725363393053787	1.8661768	1.3660809
27.74341631282583	1.8623708	1.3646871
27.7614699349744	1.9025381	1.3793253
27.77952426002968	2.030911	1.4251003
27.797579288521973	2.072072	1.4394693
27.815635020981784	2.4306839	1.5590651
27.83369145793979	2.4699044	1.5715929
27.85174859992682	2.3786786	1.5422965
27.869806447473923	2.3194098	1.5229609
27.887865001112267	2.0398467	1.428232
27.905924261373233	1.8869928	1.3736786
27.92398422878836	1.8342732	1.3543534
27.94204490388936	1.8637122	1.3651785
27.96010628720813	1.8546568	1.3618579
27.978168379276728	1.8234482	1.3503511
27.9962311806274	1.8201103	1.3491147
28.014294691792568	1.8405647	1.3566742
28.0323589133048	1.8154958	1.3474034
28.050423845696887	1.8220695	1.3498405
28.068489489501758	1.844844	1.3582504
28.086555845252523	1.8703947	1.3676237
28.104622913482487	1.856594	1.3625689
28.122690694725115	1.8373326	1.3554825
28.14075918951405	1.881387	1.3716366
28.15882839838312	1.9054757	1.3803897
28.176898321866304	1.8781999	1.3704743
28.1949689604978	1.8126531	1.346348
28.213040314811945	1.8173363	1.3480861
28.23111238534327	1.8775613	1.3702413
28.249185172626493	1.9164809	1.3843702
28.267258677196473	1.9428236	1.3938521
28.285332899588294	1.9502885	1.3965273
28.303407840337172	1.927637	1.3883936
28.321483499978545	1.9020828	1.3791602
28.33955987904799	1.9039904	1.3798516
28.357636978081285	1.9050994	1.3802534
28.37571479761439	1.8945563	1.3764288
28.393793338183425	1.8808026	1.3714236
28.41187260032469	1.8857547	1.3732278
28.429952584574686	1.8996443	1.3782759
28.448033291470065	1.9468781	1.3953058
28.46611472154769	1.9553056	1.3983225
28.484196875344566	1.9888011	1.4102486
28.502279753397914	1.9911054	1.4110653
28.52036335624511	2.0315678	1.4253308
28.538447684423716	2.0254047	1.4231671
28.556532738471482	2.0168147	1.420146
28.574618518926325	1.9811622	1.4075376
28.59270502632635	1.9425888	1.3937678
28.61079226120985	1.9542248	1.3979359
28.628880224115274	1.9971807	1.4132165
28.646968915581287	2.037239	1.4273188
28.66505833614671	2.044081	1.4297136
28.68314848635055	2.0125241	1.4186347
28.701239366732004	2.0184898	1.4207357
28.71933097783044	2.0623558	1.4360905
28.737423320185403	2.1098845	1.4525441
28.75551639433665	2.0909107	1.4459982
28.773610200824074	2.0969229	1.4480755
28.791704740187793	2.1557603	1.4682508
28.80980001296809	2.166681	1.4719651
28.827896019705413	2.1435335	1.464081
28.845992760940433	2.1389093	1.462501
28.86409023721397	2.1626606	1.4705987
28.88218844906704	2.2385616	1.4961823
28.900287397040845	2.278463	1.5094578
28.918387081676755	2.2426498	1.497548
28.936487503516343	2.2849426	1.5116026
28.954588663101365	2.3342412	1.5278224
28.97269056097374	2.3315535	1.5269425
28.990793197675597	2.2758522	1.5085928
29.00889657374923	2.2646825	1.5048863
29.027000689737125	2.2947912	1.5148568
29.04510554618196	2.3496408	1.5328538
29.06321114362659	2.360595	1.5364228
29.08131748261405	2.3888333	1.545585
29.099424563687567	2.4783568	1.5742798
29.11753238739057	2.5151918	1.5859356
29.13564095426663	2.549463	1.5967038
29.15375026485954	2.5645523	1.601422
29.171860319713275	2.5949519	1.6108854
29.18997111937199	2.6045344	1.613857
29.20808266438002	2.6504343	1.6280154
29.226194955281898	2.757248	1.6604962
29.244307992622335	2.8029852	1.6742119
29.26242177694624	2.775305	1.6659247
29.2805363087987	2.8298092	1.6822037
29.29865158872498	2.856489	1.6901151
29.316767617270557	2.8853238	1.6986241
29.334884394981064	2.8742483	1.6953608
29.353001922402367	2.8562784	1.6900527
29.37112020008047	2.9558008	1.7192442
29.389239228561596	3.1207104	1.7665533
29.407359008392152	3.2920284	1.8143948
29.42547954011872	3.6404996	1.9080093
29.44360082428809	4.280231	2.068872
29.46172286144722	5.33159	2.3090236
29.479845652143283	6.8966613	2.6261494
29.497969196923606	8.983042	2.9971724
29.516093496335728	11.618825	3.4086397
29.5342185509274	14.577327	3.8180265
29.55234436124651	16.935654	4.115295
29.570470927841175	18.280527	4.2755733
29.588598251259686	18.18135	4.2639594
29.60672633205055	16.852299	4.105155
29.624855170762405	14.5704365	3.8171241
29.642984767944146	11.7524395	3.428183
29.66111512414481	8.971654	2.995272
29.67924623991366	6.60658	2.5703268
29.697378115800138	5.015721	2.2395804
29.71551075235387	4.152138	2.0376797
29.733644150124675	3.763483	1.9399699
29.751778309662576	3.5131853	1.8743492
29.769913231517766	3.380931	1.8387308
29.78804891624066	3.2949002	1.815186
29.806185364381818	3.3294225	1.8246706
29.82432257649206	3.289284	1.8136383
29.842460553122333	3.2695987	1.8082032
29.86059929482382	3.318037	1.821548
29.878738802147872	3.28793	1.813265
29.896879075646048	3.2084036	1.7912017
29.915020115870114	3.1521916	1.7754413
29.933161923371976	3.1477861	1.7742001
29.951304498703777	3.2120388	1.7922162
29.969447842417857	3.3593369	1.8328494
29.987591955066733	3.2986782	1.8162264
30.005736837203123	3.138069	1.7714596
30.023882489379943	3.1062748	1.7624627
30.04202891215028	3.1359065	1.7708491
30.060176106067455	3.148022	1.7742666
30.078324071684946	3.1343079	1.7703977
30.09647280955646	3.0976691	1.7600197
30.114622320235863	3.0009859	1.7323353
30.132772604277257	2.9218225	1.7093339
30.1509236622349	3.0427868	1.7443585
30.16907549466328	3.1119697	1.7640775
30.18722810211705	3.159234	1.7774234
30.205381485151097	3.1299107	1.7691554
30.22353564432045	3.082197	1.7556187
30.241690580180403	3.039496	1.743415
30.25984629328638	3.0415444	1.7440025
30.278002784194037	2.9964752	1.731033
30.296160053459246	2.9887826	1.7288096
30.314318101638033	2.9442253	1.7158746
30.332476929286646	2.933331	1.712697
30.35063653696153	2.9779148	1.7256635
30.368796925219307	2.9576137	1.7197714
30.386958094616844	2.9021032	1.7035561
30.40512004571115	2.8886688	1.6996084
30.423282779059463	2.8851633	1.6985768
30.441446295219233	2.840055	1.6852462
30.459610594748067	2.7989485	1.6730058
30.47777567820382	2.7797472	1.6672574
30.495941546144504	2.8137414	1.6774211
30.51410819912835	2.8387284	1.6848526
30.532275637713795	2.8123183	1.6769968
30.55044386245946	2.802863	1.6741753
30.56861287392416	2.7693233	1.6641284
30.586782672666956	2.7742672	1.6656132
30.604953259247047	2.8311033	1.6825883
30.623124634223885	2.8709524	1.6943885
30.641296798157075	2.7986028	1.6729025
30.659469751606462	2.7696173	1.6642168
30.677643495132074	2.8011887	1.6736752
30.695818029294152	2.7828467	1.6681867
30.713993354653116	2.7294438	1.6521028
30.73216947176962	2.6763134	1.6359442
30.75034638120448	2.6664143	1.6329159
30.768524083518756	2.6739907	1.6352341
30.786702579273673	2.714321	1.6475196
30.80488186903069	2.8276665	1.6815667
30.82306195335144	2.9708605	1.7236184
30.841242832797782	3.215339	1.7931366
30.85942450793176	3.4924617	1.8688129
30.877606979315637	3.833285	1.9578778
30.895790247511883	4.134798	2.0334203
30.913974313083134	4.4911056	2.1192229
30.932159176592283	4.7955956	2.189885
30.95034483860237	4.9009066	2.2137992
30.968531299676698	4.7400947	2.1771758
30.98671856037873	4.458104	2.1114223
31.00490662127215	4.1231403	2.0305517
31.023095482920848	3.6602268	1.9131719
31.04128514588892	3.1189811	1.7660637
31.059475610740662	2.7142215	1.6474894
31.07766687804056	2.5732625	1.6041392
31.09585894835335	2.511834	1.5848767
31.11405182224393	2.501607	1.5816469
31.132245500277417	2.4659007	1.5703187
31.15043998301914	2.4655504	1.5702071
31.168635271034628	2.4635386	1.5695664
31.18683136488964	2.4647067	1.5699384
31.20502826515008	2.504798	1.5826553
31.223225972382135	2.4672344	1.5707432
31.241424487152155	2.4239244	1.5568957
31.259623810026692	2.3938775	1.547216
31.27782394157253	2.4335084	1.5599706
31.296024882356644	2.4352183	1.5605186
31.314226632946237	2.42226	1.5563612
31.332429193908684	2.407444	1.551594
31.350632565811598	2.3986895	1.5487703
31.368836749222787	2.4321425	1.5595328
31.387041744710295	2.4890163	1.5776616
31.40524755284232	2.531078	1.5909362
31.423454174187317	2.5680876	1.6025254
31.441661609313922	2.5962443	1.6112865
31.459869858791002	2.5594263	1.5998207
31.478078923187628	2.4300592	1.5588647
31.496288803073064	2.3064265	1.5186924
31.514499499016807	2.2529533	1.5009841
31.532711011588546	2.2096865	1.4865015
31.550923341358178	2.2871099	1.5123193
31.56913648889584	2.3700647	1.5395014
31.587350454771844	2.2788334	1.5095805
31.605565239556732	2.1886737	1.4794167
31.62378084382127	2.2583044	1.5027655
31.641997268136382	2.3417342	1.5302726
31.660214513073274	2.326054	1.5251406
31.67843257920331	2.295789	1.5151861
31.6966514670981	2.2505062	1.5001687
31.71487117732944	2.2532303	1.5010763
31.733091710469346	2.2907445	1.5135206
31.751313067090052	2.2902727	1.5133647
31.769535247764008	2.2113771	1.48707
31.787758253063878	2.1596363	1.46957
31.805982083562526	2.2232168	1.4910455
31.824206739833024	2.2659078	1.5052933
31.84243222244869	2.267153	1.5057068
31.860658531983013	2.210798	1.4868753
31.878885669009737	2.213527	1.4877926
31.897113634102784	2.2157485	1.4885391
31.91534242783632	2.1601613	1.4697487
31.933572050784694	2.173283	1.474206
31.951802503522508	2.14686	1.4652166
31.970033786624548	2.0767264	1.4410851
31.988265900665834	2.0681825	1.4381176
32.006498846221575	2.161788	1.470302
32.02473262386724	2.2215948	1.4905015
32.04296723417845	2.280253	1.5100507
32.0612026777311	2.2599363	1.5033084
32.07943895510129	2.2015266	1.4837543
32.097676066865304	2.2269394	1.4922934
32.115914013599685	2.2258143	1.4919163
32.13415279588115	2.118808	1.4556125
32.152392414286666	1.9944454	1.4122484
32.1706328693934	1.9503425	1.3965466
32.18887416177875	2.07216	1.4395
32.20711629202032	2.1739752	1.4744407
32.225359260695924	2.1960557	1.4819095
32.243603068383614	2.174271	1.474541
32.26184771566166	2.134375	1.46095
32.28009320310852	2.0845914	1.4438114
32.2983395313029	2.04768	1.4309716
32.31658670082372	1.9610286	1.4003673
32.33483471225012	1.9716966	1.4041711
32.35308356616143	2.0625858	1.4361706
32.371333263137245	2.1009002	1.4494482
32.38958380375734	2.157138	1.4687198
32.407835188601744	2.1570396	1.4686863
32.42608741825067	2.187584	1.4790484
32.444340493284585	2.1714385	1.4735801
32.46259441428416	2.0384247	1.4277341
32.48084918183028	2.0008564	1.4145163
32.49910479650405	2.062473	1.4361312
32.51736125888683	2.101985	1.4498224
32.53561856956014	2.1217337	1.4566172
32.5538767291058	2.1233668	1.4571776
32.572135738105764	2.0886235	1.4452071
32.59039559714228	1.9637777	1.4013485
32.608656306797776	1.9437205	1.3941737
32.62691786765491	2.086044	1.4443144
32.645180280296586	2.106098	1.4512402
32.663443545305896	2.0351229	1.4265773
32.68170766326619	2.0001566	1.414269
32.69997263476099	2.0034828	1.4154444
32.7182384603741	1.9757676	1.40562
32.7365051406895	1.9558123	1.3985037
32.75477267629144	1.9398309	1.3927782
32.77304106776434	2.0006523	1.4144442
32.79131031569289	1.8983029	1.3777891
32.809580420661966	1.9056734	1.3804613
32.827851383256714	1.9544139	1.3980036
32.84612320406245	2.0266612	1.4236085
32.86439588366476	2.0944293	1.4472144
32.88266942264945	2.049589	1.4316386
32.9009438216025	1.9616777	1.400599
32.9192190811102	1.8725572	1.3684142
32.937495201758985	1.9036338	1.3797224
32.95577218413556	1.9512268	1.3968632
32.974050028826866	1.9138252	1.3834107
32.992328736420035	1.9323529	1.390091
33.010608307502444	1.9952496	1.412533
33.02888874266169	2.020448	1.4214246
33.047170042485604	2.0062258	1.4164131
33.06545220756225	1.9927413	1.4116449
33.083735238479896	2.0570078	1.4342272
33.10201913582707	1.9565831	1.3987792
33.12030390019248	1.9045141	1.3800414
33.138589532165135	1.9118515	1.3826972
33.15687603233419	1.9829843	1.4081848
33.17516340128909	1.9769924	1.4060556
33.19345163961947	1.9339716	1.390673
33.211740747915215	1.9228432	1.3866662
33.23003072676643	1.8890765	1.3744367
33.248321576763466	1.8869543	1.3736645
33.266613298496885	1.8726175	1.3684361
33.28490589255747	1.8722762	1.3683114
33.30319935953626	1.9301269	1.3892901
33.32149370002451	1.9768806	1.4060159
33.339788914613706	1.9031451	1.3795452
33.358085003895575	1.8233858	1.3503281
33.376381968462034	1.8887119	1.3743042
33.39467980890529	1.9946109	1.4123069
33.41297852581774	2.0012538	1.4146568
33.43127811979204	1.8504517	1.360313
33.44957859142105	1.7671151	1.3293288
33.467879941297866	1.7953426	1.339904
33.486182170015844	1.9657439	1.4020499
33.50448527816853	1.9480753	1.3957347
33.522789266349754	1.8313454	1.3532721
33.541094135153514	1.7736497	1.3317844
33.55939988517411	1.8535804	1.3614626
33.57770651700602	1.8840163	1.3725947
33.59601403124398	1.8983692	1.3778132
33.61432242848296	1.8926245	1.3757269
33.632631709318154	1.8917658	1.3754147
33.650941874344994	1.9693272	1.4033272
33.66925292415916	2.107517	1.4517289
33.68756485935654	2.0907812	1.4459534
33.70587768053328	1.9407276	1.3931
33.724191388285746	1.9133933	1.3832546
33.74250598321054	1.8518378	1.3608224
33.760821465904506	1.846605	1.3588984
33.77913783696474	1.9419438	1.3935364
33.79745509698852	2.0799193	1.4421926
33.815773246573414	2.1099646	1.4525717
33.8340922863172	2.0615015	1.435793
33.852412216817896	2.019982	1.4212607
33.87073303867377	1.941223	1.3932778
33.889054752483304	1.8372053	1.3554355
33.907377358845245	1.7905245	1.3381048
33.92570085835853	1.8597236	1.3637168
33.94402525162239	1.9189396	1.385258
33.96235053923627	1.8801522	1.3711864
33.980676721799824	1.9170479	1.384575
33.999003799912984	1.8318028	1.3534411
34.01733177417592	1.9063029	1.3806893
34.03566064518901	1.9922352	1.4114656
34.0539904135529	1.9507843	1.3967048
34.07232107986846	1.9096103	1.3818865
34.090652644736785	1.9567249	1.3988298
34.108985108759235	1.9801489	1.4071777
34.12731847253742	1.8613485	1.3643124
34.14565273667313	1.9040647	1.3798785
34.16398790176847	1.8995129	1.3782282
34.18232396842574	1.9448754	1.3945879
34.20066093724749	1.934532	1.3908745
34.21899880883651	1.9450216	1.3946403
34.23733758379583	1.8690336	1.367126
34.25567726272874	1.8974494	1.3774793
34.27401784623872	1.9549648	1.3982005
34.29235933492957	1.9179817	1.3849121
34.31070172940526	1.9371578	1.3918182
34.32904503027003	2.02905	1.4244473
34.347389238128386	2.1867354	1.4787614
34.36573435358502	2.1205292	1.4562037
34.38408037724492	2.0923707	1.4465029
34.402427309713296	2.0137537	1.4190679
34.42077515159559	1.9343591	1.3908124
34.43912390349752	1.8612745	1.3642853
34.45747356602499	1.7531369	1.3240608
34.47582413978423	1.7012631	1.3043247
34.49417562538163	1.9598621	1.3999507
34.51252802342388	2.045715	1.430285
34.53088133451789	1.9252927	1.3875492
34.54923555927084	1.9993188	1.4139727
34.567590698290104	2.2622612	1.5040815
34.58594675218336	2.3908484	1.5462369
34.6043037215585	2.1454694	1.4647421
34.62266160702365	1.9141804	1.3835391
34.641020409187234	1.8936306	1.3760926
34.65938012865785	1.9834174	1.4083385
34.677740766044394	1.9564304	1.3987246
34.69610232195598	1.8060097	1.3438786
34.714464797002016	1.780631	1.3344028
34.73282819179208	1.76529	1.3286421
34.751192506936064	1.8453532	1.3584378
34.76955774304408	1.8647671	1.3655647
34.7879239007265	2.013437	1.4189563
34.80629098059391	2.03401	1.4261872
34.824658983257194	1.9394673	1.3926476
34.843027909327446	1.9160073	1.3841991
34.86139775941603	1.8017378	1.3422883
34.879768534134534	1.5965601	1.2635506
34.89814023409483	1.7172168	1.3104262
34.91651285990901	1.7316142	1.3159082
34.93488641218944	1.8386056	1.3559519
34.95326089154871	2.0465455	1.4305753
34.97163629859967	2.1534457	1.4674623
34.99001263395542	2.1929533	1.4808624
35.00838989822934	2.0012205	1.414645
35.02676809203499	1.7237321	1.3129098
35.04514721598624	1.807808	1.3445475
35.063527270697215	1.9903642	1.4108027
35.081908256782256	1.850553	1.3603504
35.10029017485597	1.7480394	1.3221344
35.11867302553321	1.814906	1.3471844
35.137056809429104	1.7628858	1.3277371
35.155441527159006	1.8583062	1.3631971
35.173827179338524	2.0284195	1.4242259
35.19221376658354	2.1824925	1.4773262
35.21060128951017	1.9742538	1.4050814
35.2289897487348	1.8000011	1.3416412
35.24737914487405	1.7807496	1.3344473
35.26576947854479	1.901424	1.3789214
35.28416075036418	1.9226848	1.3866091
35.30255296094958	2.0101326	1.4177915
35.32094611091867	2.2538292	1.5012759
35.33934020088932	2.247871	1.4992901
35.35773523147969	2.0457022	1.4302804
35.3761312033082	1.8812923	1.371602
35.394528116993506	1.9107516	1.3822994
35.41292597315452	2.0540092	1.4331815
35.431324772410434	2.1733952	1.4742439
35.449724515380666	2.11483	1.4542456
35.46812520268491	2.113405	1.4537555
35.486526834943106	2.3552952	1.534697
35.504929412775454	2.6971035	1.6422861
35.52333293680242	2.664727	1.6323992
35.54173740764471	2.368917	1.5391287
35.560142825923286	1.8103156	1.3454797
35.5785491922594	1.551986	1.2457873
35.59695650727454	1.7301606	1.3153557
35.61536477159042	2.20624	1.4853417
