0.008763373481513119	0.9483193	0.9738169
0.026290120649546365	0.7032828	0.8386196
0.043816868432600686	0.46827826	0.6843086
0.06134361724069026	0.18488549	0.4299831
0.07887036748382949	0.115233704	0.3394609
0.0963971195720331	0.13906838	0.37291873
0.11392387391531617	0.22803731	0.47753254
0.1314506309236943	0.2116254	0.4600276
0.1489773910071836	0.26260975	0.5124546
0.16650415457580078	0.22312456	0.47236064
0.18403092203956356	0.24600329	0.49598718
0.20155769380849	0.19834705	0.4453617
0.2190844702925996	0.15233386	0.3902997
0.2366112519019124	0.17962329	0.42381987
0.2541380390464497	0.17567144	0.4191318
0.27166483213623416	0.19334055	0.43970507
0.28919163158128947	0.13749841	0.37080777
0.3067184377916406	0.16434921	0.40540007
0.324245251177314	0.21452357	0.4631669
0.34177207214833777	0.26914287	0.5187898
0.3592989011147415	0.28126216	0.53034157
0.37682573848655654	0.22615759	0.47556028
0.39435258467381573	0.20361555	0.4512378
0.41187944008655414	0.20069103	0.44798553
0.42940630513480854	0.17518581	0.41855204
0.446933180228618	0.16273575	0.4034052
0.4644600657780234	0.13097006	0.36189786
0.48198696219306775	0.12463655	0.35303903
0.49951386988379676	0.15167034	0.38944876
0.5170407892602581	0.15285574	0.3909677
0.5345677207325025	0.14267285	0.3777206
0.5520946647105822	0.14776373	0.3844005
0.5696216216045534	0.13082683	0.3616999
0.5871485918244737	0.15434502	0.39286768
0.6046755757804043	0.14799799	0.38470507
0.6222025738824094	0.1412258	0.37580022
0.6397295865405557	0.15199253	0.38986218
0.6572566141649129	0.1436171	0.37896845
0.6747836571655547	0.15957016	0.39946234
0.6923107159525568	0.13840137	0.37202334
0.7098377909359992	0.16394708	0.4049038
0.7273648825259653	0.16849896	0.41048625
0.7448919911325411	0.20339668	0.4509952
0.762419117165817	0.18997134	0.43585703
0.7799462610358868	0.1837447	0.42865452
0.7974734231528482	0.20371592	0.451349
0.8150006039268024	0.23594303	0.48573968
0.8325278037678551	0.26750055	0.5172046
0.8500550230861152	0.28905618	0.53763944
0.8675822622916969	0.2690184	0.51866984
0.8851095217947171	0.26819998	0.51788026
0.9026368020052984	0.20205763	0.44950822
0.9201641033335665	0.19030121	0.43623528
0.9376914261896523	0.16961426	0.41184253
0.9552187709836915	0.20242849	0.44992054
0.9727461381258234	0.21592149	0.46467352
0.990273528026193	0.22821847	0.47772217
1.0078009410949496	0.23545967	0.48524186
1.0253283777422473	0.23839207	0.4882541
1.0428558383782454	0.2322226	0.4818948
1.0603833234131086	0.20852546	0.45664588
1.0779108332570058	0.24107121	0.49099004
1.0954383683201119	0.28021708	0.52935535
1.112965929012607	0.37226278	0.6101334
1.1304935157446763	0.5150609	0.7176774
1.1480211289265108	0.5265133	0.72561234
1.1655487689683062	1.3534718	1.163388
1.1830764362802655	1.6310246	1.2771157
1.200604131272596	2.1281817	1.4588289
1.2181318543555117	2.5040379	1.5824152
1.235659605939232	2.5392458	1.5935011
1.253187386433982	4.0028267	2.0007064
1.270715196249994	6.1914725	2.488267
1.2882430357975057	11.593244	3.4048853
1.3057709054867608	16.362572	4.045068
1.3232988057280106	22.23678	4.715589
1.3408267369315112	27.260427	5.221152
1.358354699507526	30.929499	5.5614295
1.3758826938663256	35.010696	5.9169836
1.3934107204181858	37.16063	6.095952
1.410938779573391	37.363785	6.112592
1.4284668717422309	37.672	6.137752
1.4459949973350033	37.24518	6.102883
1.4635231567620117	37.250805	6.103344
1.4810513504335687	36.664223	6.055099
1.4985795787599925	35.950756	5.995895
1.5161078421516088	35.406494	5.9503355
1.5336361410187505	34.788406	5.8981695
1.5511644757717598	35.05319	5.920573
1.5686928468209842	35.8258	5.985466
1.58622125457678	36.364037	6.03026
1.6037496994495108	37.44941	6.119592
1.621278181849548	37.34517	6.111069
1.6388067021872719	38.041615	6.1677885
1.6563352608730693	37.540386	6.127021
1.673863858317336	36.621105	6.0515375
1.6913924949304753	35.926422	5.9938655
1.7089211711228998	34.71083	5.8915896
1.7264498873050296	33.88404	5.821
1.7439786438872935	33.19081	5.7611465
1.7615074412801288	32.08402	5.6642756
1.779036279893981	31.322306	5.5966334
1.796565160139305	30.504673	5.5231037
1.814094082426564	29.963634	5.473905
1.8316230471662298	29.325731	5.4153237
1.849152054768784	28.440636	5.3329763
1.8666811056447168	27.767038	5.269444
1.8842102002045273	26.993446	5.195522
1.901739338858724	26.572765	5.1548777
1.9192685220178245	26.174232	5.116076
1.9367977500923557	25.392555	5.0391026
1.9543270234928547	24.59788	4.959625
1.971856342629867	23.821909	4.8807693
1.9893857079139496	23.186117	4.8151965
2.006915119755667	22.713484	4.7658668
2.0244445785655945	22.156174	4.7070346
2.0419740847543175	21.846876	4.674064
2.0595036387324317	21.536943	4.6407914
2.0770332409105414	21.184418	4.6026535
2.094562891699263	20.810307	4.5618315
2.1120925915092217	20.279947	4.5033264
2.129622340751053	19.75393	4.444539
2.1471521398354043	187.61267	13.697178
2.1646819891729323	443.71945	21.06465
2.182211889174303	440.0483	20.97733
2.1997418402501974	452.62967	21.275095
2.2172718428113023	432.66663	20.80064
2.234801897268317	320.43854	17.900797
2.2523320040319548	16.837383	4.1033382
2.269862163512935	16.776081	4.0958614
2.287392376121992	16.765862	4.0946136
2.304922642269869	16.718077	4.0887747
2.322452962367322	16.40661	4.0505075
2.3399833368251164	15.951109	3.9938838
2.357513766054032	15.637571	3.954437
2.3750442504648586	15.246821	3.904718
2.3925747904683963	15.149169	3.8921933
2.410105386475459	14.860107	3.854881
2.4276360388968707	14.551676	3.8146658
2.445166748143469	14.157786	3.7626834
2.4626975146261025	13.821286	3.717699
2.4802283387556323	13.502172	3.6745303
2.4977592209429305	13.415513	3.6627192
2.5152901615988825	13.30464	3.6475525
2.5328211611343865	13.100204	3.6194205
2.5503522199603523	12.739643	3.5692637
2.5678833384877024	12.486804	3.5336673
2.5854145171273712	12.499648	3.535484
2.6029457562903064	12.436315	3.526516
2.620477056387469	12.112234	3.4802635
2.6380084178298326	11.927448	3.4536138
2.655539841028383	11.767437	3.4303699
2.673071326394119	11.68539	3.41839
2.6906028743380523	11.337115	3.3670633
2.708134485271211	11.072983	3.327609
2.7256661596046325	10.881127	3.2986553
2.743197897749369	10.692037	3.269868
2.760729700116486	10.875062	3.297736
2.778261567117063	10.821697	3.2896347
2.795793499162193	10.5640335	3.250236
2.8133254966629817	10.203194	3.194244
2.830857560030551	9.775713	3.1266136
2.8483896896760337	9.641195	3.1050274
2.865921886010578	9.6022005	3.0987418
2.883454149445347	9.486377	3.079996
2.9009864803915177	9.283203	3.046835
2.91851887926028	9.193718	3.0321145
2.9360513464628384	9.288755	3.047746
2.953583882410413	9.272004	3.0449965
2.9711164875142373	9.158805	3.0263517
2.9886491621855606	9.070035	3.0116498
3.0061819068356455	8.790626	2.9648988
3.023714721875769	8.573894	2.928121
3.041247607717225	8.374363	2.8938491
3.0587805647713213	8.333316	2.8867483
3.0763135934493806	8.397161	2.8977854
3.0938466941627407	8.254171	2.8730073
3.1113798673227544	8.056712	2.8384347
3.1289131133407904	7.8805556	2.8072326
3.1464464326282315	7.8003573	2.792912
3.1639798255964786	7.6878715	2.772701
3.1815132926569443	7.635102	2.7631688
3.1990468342210603	7.589038	2.7548208
3.216580450700272	7.5281806	2.743753
3.2341141425060416	7.4883165	2.7364788
3.251647910049847	7.4694695	2.733033
3.2691817537431813	7.362381	2.7133708
3.286715673997555	7.2020884	2.6836708
3.3042496712244938	7.0888634	2.662492
3.32178374583554	6.924204	2.6313882
3.339317898242251	6.8834496	2.623633
3.3568521288562034	6.7048736	2.5893772
3.3743864380889876	6.7006645	2.5885642
3.3919208263522127	6.738895	2.5959382
3.4094552940575023	6.8597045	2.6191037
3.4269898416164972	6.7804494	2.6039295
3.444524469440858	6.6531296	2.5793662
3.4620591779422587	6.598766	2.5688064
3.479593967532391	6.576188	2.5644078
3.4971288386229658	6.5878057	2.566672
3.5146637916257086	6.613406	2.5716543
3.5321988269523628	6.4790835	2.5454044
3.5497339450146903	6.392642	2.5283675
3.5672691462244708	6.165699	2.4830825
3.5848044309934988	6.1482043	2.4795573
3.60233979973359	6.1375313	2.477404
3.619875252856575	6.224737	2.4949424
3.6374107907743034	6.272925	2.5045807
3.6549464138986427	6.2836113	2.5067132
3.6724821226414788	6.2266064	2.495317
3.690017917414714	6.2563047	2.5012605
3.7075537986302702	6.3017383	2.5103264
3.7250897667000857	6.334412	2.516826
3.7426258220361235	6.514068	2.5522673
3.7601619650503553	6.715266	2.591383
3.777698196154779	7.3759265	2.7158656
3.7952345157614067	8.409643	2.8999386
3.8127709242822716	9.263357	3.0435765
3.830307422129425	11.425191	3.380117
3.847844009714936	30.135357	5.489568
3.8653806874508954	97.66283	9.88245
3.882917455749409	97.033745	9.850571
3.900454315022606	96.90902	9.844238
3.917991265682631	41.599194	6.4497437
3.9355283081416506	11.193669	3.345694
3.9530654428118495	8.830663	2.9716432
3.970602670105433	7.435576	2.7268252
3.9881399904346244	6.5937285	2.5678256
4.005677404211669	6.5395513	2.5572546
4.023214911848827	6.504625	2.5504167
4.0407525137583855	6.4179378	2.533365
4.058290210352644	6.382314	2.5263243
4.075828002043927	6.318189	2.5136008
4.0933658892445814	6.2367144	2.4973414
4.110903872366966	6.2316914	2.4963355
4.128441951823468	6.1711555	2.484181
4.145980128026488	6.1290164	2.4756851
4.163518401388452	6.0205283	2.4536765
4.181056772321807	6.0334663	2.4563115
4.1985952412390155	6.104875	2.4708045
4.216133808552567	6.1904674	2.488065
4.233672474674966	6.2687583	2.503749
4.251211240018741	6.5177464	2.5529878
4.268750104996445	6.7483993	2.597768
4.286289070020643	7.7263117	2.7796245
4.303828135503928	9.383228	3.0632055
4.3213673018589125	29.662603	5.4463387
4.3389065694982305	90.72714	9.52508
4.356445938834537	165.80197	12.876411
4.3739854102805085	171.03926	13.0781975
4.391524984248844	171.92117	13.111872
4.409064661152262	136.10143	11.666251
4.426604441403504	96.469086	9.821868
4.444144325415337	75.43448	8.685303
4.461684313600543	21.553123	4.6425343
4.47922440637193	22.1621	4.707664
4.496764604142329	20.476406	4.5250864
4.5143049073245916	18.593113	4.311973
4.531845316331589	16.317352	4.0394745
4.5493858315762195	13.464222	3.6693625
4.566926453471405	11.224253	3.3502617
4.584467182430081	9.275051	3.045497
4.602008018865218	8.090103	2.8443108
4.619548963189798	7.445653	2.7286723
4.637090015816834	7.036175	2.6525788
4.654631177159353	6.7824016	2.6043043
4.672172447630417	6.5480065	2.5589073
4.689713827643102	6.33056	2.5160604
4.7072553176105085	6.102904	2.4704056
4.724796917945764	6.005118	2.450534
4.742338629062015	5.8767576	2.4242024
4.759880451372434	5.8488274	2.4184349
4.777422385290215	5.774617	2.4030433
4.794964431228581	5.745623	2.397003
4.812506589600768	5.7441916	2.3967044
4.830048860820047	5.7550225	2.3989627
4.847591245299709	5.7662916	2.4013104
4.8651337434530655	5.736854	2.395173
4.882676355693457	5.727539	2.3932278
4.900219082434242	5.7335863	2.3944907
4.917761924088813	5.7317514	2.3941076
4.935304881070575	5.609093	2.3683524
4.952847953792969	5.502908	2.3458278
4.970391142669449	5.425669	2.3293066
4.9879344481135055	5.3693666	2.3171895
5.005477870538642	5.3741736	2.3182263
5.023021410358394	5.3464084	2.31223
5.040565067986324	5.400667	2.3239336
5.05810884383601	5.4555573	2.3357134
5.075652738321066	5.52031	2.349534
5.09319675185512	5.5085726	2.347035
5.110740884851836	5.4886794	2.342793
5.128285137724894	5.455355	2.3356702
5.145829510888007	5.4268546	2.329561
5.163374004754908	5.39254	2.3221843
5.1809186197393595	5.3388333	2.3105915
5.198463356255145	5.2717004	2.2960184
5.216008214716077	5.2106557	2.282686
5.233553195535998	5.208419	2.282196
5.251098299128764	5.238419	2.2887592
5.268643525908272	5.2865143	2.299242
5.286188876288432	5.300929	2.3023746
5.3037343506831895	5.324645	2.3075192
5.32127994950651	5.4057474	2.3250263
5.3388256731723915	5.3996563	2.3237162
5.356371522094851	5.334141	2.3095758
5.373917496687938	5.268522	2.295326
5.391463597365729	5.312421	2.304869
5.40900982454232	5.3393106	2.310695
5.426556178631843	5.313174	2.3050323
5.444102660048449	5.317365	2.3059413
5.4616492692063225	5.256297	2.2926617
5.479196006519669	5.275973	2.2969487
5.496742872402727	5.2503915	2.2913733
5.514289867269756	5.236715	2.288387
5.531836991535049	5.2628837	2.2940977
5.549384245612924	5.227485	2.2863693
5.566931629917724	5.2450223	2.2902014
5.584479144863822	5.2365003	2.28834
5.6020267908656205	5.183167	2.2766569
5.619574568337545	5.120963	2.2629545
5.637122477694054	5.0723343	2.2521844
5.654670519349629	5.1192784	2.2625823
5.672218693718784	5.1891294	2.277966
5.689767001216059	5.298819	2.3019164
5.707315442256021	5.296486	2.3014095
5.724864017253266	5.2725286	2.2961988
5.7424127266224225	5.2451224	2.2902231
5.75996157077814	5.196877	2.279666
5.777510550135105	5.183321	2.2766907
5.795059665108022	5.1653423	2.272739
5.812608916111639	5.201605	2.2807026
5.830158303560715	5.304721	2.3031979
5.847707827870055	5.3806787	2.319629
5.86525748945448	5.5109015	2.3475308
5.8828072887288485	5.6195064	2.37055
5.900357226108044	5.642605	2.3754168
5.917907302006979	5.658435	2.3787465
5.9354575168406	6.2513556	2.500271
5.9530078710238765	6.8510733	2.6174555
5.970558364971812	7.4348254	2.7266877
5.988108999099438	7.7922044	2.791452
6.005659773821818	8.304513	2.881755
6.023210689554039	8.0433235	2.8360753
6.040761746711227	8.469863	2.9103029
6.058312945708531	7.848494	2.8015163
6.075864286961132	7.2866583	2.699381
6.093415770884244	6.621398	2.5732076
6.1109673978931065	6.081681	2.4661064
6.128519168402993	5.538202	2.3533385
6.146071082829204	5.4136286	2.3267205
6.163623141587075	5.2781363	2.2974195
6.181175345091969	5.2370706	2.2884648
6.198727693759281	5.1574955	2.271012
6.216280188004435	5.195983	2.27947
6.233832828242885	5.1840563	2.2768524
6.251385614890126	5.151523	2.2696967
6.268938548361669	5.123476	2.2635098
6.286491629073067	5.120181	2.2627816
6.304044857439898	5.186152	2.2773125
6.321598233877777	5.1398354	2.2671206
6.339151758802344	5.1179976	2.2622993
6.356705432629277	5.098143	2.257907
6.37425925577428	5.1041684	2.2592406
6.391813228653095	5.112085	2.260992
6.409367351681486	5.1367154	2.2664323
6.426921625275259	5.07719	2.253262
6.44447604985025	4.9894075	2.2336981
6.46203062582232	4.9128695	2.2164993
6.47958535360737	4.9518332	2.2252715
6.497140233621328	4.9958787	2.2351463
6.514695266280161	5.020525	2.2406528
6.532250451999859	5.011952	2.238739
6.549805791196454	5.0068183	2.237592
6.567361284286002	5.0230784	2.2412226
6.584916931684597	5.0283113	2.2423897
6.602472733808367	5.0068855	2.237607
6.6200286910734665	5.0179815	2.2400851
6.637584803896092	5.0407634	2.2451644
6.655141072692462	5.0627255	2.25005
6.672697497878842	5.0871387	2.2554686
6.690254079871514	5.0966477	2.2575758
6.707810819086808	5.0243363	2.2415032
6.725367715941078	5.0162325	2.2396948
6.742924770850719	5.031495	2.2430995
6.760481984232151	5.069396	2.2515318
6.778039356501836	5.1175504	2.2622004
6.795596888076266	5.163156	2.2722578
6.813154579371963	5.231775	2.2873073
6.830712430805492	5.1469502	2.2686892
6.84827044279344	5.035506	2.2439933
6.865828615752445	4.9385	2.2222736
6.883386950099159	4.9939823	2.234722
6.900945446250287	5.034057	2.2436705
6.918504104622553	5.0117745	2.2386992
6.936062925632727	5.03171	2.2431474
6.953621909697607	5.0007114	2.236227
6.971181057234028	5.056265	2.248614
6.988740368658859	5.0884533	2.25576
7.006299844389007	5.159831	2.271526
7.023859484841407	5.2078724	2.2820764
7.041419290433036	5.256325	2.2926676
7.058979261580902	5.4192905	2.327937
7.0765393987020495	5.653282	2.3776631
7.094099702213559	6.1016045	2.4701426
7.111660172532549	6.4852524	2.5466158
7.129220810076164	6.8329406	2.6139894
7.146781615261595	7.3638535	2.7136421
7.16434258850606	7.6154737	2.7596147
7.181903730226821	7.963476	2.821963
7.1994650408411704	8.127136	2.8508132
7.217026520766437	8.249453	2.872186
7.234588170419983	8.435344	2.9043663
7.252149990219215	8.36495	2.8922224
7.269711980581568	8.230935	2.8689606
7.2872741419245175	8.132562	2.8517647
7.304836474665574	7.773926	2.788176
7.322398979222286	7.4259844	2.725066
7.339961656012233	7.161445	2.6760876
7.357524505453039	6.817461	2.6110268
7.375087527962357	6.548723	2.5590472
7.392650723957886	6.296096	2.5092022
7.410214093857353	5.943831	2.4379973
7.427777638078528	5.7314353	2.3940415
7.445341357039213	5.5678563	2.3596306
7.4629052511572525	5.461291	2.3369405
7.480469320850524	5.33978	2.3107963
7.498033566536948	5.275992	2.2969527
7.5155979886344735	5.264204	2.2943854
7.5331625875610975	5.25246	2.2918246
7.550727363734844	5.199815	2.2803102
7.568292317573788	5.120855	2.2629306
7.585857449496025	5.1328692	2.2655838
7.603422759919705	5.1799226	2.2759442
7.620988249263007	5.2370486	2.2884598
7.638553917944147	5.259231	2.2933013
7.656119766381391	5.2562933	2.2926607
7.673685794993023	5.218124	2.2843213
7.691252004197388	5.2209935	2.2849493
7.70881839441285	5.235505	2.2881227
7.726384966057826	5.250436	2.291383
7.743951719550762	5.248946	2.2910578
7.761518655310149	5.267728	2.2951531
7.779085773754511	5.263523	2.294237
7.796653075302419	5.2588077	2.293209
7.814220560372475	5.2779183	2.297372
7.831788229383323	5.364061	2.3160443
7.8493560827536495	5.4286795	2.3299527
7.866924120902174	5.419107	2.3278975
7.884492344247663	5.443876	2.3332114
7.9020607532089135	5.4421234	2.332836
7.919629348204771	5.405111	2.3248894
7.937198129654115	5.330688	2.3088284
7.954767097975865	5.367802	2.3168519
7.972336253588986	5.399746	2.3237352
7.989905596912472	5.4312596	2.3305063
8.007475128365371	5.3825145	2.3200247
8.025044848366756	5.4173436	2.3275187
8.042614757335754	5.5632453	2.3586533
8.060184855691523	5.6559386	2.3782218
8.07775514385327	5.8107915	2.4105582
8.095325622240228	5.8620396	2.421165
8.112896291271687	5.8714743	2.4231126
8.130467151366968	5.915506	2.4321814
8.148038202945436	5.916632	2.4324129
8.165609446426497	5.9568143	2.4406586
8.183180882229594	6.0239873	2.4543812
8.200752510774217	5.977572	2.4449074
8.218324332479893	5.936842	2.4365635
8.235896347766193	5.8266497	2.4138453
8.253468557052724	5.832197	2.4149942
8.27104096075914	5.8430657	2.4172435
8.288613559305137	5.991232	2.4476993
8.306186353110448	6.0767426	2.465105
8.32375934259485	6.1685214	2.483651
8.341332528178162	6.1940794	2.4887908
8.358905910280246	6.260813	2.5021617
8.376479489321003	6.287593	2.5075073
8.394053265720377	6.291695	2.508325
8.411627239898356	6.2679014	2.5035777
8.42920141227497	6.208733	2.4917328
8.44677578327029	6.237567	2.497512
8.464350353304427	6.178248	2.485608
8.48192512279754	6.146546	2.4792228
8.499500092169827	6.0834775	2.4664707
8.51707526184153	6.0566583	2.4610279
8.534650632232934	6.1166825	2.4731927
8.552226203764365	6.155585	2.481045
8.569801976856192	6.208499	2.4916859
8.587377951928834	6.2531533	2.5006306
8.60495412940274	6.288745	2.507737
8.622530509698416	6.3472896	2.5193827
8.6401070932364	6.416076	2.5329974
8.657683880437283	6.4733577	2.5442793
8.675260871721695	6.625511	2.5740068
8.692838067510303	6.806008	2.6088326
8.710415468223834	6.9818254	2.6423144
8.727993074283043	7.1354995	2.6712356
8.745570886108737	7.1680307	2.6773179
8.763148904121765	7.2036233	2.6839566
8.78072712874302	7.224854	2.687909
8.798305560393441	7.47846	2.7346773
8.815884199494006	7.7052736	2.7758374
8.833463046465745	7.923884	2.8149395
8.851042101729728	8.001332	2.8286626
8.86862136570707	8.153024	2.85535
8.886200838818924	8.241261	2.8707595
8.903780521486505	8.296578	2.8803782
8.921360414131055	8.499236	2.915345
8.938940517173874	8.642705	2.9398477
8.956520831036297	8.757898	2.9593747
8.97410135613971	8.951866	2.991967
8.99168209290554	9.103001	3.017118
9.009263041755265	9.412926	3.0680492
9.026844203110405	9.714671	3.1168368
9.044425577392525	9.936283	3.152187
9.062007165023239	10.057604	3.1713727
9.079588966424197	10.330648	3.2141325
9.097170982017108	10.455707	3.2335286
9.11475321222372	11.381585	3.3736606
9.132335657465825	12.235992	3.4979982
9.149918318165264	12.282428	3.5046294
9.167501194743924	12.822122	3.580799
9.18508428762374	12.519004	3.5382204
9.202667597226693	12.565144	3.5447347
9.220251123974803	12.287152	3.5053034
9.237834868290143	12.003702	3.4646358
9.255418830594836	11.744186	3.4269793
9.273003011311046	11.225866	3.3505025
9.290587410860985	10.967933	3.311787
9.308172029666911	10.423895	3.2286057
9.32575686815113	10.085701	3.1757994
9.343341926735997	8.748697	2.9578197
9.360927205843916	8.548916	2.923853
9.378512705897327	8.332044	2.886528
9.396098427318728	8.203067	2.8640997
9.413684370530664	8.054761	2.8380911
9.431270535955722	7.9200644	2.814261
9.448856924016539	7.8453827	2.800961
9.466443535135806	7.709334	2.7765687
9.484030369736251	7.709755	2.7766445
9.501617428240658	7.6657376	2.7687068
9.519204711071852	7.6921887	2.7734795
9.536792218652714	7.7454295	2.7830613
9.55437995140617	7.8233624	2.7970273
9.571967909755191	7.8653083	2.8045156
9.589556094122802	7.8891983	2.8087716
9.60714450493207	7.866809	2.804783
9.624733142606116	7.858493	2.8033004
9.642322007568108	7.9174495	2.8137963
9.659911100241267	8.0277	2.8333197
9.677500421048851	8.067164	2.8402755
9.695089970414175	8.059911	2.8389983
9.712679748760609	8.024503	2.8327553
9.730269756511557	8.079718	2.8424845
9.747859994090492	8.163077	2.85711
9.765450461920915	8.227282	2.8683238
9.78304116042639	8.257675	2.8736172
9.800632090030527	8.224459	2.8678317
9.81822325115699	8.24698	2.8717556
9.835814644229481	8.259354	2.8739092
9.853406269671762	8.277703	2.8770998
9.870998127907646	8.327007	2.8856554
9.888590219360985	8.243811	2.8712037
9.906182544455698	8.302387	2.8813863
9.923775103615734	8.279006	2.8773263
9.941367897265108	8.349783	2.889599
9.958960925827878	8.342985	2.8884225
9.97655418972816	8.330162	2.886202
9.994147689390106	8.291073	2.8794224
10.011741425237934	8.279335	2.8773835
10.029335397695904	8.329847	2.8861475
10.04692960718833	8.388837	2.896349
10.06452405413958	8.363216	2.8919227
10.082118738974064	8.352952	2.8901474
10.099713662116246	8.363994	2.892057
10.117308823990651	8.322766	2.8849206
10.134904225021844	8.291925	2.8795702
10.152499865634445	8.263712	2.8746672
10.170095746253125	8.283264	2.878066
10.18769186730261	8.239751	2.8704965
10.205288229207675	8.234135	2.8695183
10.222884832393145	8.243642	2.8711743
10.2404816772839	8.192229	2.8622072
10.258078764304868	8.187637	2.861405
10.275676093881035	8.126473	2.850697
10.293273666437438	8.123581	2.8501897
10.310871482399158	8.142203	2.8534546
10.32846954219134	8.148867	2.854622
10.346067846239173	8.136312	2.852422
10.363666394967908	8.112953	2.8483245
10.38126518880283	8.075686	2.8417752
10.398864228169298	8.098662	2.845815
10.416463513492713	8.1748705	2.859173
10.434063045198531	8.158227	2.856261
10.451662823712262	8.165193	2.85748
10.469262849459467	8.151114	2.8550158
10.486863122865758	8.134191	2.8520503
10.504463644356806	8.115364	2.8487477
10.522064414358338	8.107834	2.847426
10.539665433296118	8.007678	2.8297842
10.557266701595987	7.9488654	2.8193731
10.574868219683818	7.873779	2.8060255
10.592469987985552	7.9003906	2.8107634
10.610072006927185	7.740949	2.7822561
10.627674276934751	7.6025167	2.757266
10.64527679843435	7.411428	2.7223938
10.662879571852143	7.325912	2.7066422
10.680482597614331	7.268453	2.6960068
10.698085876147173	7.1588016	2.6755936
10.715689407876988	7.0422935	2.653732
10.733293193230146	6.917069	2.630032
10.750897232633072	6.7929044	2.6063201
10.76850152651225	6.668133	2.5822728
10.786106075294207	6.576506	2.56447
10.803710879405534	6.4727817	2.544166
10.821315939272877	6.453267	2.5403283
10.83892125532294	6.3812985	2.5261233
10.856526827982472	6.3100476	2.5119808
10.874132657678285	6.285257	2.5070415
10.891738744837243	6.294336	2.5088515
10.909345089886271	6.240882	2.4981756
10.926951693252343	6.208756	2.4917376
10.944558555362494	6.1680503	2.483556
10.96216567664381	6.16012	2.4819589
10.979773057523436	6.0975537	2.4693224
10.997380698428573	5.955643	2.4404187
11.014988599786477	5.869205	2.4226441
11.032596762024461	5.749372	2.3977847
11.050205185569892	5.6964717	2.3867283
11.067813870850198	5.554213	2.3567379
11.085422818292859	5.455129	2.3356218
11.10303202832541	5.4214993	2.3284113
11.120641501375454	5.397353	2.3232205
11.138251237870636	5.375048	2.318415
11.155861238238671	5.345457	2.3120244
11.173471502907317	5.278375	2.2974715
11.191082032304402	5.2093377	2.2823973
11.208692826857805	5.1104407	2.2606285
11.226303886995465	5.0095673	2.2382061
11.243915213145371	4.974109	2.230271
11.261526805735578	4.951693	2.22524
11.279138665194196	4.9577136	2.2265923
11.296750791949393	4.9119253	2.2162864
11.314363186429393	4.855001	2.2034066
11.331975849062479	4.7937517	2.1894639
11.34958878027699	4.745635	2.178448
11.36720198050133	4.6518755	2.1568208
11.384815450163948	4.612182	2.1475992
11.402429189693366	4.5816836	2.1404867
11.420043199518153	4.541759	2.1311402
11.437657480066942	63.502377	7.9688377
11.455272031768422	85.18427	9.229532
11.472886855051353	107.5482	10.370545
11.490501950344528	99.13017	9.956413
11.508117318076819	84.48206	9.191413
11.52573295867715	45.90073	6.7750077
11.543348872574514	4.21601	2.0532925
11.560965060197946	4.12949	2.0321147
11.57858152197655	4.0994153	2.0247014
11.59619825833949	4.0734625	2.0182822
11.613815269715985	4.1234055	2.030617
11.631432556535323	38.642902	6.2163415
11.649050119226837	83.13818	9.118014
11.666667958219929	93.471115	9.668046
11.68428607394406	107.69486	10.377613
11.701904466828756	82.48226	9.081975
11.719523137303586	65.37668	8.085585
11.737142085798196	4.610588	2.147228
11.754761312742286	3.748817	1.9361862
11.772380818565619	3.7405794	1.9340577
11.790000603698015	3.7516844	1.9369265
11.80762066856935	3.6990387	1.9232885
11.825241013609572	3.6239119	1.9036574
11.842861639248683	3.5584352	1.8863815
11.860482545916748	3.5140133	1.8745701
11.878103734043883	3.4969199	1.8700054
11.895725204060282	3.4665716	1.8618731
11.91334695639619	3.4571419	1.8593391
11.930968991481919	3.427454	1.8513384
11.948591309747824	3.4362228	1.8537052
11.966213911624347	3.4286423	1.8516593
11.98383679754198	3.4219873	1.8498614
12.001459967931268	3.3609922	1.833301
12.019083423222835	3.288568	1.8134409
12.036707163847352	3.2407355	1.8002043
12.05433119023556	3.2269192	1.7963628
12.071955502818259	3.2478771	1.8021867
12.089580102026313	3.240481	1.8001336
12.107204988290643	3.2328012	1.7979993
12.12483016204224	3.185556	1.7848126
12.142455623712152	3.1638787	1.7787296
12.16008137373149	3.1100686	1.7635386
12.177707412531431	3.0612051	1.74963
12.19533374054321	3.0645769	1.7505933
12.212960358198126	3.0761337	1.753891
12.230587265927545	3.0613303	1.7496657
12.248214464162889	3.0425744	1.7442976
12.265841953335649	3.0173566	1.737054
12.283469733877375	3.014926	1.7363542
12.301097806219685	3.0005786	1.7322178
12.31872617079425	2.9779296	1.7256678
12.336354828032825	2.960476	1.7206033
12.353983778367205	2.9344413	1.7130212
12.371613022229262	2.9192011	1.708567
12.389242560050928	2.9666336	1.7223918
12.406872392264201	2.952167	1.7181871
12.424502519301143	2.9255757	1.7104315
12.442132941593874	2.8880053	1.6994132
12.459763659574586	2.9044604	1.7042477
12.477394673675532	2.899273	1.7027252
12.49502598432903	2.8716998	1.694609
12.51265759196746	2.8665733	1.6930958
12.530289497023267	2.835617	1.6839291
12.547921699928967	2.8540795	1.6894021
12.565554201117134	2.8087735	1.6759396
12.583187001020404	2.7969203	1.6723995
12.600820100071486	2.8239021	1.680447
12.618453498703152	2.813953	1.6774842
12.636087197348235	2.8030734	1.6742382
12.65372119643964	2.788689	1.6699368
12.671355496410326	2.8094764	1.6761492
12.68899009769333	2.8165529	1.6782589
12.706625000721749	2.8434305	1.6862475
12.724260205928752	2.9081173	1.7053202
12.741895713747551	2.9411662	1.7149829
12.759531524611454	2.9926353	1.7299235
12.777167638953818	3.0005488	1.7322092
12.794804057208072	3.0286646	1.7403059
12.812440779807702	3.081007	1.7552798
12.830077807186271	3.2670262	1.8074917
12.847715139777405	3.2728634	1.8091056
12.865352778014795	3.4872131	1.8674082
12.882990722332197	3.5785131	1.8916959
12.90062897316344	3.6810975	1.9186187
12.918267530942412	3.7446437	1.9351082
12.935906396103071	3.6635218	1.9140328
12.953545569079449	3.831305	1.957372
12.971185050305628	3.6043634	1.898516
12.988824840215775	3.5932317	1.8955822
13.006464939244115	3.5523329	1.8847634
13.024105347824943	3.435924	1.8536246
13.041746066392617	3.5374165	1.880802
13.05938709538157	3.4016423	1.8443542
13.077028435226296	3.4391658	1.8544989
13.094670086361363	3.2971382	1.8158023
13.112312049221401	3.1632035	1.7785397
13.129954324241112	3.055734	1.7480657
13.147596911855258	2.8619237	1.6917222
13.165239812498685	2.8431454	1.686163
13.182883026606293	2.774104	1.6655642
13.200526554613058	2.7686987	1.6639407
13.218170396954017	2.7648268	1.6627768
13.235814554064284	2.7604136	1.6614493
13.253459026379034	2.737926	1.654668
13.271103814333523	2.708561	1.6457707
13.288748918363058	2.7326946	1.6530864
13.306394338903031	2.7093248	1.6460027
13.32404007638889	2.6878247	1.6394587
13.341686131256164	2.6698275	1.6339607
13.359332503940449	2.6523547	1.6286051
13.376979194877402	2.6432598	1.6258105
13.394626204502751	2.6466742	1.6268603
13.412273533252307	2.6561575	1.6297722
13.429921181561937	2.6928449	1.640989
13.447569149867581	2.7430115	1.656204
13.465217438605247	2.746249	1.657181
13.482866048211022	2.7260158	1.6510651
13.500514979121052	2.734151	1.6535268
13.518164231771568	2.68471	1.6385084
13.535813806598844	2.6797884	1.6370059
13.553463704039254	2.671908	1.6345972
13.571113924529229	2.688714	1.6397299
13.588764468505275	2.726974	1.6513551
13.606415336403956	2.7358277	1.6540338
13.624066528661917	2.7516422	1.6588075
13.641718045715882	2.7807732	1.667565
13.659369888002635	2.8402941	1.6853172
13.67702205595903	2.9111016	1.7061951
13.694674550021993	2.9688113	1.7230239
13.712327370628532	3.027063	1.7398456
13.729980518215713	3.1036663	1.7617226
13.747633993220681	3.2254512	1.7959541
13.765287796080647	3.3033159	1.8175026
13.7829419272329	3.355148	1.8317063
13.800596387114801	3.344781	1.8288742
13.818251176163775	3.3013244	1.8169547
13.835906294817324	3.3752267	1.8371791
13.853561743513023	3.430859	1.8522578
13.871217522688525	3.511086	1.8737892
13.888873632781538	3.5259674	1.8777559
13.906530074229858	3.533142	1.8796654
13.92418684747135	3.5415943	1.8819124
13.941843952943948	3.5631077	1.8876196
13.959501391085665	3.543862	1.8825148
13.977159162334578	3.459605	1.8600013
13.994817267128846	3.413871	1.8476664
14.012475705906693	3.3227837	1.8228505
14.030134479106424	3.2290938	1.796968
14.047793587166414	3.1364493	1.7710024
14.065453030525108	3.1054347	1.7622243
14.083112809621026	3.0265982	1.7397121
14.100772924892766	2.9379904	1.7140567
14.118433376778997	2.9127798	1.7066867
14.136094165718458	2.874646	1.6954781
14.153755292149969	2.8306875	1.6824647
14.171416756512416	2.7158666	1.6479887
14.189078559244768	2.6172678	1.6177973
14.20674070078606	2.554344	1.5982316
14.224403181575408	2.5152507	1.5859542
14.242066002051999	2.5200293	1.58746
14.259729162655093	2.496954	1.5801753
14.277392663824022	2.4782257	1.5742382
14.295056505998208	2.4412763	1.5624584
14.312720689617128	2.4202633	1.5557195
14.330385215120348	2.4226055	1.5564722
14.348050082947497	2.441367	1.5624874
14.3657152935383	2.4294212	1.55866
14.383380847332528	2.3841898	1.5440822
14.401046744770051	2.3719203	1.540104
14.418712986290798	2.399119	1.548909
14.436379572334793	2.412798	1.5533184
14.454046503342123	2.421121	1.5559951
14.471713779752946	2.4172294	1.5547441
14.489381402007504	2.4207504	1.5558761
14.507049370546113	2.4048593	1.5507609
14.524717685809168	2.4074626	1.5516
14.542386348237134	2.4724245	1.5723945
14.560055358270553	2.486055	1.5767229
14.577724716350051	2.504948	1.5827028
14.595394422916325	2.4640079	1.5697159
14.61306447841015	2.4852583	1.5764703
14.63073488327237	2.4802837	1.5748917
14.648405637943917	2.509716	1.5842084
14.6660767428658	2.501767	1.5816975
14.683748198479094	2.533789	1.5917879
14.701420005224954	2.5645757	1.6014292
14.719092163544628	2.6152997	1.6171888
14.73676467387942	2.6526551	1.6286974
14.754437536670727	2.6780343	1.6364701
14.772110752360014	2.6788015	1.6367044
14.78978432138882	2.6751344	1.6355838
14.807458244198777	2.7034285	1.6442106
14.82513252123159	2.6823385	1.6377846
14.842807152929028	2.6747882	1.635478
14.860482139732962	2.5999172	1.6124259
14.87815748208531	2.5874417	1.6085527
14.8958331804281	2.615226	1.617166
14.91350923520342	2.6107836	1.6157919
14.931185646853438	2.6300101	1.6217306
14.948862415820408	2.6082957	1.6150218
14.966539542546656	2.6220837	1.6192849
14.98421702747459	2.6052012	1.6140636
15.001894871046696	2.6473823	1.6270778
15.019573073705542	2.6828165	1.6379305
15.037251635893766	2.6468265	1.626907
15.054930558054092	2.6423988	1.6255457
15.072609840629323	2.6798415	1.6370221
15.090289484062351	2.8124092	1.6770239
15.107969488796124	3.1075613	1.7628276
15.125649855273691	3.5336623	1.8798038
15.14333058393817	4.086054	2.021399
15.161011675232768	5.0362883	2.2441676
15.17869312960076	6.3361645	2.517174
15.196374947485506	8.150882	2.854975
15.214057129330447	11.273886	3.3576608
15.231739675579114	15.998153	3.999769
15.249422586675102	21.187284	4.602965
15.267105863062092	24.382322	4.9378457
15.284789505183847	24.81912	4.981879
15.302473513484218	22.839388	4.779057
15.320157888407127	19.173973	4.3788095
15.337842630396578	14.889508	3.8586926
15.355527739896656	11.506157	3.3920727
15.37321321735153	8.965843	2.9943018
15.39089906320545	6.542348	2.5578015
15.408585277902748	4.875911	2.2081466
15.42627186188783	3.7265096	1.930417
15.443958815605198	3.1775563	1.7825701
15.461646139499424	2.8939285	1.7011551
15.479333834015168	2.7510061	1.6586157
15.497021899597165	2.7062776	1.6450768
15.514710336690234	2.7106016	1.6463904
15.53239914573928	2.686287	1.6389896
15.550088327189297	2.6593974	1.6307659
15.567777881485336	2.6060157	1.6143159
15.58546780907256	2.569248	1.6028874
15.6031581103962	2.5332994	1.5916342
15.620848785901568	2.4915543	1.5784658
15.638539836034063	2.4768999	1.573817
15.656231261239173	2.4637024	1.5696186
15.673923061962451	2.436552	1.5609459
15.691615238649552	2.4100442	1.5524317
15.709307791746202	2.383212	1.5437655
15.727000721698221	2.3977568	1.5484692
15.744694028951498	2.3905544	1.5461417
15.76238771395202	2.3910735	1.5463096
15.780081777145844	2.3472104	1.5320609
15.797776218979125	2.3537788	1.534203
15.815471039898094	2.351932	1.533601
15.833166240349064	2.3996806	1.5490903
15.850861820778437	2.3918917	1.5465742
15.868557781632699	2.396973	1.548216
15.886254123358412	2.3754258	1.5412416
15.903950846402232	2.3820543	1.5433905
15.921647951210897	2.4052458	1.5508854
15.939345438231225	2.3929105	1.5469035
15.957043307910133	2.3955326	1.5477508
15.974741560694602	2.3787954	1.5423344
15.992440197031714	2.3939056	1.5472251
16.01013921736862	2.393168	1.5469867
16.02783862215259	2.4043148	1.5505853
16.045538411830933	2.4066918	1.5513515
16.06323858685107	2.3860545	1.5446858
16.080939147660512	2.4059658	1.5511175
16.09864009470684	2.3926835	1.5468302
16.11634142843774	2.3733256	1.5405601
16.134043149300954	2.3548133	1.53454
16.15174525774433	2.3302896	1.5265286
16.169447754215817	2.3675003	1.5386684
16.18715063916342	2.4172912	1.554764
16.204853913035244	2.4654708	1.5701817
16.222557576279478	2.4525974	1.5660771
16.240261629344403	22.43127	4.736166
16.257966072678386	42.987617	6.556494
16.275670906729868	38.12689	6.1746974
16.293376131947387	2.5520089	1.5975008
16.31108174877957	2.556845	1.5990137
16.328787757675133	2.568797	1.6027467
16.34649415908287	2.6037977	1.6136287
16.364200953451657	2.6286662	1.6213162
16.38190814123048	2.6599298	1.6309291
16.39961572286839	2.638534	1.6243565
16.41732369881455	2.6610968	1.6312869
16.43503206951817	2.7341962	1.6535405
16.45274083542859	2.7953362	1.6719259
16.47044999699522	2.8349364	1.6837269
16.488159554667558	2.8366768	1.6842437
16.505869508895184	2.8564496	1.6901034
16.523579860127786	2.9171114	1.7079554
16.541290608815117	3.0055368	1.7336484
16.559001755407035	3.0446827	1.7449019
16.57671330035348	3.0678744	1.7515348
16.59442524410448	3.1085632	1.7631118
16.61213758711015	3.1779625	1.7826841
16.629850329820705	3.234128	1.7983681
16.647563472686436	3.3245018	1.8233216
16.665277016157724	3.4031644	1.8447667
16.682990960685053	3.4642735	1.8612559
16.70070530671898	3.4938543	1.8691854
16.718420054710155	3.547051	1.8833616
16.736135205109335	3.6213624	1.9029877
16.753850758367335	3.6986127	1.9231777
16.771566714935087	3.7482395	1.9360371
16.789283075263597	3.7423763	1.9345223
16.80699983980398	3.7571018	1.9383245
16.82471700900741	3.7764418	1.9433069
16.84243458332518	3.8858743	1.9712621
16.860152563208665	3.9917889	1.9979461
16.87787094910932	4.084273	2.0209584
16.89558974147871	4.130998	2.0324857
16.913308940768466	4.1545286	2.0382662
16.931028547430333	4.1878214	2.0464168
16.94874856191613	4.2440805	2.0601165
16.966468984677785	4.268261	2.065977
16.98418981616729	4.344866	2.0844343
17.00191105683676	4.4114656	2.100349
17.019632707138374	4.501323	2.121632
17.03735476752442	4.5620065	2.1358855
17.05507723844728	4.639571	2.1539664
17.072800120359403	4.6940274	2.1665704
17.090523413713353	4.6908345	2.1658335
17.108247118961785	4.6921034	2.1661263
17.125971236557437	4.7137623	2.1711202
17.143695766953133	4.711087	2.1705039
17.161420710601806	4.653592	2.1572187
17.179146067956477	4.6468406	2.1556532
17.19687183947025	4.6771455	2.1626709
17.21459802559634	4.6823463	2.163873
17.232324626788028	4.636435	2.1532383
17.25005164349871	4.592186	2.1429386
17.267779076181863	4.6096864	2.147018
17.285506925291074	4.5822663	2.1406229
17.30323519127999	4.5710993	2.138013
17.320963874602384	4.5592666	2.135244
17.33869297571211	4.5891213	2.1422234
17.356422495063114	4.58533	2.1413383
17.37415243310944	4.5385184	2.13038
17.391882790305218	4.530318	2.1284542
17.40961356710468	4.5042796	2.1223288
17.42734476396215	4.4824424	2.117178
17.445076381332044	4.464903	2.1130316
17.462808419668868	4.4885097	2.1186104
17.48054087942723	4.635899	2.1531138
17.498273761061835	4.9453325	2.2238104
17.51600706502747	5.4348984	2.331287
17.533740791779024	6.1367464	2.4772458
17.551474941771485	7.594747	2.7558568
17.56920951545993	8.729966	2.9546516
17.586944513299528	10.930903	3.3061917
17.60467993574556	12.668157	3.5592353
17.622415783253373	14.478488	3.8050609
17.64015205627843	15.994635	3.9993293
17.657888755276293	17.143185	4.140433
17.675625880702604	17.49015	4.1821227
17.69336343301311	17.260786	4.15461
17.71110141266366	16.410564	4.0509953
17.728839820110178	15.462919	3.9322917
17.746578655808705	14.448045	3.8010583
17.764317920215372	12.978196	3.6025264
17.7820576137864	11.432793	3.3812413
17.79979773697811	9.43788	3.0721133
17.81753829024692	7.549809	2.7476916
17.835279274049356	5.902304	2.4294658
17.85302068884201	4.8922853	2.2118511
17.870762535081607	4.257446	2.0633578
17.888504813224934	3.9706705	1.9926541
17.90624752372891	3.771992	1.9421617
17.923990667050536	3.6505766	1.9106482
17.941734243646895	3.5326107	1.879524
17.959478253975185	3.482464	1.8661362
17.9772226984927	3.457515	1.8594394
17.994967577656833	3.42641	1.8510565
18.01271289192506	3.3722038	1.8363562
18.030458641754965	3.3343353	1.8260162
18.04820482760425	3.3313508	1.8251989
18.06595144993067	3.2959163	1.8154659
18.083698509192125	3.2558627	1.8044009
18.101446005846576	3.2258303	1.7960596
18.119193940352105	3.232278	1.7978537
18.136942313166887	3.2527466	1.8035372
18.1546911247492	3.2408185	1.8002274
18.1724403755574	3.221872	1.7949574
18.19019006604997	3.1631644	1.7785287
18.207940196685467	3.121703	1.7668341
18.225690767922575	3.080024	1.7549998
18.243441780220046	3.0658462	1.7509558
18.261193234036764	3.0738983	1.7532536
18.278945129831676	3.0499165	1.7464011
18.29669746806386	3.0426996	1.7443335
18.314450249192483	3.0424385	1.7442588
18.3322034736768	3.045678	1.745187
18.349957141976184	3.0372317	1.7427655
18.3677112545501	3.0645957	1.7505987
18.385465811858108	3.0917544	1.7583386
18.403220814359884	3.1038718	1.7617809
18.420976262515172	3.0969744	1.7598222
18.43873215678387	3.1432648	1.7729255
18.456488497625923	3.1869664	1.7852076
18.474245285501407	3.24366	1.8010163
18.492002520870486	3.2830238	1.8119117
18.50976020419343	3.3763149	1.8374752
18.527518335930615	3.6756246	1.9171919
18.545276916542516	4.225751	2.055663
18.563035946489688	4.381197	2.0931308
18.580795426232832	4.8768005	2.208348
18.598555356232698	4.7925806	2.1891963
18.616315736950185	5.1134367	2.261291
18.63407656884626	4.7594466	2.1816156
18.65183785238201	4.945802	2.223916
18.669599588018617	4.6855197	2.164606
18.68736177621737	4.690507	2.165758
18.705124417439652	4.6154532	2.1483605
18.72288751214696	4.4138484	2.1009161
18.740651060800886	4.575074	2.1389422
18.758415063863115	4.3405704	2.0834036
18.77617952179546	4.518585	2.1256964
18.793944435059814	4.264501	2.0650668
18.811709804118184	4.3228636	2.0791497
18.829475629432675	4.213787	2.052751
18.8472419114655	3.9558997	1.9889444
18.86500865067897	4.017364	2.0043364
18.88277584753551	3.7482224	1.9360327
18.90054350249763	3.767537	1.9410144
18.918311616027957	3.4313314	1.8523853
18.936080188589226	3.3338456	1.8258822
18.953849220644265	3.0816417	1.7554605
18.971618712656007	2.9423783	1.7153362
18.9893886650875	2.889722	1.6999183
19.007159078401887	8.023742	2.832621
19.024929953062408	32.877014	5.733848
19.042701289532435	32.803608	5.727443
19.060473088275405	25.35431	5.0353065
19.07824534975489	2.6123905	1.6162891
19.096018074434568	2.610384	1.6156683
19.113791262778197	2.6308513	1.62199
19.13156491524966	2.6198258	1.6185876
19.149339032312945	2.6189725	1.618324
19.167113614432136	2.5468168	1.5958749
19.184888662071433	2.528062	1.5899881
19.202664175695123	2.5176632	1.5867146
19.220440155767623	2.5442088	1.5950576
19.238216602753447	2.52301	1.5883986
19.2559935171172	2.4967363	1.5801064
19.27377089932361	2.4941056	1.5792737
19.291548749837514	2.472513	1.5724226
19.309327069123835	2.4549706	1.5668346
19.32710585764763	2.414434	1.5538449
19.344885115874032	2.4376357	1.5612929
19.362664844268313	2.4844198	1.5762043
19.380445043295822	2.4853876	1.5765111
19.39822571342203	2.4972723	1.580276
19.41600685511252	2.47335	1.5726888
19.43378846883297	2.489946	1.5779562
19.451570555049173	2.4762256	1.5736028
19.469353114227037	2.4748504	1.5731658
19.48713614683254	2.498556	1.5806822
19.50491965333182	2.5226114	1.588273
19.52270363419109	2.5349026	1.5921377
19.540488089876686	2.5437357	1.5949093
19.55827302085503	2.4890726	1.5776795
19.576058427592674	2.4764333	1.5736687
19.593844310556282	2.4895582	1.5778334
19.611630670212598	2.5218182	1.5880233
19.629417507028506	2.5263064	1.5894358
19.64720482147098	2.5591564	1.5997363
19.6649926140071	2.5374665	1.5929427
19.682780885104084	2.5016131	1.5816488
19.70056963522921	2.4772573	1.5739305
19.718358864849908	2.5024734	1.5819207
19.7361485744337	2.5096865	1.584199
19.753938764448215	2.5492015	1.5966219
19.771729435361202	2.5307937	1.5908469
19.789520587640506	2.510478	1.5844488
19.807312221754092	2.499736	1.5810554
19.825104338170043	2.5200593	1.5874695
19.842896937356517	2.53768	1.5930097
19.860690019781824	2.535342	1.5922757
19.87848358591436	2.5415263	1.5942165
19.896277636222635	2.5608525	1.6002663
19.914072171175278	2.5569136	1.5990353
19.931867191241015	2.5411813	1.5941083
19.94966269688869	2.544283	1.5950809
19.967458688587264	2.5112815	1.5847024
19.985255166805807	2.4787214	1.5743955
20.00305213201348	2.4580958	1.5678315
20.020849584679578	2.4595385	1.5682915
20.038647525273507	2.4798763	1.5747623
20.05644595426477	2.479087	1.5745116
20.07424487212299	2.4461675	1.5640229
20.092044279317903	2.4219382	1.5562577
20.109844176319353	2.4045398	1.5506579
20.127644563597304	2.3917308	1.5465221
20.145445441621817	2.4131896	1.5534445
20.16324681086307	2.423136	1.5566425
20.181048671791373	2.3957033	1.547806
20.198851024877122	2.3858888	1.5446323
20.216653870590836	2.3738256	1.5407224
20.234457209403146	2.3871915	1.5450538
20.252261041784802	2.3907664	1.5462103
20.270065368206662	2.3934488	1.5470775
20.287870189139685	2.3734248	1.5405923
20.305675505054968	2.3609583	1.536541
20.323481316423702	2.3611135	1.5365915
20.341287623717207	2.3651447	1.5379027
20.359094427406884	2.3395915	1.5295724
20.376901727964288	2.3115966	1.5203936
20.39470952586107	2.324991	1.5247921
20.41251782156899	2.32311	1.5241752
20.430326615559935	2.3038604	1.5178473
20.448135908305886	2.3162906	1.5219364
20.465945700278965	2.340909	1.530003
20.483755991951384	2.3428245	1.5306288
20.50156678379548	2.3214705	1.5236373
20.519378076283708	2.3319283	1.5270653
20.537189869888635	2.3688989	1.5391227
20.55500216508294	2.3684819	1.5389873
20.572814962339415	2.3566194	1.5351285
20.59062826213098	2.3567965	1.5351862
20.60844206493066	2.3504074	1.5331038
20.626256371211593	2.350563	1.5331546
20.644071181447032	2.3355305	1.5282443
20.66188649611036	2.3243887	1.5245947
20.67970231567506	2.284862	1.511576
20.697518640614742	2.291701	1.5138365
20.715335471403122	2.315648	1.5217254
20.73315280851404	2.3448222	1.5312812
20.750970652421447	2.343073	1.53071
20.768789003599412	2.3019989	1.517234
20.786607862522136	2.2986424	1.5161275
20.8044272296639	2.2709765	1.506976
20.82224710549913	2.255176	1.5017244
20.84006749050237	2.2407665	1.496919
20.857888385148268	3.802503	1.9500008
20.8757097899116	45.915283	6.7760816
20.893531705267254	64.811134	8.050536
20.911354131690224	83.88874	9.15908
20.92917706965566	69.178764	8.317377
20.94700051963877	50.230362	7.087338
20.96482448211493	29.459269	5.4276395
20.982648957559622	4.165803	2.04103
21.00047394644843	2.260853	1.5036134
21.01829944925707	2.2866843	1.5121787
21.036125466461375	2.2821774	1.5106877
21.053951998537297	2.2416792	1.4972239
21.071779045960906	2.1959865	1.4818861
21.089606609208378	2.1840596	1.4778564
21.10743468875603	2.2026255	1.4841245
21.12526328508028	2.208681	1.4861633
21.143092398657675	2.2397223	1.4965701
21.16092202996488	2.238888	1.4962914
21.17875217947867	2.24234	1.4974445
21.19658284767596	2.221732	1.4905475
21.21441403503377	2.2180867	1.4893242
21.232245742029225	2.2124662	1.4874362
21.2500779691396	2.1637528	1.47097
21.26791071684227	2.1516042	1.4668348
21.28574398561475	2.1181426	1.455384
21.30357777593465	2.1196613	1.4559057
21.321412088279704	2.1254263	1.4578842
21.339246923127792	2.1638513	1.4710035
21.357082280956888	2.1716087	1.4736379
21.3749181622451	2.1659768	1.4717258
21.392754567470647	2.1393733	1.4626597
21.41059149711187	2.1577702	1.468935
21.42842895164726	2.153206	1.4673806
21.446266931555378	2.169012	1.4727566
21.464105437314945	2.1678252	1.4723536
21.481944469404798	2.165778	1.4716582
21.49978402830388	2.1186075	1.4555438
21.51762411449127	2.111203	1.4529979
21.53546472844617	2.1279879	1.4587624
21.553305870647876	2.1282532	1.4588534
21.571147541575865	2.0996208	1.4490068
21.58898974170967	2.0542655	1.4332709
21.60683247152899	2.0484447	1.4312389
21.62467573151363	2.0565228	1.4340582
21.642519522143523	2.1013787	1.4496133
21.660363843898722	2.084099	1.443641
21.6782086972594	2.0438635	1.4296376
21.696054082705864	2.0510135	1.4321359
21.713900000718535	2.0561116	1.4339148
21.73174645177795	2.0508614	1.4320829
21.749593436364794	2.0215983	1.4218292
21.767440954959845	2.0489345	1.43141
21.785289008044032	2.0778193	1.4414643
21.803137596098388	2.075203	1.4405565
21.820986719604086	2.0541914	1.4332451
21.838836379042412	2.0345526	1.4263774
21.85668657489478	2.0307105	1.42503
21.87453730764273	2.0511642	1.4321886
21.892388577767914	2.0474613	1.4308953
21.91024038575213	2.0179722	1.4205534
21.928092732077285	1.9875011	1.4097877
21.945945617225426	1.9800715	1.4071501
21.963799041678694	2.0162308	1.4199405
21.981653005919398	31.355658	5.599612
21.999507510429943	78.138435	8.839595
22.01736255569286	73.09675	8.549664
22.035218142190818	4.1947784	2.0481157
22.05307427040661	1.9950943	1.4124781
22.07093094082315	1.9812455	1.4075673
22.088788153923474	1.9813483	1.4076037
22.106645910190746	1.9801635	1.4071828
22.12450421010827	1.9691182	1.4032527
22.142363054159464	1.9567778	1.3988488
22.16022244282787	1.9812685	1.4075754
22.178082376597164	2.01609	1.4198908
22.195942855951145	1.9944751	1.4122589
22.213803881373742	1.9743987	1.405133
22.231665453349002	1.9700506	1.403585
22.24952757236111	1.9853671	1.4090306
22.26739023889438	1.9907582	1.4109423
22.28525345343323	1.9579159	1.3992555
22.30311721646225	1.9500867	1.396455
22.320981528466113	1.9392655	1.3925751
22.33884638992964	1.9502164	1.3965015
22.356711801337788	1.9495955	1.3962791
22.37457776317561	1.946051	1.3950093
22.392444275928337	1.9403286	1.3929567
22.410311340081282	1.9377978	1.392048
22.428178956119904	1.9708713	1.4038773
22.446047124529805	1.9474187	1.3954995
22.46391584579669	1.9647647	1.4017006
22.481785120406414	1.9701664	1.4036262
22.49965494884496	1.965593	1.401996
22.51752533159841	1.9424809	1.3937291
22.53539626915302	1.9706548	1.4038001
22.553267761995137	1.9642892	1.401531
22.571139810611264	1.9528934	1.3974596
22.589012415488025	1.92879	1.3888088
22.60688557711216	1.9364516	1.3915644
22.624759295970566	1.9321494	1.3900177
22.642633572550263	1.9186125	1.3851398
22.660508407338362	1.9234456	1.3868834
22.67838380082217	1.9167873	1.3844808
22.696259753489077	1.9252508	1.387534
22.714136265826614	1.9319102	1.3899317
22.73201333832246	1.9480792	1.3957361
22.74989097146439	1.9391401	1.3925301
22.76776916574035	1.8948148	1.3765228
22.785647921638393	1.879754	1.3710412
22.803527239646712	1.9138497	1.3834195
22.82140712025363	1.9459989	1.3949907
22.839287563947593	1.9639972	1.4014269
22.85716857121719	1.9148268	1.3837726
22.875050142551135	1.8975154	1.3775033
22.892932278438277	1.9072859	1.3810452
22.910814979367604	1.943413	1.3940635
22.928698245828222	1.9096935	1.3819166
22.946582078309387	1.9024172	1.3792814
22.96446647730047	1.8646824	1.3655337
22.98235144329098	1.8298875	1.3527334
23.000236976770562	1.8187181	1.3485986
23.018123078229	1.8290606	1.3524276
23.03600974815619	1.8886327	1.3742753
23.053896987042194	1.9181342	1.3849672
23.071784795377173	1.9310324	1.3896159
23.08967317365145	1.874528	1.3691341
23.10756212235546	1.8623834	1.3646916
23.125451641979787	1.9060202	1.3805869
23.143341733015134	1.9550414	1.3982279
23.161232395952357	1.9275693	1.3883693
23.179123631282426	1.9014813	1.3789421
23.197015439496468	1.9364483	1.3915633
23.214907821085717	1.9754578	1.4055098
23.23280077654157	1.9788717	1.4067237
23.250694306355538	2.0113285	1.4182131
23.268588411019277	2.0077322	1.4169446
23.28648309102458	1.9753613	1.4054755
23.304378346863356	1.9400294	1.3928493
23.322274179027676	1.9915314	1.4112163
23.340170588009723	1.9924406	1.4115384
23.358067574301852	1.9399091	1.3928062
23.37596513839651	1.909528	1.3818567
23.39386328078629	1.9429402	1.393894
23.411762001963947	1.9719527	1.4042623
23.429661302422353	1.9797175	1.4070244
23.4475611826545	1.9845372	1.408736
23.46546164315356	1.9369407	1.3917402
23.48336268441279	1.9270176	1.3881706
23.501264306925638	1.9436582	1.3941514
23.51916651118564	1.9491332	1.3961136
23.537069297686497	1.9409014	1.3931624
23.554972666922037	1.9511136	1.3968227
23.57287661938623	1.9592596	1.3997356
23.59078115557318	1.954992	1.3982103
23.608686275977128	1.9211345	1.38605
23.62659198109246	1.9292154	1.388962
23.6444982714137	1.9389032	1.3924451
23.66240514743549	1.9307917	1.3895293
23.68031260965263	1.9302509	1.3893347
23.698220658560068	1.9393272	1.3925973
23.716129294652845	1.9131404	1.3831632
23.7340385184262	1.8783044	1.3705125
23.75194833037546	1.8842825	1.3726916
23.769858730996123	1.8975135	1.3775027
23.78776972078382	1.8800243	1.3711398
23.80568130023431	1.8844249	1.3727436
23.823593469843495	1.8700882	1.3675116
23.841506230107424	1.8782643	1.3704978
23.859419581522275	1.8752466	1.3693964
23.87733352458438	1.8824067	1.3720083
23.89524805979019	1.873458	1.3687432
23.913163187636318	1.8791463	1.3708196
23.931078908619508	1.8924412	1.3756603
23.948995223236633	1.941435	1.3933538
23.966912131984735	2.0147605	1.4194226
23.98482963536096	2.0711691	1.4391557
24.002747733862616	2.0622752	1.4360623
24.020666427987155	2.0908053	1.4459617
24.038585718232156	2.0962884	1.4478565
24.056505605095353	2.0559785	1.4338684
24.074426089074617	2.04538	1.4301679
24.092347170667946	2.0435743	1.4295365
24.110268850373515	2.038083	1.4276145
24.128191128689586	2.0302954	1.4248843
24.146114006114626	2.0148132	1.4194411
24.164037483147187	2.0397034	1.4281819
24.181961560286005	2.0544746	1.4333439
24.199886238029926	2.0284674	1.4242427
24.21781151687797	1.9734098	1.404781
24.235737397329274	1.9736913	1.4048812
24.253663879883135	2.0045106	1.4158074
24.271590965038975	2.0347068	1.4264315
24.289518653296376	1.9986895	1.4137502
24.30744694515505	2.0166378	1.4200838
24.32537584111486	2.031128	1.4251765
24.34330534167581	2.0420313	1.4289966
24.361235447338046	2.0039768	1.4156189
24.379166158601876	2.0165567	1.4200552
24.39709747596772	2.032851	1.4257808
24.41502939993615	2.0741825	1.4402022
24.432961931007917	2.0676315	1.437926
24.450895069683856	2.0166583	1.4200909
24.468828816465	2.0032673	1.4153682
24.4867631718525	1.9694892	1.4033849
24.504698136347656	1.967859	1.402804
24.52263371045192	1.9526699	1.3973796
24.540569894666874	1.9840301	1.408556
24.558506689494266	1.962434	1.400869
24.57644409543597	1.960681	1.4002432
24.594382112994012	1.9772202	1.4061366
24.61232074267057	1.9801016	1.4071609
24.630259984967953	2.0251284	1.4230701
24.64819984038863	2.0178168	1.4204987
24.66614030943522	2.0221467	1.4220221
24.684081392610462	1.9685214	1.40304
24.702023090417274	1.9679711	1.402844
24.7199654033587	1.9446754	1.3945162
24.737908331937927	1.9954209	1.4125937
24.755851876658305	2.05299	1.4328259
24.773796038023324	2.0390763	1.4279623
24.79174081653661	1.9900525	1.4106922
24.809686212701962	1.9693649	1.4033406
24.827632227023294	2.0056057	1.4161941
24.8455788600047	2.0382085	1.4276584
24.8635261121504	2.0802987	1.442324
24.88147398396475	2.1412892	1.4633144
24.899422475952303	2.178231	1.4758831
24.917371588617698	2.137325	1.4619594
24.935321322465768	2.1404076	1.4630132
24.953271678001478	2.2693596	1.5064393
24.97122265572994	2.4698896	1.5715883
24.989174256156414	2.7759976	1.6661326
25.00712647978632	3.277486	1.8103828
25.02507932712521	3.8506448	1.962306
25.043032798678798	4.3593307	2.087901
25.060986894952933	5.0239377	2.2414143
25.078941616453637	5.772992	2.4027052
25.096896963687055	6.698158	2.58808
25.114852937159508	7.877569	2.8067007
25.132809537377444	8.41288	2.9004965
25.150766764847468	8.485095	2.9129186
25.168724620076347	7.8683977	2.8050663
25.186683103570985	6.8335085	2.614098
25.204642215838426	5.669547	2.381081
25.222601957385894	4.3523498	2.0862286
25.24056232872074	3.2911267	1.8141463
25.25852333035048	2.661388	1.631376
25.276484962782778	2.2765827	1.5088348
25.294447226525435	2.0836515	1.4434859
25.312410122086423	2.0259292	1.4233514
25.330373649973843	1.9902453	1.4107605
25.348337810695988	1.9949954	1.412443
25.366302604761245	1.9772056	1.4061314
25.384268032678207	1.9552778	1.3983124
25.40223409495558	1.9411883	1.3932654
25.420200792102257	1.9181881	1.3849866
25.438168124627246	1.9293443	1.3890084
25.45613609303974	1.9386007	1.3923364
25.474104697849057	1.904229	1.379938
25.492073939564698	1.8906821	1.3750207
25.510043818696285	1.8956745	1.376835
25.528014335753614	1.9272653	1.3882598
25.54598549124664	1.9423121	1.3936685
25.56395728568544	1.9434907	1.3940914
25.58192971958028	1.944261	1.3943676
25.59990279344156	1.934085	1.3907138
25.617876507779833	1.891553	1.3753375
25.635850863105826	1.8383148	1.3558446
25.653825859930386	1.820304	1.3491864
25.671801498764548	1.8725067	1.3683957
25.68977778011949	1.894072	1.3762529
25.707754704506524	1.8834763	1.372398
25.725732272437153	1.888063	1.374068
25.743710484423012	1.8635029	1.3651018
25.761689340975888	1.8750352	1.3693192
25.77966884260774	1.9363023	1.3915108
25.797648989830662	1.9497631	1.3963392
25.815629783156922	1.9532061	1.3975714
25.83361122309895	1.9235528	1.386922
25.85159331016929	1.8589169	1.363421
25.869576044880695	1.795874	1.3401022
25.887559427746034	1.8303398	1.3529005
25.90554345927836	1.8527784	1.361168
25.92352813999086	1.848282	1.3595153
25.94151347039689	1.8070397	1.3442618
25.959499451009965	1.8498064	1.3600758
25.97748608234374	1.8502958	1.3602558
25.995473364912062	1.8222624	1.349912
26.013461299228904	1.8198235	1.3490083
26.03144988580839	1.8426756	1.3574519
26.04943912516483	1.8357655	1.3549042
26.067429017812675	1.82479	1.3508478
26.085419564266537	1.7833697	1.3354286
26.103410765041186	1.7992252	1.341352
26.12140262065155	1.8872118	1.3737583
26.139395131612723	1.9248711	1.3873973
26.157388298439948	1.8869475	1.3736621
26.17538212164861	1.8176682	1.3482093
26.193376601754295	1.816177	1.3476561
26.211371739272714	1.80604	1.34389
26.229367534719746	1.8050871	1.3435353
26.247363988611433	1.8417357	1.3571056
26.26536110146397	1.8852932	1.3730599
26.283358873793727	1.9288728	1.3888386
26.301357306117204	1.9122634	1.3828461
26.319356398951104	1.896842	1.3772589
26.33735615281224	1.8541148	1.3616588
26.35535656821762	1.872574	1.3684202
26.373357645684404	1.8511635	1.3605747
26.39135938572991	1.8646259	1.3655131
26.409361788871614	1.8750249	1.3693155
26.427364855627165	1.886911	1.3736488
26.445368586514352	1.880323	1.3712487
26.46337298205115	1.8496212	1.3600078
26.48137804275568	1.8191495	1.3487585
26.499383769146217	1.8090484	1.3450087
26.517390161741215	1.8168385	1.3479015
26.53539722105928	1.8232814	1.3502893
26.553404947619182	1.832687	1.3537678
26.571413341939856	1.8430424	1.357587
26.589422404540397	1.882027	1.3718699
26.60743213594006	1.8648162	1.3655827
26.62544253665827	1.8383062	1.3558415
26.64345360721459	1.8447434	1.3582133
26.66146534812879	1.8454378	1.3584689
26.679477759920758	1.8390065	1.3560997
26.69749084311057	1.8462584	1.358771
26.71550459821847	1.8396972	1.3563544
26.733519025764842	1.8074809	1.3444259
26.751534126270258	1.7924294	1.3388164
26.769549900255434	1.8197968	1.3489984
26.787566348241267	1.8284786	1.3522124
26.80558347074881	1.8170753	1.3479893
26.823601268299267	1.8169822	1.3479548
26.841619741414036	1.8254657	1.351098
26.85963889061465	1.8335311	1.3540795
26.877658716422832	1.8207747	1.3493608
26.89567921936045	1.8056589	1.3437481
26.913700399949544	1.7993215	1.3413879
26.93172225871233	1.7856288	1.3362743
26.949744796171174	1.7476299	1.3219795
26.967768012848605	1.7718012	1.3310902
26.98579190926733	1.8066052	1.3441001
27.003816485950225	1.8490089	1.3597827
27.021841743420318	1.8357567	1.354901
27.039867682200814	1.7847227	1.3359351
27.057894302815072	1.7730916	1.3315748
27.07592160578664	1.7639258	1.3281287
27.0939495916392	1.8228446	1.3501276
27.111978260896635	1.8313273	1.3532654
27.13000761408296	1.8249394	1.3509032
27.148037651722397	1.813641	1.3467149
27.166068374339304	1.8144643	1.3470205
27.184099782458215	1.793697	1.3392898
27.20213187660384	1.826998	1.3516649
27.22016465730105	1.8112283	1.3458188
27.23819812507487	1.796172	1.3402134
27.256232280450533	1.7411988	1.3195449
27.274267123953383	1.7411382	1.319522
27.292302656108987	1.7684339	1.3298248
27.31033887744306	1.8315458	1.3533461
27.32837578848146	1.8274481	1.3518314
27.34641338975026	1.7980868	1.3409276
27.364451681775673	1.7730303	1.3315518
27.382490665084074	1.8106207	1.3455931
27.400530340202046	1.865508	1.365836
27.41857070765629	1.8386804	1.3559794
27.436611767973726	1.7895736	1.3377495
27.454653521681404	1.7729789	1.3315326
27.472695969306564	1.8246518	1.3507967
27.490739111376627	1.8493592	1.3599114
27.508782948419153	1.8734143	1.3687272
27.526827480961902	1.8329302	1.3538575
27.54487270953279	1.7873758	1.3369278
27.562918634659898	1.7756062	1.3325187
27.580965256871508	1.8525338	1.3610781
27.599012576696026	1.8875388	1.3738773
27.617060594662068	1.8715847	1.3680587
27.63510931129842	1.8590227	1.3634598
27.65315872713401	1.7990574	1.3412894
27.67120884269797	1.8074726	1.3444228
27.68925965851958	1.868983	1.3671075
27.707311175128307	1.9215504	1.3862
27.725363393053787	1.8715137	1.3680328
27.74341631282583	1.8754196	1.3694596
27.7614699349744	1.8947096	1.3764845
27.77952426002968	2.0552428	1.4336118
27.797579288521973	2.0864503	1.444455
27.815635020981784	2.3970284	1.548234
27.83369145793979	2.468645	1.5711923
27.85174859992682	2.393467	1.5470834
27.869806447473923	2.2754064	1.508445
27.887865001112267	2.0201297	1.4213127
27.905924261373233	1.9559563	1.398555
27.92398422878836	1.9499066	1.3963906
27.94204490388936	1.9027511	1.3794024
27.96010628720813	1.8906668	1.3750153
27.978168379276728	1.9091651	1.3817254
27.9962311806274	1.9086013	1.3815213
28.014294691792568	1.870272	1.3675789
28.0323589133048	1.891798	1.3754265
28.050423845696887	1.884147	1.3726424
28.068489489501758	1.8793011	1.3708761
28.086555845252523	1.8919783	1.375492
28.104622913482487	1.9168687	1.3845103
28.122690694725115	1.918477	1.385091
28.14075918951405	1.8624146	1.364703
28.15882839838312	1.844315	1.3580556
28.176898321866304	1.85383	1.3615543
28.1949689604978	1.8741087	1.3689809
28.213040314811945	1.8796898	1.3710178
28.23111238534327	1.8771632	1.3700961
28.249185172626493	1.9039212	1.3798265
28.267258677196473	1.952033	1.3971517
28.285332899588294	1.9643332	1.4015467
28.303407840337172	1.9407176	1.3930964
28.321483499978545	1.9426109	1.3937757
28.33955987904799	1.9289949	1.3888826
28.357636978081285	1.9188949	1.3852419
28.37571479761439	1.9383813	1.3922577
28.393793338183425	1.957874	1.3992405
28.41187260032469	1.9161583	1.3842537
28.429952584574686	1.886612	1.3735399
28.448033291470065	1.909915	1.3819968
28.46611472154769	1.9242871	1.3871868
28.484196875344566	1.9389234	1.3924522
28.502279753397914	1.9441682	1.3943343
28.52036335624511	1.9661359	1.4021896
28.538447684423716	1.9582753	1.3993839
28.556532738471482	1.9635679	1.4012736
28.574618518926325	1.9860103	1.4092587
28.59270502632635	2.0454247	1.4301834
28.61079226120985	2.0603487	1.4353915
28.628880224115274	2.02664	1.423601
28.646968915581287	2.0382264	1.4276646
28.66505833614671	2.0735571	1.4399852
28.68314848635055	2.058729	1.4348271
28.701239366732004	2.0470712	1.430759
28.71933097783044	2.0675302	1.4378909
28.737423320185403	2.0911412	1.4460778
28.75551639433665	2.1011226	1.449525
28.773610200824074	2.114024	1.4539683
28.791704740187793	2.1367223	1.4617531
28.80980001296809	2.1593082	1.4694585
28.827896019705413	2.1934464	1.4810288
28.845992760940433	2.1766279	1.4753399
28.86409023721397	2.1882596	1.4792767
28.88218844906704	2.1435423	1.4640841
28.900287397040845	2.1478739	1.4655627
28.918387081676755	2.19823	1.4826429
28.936487503516343	2.2421412	1.4973781
28.954588663101365	2.2568262	1.5022737
28.97269056097374	2.3039994	1.5178931
28.990793197675597	2.378022	1.5420836
29.00889657374923	2.420408	1.5557661
29.027000689737125	2.3889053	1.5456084
29.04510554618196	2.3266954	1.5253509
29.06321114362659	2.3639646	1.537519
29.08131748261405	2.4474504	1.564433
29.099424563687567	2.4808903	1.5750842
29.11753238739057	2.506647	1.5832394
29.13564095426663	2.5263848	1.5894605
29.15375026485954	2.5397651	1.593664
29.171860319713275	2.5265625	1.5895164
29.18997111937199	2.5665717	1.6020523
29.20808266438002	2.7071114	1.6453302
29.226194955281898	2.7780082	1.6667358
29.244307992622335	2.8289628	1.6819521
29.26242177694624	2.8789318	1.6967415
29.2805363087987	2.9110167	1.7061702
29.29865158872498	2.8389745	1.6849257
29.316767617270557	2.8921232	1.7006243
29.334884394981064	3.0106878	1.7351334
29.353001922402367	3.0600002	1.7492856
29.37112020008047	3.1185806	1.7659503
29.389239228561596	3.2363205	1.7989776
29.407359008392152	3.4067714	1.8457441
29.42547954011872	3.7574546	1.9384155
29.44360082428809	4.3621564	2.0885775
29.46172286144722	5.35217	2.3134758
29.479845652143283	6.9442906	2.6352022
29.497969196923606	9.0719385	3.011966
29.516093496335728	11.723701	3.423989
29.5342185509274	14.700959	3.834183
29.55234436124651	17.026587	4.1263285
29.570470927841175	18.46353	4.296921
29.588598251259686	18.188116	4.264753
29.60672633205055	16.738396	4.0912585
29.624855170762405	14.475023	3.8046055
29.642984767944146	11.634424	3.4109273
29.66111512414481	8.871155	2.9784484
29.67924623991366	6.6178856	2.572525
29.697378115800138	5.198697	2.280065
29.71551075235387	4.2901425	2.071266
29.733644150124675	3.8154032	1.9533057
29.751778309662576	3.5348973	1.8801323
29.769913231517766	3.420691	1.849511
29.78804891624066	3.4360006	1.8536452
29.806185364381818	3.3999543	1.8438965
29.82432257649206	3.4067233	1.8457311
29.842460553122333	3.408353	1.8461726
29.86059929482382	3.3876367	1.8405534
29.878738802147872	3.3480911	1.829779
29.896879075646048	3.3024974	1.8172774
29.915020115870114	3.2687056	1.8079562
29.933161923371976	3.2415745	1.8004373
29.951304498703777	3.2691286	1.8080732
29.969447842417857	3.2651944	1.8069849
29.987591955066733	3.2493567	1.8025972
30.005736837203123	3.1760283	1.7821414
30.023882489379943	3.1422906	1.7726507
30.04202891215028	3.1811533	1.7835788
30.060176106067455	3.1851637	1.7847027
30.078324071684946	3.1916676	1.7865238
30.09647280955646	3.1611078	1.7779504
30.114622320235863	3.1241355	1.7675225
30.132772604277257	3.1260896	1.7680751
30.1509236622349	3.1393266	1.7718145
30.16907549466328	3.1444578	1.7732619
30.18722810211705	3.0913074	1.7582114
30.205381485151097	3.0113091	1.7353125
30.22353564432045	2.967677	1.7226948
30.241690580180403	3.0591667	1.7490474
30.25984629328638	3.084744	1.756344
30.278002784194037	2.9560924	1.719329
30.296160053459246	2.8414965	1.6856738
30.314318101638033	2.8991587	1.7026916
30.332476929286646	2.941264	1.7150114
30.35063653696153	2.9422452	1.7152975
30.368796925219307	2.9334366	1.7127278
30.386958094616844	2.9073572	1.7050974
30.40512004571115	2.8798668	1.6970171
30.423282779059463	2.8777676	1.6963984
30.441446295219233	2.8939633	1.7011653
30.459610594748067	2.9502244	1.7176217
30.47777567820382	2.908458	1.7054201
30.495941546144504	2.860789	1.6913867
30.51410819912835	2.796653	1.6723197
30.532275637713795	2.7823977	1.6680521
30.55044386245946	2.7381897	1.6547476
30.56861287392416	2.7747579	1.6657604
30.586782672666956	2.8032906	1.674303
30.604953259247047	2.7821965	1.6679918
30.623124634223885	2.7611454	1.6616695
30.641296798157075	2.7288675	1.6519284
30.659469751606462	2.7261937	1.6511189
30.677643495132074	2.730359	1.6523799
30.695818029294152	2.7001286	1.6432068
30.713993354653116	2.6854224	1.6387259
30.73216947176962	2.7189047	1.6489102
30.75034638120448	2.7565067	1.6602731
30.768524083518756	2.7932208	1.6712931
30.786702579273673	2.8512125	1.6885533
30.80488186903069	2.8867497	1.6990438
30.82306195335144	2.9040082	1.704115
30.841242832797782	3.0500846	1.7464491
30.85942450793176	3.4105704	1.8467729
30.877606979315637	3.8128264	1.952646
30.895790247511883	4.174208	2.043088
30.913974313083134	4.588198	2.142008
30.932159176592283	4.8635044	2.2053354
30.95034483860237	4.8676996	2.2062864
30.968531299676698	4.774363	2.1850317
30.98671856037873	4.4033117	2.098407
31.00490662127215	3.970002	1.9924864
31.023095482920848	3.5130973	1.8743259
31.04128514588892	3.0659595	1.7509881
31.059475610740662	2.624503	1.6200317
31.07766687804056	2.407374	1.5515715
31.09585894835335	2.4002514	1.5492744
31.11405182224393	2.495793	1.5798079
31.132245500277417	2.5620205	1.6006312
31.15043998301914	2.5535555	1.5979848
31.168635271034628	2.5090392	1.5839946
31.18683136488964	2.5368302	1.5927429
31.20502826515008	2.48241	1.5755665
31.223225972382135	2.3905606	1.5461438
31.241424487152155	2.3943617	1.5473726
31.259623810026692	2.4383326	1.5615162
31.27782394157253	2.4478574	1.564563
31.296024882356644	2.4770625	1.5738686
31.314226632946237	2.473416	1.5727098
31.332429193908684	2.4428473	1.5629611
31.350632565811598	2.4396746	1.5619458
31.368836749222787	2.4751673	1.5732664
31.387041744710295	2.5140545	1.585577
31.40524755284232	2.6017742	1.6130016
31.423454174187317	2.5573776	1.5991803
31.441661609313922	2.545231	1.595378
31.459869858791002	2.5458364	1.5955677
31.478078923187628	2.5382679	1.5931942
31.496288803073064	2.4091449	1.552142
31.514499499016807	2.332642	1.5272989
31.532711011588546	2.256666	1.5022204
31.550923341358178	2.1939008	1.4811822
31.56913648889584	2.238522	1.4961691
31.587350454771844	2.2743065	1.5080804
31.605565239556732	2.339197	1.5294434
31.62378084382127	2.349637	1.5328525
31.641997268136382	2.2634547	1.5044782
31.660214513073274	2.197569	1.48242
31.67843257920331	2.311657	1.5204134
31.6966514670981	2.3975883	1.5484147
31.71487117732944	2.3903253	1.5460677
31.733091710469346	2.3166258	1.5220466
31.751313067090052	2.3332193	1.5274879
31.769535247764008	2.3327527	1.5273352
31.787758253063878	2.3828344	1.5436432
31.805982083562526	2.3398862	1.5296687
31.824206739833024	2.3392367	1.5294564
31.84243222244869	2.3363323	1.5285065
31.860658531983013	2.3170013	1.52217
31.878885669009737	2.264403	1.5047934
31.897113634102784	2.2152152	1.4883599
31.91534242783632	2.1684024	1.4725497
31.933572050784694	2.2268276	1.4922559
31.951802503522508	2.2629938	1.504325
31.970033786624548	2.2331624	1.4943769
31.988265900665834	2.1904473	1.480016
32.006498846221575	2.1773522	1.4755853
32.02473262386724	2.106797	1.451481
32.04296723417845	2.1472266	1.4653418
32.0612026777311	2.1593823	1.4694837
32.07943895510129	2.253475	1.5011579
32.097676066865304	2.2599401	1.5033097
32.115914013599685	2.2893739	1.5130677
32.13415279588115	2.299802	1.5165098
32.152392414286666	2.22634	1.4920925
32.1706328693934	2.1166277	1.4548634
32.18887416177875	2.105587	1.4510641
32.20711629202032	2.0687046	1.4382992
32.225359260695924	2.034624	1.4264024
32.243603068383614	2.033108	1.425871
32.26184771566166	2.0171714	1.4202716
32.28009320310852	2.1231196	1.4570929
32.2983395313029	2.108608	1.4521047
32.31658670082372	2.1134493	1.4537708
32.33483471225012	2.1071186	1.4515917
32.35308356616143	2.0700884	1.4387802
32.371333263137245	2.0516949	1.4323739
32.38958380375734	2.0685532	1.4382466
32.407835188601744	2.0535703	1.4330283
32.42608741825067	2.0354962	1.4267082
32.444340493284585	2.064773	1.4369318
32.46259441428416	2.0546618	1.4334091
32.48084918183028	2.0952177	1.4474866
32.49910479650405	2.1403139	1.4629811
32.51736125888683	2.0666592	1.437588
32.53561856956014	1.9769565	1.4060428
32.5538767291058	2.0438528	1.4296339
32.572135738105764	2.0737183	1.4400411
32.59039559714228	1.9351227	1.3910869
32.608656306797776	1.9525862	1.3973497
32.62691786765491	2.0491495	1.431485
32.645180280296586	1.987816	1.4098992
32.663443545305896	1.9162505	1.384287
32.68170766326619	1.9164511	1.3843595
32.69997263476099	1.9885144	1.410147
32.7182384603741	2.0213895	1.4217558
32.7365051406895	2.0518174	1.4324167
32.75477267629144	2.0430782	1.4293629
32.77304106776434	2.0617225	1.4358699
32.79131031569289	2.0278883	1.4240395
32.809580420661966	1.9929106	1.4117049
32.827851383256714	2.0157368	1.4197664
32.84612320406245	2.0603828	1.4354033
32.86439588366476	2.0856967	1.4441941
32.88266942264945	2.1079714	1.4518855
32.9009438216025	2.10035	1.4492584
32.9192190811102	2.0317261	1.4253863
32.937495201758985	2.0181706	1.4206233
32.95577218413556	1.9999546	1.4141974
32.974050028826866	1.9755809	1.4055536
32.992328736420035	1.951714	1.3970376
33.010608307502444	2.0075889	1.4168941
33.02888874266169	2.0353198	1.4266464
33.047170042485604	2.0171297	1.4202569
33.06545220756225	2.021574	1.4218206
33.083735238479896	2.0142326	1.4192367
33.10201913582707	1.9200944	1.3856747
33.12030390019248	1.8988715	1.3779955
33.138589532165135	1.9090538	1.3816851
33.15687603233419	1.9099336	1.3820034
33.17516340128909	1.8857396	1.3732224
33.19345163961947	1.8711228	1.3678899
33.211740747915215	1.8549008	1.3619474
33.23003072676643	1.8944254	1.3763813
33.248321576763466	1.9331737	1.3903861
33.266613298496885	1.9173112	1.38467
33.28490589255747	1.8744645	1.3691108
33.30319935953626	2.0155346	1.4196953
33.32149370002451	2.1009676	1.4494715
33.339788914613706	2.1002817	1.4492348
33.358085003895575	2.0728967	1.4397558
33.376381968462034	2.0366082	1.4270978
33.39467980890529	2.0119298	1.4184251
33.41297852581774	2.0762968	1.4409361
33.43127811979204	2.0541363	1.4332259
33.44957859142105	1.9145485	1.3836721
33.467879941297866	1.8702527	1.3675718
33.486182170015844	1.8444194	1.358094
33.50448527816853	1.7912267	1.3383672
33.522789266349754	1.8713461	1.3679715
33.541094135153514	1.9650035	1.4017859
33.55939988517411	1.904377	1.3799917
33.57770651700602	1.80777	1.3445333
33.59601403124398	1.9165866	1.3844084
33.61432242848296	2.0163949	1.4199982
33.632631709318154	1.9767014	1.4059521
33.650941874344994	1.9139093	1.3834411
33.66925292415916	1.9231303	1.3867698
33.68756485935654	1.8345121	1.3544416
33.70587768053328	1.9081411	1.3813548
33.724191388285746	1.9830128	1.4081949
33.74250598321054	2.0844357	1.4437575
33.760821465904506	2.0369341	1.427212
33.77913783696474	1.9051661	1.3802775
33.79745509698852	1.8401616	1.3565255
33.815773246573414	1.941771	1.3934745
33.8340922863172	1.9487822	1.3959879
33.852412216817896	1.9092234	1.3817465
33.87073303867377	1.9438986	1.3942376
33.889054752483304	1.9388183	1.3924146
33.907377358845245	1.8767585	1.3699484
33.92570085835853	1.9450005	1.3946328
33.94402525162239	1.9304292	1.3893988
33.96235053923627	1.8171078	1.3480014
33.980676721799824	1.7345583	1.3170264
33.999003799912984	1.8013641	1.342149
34.01733177417592	1.912829	1.3830507
34.03566064518901	1.8952245	1.3766716
34.0539904135529	1.8870234	1.3736898
34.07232107986846	1.8786931	1.3706542
34.090652644736785	1.8461912	1.3587462
34.108985108759235	1.8144169	1.347003
34.12731847253742	1.9269065	1.3881305
34.14565273667313	1.9737192	1.4048911
34.16398790176847	1.9961625	1.4128562
34.18232396842574	2.0351012	1.4265697
34.20066093724749	2.0843089	1.4437135
34.21899880883651	2.0686755	1.438289
34.23733758379583	2.0629144	1.4362849
34.25567726272874	2.0033379	1.4153932
34.27401784623872	1.9706129	1.4037852
34.29235933492957	1.8856311	1.3731828
34.31070172940526	1.8494564	1.3599472
34.32904503027003	1.8960052	1.376955
34.347389238128386	1.8063915	1.3440206
34.36573435358502	1.9411881	1.3932652
34.38408037724492	2.0940816	1.4470942
34.402427309713296	2.1104805	1.4527493
34.42077515159559	2.0846775	1.4438412
34.43912390349752	2.0567393	1.4341336
34.45747356602499	2.0150394	1.4195209
34.47582413978423	2.063066	1.4363377
34.49417562538163	2.141986	1.4635525
34.51252802342388	2.1058562	1.4511569
34.53088133451789	2.0848534	1.4439021
34.54923555927084	2.1630826	1.4707422
34.567590698290104	2.0840285	1.4436165
34.58594675218336	1.9972101	1.4132268
34.6043037215585	2.0512068	1.4322035
34.62266160702365	2.0586836	1.4348114
34.641020409187234	1.9981922	1.4135742
34.65938012865785	2.0258803	1.4233342
34.677740766044394	2.1757123	1.4750296
34.69610232195598	2.1878166	1.4791269
34.714464797002016	2.1004152	1.449281
34.73282819179208	2.059756	1.4351851
34.751192506936064	2.039278	1.4280329
34.76955774304408	1.9501038	1.3964611
34.7879239007265	1.8672994	1.3664917
34.80629098059391	2.0144722	1.4193211
34.824658983257194	2.0992718	1.4488864
34.843027909327446	1.9463345	1.395111
34.86139775941603	2.0334969	1.4260073
34.879768534134534	2.048222	1.431161
34.89814023409483	1.9085805	1.3815138
34.91651285990901	2.174292	1.4745481
34.93488641218944	2.327212	1.5255203
34.95326089154871	1.9135976	1.3833284
34.97163629859967	1.7097201	1.3075627
34.99001263395542	1.8728768	1.3685309
35.00838989822934	2.0068643	1.4166384
35.02676809203499	2.1107652	1.4528472
35.04514721598624	2.1567433	1.4685855
35.063527270697215	2.1763537	1.475247
35.081908256782256	2.0496778	1.4316696
35.10029017485597	1.8841351	1.372638
35.11867302553321	2.0410144	1.4286407
35.137056809429104	2.238231	1.4960718
35.155441527159006	2.1882365	1.4792689
35.173827179338524	2.0103598	1.4178716
35.19221376658354	1.8150116	1.3472236
35.21060128951017	1.6984627	1.3032508
35.2289897487348	1.6808337	1.2964697
35.24737914487405	1.9098799	1.381984
35.26576947854479	2.3476238	1.5321958
35.28416075036418	2.2420518	1.4973483
35.30255296094958	1.7928903	1.3389885
35.32094611091867	1.8535693	1.3614585
35.33934020088932	2.0446832	1.4299242
35.35773523147969	2.1777198	1.4757099
35.3761312033082	2.5394733	1.5935725
35.394528116993506	2.3340352	1.5277549
35.41292597315452	2.3292775	1.5261971
35.431324772410434	2.2701201	1.5066918
35.449724515380666	1.9437656	1.39419
35.46812520268491	1.9461974	1.3950617
35.486526834943106	2.2127647	1.4875364
35.504929412775454	2.2697232	1.5065601
35.52333293680242	1.9520956	1.3971741
35.54173740764471	1.4245292	1.1935364
35.560142825923286	1.7512126	1.3233339
35.5785491922594	1.9381112	1.3921607
35.59695650727454	1.4160651	1.1899853
35.61536477159042	0.6898081	0.83054686
