0.008763373481513119	0.0	0.0
0.026290120649546365	0.0	0.0
0.043816868432600686	0.0	0.0
0.06134361724069026	0.052548494	0.22923458
0.07887036748382949	0.123031095	0.3507579
0.0963971195720331	0.2677871	0.5174815
0.11392387391531617	0.25887734	0.5087999
0.1314506309236943	0.20854507	0.45666736
0.1489773910071836	0.21026233	0.45854372
0.16650415457580078	0.20797588	0.45604372
0.18403092203956356	0.21838067	0.4673122
0.20155769380849	0.21239235	0.46086043
0.2190844702925996	0.2175556	0.46642855
0.2366112519019124	0.21204992	0.46048877
0.2541380390464497	0.22665073	0.47607848
0.27166483213623416	0.196346	0.44310945
0.28919163158128947	0.1766133	0.42025384
0.3067184377916406	0.13401714	0.3660835
0.324245251177314	0.093191676	0.30527312
0.34177207214833777	0.0761208	0.27589998
0.3592989011147415	0.122694224	0.35027736
0.37682573848655654	0.13741256	0.370692
0.39435258467381573	0.15449163	0.39305425
0.41187944008655414	0.16415264	0.40515754
0.42940630513480854	0.1768465	0.4205312
0.446933180228618	0.17286918	0.4157754
0.4644600657780234	0.13438755	0.36658907
0.48198696219306775	0.11127596	0.33358052
0.49951386988379676	0.115005344	0.33912438
0.5170407892602581	0.117087364	0.3421803
0.5345677207325025	0.12917793	0.3594133
0.5520946647105822	0.13055249	0.36132047
0.5696216216045534	0.120105915	0.346563
0.5871485918244737	0.11909953	0.345108
0.6046755757804043	0.12071832	0.34744543
0.6222025738824094	0.109997004	0.33165798
0.6397295865405557	0.11713601	0.3422514
0.6572566141649129	0.14417449	0.37970316
0.6747836571655547	0.171067	0.41360247
0.6923107159525568	0.182968	0.4277476
0.7098377909359992	0.21186653	0.46028963
0.7273648825259653	0.222631	0.4718379
0.7448919911325411	0.2348569	0.48462036
0.762419117165817	0.2612731	0.5111488
0.7799462610358868	0.22704923	0.47649685
0.7974734231528482	0.19204201	0.43822598
0.8150006039268024	0.15091804	0.3884817
0.8325278037678551	0.1479423	0.38463268
0.8500550230861152	0.15456042	0.39314172
0.8675822622916969	0.18794979	0.43353176
0.8851095217947171	0.22716382	0.47661707
0.9026368020052984	0.22945118	0.4790106
0.9201641033335665	0.2378412	0.48768967
0.9376914261896523	0.19618608	0.44292897
0.9552187709836915	0.17921887	0.4233425
0.9727461381258234	0.19695237	0.44379318
0.990273528026193	0.22240199	0.47159517
1.0078009410949496	0.27410108	0.52354664
1.0253283777422473	0.31102368	0.557695
1.0428558383782454	0.30841762	0.5553536
1.0603833234131086	0.29668573	0.54468864
1.0779108332570058	0.3453719	0.5876835
1.0954383683201119	0.36386836	0.60321504
1.112965929012607	0.37928587	0.6158619
1.1304935157446763	0.4129874	0.64264095
1.1480211289265108	0.44655925	0.6682509
1.1655487689683062	1.2926564	1.1369505
1.1830764362802655	1.6250087	1.2747583
1.200604131272596	2.073601	1.4400003
1.2181318543555117	2.4635503	1.5695701
1.235659605939232	2.4678586	1.5709419
1.253187386433982	4.0367465	2.0091655
1.270715196249994	6.3911514	2.5280726
1.2882430357975057	11.6552305	3.4139757
1.3057709054867608	16.000887	4.0001106
1.3232988057280106	21.72628	4.6611457
1.3408267369315112	26.522432	5.1499934
1.358354699507526	30.30946	5.5054026
1.3758826938663256	34.253345	5.852636
1.3934107204181858	36.274017	6.0227914
1.410938779573391	36.90241	6.074735
1.4284668717422309	37.645233	6.135571
1.4459949973350033	37.173237	6.096986
1.4635231567620117	37.27503	6.105328
1.4810513504335687	36.405518	6.0336986
1.4985795787599925	35.54949	5.9623394
1.5161078421516088	35.055584	5.9207754
1.5336361410187505	34.009563	5.831772
1.5511644757717598	34.30484	5.8570333
1.5686928468209842	35.210472	5.933841
1.58622125457678	36.086197	6.007179
1.6037496994495108	36.871338	6.0721774
1.621278181849548	36.161343	6.01343
1.6388067021872719	36.997913	6.082591
1.6563352608730693	36.835007	6.069185
1.673863858317336	36.482147	6.0400453
1.6913924949304753	35.75014	5.979142
1.7089211711228998	34.398964	5.865063
1.7264498873050296	33.507286	5.788548
1.7439786438872935	32.397972	5.6919217
1.7615074412801288	31.795662	5.6387644
1.779036279893981	31.215487	5.587082
1.796565160139305	30.51018	5.523602
1.814094082426564	29.869984	5.465344
1.8316230471662298	28.695395	5.356808
1.849152054768784	27.7886	5.2714896
1.8666811056447168	27.176706	5.213128
1.8842102002045273	26.51732	5.149497
1.901739338858724	25.807146	5.0800734
1.9192685220178245	25.11494	5.011481
1.9367977500923557	24.599312	4.9597692
1.9543270234928547	24.483356	4.9480658
1.971856342629867	23.760805	4.8745055
1.9893857079139496	22.898846	4.785274
2.006915119755667	22.023552	4.692926
2.0244445785655945	21.641607	4.6520543
2.0419740847543175	21.542519	4.6413918
2.0595036387324317	21.42116	4.6282997
2.0770332409105414	20.948221	4.576923
2.094562891699263	20.540623	4.5321765
2.1120925915092217	19.761805	4.445425
2.129622340751053	19.391096	4.403532
2.1471521398354043	187.46422	13.691757
2.1646819891729323	443.82025	21.067041
2.182211889174303	439.98453	20.97581
2.1997418402501974	452.47806	21.271532
2.2172718428113023	432.35074	20.793045
2.234801897268317	320.39798	17.899664
2.2523320040319548	16.937716	4.1155457
2.269862163512935	16.672123	4.0831513
2.287392376121992	16.464243	4.0576153
2.304922642269869	16.322361	4.0400944
2.322452962367322	15.997379	3.9996724
2.3399833368251164	15.609419	3.9508758
2.357513766054032	15.206184	3.8995109
2.3750442504648586	14.592347	3.819993
2.3925747904683963	14.310916	3.782977
2.410105386475459	14.079834	3.7523105
2.4276360388968707	13.876829	3.7251616
2.445166748143469	13.750268	3.7081354
2.4626975146261025	13.589806	3.6864355
2.4802283387556323	13.505515	3.674985
2.4977592209429305	13.286796	3.6451056
2.5152901615988825	13.034592	3.6103451
2.5328211611343865	12.721413	3.566709
2.5503522199603523	12.50912	3.5368235
2.5678833384877024	12.369475	3.5170264
2.5854145171273712	12.118755	3.4812002
2.6029457562903064	11.946995	3.4564426
2.620477056387469	11.729894	3.4248931
2.6380084178298326	11.526197	3.3950255
2.655539841028383	11.347096	3.368545
2.673071326394119	11.24716	3.3536785
2.6906028743380523	10.941421	3.307782
2.708134485271211	10.792701	3.2852247
2.7256661596046325	10.504389	3.2410474
2.743197897749369	10.450613	3.2327409
2.760729700116486	10.281803	3.206525
2.778261567117063	10.221478	3.1971047
2.795793499162193	10.100251	3.1780891
2.8133254966629817	10.045596	3.169479
2.830857560030551	9.838246	3.1365979
2.8483896896760337	9.580978	3.0953155
2.865921886010578	9.344405	3.0568619
2.883454149445347	9.160775	3.0266774
2.9009864803915177	9.128866	3.0214014
2.91851887926028	8.922536	2.9870615
2.9360513464628384	8.8541765	2.975597
2.953583882410413	8.763977	2.9604015
2.9711164875142373	8.709783	2.951234
2.9886491621855606	8.61424	2.9350026
3.0061819068356455	8.436623	2.9045866
3.023714721875769	8.3455	2.8888578
3.041247607717225	8.204484	2.864347
3.0587805647713213	8.245487	2.8714957
3.0763135934493806	8.152151	2.8551972
3.0938466941627407	8.096397	2.845417
3.1113798673227544	7.938271	2.8174937
3.1289131133407904	7.6891713	2.7729354
3.1464464326282315	7.719731	2.7784405
3.1639798255964786	7.737174	2.7815776
3.1815132926569443	7.716254	2.7778146
3.1990468342210603	7.5757375	2.7524056
3.216580450700272	7.5354795	2.7450829
3.2341141425060416	7.400426	2.7203724
3.251647910049847	7.34482	2.7101328
3.2691817537431813	7.2163725	2.6863306
3.286715673997555	7.057676	2.6566286
3.3042496712244938	7.0379915	2.6529212
3.32178374583554	7.0439725	2.6540482
3.339317898242251	7.0705132	2.6590438
3.3568521288562034	7.047118	2.654641
3.3743864380889876	6.9161205	2.6298518
3.3919208263522127	6.758112	2.5996368
3.4094552940575023	6.62113	2.5731556
3.4269898416164972	6.520484	2.5535238
3.444524469440858	6.4763117	2.54486
3.4620591779422587	6.496769	2.548876
3.479593967532391	6.589317	2.5669665
3.4971288386229658	6.550757	2.5594447
3.5146637916257086	6.4512877	2.5399384
3.5321988269523628	6.385647	2.5269837
3.5497339450146903	6.3470945	2.519344
3.5672691462244708	6.328395	2.51563
3.5848044309934988	6.3136888	2.5127056
3.60233979973359	6.3191876	2.5137994
3.619875252856575	6.336463	2.5172331
3.6374107907743034	6.2965875	2.5093002
3.6549464138986427	6.264548	2.502908
3.6724821226414788	6.1971645	2.4894104
3.690017917414714	6.312509	2.5124707
3.7075537986302702	6.441522	2.5380154
3.7250897667000857	6.5195646	2.5533438
3.7426258220361235	6.537594	2.556872
3.7601619650503553	6.690471	2.5865946
3.777698196154779	7.2225175	2.6874743
3.7952345157614067	8.268327	2.87547
3.8127709242822716	9.066613	3.0110817
3.830307422129425	11.115325	3.3339653
3.847844009714936	12.390469	3.5200098
3.8653806874508954	15.516548	3.939105
3.882917455749409	15.176919	3.8957565
3.900454315022606	15.230359	3.9026093
3.917991265682631	12.425152	3.5249329
3.9355283081416506	10.608892	3.2571294
3.9530654428118495	8.568405	2.9271839
3.970602670105433	7.3673368	2.714284
3.9881399904346244	6.5268726	2.5547745
4.005677404211669	6.4265943	2.5350728
4.023214911848827	6.384002	2.5266583
4.0407525137583855	6.369322	2.5237515
4.058290210352644	6.3285503	2.515661
4.075828002043927	6.293592	2.5087032
4.0933658892445814	6.2406564	2.4981306
4.110903872366966	6.1704636	2.4840417
4.128441951823468	6.108377	2.471513
4.145980128026488	6.1216235	2.4741914
4.163518401388452	6.047371	2.4591403
4.181056772321807	6.0475802	2.4591827
4.1985952412390155	6.0550284	2.4606967
4.216133808552567	6.166703	2.4832847
4.233672474674966	6.2333426	2.4966662
4.251211240018741	6.467643	2.5431561
4.268750104996445	6.6085176	2.5707037
4.286289070020643	7.5511856	2.747942
4.303828135503928	9.136228	3.0226192
4.3213673018589125	29.34171	5.4167986
4.3389065694982305	90.56546	9.516588
4.356445938834537	165.6831	12.871795
4.3739854102805085	171.33209	13.089389
4.391524984248844	172.20415	13.122658
4.409064661152262	136.45844	11.681542
4.426604441403504	96.86872	9.842191
4.444144325415337	75.7593	8.703981
4.461684313600543	21.475437	4.63416
4.47922440637193	21.702187	4.6585608
4.496764604142329	20.07796	4.4808435
4.5143049073245916	18.433859	4.293467
4.531845316331589	16.330622	4.041116
4.5493858315762195	13.502957	3.674637
4.566926453471405	11.083294	3.329158
4.584467182430081	9.117996	3.019602
4.602008018865218	7.9630823	2.8218935
4.619548963189798	7.3452225	2.710207
4.637090015816834	6.881028	2.6231713
4.654631177159353	6.618145	2.5725756
4.672172447630417	6.315164	2.512999
4.689713827643102	6.1092453	2.4716887
4.7072553176105085	5.950552	2.4393754
4.724796917945764	5.9057364	2.4301722
4.742338629062015	5.8429074	2.4172106
4.759880451372434	5.8006787	2.40846
4.777422385290215	5.6071606	2.3679445
4.794964431228581	5.556792	2.3572848
4.812506589600768	5.581328	2.3624835
4.830048860820047	5.50916	2.34716
4.847591245299709	5.5114093	2.347639
4.8651337434530655	5.507146	2.346731
4.882676355693457	5.494659	2.344069
4.900219082434242	5.4210196	2.3283083
4.917761924088813	5.353681	2.3138022
4.935304881070575	5.33037	2.3087595
4.952847953792969	5.347905	2.312554
4.970391142669449	5.4142103	2.3268456
4.9879344481135055	5.4303765	2.3303168
5.005477870538642	5.4772434	2.340351
5.023021410358394	5.446695	2.3338156
5.040565067986324	5.399605	2.323705
5.05810884383601	5.334167	2.3095815
5.075652738321066	5.237788	2.2886214
5.09319675185512	5.2622313	2.2939553
5.110740884851836	5.3027654	2.3027735
5.128285137724894	5.3261423	2.3078437
5.145829510888007	5.3304086	2.3087678
5.163374004754908	5.3300676	2.308694
5.1809186197393595	5.251419	2.2915976
5.198463356255145	5.261662	2.2938313
5.216008214716077	5.214321	2.2834888
5.233553195535998	5.186923	2.2774818
5.251098299128764	5.1445336	2.2681565
5.268643525908272	5.1843367	2.276914
5.286188876288432	5.252724	2.2918823
5.3037343506831895	5.2381043	2.2886906
5.32127994950651	5.200219	2.2803988
5.3388256731723915	5.1415553	2.2674997
5.356371522094851	5.0792837	2.2537267
5.373917496687938	5.1202703	2.2628014
5.391463597365729	5.1551175	2.2704885
5.40900982454232	5.2155547	2.2837589
5.426556178631843	5.2417192	2.2894802
5.444102660048449	5.196793	2.2796476
5.4616492692063225	5.146858	2.268669
5.479196006519669	5.056204	2.2486005
5.496742872402727	5.054587	2.248241
5.514289867269756	5.0968323	2.2576165
5.531836991535049	5.128874	2.2647016
5.549384245612924	5.077054	2.253232
5.566931629917724	5.043819	2.2458448
5.584479144863822	5.0008707	2.2362626
5.6020267908656205	5.0458007	2.246286
5.619574568337545	5.085319	2.2550652
5.637122477694054	5.1187873	2.2624738
5.654670519349629	5.0946765	2.257139
5.672218693718784	5.059288	2.2492862
5.689767001216059	5.029253	2.2425997
5.707315442256021	5.0527635	2.2478354
5.724864017253266	5.0576205	2.2489154
5.7424127266224225	5.100631	2.2584577
5.75996157077814	5.1268377	2.2642522
5.777510550135105	5.172361	2.2742825
5.795059665108022	5.1497293	2.2693014
5.812608916111639	5.1900744	2.2781734
5.830158303560715	5.2665377	2.2948937
5.847707827870055	5.222025	2.285175
5.86525748945448	5.245354	2.290274
5.8828072887288485	5.397326	2.3232145
5.900357226108044	5.4709735	2.3390112
5.917907302006979	5.5292134	2.351428
5.9354575168406	6.0354037	2.4567058
5.9530078710238765	6.611738	2.57133
5.970558364971812	7.218251	2.6866803
5.988108999099438	7.534372	2.744881
6.005659773821818	7.948071	2.8192322
6.023210689554039	7.6531157	2.7664266
6.040761746711227	8.025179	2.8328748
6.058312945708531	7.4415903	2.727928
6.075864286961132	7.0902057	2.662744
6.093415770884244	6.5833597	2.565806
6.1109673978931065	6.1586614	2.4816651
6.128519168402993	5.618323	2.3703
6.146071082829204	5.423895	2.3289256
6.163623141587075	5.2500877	2.291307
6.181175345091969	5.1259646	2.2640593
6.198727693759281	5.0955353	2.2573292
6.216280188004435	5.080309	2.2539542
6.233832828242885	5.117765	2.2622478
6.251385614890126	5.098932	2.2580814
6.268938548361669	5.1022024	2.2588055
6.286491629073067	5.0396304	2.2449121
6.304044857439898	5.007157	2.2376678
6.321598233877777	4.980979	2.2318108
6.339151758802344	4.9999733	2.236062
6.356705432629277	5.045884	2.2463045
6.37425925577428	4.9698687	2.2293203
6.391813228653095	4.939878	2.2225835
6.409367351681486	4.8578753	2.204059
6.426921625275259	4.825752	2.1967595
6.44447604985025	4.8489594	2.2020352
6.46203062582232	4.837279	2.1993814
6.47958535360737	4.9202085	2.2181542
6.497140233621328	4.976066	2.2307098
6.514695266280161	5.028101	2.2423427
6.532250451999859	4.9989614	2.2358358
6.549805791196454	4.9346023	2.2213964
6.567361284286002	4.902611	2.214184
6.584916931684597	4.853477	2.2030609
6.602472733808367	4.8436494	2.2008293
6.6200286910734665	4.8583136	2.2041583
6.637584803896092	4.892622	2.2119272
6.655141072692462	4.8649964	2.2056737
6.672697497878842	4.860102	2.2045639
6.690254079871514	4.8855705	2.2103326
6.707810819086808	4.8725142	2.2073772
6.725367715941078	4.938492	2.2222717
6.742924770850719	4.9809732	2.2318094
6.760481984232151	5.037563	2.2444515
6.778039356501836	5.036241	2.244157
6.795596888076266	5.0437317	2.2458253
6.813154579371963	5.0457845	2.2462823
6.830712430805492	5.0008945	2.236268
6.84827044279344	4.9572105	2.2264793
6.865828615752445	4.837087	2.199338
6.883386950099159	4.880423	2.209168
6.900945446250287	4.902472	2.2141526
6.918504104622553	4.946675	2.224112
6.936062925632727	4.914422	2.2168496
6.953621909697607	4.8560696	2.203649
6.971181057234028	4.967363	2.228758
6.988740368658859	5.0364547	2.2442048
7.006299844389007	5.0794673	2.2537673
7.023859484841407	5.132247	2.2654464
7.041419290433036	5.1269355	2.2642736
7.058979261580902	5.2726684	2.2962291
7.0765393987020495	5.4606805	2.3368099
7.094099702213559	5.920178	2.4331415
7.111660172532549	6.2796407	2.5059211
7.129220810076164	6.6540027	2.5795352
7.146781615261595	7.3270936	2.7068605
7.16434258850606	7.557221	2.74904
7.181903730226821	8.040929	2.835653
7.1994650408411704	8.126085	2.8506289
7.217026520766437	8.202172	2.8639436
7.234588170419983	8.461887	2.9089324
7.252149990219215	8.373947	2.8937774
7.269711980581568	8.21892	2.8668659
7.2872741419245175	8.058816	2.8388054
7.304836474665574	7.684436	2.7720816
7.322398979222286	7.4328957	2.7263339
7.339961656012233	7.140563	2.6721833
7.357524505453039	6.769051	2.6017401
7.375087527962357	6.4543366	2.5405385
7.392650723957886	6.154545	2.4808354
7.410214093857353	5.8665624	2.4220986
7.427777638078528	5.66931	2.3810313
7.445341357039213	5.4474807	2.333984
7.4629052511572525	5.249617	2.2912042
7.480469320850524	5.198206	2.2799575
7.498033566536948	5.197482	2.2797987
7.5155979886344735	5.17524	2.2749155
7.5331625875610975	5.110497	2.2606409
7.550727363734844	5.104797	2.2593799
7.568292317573788	5.079959	2.2538764
7.585857449496025	5.133142	2.2656438
7.603422759919705	5.150959	2.2695725
7.620988249263007	5.1387644	2.2668843
7.638553917944147	5.077587	2.2533503
7.656119766381391	4.9887395	2.2335486
7.673685794993023	4.9757223	2.2306328
7.691252004197388	5.0100975	2.2383246
7.70881839441285	5.091507	2.2564368
7.726384966057826	5.1958323	2.2794368
7.743951719550762	5.241897	2.289519
7.761518655310149	5.273183	2.2963412
7.779085773754511	5.2378325	2.2886312
7.796653075302419	5.2300444	2.2869291
7.814220560372475	5.200081	2.2803686
7.831788229383323	5.1859527	2.2772686
7.8493560827536495	5.1721582	2.2742379
7.866924120902174	5.228986	2.2866976
7.884492344247663	5.2030406	2.2810175
7.9020607532089135	5.2796903	2.2977576
7.919629348204771	5.284017	2.298699
7.937198129654115	5.317372	2.3059428
7.954767097975865	5.2828975	2.2984555
7.972336253588986	5.2562957	2.2926612
7.989905596912472	5.2799144	2.2978065
8.007475128365371	5.2574754	2.2929184
8.025044848366756	5.2721515	2.2961166
8.042614757335754	5.4464116	2.3337548
8.060184855691523	5.5715747	2.3604183
8.07775514385327	5.761593	2.4003317
8.095325622240228	5.783736	2.40494
8.112896291271687	5.7811494	2.404402
8.130467151366968	5.7908306	2.4064145
8.148038202945436	5.828996	2.4143314
8.165609446426497	5.8878665	2.4264927
8.183180882229594	6.0481067	2.4592898
8.200752510774217	6.041787	2.4580047
8.218324332479893	5.998444	2.449172
8.235896347766193	5.9809847	2.4456053
8.253468557052724	5.9946723	2.448402
8.27104096075914	5.9701734	2.4433937
8.288613559305137	6.020383	2.453647
8.306186353110448	6.1115394	2.4721527
8.32375934259485	6.2167377	2.4933386
8.341332528178162	6.1686664	2.48368
8.358905910280246	6.1351585	2.4769251
8.376479489321003	6.0887613	2.4675415
8.394053265720377	6.1377254	2.4774432
8.411627239898356	6.125373	2.4749491
8.42920141227497	6.1462064	2.4791543
8.44677578327029	6.110247	2.4718914
8.464350353304427	6.0937634	2.468555
8.48192512279754	6.081919	2.4661548
8.499500092169827	6.0498543	2.4596453
8.51707526184153	5.9752374	2.4444299
8.534650632232934	5.9615636	2.4416313
8.552226203764365	5.987191	2.4468737
8.569801976856192	6.049279	2.4595282
8.587377951928834	6.0804343	2.4658537
8.60495412940274	6.057756	2.4612508
8.622530509698416	6.1167364	2.4732037
8.6401070932364	6.268811	2.5037594
8.657683880437283	6.3975673	2.5293412
8.675260871721695	6.544316	2.558186
8.692838067510303	6.7288804	2.5940084
8.710415468223834	6.936208	2.6336682
8.727993074283043	7.106082	2.6657236
8.745570886108737	7.052814	2.6557136
8.763148904121765	7.10094	2.664759
8.78072712874302	7.050336	2.655247
8.798305560393441	7.288653	2.6997504
8.815884199494006	7.4231486	2.7245455
8.833463046465745	7.669938	2.7694652
8.851042101729728	7.8127537	2.7951303
8.86862136570707	8.156107	2.8558898
8.886200838818924	8.272526	2.8762
8.903780521486505	8.290399	2.8793051
8.921360414131055	8.344278	2.8886464
8.938940517173874	8.4529295	2.9073923
8.956520831036297	8.622397	2.9363918
8.97410135613971	8.913669	2.9855769
8.99168209290554	9.068446	3.0113862
9.009263041755265	9.402025	3.0662723
9.026844203110405	9.618087	3.101304
9.044425577392525	9.747383	3.1220798
9.062007165023239	9.792048	3.129225
9.079588966424197	10.025588	3.1663208
9.097170982017108	10.146936	3.1854255
9.11475321222372	11.057279	3.3252487
9.132335657465825	11.851756	3.442638
9.149918318165264	11.918256	3.4522827
9.167501194743924	12.481514	3.5329187
9.18508428762374	12.297882	3.5068336
9.202667597226693	12.355033	3.5149727
9.220251123974803	12.010262	3.4655824
9.237834868290143	11.680387	3.417658
9.255418830594836	11.438483	3.3820827
9.273003011311046	10.970021	3.3121023
9.290587410860985	10.740074	3.2772052
9.308172029666911	9.994354	3.1613848
9.32575686815113	9.724937	3.1184833
9.343341926735997	8.565198	2.926636
9.360927205843916	8.39533	2.8974698
9.378512705897327	8.348167	2.8893197
9.396098427318728	8.179379	2.8599615
9.413684370530664	7.980288	2.8249404
9.431270535955722	7.7825513	2.7897224
9.448856924016539	7.669656	2.7694144
9.466443535135806	7.552	2.7480903
9.484030369736251	7.5526066	2.7482007
9.501617428240658	7.590007	2.7549968
9.519204711071852	7.6505337	2.7659597
9.536792218652714	7.6877475	2.7726789
9.55437995140617	7.7057805	2.7759287
9.571967909755191	7.7293386	2.7801688
9.589556094122802	7.744274	2.7828536
9.60714450493207	7.7812567	2.7894905
9.624733142606116	7.765774	2.7867138
9.642322007568108	7.8682733	2.8050442
9.659911100241267	7.92689	2.8154733
9.677500421048851	7.9452643	2.8187346
9.695089970414175	7.9450717	2.8187003
9.712679748760609	7.9972644	2.8279436
9.730269756511557	8.048935	2.8370645
9.747859994090492	8.084563	2.8433366
9.765450461920915	8.124627	2.8503733
9.78304116042639	8.14003	2.8530738
9.800632090030527	8.172732	2.8587992
9.81822325115699	8.150982	2.8549924
9.835814644229481	8.109564	2.8477297
9.853406269671762	8.148136	2.854494
9.870998127907646	8.223013	2.8675797
9.888590219360985	8.222456	2.8674824
9.906182544455698	8.225993	2.8680992
9.923775103615734	8.189097	2.86166
9.941367897265108	8.239129	2.8703883
9.958960925827878	8.283108	2.878039
9.97655418972816	8.272158	2.8761358
9.994147689390106	8.231554	2.8690684
10.011741425237934	8.263677	2.8746612
10.029335397695904	8.212868	2.8658102
10.04692960718833	8.167747	2.857927
10.06452405413958	8.094174	2.8450263
10.082118738974064	8.068191	2.840456
10.099713662116246	8.105119	2.846949
10.117308823990651	8.11299	2.8483312
10.134904225021844	8.187522	2.8613846
10.152499865634445	8.174376	2.8590865
10.170095746253125	8.107528	2.847372
10.18769186730261	8.056124	2.8383312
10.205288229207675	8.01964	2.8318968
10.222884832393145	8.097716	2.8456488
10.2404816772839	8.100893	2.8462067
10.258078764304868	8.076501	2.8419185
10.275676093881035	8.017361	2.8314943
10.293273666437438	7.954	2.8202837
10.310871482399158	8.015436	2.8311546
10.32846954219134	7.974095	2.823844
10.346067846239173	7.9479175	2.819205
10.363666394967908	7.9443455	2.8185716
10.38126518880283	8.012275	2.8305962
10.398864228169298	8.125262	2.8504846
10.416463513492713	8.184511	2.8608584
10.434063045198531	8.183912	2.8607538
10.451662823712262	8.099445	2.8459525
10.469262849459467	8.121628	2.849847
10.486863122865758	8.039297	2.8353655
10.504463644356806	8.03367	2.834373
10.522064414358338	7.9227457	2.8147373
10.539665433296118	7.816668	2.7958305
10.557266701595987	7.835211	2.7991447
10.574868219683818	7.7945676	2.7918754
10.592469987985552	7.7199636	2.7784822
10.610072006927185	7.6585627	2.7674108
10.627674276934751	7.5311465	2.7442935
10.64527679843435	7.4100823	2.7221467
10.662879571852143	7.2230954	2.6875818
10.680482597614331	7.0673237	2.658444
10.698085876147173	6.9260664	2.631742
10.715689407876988	6.8538084	2.6179779
10.733293193230146	6.8059835	2.608828
10.750897232633072	6.7123427	2.590819
10.76850152651225	6.6297174	2.5748239
10.786106075294207	6.557546	2.5607705
10.803710879405534	6.459363	2.5415277
10.821315939272877	6.3897543	2.5277963
10.83892125532294	6.2307625	2.4961495
10.856526827982472	6.209212	2.491829
10.874132657678285	6.2700024	2.5039973
10.891738744837243	6.298422	2.5096657
10.909345089886271	6.2085137	2.491689
10.926951693252343	6.028011	2.4552007
10.944558555362494	5.940123	2.4372368
10.96216567664381	5.911267	2.4313097
10.979773057523436	5.8911834	2.427176
10.997380698428573	5.7876277	2.4057488
11.014988599786477	5.7071905	2.3889728
11.032596762024461	5.6292634	2.372607
11.050205185569892	5.603016	2.367069
11.067813870850198	5.5946884	2.3653095
11.085422818292859	5.590951	2.3645191
11.10303202832541	5.439681	2.3323123
11.120641501375454	5.3280997	2.3082676
11.138251237870636	5.2401595	2.2891395
11.155861238238671	5.247686	2.290783
11.173471502907317	5.2230635	2.2854023
11.191082032304402	5.181767	2.2763495
11.208692826857805	5.1340218	2.265838
11.226303886995465	5.019736	2.2404766
11.243915213145371	4.9707837	2.2295253
11.261526805735578	4.892098	2.2118087
11.279138665194196	4.8843403	2.2100544
11.296750791949393	4.794743	2.18969
11.314363186429393	4.701877	2.1683812
11.331975849062479	4.6616325	2.1590815
11.34958878027699	4.6328382	2.1524029
11.36720198050133	4.6056366	2.1460748
11.384815450163948	4.553549	2.1339047
11.402429189693366	4.4771004	2.115916
11.420043199518153	4.4137425	2.1008909
11.437657480066942	63.40058	7.962448
11.455272031768422	85.14838	9.227588
11.472886855051353	107.57486	10.37183
11.490501950344528	99.17183	9.958506
11.508117318076819	84.468956	9.1907
11.52573295867715	45.7571	6.7643995
11.543348872574514	4.0512667	2.012776
11.560965060197946	4.007728	2.0019312
11.57858152197655	4.0138664	2.0034635
11.59619825833949	4.0153356	2.0038302
11.613815269715985	3.9783964	1.9945918
11.631432556535323	38.458935	6.2015266
11.649050119226837	82.97124	9.108855
11.666667958219929	93.38847	9.663772
11.68428607394406	107.653694	10.375629
11.701904466828756	82.452126	9.080316
11.719523137303586	65.27146	8.079076
11.737142085798196	4.5219493	2.1264875
11.754761312742286	3.6547568	1.9117419
11.772380818565619	3.6330538	1.9060571
11.790000603698015	3.592498	1.8953886
11.80762066856935	3.5499518	1.8841316
11.825241013609572	3.527727	1.8782244
11.842861639248683	3.5493758	1.8839787
11.860482545916748	3.5515985	1.8845686
11.878103734043883	3.5545123	1.8853414
11.895725204060282	3.497694	1.8702123
11.91334695639619	3.4547317	1.8586909
11.930968991481919	3.35528	1.8317423
11.948591309747824	3.2754989	1.8098339
11.966213911624347	3.2610455	1.8058364
11.98383679754198	3.2563794	1.8045441
12.001459967931268	3.2870095	1.8130112
12.019083423222835	3.2331138	1.7980862
12.036707163847352	3.2085936	1.7912548
12.05433119023556	3.142493	1.7727078
12.071955502818259	3.1299846	1.7691762
12.089580102026313	3.1163592	1.7653213
12.107204988290643	3.130508	1.7693242
12.12483016204224	3.1307867	1.7694029
12.142455623712152	3.1136303	1.7645482
12.16008137373149	3.0789182	1.7546847
12.177707412531431	3.086213	1.7567621
12.19533374054321	3.051017	1.746716
12.212960358198126	3.045482	1.7451309
12.230587265927545	3.0026326	1.7328106
12.248214464162889	2.9781482	1.7257313
12.265841953335649	2.9612198	1.7208195
12.283469733877375	2.9629514	1.7213225
12.301097806219685	2.9808922	1.726526
12.31872617079425	2.9564092	1.7194211
12.336354828032825	2.891492	1.7004387
12.353983778367205	2.8269207	1.6813449
12.371613022229262	2.8425214	1.6859779
12.389242560050928	2.9001875	1.7029936
12.406872392264201	2.961215	1.7208182
12.424502519301143	2.916813	1.707868
12.442132941593874	2.8488984	1.687868
12.459763659574586	2.8174546	1.6785275
12.477394673675532	2.8285882	1.6818408
12.49502598432903	2.8294554	1.6820985
12.51265759196746	2.8052135	1.6748772
12.530289497023267	2.7976794	1.6726265
12.547921699928967	2.7846794	1.6687359
12.565554201117134	2.7301176	1.6523068
12.583187001020404	2.6907384	1.640347
12.600820100071486	2.684673	1.6384972
12.618453498703152	2.6849396	1.6385785
12.636087197348235	2.692338	1.6408346
12.65372119643964	2.7087555	1.6458297
12.671355496410326	2.7580523	1.6607385
12.68899009769333	2.796995	1.6724219
12.706625000721749	2.8179188	1.6786658
12.724260205928752	2.8889418	1.6996887
12.741895713747551	2.938322	1.7141534
12.759531524611454	3.0015914	1.7325102
12.777167638953818	2.9635983	1.7215104
12.794804057208072	2.9541025	1.7187502
12.812440779807702	2.9877377	1.7285074
12.830077807186271	3.159617	1.7775311
12.847715139777405	3.2258341	1.7960607
12.865352778014795	3.4269776	1.8512098
12.882990722332197	3.5035067	1.8717656
12.90062897316344	3.52994	1.8788134
12.918267530942412	3.5476744	1.8835272
12.935906396103071	3.440374	1.8548245
12.953545569079449	3.6242383	1.9037433
12.971185050305628	3.4718683	1.863295
12.988824840215775	3.5056438	1.8723365
13.006464939244115	3.4611285	1.8604108
13.024105347824943	3.3087037	1.8189843
13.041746066392617	3.3988066	1.8435853
13.05938709538157	3.2408998	1.8002499
13.077028435226296	3.2636678	1.8065624
13.094670086361363	3.1468482	1.7739358
13.112312049221401	3.103638	1.7617145
13.129954324241112	3.0464766	1.7454159
13.147596911855258	2.8864222	1.6989473
13.165239812498685	2.8585389	1.6907214
13.182883026606293	2.7694488	1.6641661
13.200526554613058	2.7029812	1.6440746
13.218170396954017	2.6723807	1.6347418
13.235814554064284	2.625879	1.6204565
13.253459026379034	2.6549664	1.6294067
13.271103814333523	2.6701155	1.6340488
13.288748918363058	2.710812	1.6464545
13.306394338903031	2.7048314	1.6446371
13.32404007638889	2.6850858	1.6386231
13.341686131256164	2.680445	1.6372064
13.359332503940449	2.629697	1.6216341
13.376979194877402	2.6522725	1.6285799
13.394626204502751	2.7006314	1.6433598
13.412273533252307	2.7406845	1.6555012
13.429921181561937	2.7146022	1.647605
13.447569149867581	2.7197511	1.6491668
13.465217438605247	2.732353	1.6529831
13.482866048211022	2.7243698	1.6505665
13.500514979121052	2.719424	1.6490676
13.518164231771568	2.659173	1.6306971
13.535813806598844	2.6468241	1.6269063
13.553463704039254	2.6309943	1.622034
13.571113924529229	2.6287794	1.6213511
13.588764468505275	2.6431448	1.6257751
13.606415336403956	2.6697192	1.6339276
13.624066528661917	2.7415817	1.6557722
13.641718045715882	2.8017716	1.6738493
13.659369888002635	2.8299427	1.6822433
13.67702205595903	2.8595233	1.6910125
13.694674550021993	2.9331076	1.7126318
13.712327370628532	2.99083	1.7294016
13.729980518215713	3.0535295	1.7474351
13.747633993220681	3.1211593	1.7666804
13.765287796080647	3.1799753	1.7832485
13.7829419272329	3.2593222	1.8053592
13.800596387114801	3.306606	1.8184075
13.818251176163775	3.3328943	1.8256216
13.835906294817324	3.3689651	1.8354741
13.853561743513023	3.3658695	1.8346306
13.871217522688525	3.3924193	1.8418522
13.888873632781538	3.4249268	1.8506558
13.906530074229858	3.475273	1.8642083
13.92418684747135	3.5076787	1.8728797
13.941843952943948	3.4818773	1.865979
13.959501391085665	3.473966	1.8638577
13.977159162334578	3.393265	1.8420817
13.994817267128846	3.3216197	1.8225311
14.012475705906693	3.2368631	1.7991284
14.030134479106424	3.1490953	1.774569
14.047793587166414	3.0788336	1.7546605
14.065453030525108	3.0213573	1.7382052
14.083112809621026	2.9975903	1.7313551
14.100772924892766	2.9421525	1.7152704
14.118433376778997	2.9066265	1.7048831
14.136094165718458	2.7987735	1.6729535
14.153755292149969	2.694962	1.641634
14.171416756512416	2.596719	1.6114339
14.189078559244768	2.577819	1.6055589
14.20674070078606	2.5750585	1.6046989
14.224403181575408	2.5454466	1.5954456
14.242066002051999	2.5057168	1.5829456
14.259729162655093	2.4601083	1.5684732
14.277392663824022	2.4182968	1.5550874
14.295056505998208	2.4128597	1.5533383
14.312720689617128	2.4025972	1.5500313
14.330385215120348	2.3773992	1.5418817
14.348050082947497	2.3831587	1.5437483
14.3657152935383	2.3643992	1.5376602
14.383380847332528	2.3627086	1.5371104
14.401046744770051	2.3570228	1.5352598
14.418712986290798	2.3668888	1.5384697
14.436379572334793	2.3826394	1.54358
14.454046503342123	2.374655	1.5409915
14.471713779752946	2.385318	1.5444475
14.489381402007504	2.4001799	1.5492514
14.507049370546113	2.4233193	1.5567014
14.524717685809168	2.4164762	1.5545019
14.542386348237134	2.399793	1.5491265
14.560055358270553	2.395437	1.54772
14.577724716350051	2.451243	1.5656446
14.595394422916325	2.4728415	1.572527
14.61306447841015	2.4899662	1.5779626
14.63073488327237	2.4566004	1.5673546
14.648405637943917	2.4670317	1.5706787
14.6660767428658	2.43221	1.5595545
14.683748198479094	2.4363074	1.5608675
14.701420005224954	2.483877	1.576032
14.719092163544628	2.5989218	1.6121172
14.73676467387942	2.680264	1.6371512
14.754437536670727	2.7066622	1.6451937
14.772110752360014	2.703554	1.6442487
14.78978432138882	2.6839528	1.6382774
14.807458244198777	2.67742	1.6362823
14.82513252123159	2.6599743	1.6309428
14.842807152929028	2.6879435	1.6394949
14.860482139732962	2.6491928	1.6276342
14.87815748208531	2.623474	1.6197141
14.8958331804281	2.6450717	1.6263677
14.91350923520342	2.6545587	1.6292816
14.931185646853438	2.6691298	1.6337472
14.948862415820408	2.640098	1.6248379
14.966539542546656	2.6597831	1.6308842
14.98421702747459	2.673056	1.6349483
15.001894871046696	2.6708956	1.6342875
15.019573073705542	2.657959	1.6303248
15.037251635893766	2.6526182	1.6286861
15.054930558054092	2.6700592	1.6340315
15.072609840629323	2.6910982	1.6404567
15.090289484062351	2.7605715	1.6614968
15.107969488796124	2.9168015	1.7078646
15.125649855273691	3.1152391	1.765004
15.14333058393817	3.4669917	1.8619859
15.161011675232768	4.0765743	2.0190527
15.17869312960076	4.7492	2.179266
15.196374947485506	5.4523697	2.335031
15.214057129330447	6.8525496	2.6177375
15.231739675579114	9.002573	3.000429
15.249422586675102	13.608665	3.6889925
15.267105863062092	18.033798	4.246622
15.284789505183847	25.125097	5.012494
15.302473513484218	29.712486	5.4509163
15.320157888407127	33.6632	5.8019996
15.337842630396578	32.391617	5.6913633
15.355527739896656	29.540611	5.4351277
15.37321321735153	22.950819	4.7907014
15.39089906320545	15.686937	3.9606738
15.408585277902748	10.133629	3.183336
15.42627186188783	6.3163433	2.5132337
15.443958815605198	4.6077857	2.1465755
15.461646139499424	3.7993996	1.9492049
15.479333834015168	3.3933673	1.8421094
15.497021899597165	3.0415444	1.7440025
15.514710336690234	2.8107986	1.6765437
15.53239914573928	2.6596775	1.6308517
15.550088327189297	2.60438	1.6138091
15.567777881485336	2.5363073	1.5925789
15.58546780907256	2.5014513	1.5815977
15.6031581103962	2.4762585	1.5736132
15.620848785901568	2.5019498	1.5817553
15.638539836034063	2.5198534	1.5874046
15.656231261239173	2.5178218	1.5867646
15.673923061962451	2.4647267	1.5699449
15.691615238649552	2.381175	1.5431056
15.709307791746202	2.3363094	1.5284991
15.727000721698221	2.3091304	1.5195823
15.744694028951498	2.3587062	1.535808
15.76238771395202	2.3789856	1.5423961
15.780081777145844	2.4152734	1.554115
15.797776218979125	2.4105062	1.5525805
15.815471039898094	2.405333	1.5509136
15.833166240349064	2.4450607	1.563669
15.850861820778437	2.462844	1.569345
15.868557781632699	2.4578943	1.5677673
15.886254123358412	2.469991	1.5716205
15.903950846402232	2.4751158	1.57325
15.921647951210897	2.5155466	1.5860474
15.939345438231225	2.5197074	1.5873586
15.957043307910133	2.5134997	1.5854021
15.974741560694602	2.4725885	1.5724467
15.992440197031714	2.4573886	1.567606
16.01013921736862	2.4336984	1.5600315
16.02783862215259	2.418997	1.5553125
16.045538411830933	2.4188015	1.5552497
16.06323858685107	2.4220989	1.5563093
16.080939147660512	2.4396946	1.5619522
16.09864009470684	2.399804	1.5491301
16.11634142843774	2.366536	1.538355
16.134043149300954	2.320734	1.5233955
16.15174525774433	2.331878	1.5270488
16.169447754215817	2.351737	1.5335374
16.18715063916342	2.3796785	1.5426207
16.204853913035244	2.3835835	1.5438858
16.222557576279478	2.4325092	1.5596503
16.240261629344403	22.442364	4.737337
16.257966072678386	43.001186	6.557529
16.275670906729868	38.077415	6.17069
16.293376131947387	2.5167549	1.5864283
16.31108174877957	2.544349	1.5951016
16.328787757675133	2.5818045	1.6067995
16.34649415908287	2.58215	1.606907
16.364200953451657	2.580404	1.6063637
16.38190814123048	2.5752451	1.6047571
16.39961572286839	2.62368	1.6197778
16.41732369881455	2.67793	1.6364383
16.43503206951817	2.7438724	1.6564639
16.45274083542859	2.794975	1.6718179
16.47044999699522	2.8431852	1.6861748
16.488159554667558	2.8749242	1.6955601
16.505869508895184	2.921755	1.7093142
16.523579860127786	2.9734573	1.7243716
16.541290608815117	3.0149112	1.7363499
16.559001755407035	3.036841	1.7426534
16.57671330035348	3.0950358	1.7592714
16.59442524410448	3.19605	1.78775
16.61213758711015	3.3739355	1.8368275
16.629850329820705	3.4584305	1.8596855
16.647563472686436	3.4936774	1.8691381
16.665277016157724	3.4673095	1.8620713
16.682990960685053	3.5248346	1.8774543
16.70070530671898	3.5115495	1.8739129
16.718420054710155	3.5087502	1.8731658
16.736135205109335	3.5235245	1.8771054
16.753850758367335	3.5926206	1.8954209
16.771566714935087	3.6090689	1.899755
16.789283075263597	3.6532688	1.9113526
16.80699983980398	3.7237966	1.9297141
16.82471700900741	3.8135793	1.9528388
16.84243458332518	3.9241138	1.9809376
16.860152563208665	3.9752688	1.9938077
16.87787094910932	4.0709906	2.0176697
16.89558974147871	4.0957036	2.0237844
16.913308940768466	4.1931295	2.0477133
16.931028547430333	4.300047	2.0736554
16.94874856191613	4.4051976	2.0988562
16.966468984677785	4.439992	2.1071289
16.98418981616729	4.415588	2.10133
17.00191105683676	4.396043	2.0966742
17.019632707138374	4.426665	2.103964
17.03735476752442	4.4919887	2.1194313
17.05507723844728	4.532246	2.1289072
17.072800120359403	4.5599623	2.1354067
17.090523413713353	4.6157994	2.148441
17.108247118961785	4.624782	2.1505306
17.125971236557437	4.690489	2.1657536
17.143695766953133	4.6856236	2.1646302
17.161420710601806	4.6425304	2.1546533
17.179146067956477	4.611495	2.1474392
17.19687183947025	4.6066194	2.1463037
17.21459802559634	4.624201	2.1503954
17.232324626788028	4.645987	2.155455
17.25005164349871	4.6175394	2.1488461
17.267779076181863	4.601331	2.1450713
17.285506925291074	4.578998	2.1398594
17.30323519127999	4.53993	2.130711
17.320963874602384	4.5274987	2.127792
17.33869297571211	4.514176	2.124659
17.356422495063114	4.528908	2.128123
17.37415243310944	4.474546	2.1153123
17.391882790305218	4.4292765	2.1045847
17.40961356710468	4.449184	2.109309
17.42734476396215	4.4960017	2.1203778
17.445076381332044	4.562546	2.1360116
17.462808419668868	4.6513247	2.156693
17.48054087942723	4.766113	2.183143
17.498273761061835	4.903528	2.2143912
17.51600706502747	5.2480497	2.2908623
17.533740791779024	5.8486257	2.4183931
17.551474941771485	6.752929	2.59864
17.56920951545993	8.624194	2.9366977
17.586944513299528	9.827894	3.1349473
17.60467993574556	12.567888	3.5451217
17.622415783253373	15.138915	3.8908758
17.64015205627843	17.876045	4.2280073
17.657888755276293	20.14822	4.488677
17.675625880702604	21.486685	4.635373
17.69336343301311	20.070902	4.480056
17.71110141266366	18.027508	4.245881
17.728839820110178	15.368869	3.9203148
17.746578655808705	12.316337	3.5094638
17.764317920215372	10.238674	3.1997929
17.7820576137864	8.612754	2.9347494
17.79979773697811	7.2283416	2.6885576
17.81753829024692	5.9679084	2.4429302
17.835279274049356	5.20303	2.2810152
17.85302068884201	4.527463	2.1277835
17.870762535081607	4.092675	2.0230362
17.888504813224934	3.8433259	1.9604403
17.90624752372891	3.6499274	1.9104784
17.923990667050536	3.5457823	1.8830248
17.941734243646895	3.4302335	1.8520889
17.959478253975185	3.3626246	1.8337461
17.9772226984927	3.3652918	1.8344731
17.994967577656833	3.3829417	1.8392775
18.01271289192506	3.3669724	1.8349311
18.030458641754965	3.3682368	1.8352757
18.04820482760425	3.3707428	1.8359582
18.06595144993067	3.3863897	1.8402146
18.083698509192125	3.3849452	1.839822
18.101446005846576	3.3207183	1.8222839
18.119193940352105	3.2515326	1.8032006
18.136942313166887	3.2113695	1.7920294
18.1546911247492	3.1560302	1.7765219
18.1724403755574	3.1240556	1.7674998
18.19019006604997	3.089542	1.7577093
18.207940196685467	3.0801046	1.7550226
18.225690767922575	3.066455	1.7511296
18.243441780220046	3.0394607	1.7434049
18.261193234036764	3.0069084	1.734044
18.278945129831676	3.0176244	1.7371311
18.29669746806386	3.0174649	1.7370852
18.314450249192483	2.9599676	1.7204556
18.3322034736768	2.9627385	1.7212608
18.349957141976184	3.0095515	1.734806
18.3677112545501	3.0047665	1.7334262
18.385465811858108	3.0010571	1.732356
18.403220814359884	3.0256133	1.739429
18.420976262515172	3.113184	1.7644217
18.43873215678387	3.1411858	1.7723391
18.456488497625923	3.1633313	1.7785757
18.474245285501407	3.235094	1.7986367
18.492002520870486	3.2920425	1.8143986
18.50976020419343	3.350018	1.8303055
18.527518335930615	3.6307662	1.9054569
18.545276916542516	4.218847	2.0539832
18.563035946489688	4.404296	2.0986414
18.580795426232832	4.8546557	2.2033284
18.598555356232698	4.7101655	2.1702917
18.616315736950185	4.9439793	2.223506
18.63407656884626	4.5612063	2.135698
18.65183785238201	4.744362	2.1781557
18.669599588018617	4.5809703	2.14032
18.68736177621737	4.572841	2.1384203
18.705124417439652	4.5832233	2.1408465
18.72288751214696	4.431989	2.105229
18.740651060800886	4.543849	2.1316307
18.758415063863115	4.2248306	2.0554392
18.77617952179546	4.385529	2.0941656
18.793944435059814	4.211605	2.0522196
18.811709804118184	4.2581635	2.0635319
18.829475629432675	4.1909237	2.0471745
18.8472419114655	3.964697	1.9911547
18.86500865067897	4.0190415	2.0047548
18.88277584753551	3.7328305	1.9320534
18.90054350249763	3.7841735	1.9452952
18.918311616027957	3.4852672	1.866887
18.936080188589226	3.3338244	1.8258764
18.953849220644265	3.0146687	1.7362801
18.971618712656007	2.8356571	1.683941
18.9893886650875	2.7940733	1.6715481
19.007159078401887	8.01146	2.8304522
19.024929953062408	32.90078	5.73592
19.042701289532435	32.820335	5.7289033
19.060473088275405	25.335884	5.0334764
19.07824534975489	2.5811615	1.6065993
19.096018074434568	2.5489051	1.5965291
19.113791262778197	2.512744	1.5851637
19.13156491524966	2.4638326	1.5696601
19.149339032312945	2.4722085	1.5723258
19.167113614432136	2.4986002	1.5806961
19.184888662071433	2.4988093	1.5807623
19.202664175695123	2.4797025	1.5747072
19.220440155767623	2.466701	1.5705734
19.238216602753447	2.462589	1.5692638
19.2559935171172	2.4577327	1.5677158
19.27377089932361	2.50096	1.5814424
19.291548749837514	2.5354729	1.5923169
19.309327069123835	2.5326002	1.5914146
19.32710585764763	2.5064456	1.5831758
19.344885115874032	2.4878428	1.5772897
19.362664844268313	2.4665751	1.5705334
19.380445043295822	2.4486353	1.5648116
19.39822571342203	2.4073122	1.5515516
19.41600685511252	2.3957458	1.5478197
19.43378846883297	2.4009852	1.5495113
19.451570555049173	2.409435	1.5522355
19.469353114227037	2.4327364	1.5597231
19.48713614683254	2.4524536	1.5660312
19.50491965333182	2.4764144	1.5736628
19.52270363419109	2.4811833	1.5751772
19.540488089876686	2.4861841	1.5767639
19.55827302085503	2.467447	1.5708109
19.576058427592674	2.453457	1.5663515
19.593844310556282	2.4729838	1.5725724
19.611630670212598	2.5095398	1.5841527
19.629417507028506	2.5163527	1.5863016
19.64720482147098	2.4805243	1.574968
19.6649926140071	2.4589322	1.5680983
19.682780885104084	2.4383402	1.5615185
19.70056963522921	2.4458578	1.5639238
19.718358864849908	2.4529138	1.5661781
19.7361485744337	2.4915667	1.5784698
19.753938764448215	2.5148153	1.585817
19.771729435361202	2.5425828	1.5945479
19.789520587640506	2.5145557	1.5857351
19.807312221754092	2.5354521	1.5923103
19.825104338170043	2.5750804	1.6047057
19.842896937356517	2.5657363	1.6017916
19.860690019781824	2.4946878	1.5794581
19.87848358591436	2.460236	1.568514
19.896277636222635	2.4859421	1.5766871
19.914072171175278	2.4935453	1.5790963
19.931867191241015	2.5052178	1.582788
19.94966269688869	2.5188432	1.5870863
19.967458688587264	2.5314207	1.591044
19.985255166805807	2.4825175	1.5756006
20.00305213201348	2.4536407	1.5664102
20.020849584679578	2.450893	1.5655328
20.038647525273507	2.4401548	1.5620995
20.05644595426477	2.424602	1.5571134
20.07424487212299	2.4158394	1.5542971
20.092044279317903	2.4523473	1.5659972
20.109844176319353	2.4351492	1.5604964
20.127644563597304	2.4226346	1.5564815
20.145445441621817	2.4048817	1.5507681
20.16324681086307	2.406101	1.5511612
20.181048671791373	2.3915484	1.5464631
20.198851024877122	2.3703537	1.5395952
20.216653870590836	2.3680418	1.5388443
20.234457209403146	2.3869276	1.5449685
20.252261041784802	2.3652782	1.5379461
20.270065368206662	2.3430982	1.5307182
20.287870189139685	2.3093863	1.5196666
20.305675505054968	2.3210537	1.5235004
20.323481316423702	2.3427293	1.5305977
20.341287623717207	2.3328354	1.5273622
20.359094427406884	2.3245788	1.5246569
20.376901727964288	2.3272707	1.5255395
20.39470952586107	2.3346019	1.5279404
20.41251782156899	2.3429837	1.5306808
20.430326615559935	2.3268518	1.5254022
20.448135908305886	2.3212295	1.5235581
20.465945700278965	2.324082	1.5244939
20.483755991951384	2.335103	1.5281044
20.50156678379548	2.328886	1.5260688
20.519378076283708	2.3097332	1.5197806
20.537189869888635	2.3177457	1.5224144
20.55500216508294	2.3387294	1.5292904
20.572814962339415	2.3331418	1.5274625
20.59062826213098	2.3368127	1.5286638
20.60844206493066	2.3441424	1.5310593
20.626256371211593	2.3365698	1.5285842
20.644071181447032	2.3135083	1.5210221
20.66188649611036	2.3078554	1.5191628
20.67970231567506	2.2792609	1.5097221
20.697518640614742	2.3188012	1.522761
20.715335471403122	2.3327796	1.527344
20.73315280851404	2.3489165	1.5326176
20.750970652421447	2.3276482	1.5256631
20.768789003599412	2.285109	1.5116577
20.786607862522136	2.2674987	1.5058216
20.8044272296639	2.2883143	1.5127175
20.82224710549913	2.3112257	1.5202715
20.84006749050237	2.3101523	1.5199186
20.857888385148268	3.8489928	1.961885
20.8757097899116	45.930508	6.777205
20.893531705267254	64.775795	8.048341
20.911354131690224	83.789314	9.15365
20.92917706965566	69.06252	8.310387
20.94700051963877	50.12951	7.0802197
20.96482448211493	29.4145	5.4235134
20.982648957559622	4.1299767	2.0322344
21.00047394644843	2.230977	1.4936455
21.01829944925707	2.2444313	1.4981426
21.036125466461375	2.2544222	1.5014733
21.053951998537297	2.2321837	1.4940494
21.071779045960906	2.2142134	1.4880233
21.089606609208378	2.2209926	1.4902995
21.10743468875603	2.2324407	1.4941354
21.12526328508028	2.2250412	1.4916571
21.143092398657675	2.2003865	1.48337
21.16092202996488	2.1844912	1.4780024
21.17875217947867	2.1817575	1.4770774
21.19658284767596	2.1984568	1.4827194
21.21441403503377	2.2012484	1.4836605
21.232245742029225	2.216614	1.4888297
21.2500779691396	2.2189307	1.4896076
21.26791071684227	2.2091718	1.4863282
21.28574398561475	2.1610649	1.470056
21.30357777593465	2.1351993	1.4612321
21.321412088279704	2.0923853	1.4465079
21.339246923127792	2.0912838	1.4461272
21.357082280956888	2.0913696	1.4461569
21.3749181622451	2.108243	1.451979
21.392754567470647	2.109473	1.4524025
21.41059149711187	2.0859482	1.4442812
21.42842895164726	2.1031108	1.4502106
21.446266931555378	2.103497	1.4503437
21.464105437314945	2.1164298	1.4547955
21.481944469404798	2.0815096	1.4427438
21.49978402830388	2.074191	1.4402052
21.51762411449127	2.048324	1.4311967
21.53546472844617	2.0484297	1.4312336
21.553305870647876	2.0637832	1.4365873
21.571147541575865	2.1025064	1.4500022
21.58898974170967	2.1271133	1.4584627
21.60683247152899	2.1251693	1.457796
21.62467573151363	2.0915096	1.4462053
21.642519522143523	2.0471401	1.430783
21.660363843898722	2.0374722	1.4274005
21.6782086972594	2.035403	1.4266756
21.696054082705864	2.0312102	1.4252053
21.713900000718535	2.0574882	1.4343947
21.73174645177795	2.0887108	1.4452373
21.749593436364794	2.030135	1.424828
21.767440954959845	2.0051963	1.4160496
21.785289008044032	2.004687	1.4158697
21.803137596098388	2.0347083	1.426432
21.820986719604086	2.0296082	1.4246432
21.838836379042412	2.0118911	1.4184115
21.85668657489478	1.9921522	1.4114362
21.87453730764273	1.9804523	1.4072855
21.892388577767914	1.9914058	1.4111718
21.91024038575213	2.0153353	1.419625
21.928092732077285	2.019076	1.420942
21.945945617225426	2.025579	1.4232284
21.963799041678694	1.9796252	1.4069916
21.981653005919398	31.275429	5.592444
21.999507510429943	78.059166	8.83511
22.01736255569286	73.00839	8.544495
22.035218142190818	4.135932	2.033699
22.05307427040661	2.0049467	1.4159614
22.07093094082315	2.0098329	1.4176857
22.088788153923474	1.9601799	1.4000642
22.106645910190746	1.9402509	1.3929288
22.12450421010827	1.958108	1.399324
22.142363054159464	1.9791799	1.4068333
22.16022244282787	1.9708666	1.4038756
22.178082376597164	1.983704	1.4084402
22.195942855951145	2.0062304	1.4164146
22.213803881373742	2.0275292	1.4239134
22.231665453349002	2.0121624	1.4185071
22.24952757236111	1.9856606	1.4091346
22.26739023889438	1.9436114	1.3941346
22.28525345343323	1.939456	1.3926436
22.30311721646225	1.9800617	1.4071467
22.320981528466113	1.9783833	1.4065502
22.33884638992964	1.9693108	1.4033214
22.356711801337788	1.9355793	1.391251
22.37457776317561	1.9137757	1.3833928
22.392444275928337	1.9164165	1.384347
22.410311340081282	1.9316721	1.3898461
22.428178956119904	1.9312842	1.3897065
22.446047124529805	1.942526	1.3937453
22.46391584579669	1.9449826	1.3946264
22.481785120406414	1.9146483	1.3837081
22.49965494884496	1.8959669	1.3769411
22.51752533159841	1.9314471	1.3897651
22.53539626915302	1.944976	1.394624
22.553267761995137	1.9425458	1.3937525
22.571139810611264	1.9466435	1.3952217
22.589012415488025	1.9563919	1.3987108
22.60688557711216	1.9288441	1.3888283
22.624759295970566	1.933531	1.3905146
22.642633572550263	1.9362695	1.391499
22.660508407338362	1.9539138	1.3978246
22.67838380082217	1.9464592	1.3951557
22.696259753489077	1.950638	1.3966525
22.714136265826614	1.9400177	1.3928452
22.73201333832246	1.9394928	1.3926568
22.74989097146439	1.9260232	1.3878124
22.76776916574035	1.9616514	1.4005897
22.785647921638393	1.961157	1.4004132
22.803527239646712	1.9806198	1.4073449
22.82140712025363	1.9273038	1.3882737
22.839287563947593	1.9191504	1.385334
22.85716857121719	1.9196005	1.3854965
22.875050142551135	1.9088477	1.3816105
22.892932278438277	1.8585064	1.3632705
22.910814979367604	1.8631978	1.36499
22.928698245828222	1.8948854	1.3765484
22.946582078309387	1.903377	1.3796294
22.96446647730047	1.8917935	1.3754249
22.98235144329098	1.8926508	1.3757365
23.000236976770562	1.9573693	1.3990601
23.018123078229	1.9520069	1.3971424
23.03600974815619	1.9215868	1.3862131
23.053896987042194	1.8613393	1.3643091
23.071784795377173	1.8456025	1.3585296
23.08967317365145	1.8675264	1.3665746
23.10756212235546	1.8948903	1.3765502
23.125451641979787	1.9285986	1.38874
23.143341733015134	1.9301149	1.3892857
23.161232395952357	1.9325931	1.3901774
23.179123631282426	1.9225096	1.3865459
23.197015439496468	1.9099188	1.3819981
23.214907821085717	1.9135123	1.3832977
23.23280077654157	1.9104259	1.3821815
23.250694306355538	1.9013811	1.3789058
23.268588411019277	1.8887377	1.3743135
23.28648309102458	1.8786217	1.3706282
23.304378346863356	1.9111744	1.3824524
23.322274179027676	1.9756122	1.4055647
23.340170588009723	1.9643004	1.401535
23.358067574301852	1.9435284	1.3941048
23.37596513839651	1.9475396	1.3955427
23.39386328078629	1.9469457	1.39533
23.411762001963947	1.9203165	1.3857548
23.429661302422353	1.9057498	1.380489
23.4475611826545	1.9083297	1.3814231
23.46546164315356	1.9189377	1.3852572
23.48336268441279	1.9259326	1.3877797
23.501264306925638	1.9360964	1.3914368
23.51916651118564	1.9610536	1.4003762
23.537069297686497	1.9456973	1.3948826
23.554972666922037	1.8794925	1.3709458
23.57287661938623	1.9122449	1.3828394
23.59078115557318	1.9480201	1.3957149
23.608686275977128	1.9631889	1.4011384
23.62659198109246	1.9577779	1.3992062
23.6444982714137	1.9712969	1.4040288
23.66240514743549	1.9588122	1.3995757
23.68031260965263	1.9617594	1.4006282
23.698220658560068	1.9562576	1.3986628
23.716129294652845	1.9583927	1.3994259
23.7340385184262	1.9333963	1.3904662
23.75194833037546	1.9458169	1.3949254
23.769858730996123	1.9585682	1.3994886
23.78776972078382	1.9293876	1.389024
23.80568130023431	1.9476053	1.3955662
23.823593469843495	1.94501	1.3946362
23.841506230107424	1.9432868	1.3940182
23.859419581522275	1.965962	1.4021277
23.87733352458438	1.9499682	1.3964126
23.89524805979019	1.9584605	1.3994501
23.913163187636318	1.9280608	1.3885462
23.931078908619508	1.9701973	1.4036372
23.948995223236633	2.0100935	1.4177777
23.966912131984735	2.0372236	1.4273134
23.98482963536096	2.0460064	1.4303868
24.002747733862616	2.0264003	1.4235169
24.020666427987155	2.012229	1.4185306
24.038585718232156	2.0395553	1.42813
24.056505605095353	2.0355823	1.4267384
24.074426089074617	2.0753758	1.4406165
24.092347170667946	2.0559072	1.4338435
24.110268850373515	2.0037177	1.4155273
24.128191128689586	2.0136466	1.4190302
24.146114006114626	2.0194075	1.4210585
24.164037483147187	2.0501235	1.4318252
24.181961560286005	2.0442572	1.4297752
24.199886238029926	2.0197067	1.4211639
24.21781151687797	2.0317128	1.4253817
24.235737397329274	2.0286171	1.4242953
24.253663879883135	2.0688963	1.4383658
24.271590965038975	2.0379426	1.4275653
24.289518653296376	2.0170546	1.4202305
24.30744694515505	2.0080464	1.4170555
24.32537584111486	2.0214226	1.4217675
24.34330534167581	2.008809	1.4173247
24.361235447338046	2.0250015	1.4230255
24.379166158601876	2.084119	1.4436479
24.39709747596772	2.1376932	1.4620852
24.41502939993615	2.1015153	1.4496604
24.432961931007917	2.0394156	1.428081
24.450895069683856	1.9964406	1.4129546
24.468828816465	2.0017922	1.414847
24.4867631718525	1.9850017	1.4089009
24.504698136347656	1.9995129	1.4140413
24.52263371045192	1.9711806	1.4039874
24.540569894666874	1.9728156	1.4045695
24.558506689494266	1.995622	1.4126649
24.57644409543597	1.9930412	1.4117512
24.594382112994012	1.9712757	1.4040213
24.61232074267057	1.9473883	1.3954885
24.630259984967953	1.9564621	1.3987359
24.64819984038863	1.9748951	1.4053096
24.66614030943522	1.9886417	1.4101921
24.684081392610462	1.9719679	1.4042678
24.702023090417274	1.9719546	1.404263
24.7199654033587	1.9595417	1.3998363
24.737908331937927	1.945348	1.3947574
24.755851876658305	1.9978651	1.4134586
24.773796038023324	2.067532	1.4378915
24.79174081653661	2.111227	1.4530061
24.809686212701962	2.0797212	1.4421239
24.827632227023294	2.0510917	1.4321632
24.8455788600047	2.04703	1.4307445
24.8635261121504	2.071485	1.4392655
24.88147398396475	2.0893297	1.4454514
24.899422475952303	2.0997205	1.4490412
24.917371588617698	2.133472	1.4606409
24.935321322465768	2.1882982	1.4792898
24.953271678001478	2.267019	1.5056623
24.97122265572994	2.481894	1.5754029
24.989174256156414	2.8900096	1.7000028
25.00712647978632	3.4779456	1.864925
25.02507932712521	4.449696	2.1094303
25.043032798678798	5.9240627	2.4339397
25.060986894952933	7.514004	2.7411685
25.078941616453637	9.010436	3.0017388
25.096896963687055	9.891661	3.145101
25.114852937159508	10.570401	3.2512155
25.132809537377444	10.346066	3.21653
25.150766764847468	9.660753	3.1081753
25.168724620076347	8.338595	2.8876626
25.186683103570985	7.2036967	2.6839702
25.204642215838426	5.8072057	2.4098144
25.222601957385894	4.638957	2.1538239
25.24056232872074	3.6084235	1.8995851
25.25852333035048	2.9554927	1.7191547
25.276484962782778	2.484992	1.5763857
25.294447226525435	2.2069824	1.4855917
25.312410122086423	2.080427	1.4423685
25.330373649973843	2.0074642	1.4168501
25.348337810695988	1.9372469	1.3918502
25.366302604761245	1.9345951	1.3908973
25.384268032678207	1.9461797	1.3950554
25.40223409495558	1.9556701	1.3984528
25.420200792102257	1.951062	1.3968042
25.438168124627246	1.8920988	1.3755358
25.45613609303974	1.8837469	1.3724966
25.474104697849057	1.9207948	1.3859274
25.492073939564698	1.9513772	1.396917
25.510043818696285	1.9617188	1.4006137
25.528014335753614	1.960734	1.4002621
25.54598549124664	1.964675	1.4016687
25.56395728568544	1.8988717	1.3779955
25.58192971958028	1.8351654	1.3546828
25.59990279344156	1.8053577	1.343636
25.617876507779833	1.8042728	1.3432322
25.635850863105826	1.8355973	1.3548422
25.653825859930386	1.8551726	1.3620472
25.671801498764548	1.8318264	1.3534498
25.68977778011949	1.8433425	1.3576975
25.707754704506524	1.8391681	1.3561593
25.725732272437153	1.8351657	1.3546829
25.743710484423012	1.8520417	1.3608974
25.761689340975888	1.8951373	1.3766398
25.77966884260774	1.8862115	1.3733941
25.797648989830662	1.8492299	1.359864
25.815629783156922	1.8353903	1.3547658
25.83361122309895	1.8171808	1.3480284
25.85159331016929	1.8146961	1.3471066
25.869576044880695	1.8276225	1.3518959
25.887559427746034	1.8221917	1.3498858
25.90554345927836	1.8400755	1.3564938
25.92352813999086	1.8152312	1.3473052
25.94151347039689	1.8172903	1.3480691
25.959499451009965	1.8263402	1.3514216
25.97748608234374	1.8301227	1.3528203
25.995473364912062	1.7986042	1.3411205
26.013461299228904	1.777732	1.3333162
26.03144988580839	1.770862	1.3307374
26.04943912516483	1.7501726	1.322941
26.067429017812675	1.7627319	1.3276792
26.085419564266537	1.8224715	1.3499894
26.103410765041186	1.8616863	1.3644363
26.12140262065155	1.8971244	1.3773614
26.139395131612723	1.8881607	1.3741035
26.157388298439948	1.8841634	1.3726484
26.17538212164861	1.8543141	1.361732
26.193376601754295	1.775542	1.3324946
26.211371739272714	1.7346709	1.317069
26.229367534719746	1.737942	1.3183103
26.247363988611433	1.7932032	1.3391054
26.26536110146397	1.8596932	1.3637056
26.283358873793727	1.8674188	1.3665353
26.301357306117204	1.8814565	1.3716619
26.319356398951104	1.8837761	1.3725072
26.33735615281224	1.8666438	1.3662517
26.35535656821762	1.8680104	1.3667518
26.373357645684404	1.8192937	1.348812
26.39135938572991	1.7607617	1.326937
26.409361788871614	1.750728	1.3231508
26.427364855627165	1.7643389	1.3282841
26.445368586514352	1.813969	1.3468367
26.46337298205115	1.8267084	1.3515577
26.48137804275568	1.8102036	1.345438
26.499383769146217	1.7821262	1.334963
26.517390161741215	1.7920376	1.3386701
26.53539722105928	1.7863501	1.3365442
26.553404947619182	1.7759032	1.3326302
26.571413341939856	1.7884425	1.3373266
26.589422404540397	1.8165101	1.3477796
26.60743213594006	1.8563713	1.3624872
26.62544253665827	1.8560474	1.3623683
26.64345360721459	1.8739656	1.3689287
26.66146534812879	1.8390733	1.3561244
26.679477759920758	1.8071386	1.3442985
26.69749084311057	1.7876487	1.3370298
26.71550459821847	1.7672492	1.3293793
26.733519025764842	1.7555196	1.3249602
26.751534126270258	1.7940199	1.3394103
26.769549900255434	1.8171083	1.3480016
26.787566348241267	1.8178773	1.3482867
26.80558347074881	1.8128803	1.3464324
26.823601268299267	1.81436	1.3469818
26.841619741414036	1.8435512	1.3577744
26.85963889061465	1.8577659	1.3629988
26.877658716422832	1.8409432	1.3568137
26.89567921936045	1.8376082	1.3555841
26.913700399949544	1.8295524	1.3526095
26.93172225871233	1.8132396	1.3465658
26.949744796171174	1.7995441	1.3414708
26.967768012848605	1.779646	1.3340337
26.98579190926733	1.7910055	1.3382845
27.003816485950225	1.8243885	1.3506993
27.021841743420318	1.7944303	1.3395635
27.039867682200814	1.7800889	1.3341997
27.057894302815072	1.790948	1.338263
27.07592160578664	1.8493419	1.3599051
27.0939495916392	1.7989099	1.3412344
27.111978260896635	1.709688	1.3075503
27.13000761408296	1.7224321	1.3124146
27.148037651722397	1.7978227	1.3408291
27.166068374339304	1.8340929	1.3542868
27.184099782458215	1.818248	1.3484243
27.20213187660384	1.8304579	1.3529441
27.22016465730105	1.8414302	1.3569931
27.23819812507487	1.8353881	1.3547649
27.256232280450533	1.8152356	1.3473068
27.274267123953383	1.8173448	1.3480893
27.292302656108987	1.8055964	1.3437248
27.31033887744306	1.7841266	1.3357121
27.32837578848146	1.811451	1.3459015
27.34641338975026	1.8440597	1.3579617
27.364451681775673	1.8731391	1.3686267
27.382490665084074	1.8179078	1.3482981
27.400530340202046	1.793056	1.3390504
27.41857070765629	1.8028637	1.3427076
27.436611767973726	1.8223487	1.349944
27.454653521681404	1.7877539	1.3370692
27.472695969306564	1.7835692	1.3355033
27.490739111376627	1.8098071	1.3452907
27.508782948419153	1.8236176	1.3504138
27.526827480961902	1.785809	1.3363416
27.54487270953279	1.782001	1.3349161
27.562918634659898	1.7931602	1.3390893
27.580965256871508	1.7781454	1.3334712
27.599012576696026	1.7851726	1.3361036
27.617060594662068	1.8016473	1.3422545
27.63510931129842	1.8216743	1.3496941
27.65315872713401	1.8015119	1.3422041
27.67120884269797	1.8390398	1.356112
27.68925965851958	1.8378631	1.3556781
27.707311175128307	1.8893424	1.3745335
27.725363393053787	1.9024534	1.3792945
27.74341631282583	1.8831117	1.3722652
27.7614699349744	1.8532838	1.3613536
27.77952426002968	1.988713	1.4102174
27.797579288521973	2.069288	1.438502
27.815635020981784	2.6579523	1.6303228
27.83369145793979	2.773789	1.6654695
27.85174859992682	2.6136734	1.616686
27.869806447473923	2.408628	1.5519755
27.887865001112267	2.0745893	1.4403435
27.905924261373233	1.9307268	1.389506
27.92398422878836	1.8872365	1.3737673
27.94204490388936	1.8576417	1.3629533
27.96010628720813	1.8447441	1.3582135
27.978168379276728	1.8472172	1.3591237
27.9962311806274	1.8421448	1.3572564
28.014294691792568	1.8150179	1.347226
28.0323589133048	1.7940662	1.3394276
28.050423845696887	1.7414356	1.3196347
28.068489489501758	1.7386601	1.3185827
28.086555845252523	1.7749608	1.3322766
28.104622913482487	1.8111886	1.3458041
28.122690694725115	1.8531408	1.3613012
28.14075918951405	1.8843356	1.3727111
28.15882839838312	1.8768141	1.3699687
28.176898321866304	1.8496131	1.3600048
28.1949689604978	1.8536226	1.3614781
28.213040314811945	1.9065331	1.3807727
28.23111238534327	1.9654285	1.4019374
28.249185172626493	1.9585633	1.3994868
28.267258677196473	1.9276683	1.388405
28.285332899588294	1.9018545	1.3790774
28.303407840337172	1.8621669	1.3646123
28.321483499978545	1.8068541	1.3441927
28.33955987904799	1.8810798	1.3715246
28.357636978081285	1.9347463	1.3909515
28.37571479761439	1.9736781	1.4048766
28.393793338183425	2.0575318	1.43441
28.41187260032469	2.1067257	1.4514564
28.429952584574686	2.0568707	1.4341794
28.448033291470065	1.9774997	1.406236
28.46611472154769	2.0063667	1.4164628
28.484196875344566	2.0767424	1.4410907
28.502279753397914	2.0865395	1.4444859
28.52036335624511	2.0241804	1.422737
28.538447684423716	1.9897805	1.4105958
28.556532738471482	2.0180874	1.420594
28.574618518926325	1.9899443	1.4106538
28.59270502632635	2.02792	1.4240506
28.61079226120985	2.0407095	1.428534
28.628880224115274	2.0550494	1.4335444
28.646968915581287	2.0388699	1.42789
28.66505833614671	2.0337155	1.4260839
28.68314848635055	2.0177374	1.4204708
28.701239366732004	2.0411956	1.4287041
28.71933097783044	2.033936	1.4261613
28.737423320185403	2.0399427	1.4282657
28.75551639433665	2.085877	1.4442565
28.773610200824074	2.1533232	1.4674206
28.791704740187793	2.1523204	1.4670788
28.80980001296809	2.1080704	1.4519196
28.827896019705413	2.0817666	1.4428328
28.845992760940433	2.1416037	1.463422
28.86409023721397	2.1828387	1.4774433
28.88218844906704	2.1317067	1.4600365
28.900287397040845	2.1193867	1.4558114
28.918387081676755	2.2348194	1.4949312
28.936487503516343	2.2829232	1.5109346
28.954588663101365	2.3088872	1.5195023
28.97269056097374	2.2902648	1.513362
28.990793197675597	2.310365	1.5199884
29.00889657374923	2.3550813	1.5346274
29.027000689737125	2.3916545	1.5464975
29.04510554618196	2.45589	1.567128
29.06321114362659	2.4735358	1.5727478
29.08131748261405	2.4532595	1.5662885
29.099424563687567	2.4332476	1.559887
29.11753238739057	2.4933827	1.5790448
29.13564095426663	2.5234952	1.5885513
29.15375026485954	2.5321498	1.5912731
29.171860319713275	2.5646048	1.6014383
29.18997111937199	2.6142275	1.6168573
29.20808266438002	2.613764	1.616714
29.226194955281898	2.7416296	1.6557868
29.244307992622335	2.8879447	1.6993954
29.26242177694624	2.8912585	1.7003701
29.2805363087987	2.8501153	1.6882285
29.29865158872498	2.8103871	1.6764209
29.316767617270557	2.8307524	1.682484
29.334884394981064	2.8629956	1.6920389
29.353001922402367	2.9699152	1.7233442
29.37112020008047	3.0914156	1.7582422
29.389239228561596	3.1248648	1.7677287
29.407359008392152	3.264888	1.8069001
29.42547954011872	3.5804102	1.8921973
29.44360082428809	4.100171	2.024888
29.46172286144722	4.9225	2.2186708
29.479845652143283	6.486873	2.5469341
29.497969196923606	9.257697	3.0426464
29.516093496335728	13.079991	3.616627
29.5342185509274	16.61327	4.0759377
29.55234436124651	19.920784	4.4632707
29.570470927841175	21.639307	4.651807
29.588598251259686	21.459583	4.632449
29.60672633205055	19.524904	4.4186993
29.624855170762405	16.299683	4.0372868
29.642984767944146	12.750777	3.570823
29.66111512414481	9.430404	3.0708961
29.67924623991366	6.9229617	2.6311522
29.697378115800138	5.1581335	2.2711525
29.71551075235387	4.264831	2.0651467
29.733644150124675	3.798787	1.9490478
29.751778309662576	3.5509403	1.8843939
29.769913231517766	3.4921372	1.8687261
29.78804891624066	3.3926914	1.841926
29.806185364381818	3.2972507	1.8158333
29.82432257649206	3.252234	1.8033952
29.842460553122333	3.2942908	1.8150182
29.86059929482382	3.261384	1.8059303
29.878738802147872	3.2681415	1.8078002
29.896879075646048	3.313521	1.820308
29.915020115870114	3.3618445	1.8335334
29.933161923371976	3.3260603	1.823749
29.951304498703777	3.2554615	1.8042897
29.969447842417857	3.1622617	1.7782749
29.987591955066733	3.1393173	1.7718118
30.005736837203123	3.1640806	1.7787863
30.023882489379943	3.170055	1.7804648
30.04202891215028	3.165828	1.7792773
30.060176106067455	3.132122	1.7697803
30.078324071684946	3.1192284	1.7661338
30.09647280955646	3.1119285	1.7640659
30.114622320235863	3.059928	1.749265
30.132772604277257	3.0475473	1.7457225
30.1509236622349	3.0693269	1.7519494
30.16907549466328	3.1287005	1.7688133
30.18722810211705	3.103843	1.7617726
30.205381485151097	3.0810578	1.7552942
30.22353564432045	3.071869	1.7526748
30.241690580180403	3.1059034	1.7623574
30.25984629328638	3.104217	1.7618788
30.278002784194037	3.0686526	1.751757
30.296160053459246	3.00827	1.7344365
30.314318101638033	2.944242	1.7158793
30.332476929286646	2.91764	1.7081101
30.35063653696153	2.9453382	1.7161988
30.368796925219307	2.978801	1.7259203
30.386958094616844	2.952534	1.7182939
30.40512004571115	2.9280946	1.7111676
30.423282779059463	2.9057345	1.7046216
30.441446295219233	2.8659527	1.6929125
30.459610594748067	2.8520477	1.6888007
30.47777567820382	2.8449168	1.6866881
30.495941546144504	2.8359416	1.6840254
30.51410819912835	2.8429432	1.686103
30.532275637713795	2.7789795	1.6670271
30.55044386245946	2.8079686	1.6756995
30.56861287392416	2.8209186	1.679559
30.586782672666956	2.8316548	1.6827521
30.604953259247047	2.7660174	1.6631348
30.623124634223885	2.6811178	1.637412
30.641296798157075	2.7139952	1.6474208
30.659469751606462	2.788782	1.6699647
30.677643495132074	2.7699337	1.6643118
30.695818029294152	2.7590346	1.6610342
30.713993354653116	2.7406294	1.6554847
30.73216947176962	2.7182117	1.6487
30.75034638120448	2.6896675	1.6400206
30.768524083518756	2.69575	1.641874
30.786702579273673	2.711432	1.6466427
30.80488186903069	2.8347938	1.6836846
30.82306195335144	3.0385725	1.7431502
30.841242832797782	3.3351839	1.8262485
30.85942450793176	3.6576056	1.9124868
30.877606979315637	3.9888926	1.9972212
30.895790247511883	4.404494	2.0986886
30.913974313083134	4.893163	2.2120495
30.932159176592283	5.337391	2.3102794
30.95034483860237	5.679505	2.383171
30.968531299676698	5.735297	2.394848
30.98671856037873	5.465863	2.3379185
31.00490662127215	4.9961023	2.2351964
31.023095482920848	4.36633	2.0895765
31.04128514588892	3.789111	1.9465638
31.059475610740662	3.2869813	1.8130034
31.07766687804056	2.941537	1.715091
31.09585894835335	2.7418196	1.6558441
31.11405182224393	2.6007233	1.6126758
31.132245500277417	2.4849718	1.5763793
31.15043998301914	2.4265518	1.5577394
31.168635271034628	2.43885	1.5616817
31.18683136488964	2.458002	1.5678017
31.20502826515008	2.4353228	1.5605521
31.223225972382135	2.447645	1.5644951
31.241424487152155	2.4942586	1.5793222
31.259623810026692	2.4586883	1.5680205
31.27782394157253	2.4134936	1.5535423
31.296024882356644	2.464461	1.5698602
31.314226632946237	2.5105584	1.5844742
31.332429193908684	2.503731	1.5823182
31.350632565811598	2.510414	1.5844285
31.368836749222787	2.5483208	1.596346
31.387041744710295	2.5645285	1.6014146
31.40524755284232	2.5224235	1.5882139
31.423454174187317	2.5598512	1.5999535
31.441661609313922	2.5614364	1.6004488
31.459869858791002	2.4513557	1.5656806
31.478078923187628	2.2808614	1.5102521
31.496288803073064	2.1868546	1.4788017
31.514499499016807	2.2427797	1.4975913
31.532711011588546	2.3359509	1.5283818
31.550923341358178	2.3779216	1.5420511
31.56913648889584	2.3906512	1.5461731
31.587350454771844	2.35403	1.5342848
31.605565239556732	2.316432	1.5219829
31.62378084382127	2.3459253	1.5316414
31.641997268136382	2.3600633	1.5362498
31.660214513073274	2.3790085	1.5424035
31.67843257920331	2.3432462	1.5307666
31.6966514670981	2.3635619	1.537388
31.71487117732944	2.3294067	1.5262394
31.733091710469346	2.3594313	1.536044
31.751313067090052	2.3546097	1.5344738
31.769535247764008	2.3263152	1.5252262
31.787758253063878	2.2970936	1.5156165
31.805982083562526	2.289328	1.5130526
31.824206739833024	2.3061414	1.5185984
31.84243222244869	2.3568678	1.5352094
31.860658531983013	2.3627186	1.5371137
31.878885669009737	2.271668	1.5072054
31.897113634102784	2.1963878	1.4820216
31.91534242783632	2.2067242	1.4855046
31.933572050784694	2.1775258	1.4756442
31.951802503522508	2.2063122	1.485366
31.970033786624548	2.2507117	1.5002372
31.988265900665834	2.2656	1.505191
32.006498846221575	2.2813125	1.5104014
32.02473262386724	2.2297642	1.4932395
32.04296723417845	2.216073	1.488648
32.0612026777311	2.2600951	1.5033612
32.07943895510129	2.263475	1.5044849
32.097676066865304	2.1864238	1.478656
32.115914013599685	2.1393442	1.4626497
32.13415279588115	2.1911979	1.4802696
32.152392414286666	2.2239974	1.4913073
32.1706328693934	2.1695743	1.4729475
32.18887416177875	2.0815752	1.4427665
32.20711629202032	2.0842674	1.4436992
32.225359260695924	2.152346	1.4670875
32.243603068383614	2.1845188	1.4780117
32.26184771566166	2.1788018	1.4760765
32.28009320310852	2.1952524	1.4816384
32.2983395313029	2.2250333	1.4916545
32.31658670082372	2.1578603	1.4689658
32.33483471225012	2.0923612	1.4464996
32.35308356616143	2.142628	1.4637718
32.371333263137245	2.161094	1.470066
32.38958380375734	2.1237028	1.4572929
32.407835188601744	2.0766168	1.4410471
32.42608741825067	2.1364703	1.461667
32.444340493284585	2.152451	1.4671234
32.46259441428416	2.0655632	1.4372067
32.48084918183028	2.044916	1.4300056
32.49910479650405	2.0313601	1.4252579
32.51736125888683	2.0580945	1.4346061
32.53561856956014	2.0849237	1.4439265
32.5538767291058	2.0983272	1.4485604
32.572135738105764	2.0315218	1.4253147
32.59039559714228	1.956217	1.3986483
32.608656306797776	1.9458503	1.3949374
32.62691786765491	1.9750795	1.4053752
32.645180280296586	1.961456	1.4005198
32.663443545305896	1.9452422	1.3947194
32.68170766326619	1.953569	1.3977014
32.69997263476099	1.9172854	1.3846607
32.7182384603741	1.9631344	1.401119
32.7365051406895	2.0245078	1.422852
32.75477267629144	2.0740712	1.4401636
32.77304106776434	2.044581	1.4298885
32.79131031569289	2.0112202	1.418175
32.809580420661966	2.0201707	1.4213271
32.827851383256714	2.0294688	1.4245943
32.84612320406245	2.0148344	1.4194486
32.86439588366476	2.0593026	1.435027
32.88266942264945	2.1128852	1.4535767
32.9009438216025	2.040669	1.4285198
32.9192190811102	1.9327427	1.3902311
32.937495201758985	1.9659913	1.4021381
32.95577218413556	2.0305228	1.4249642
32.974050028826866	2.0657938	1.437287
32.992328736420035	1.9865344	1.4094447
33.010608307502444	1.905852	1.380526
33.02888874266169	1.9055452	1.3804148
33.047170042485604	2.0191264	1.4209597
33.06545220756225	2.0675042	1.4378818
33.083735238479896	2.0503435	1.431902
33.10201913582707	2.1311462	1.4598446
33.12030390019248	2.0901377	1.4457308
33.138589532165135	1.981105	1.4075173
33.15687603233419	1.935075	1.3910698
33.17516340128909	1.9586402	1.3995143
33.19345163961947	1.8525001	1.3610657
33.211740747915215	1.782167	1.3349782
33.23003072676643	1.8430797	1.3576007
33.248321576763466	1.9045564	1.3800566
33.266613298496885	1.9711002	1.4039588
33.28490589255747	1.9518929	1.3971016
33.30319935953626	1.9449605	1.3946184
33.32149370002451	1.9325513	1.3901623
33.339788914613706	1.9500217	1.3964318
33.358085003895575	2.1017926	1.449756
33.376381968462034	2.1883311	1.4793009
33.39467980890529	1.9986184	1.413725
33.41297852581774	1.9325101	1.3901476
33.43127811979204	1.8866671	1.3735601
33.44957859142105	1.8706757	1.3677264
33.467879941297866	1.81824	1.3484213
33.486182170015844	1.916341	1.3843197
33.50448527816853	1.9069121	1.3809099
33.522789266349754	1.9515992	1.3969965
33.541094135153514	2.0090477	1.4174088
33.55939988517411	2.01428	1.4192533
33.57770651700602	2.0247054	1.4229214
33.59601403124398	1.9578367	1.3992271
33.61432242848296	1.9058042	1.3805087
33.632631709318154	1.9258704	1.3877573
33.650941874344994	2.0705504	1.4389408
33.66925292415916	2.0819907	1.4429106
33.68756485935654	2.1146126	1.4541707
33.70587768053328	2.0806324	1.4424398
33.724191388285746	2.047633	1.4309553
33.74250598321054	2.0667515	1.43762
33.760821465904506	2.0247667	1.422943
33.77913783696474	1.9863975	1.4093962
33.79745509698852	1.976966	1.4060463
33.815773246573414	1.9175395	1.3847525
33.8340922863172	1.8322723	1.3536146
33.852412216817896	1.9062438	1.3806679
33.87073303867377	1.8834246	1.3723792
33.889054752483304	1.8687456	1.3670207
33.907377358845245	1.9067292	1.3808436
33.92570085835853	1.9001743	1.378468
33.94402525162239	1.9311546	1.3896599
33.96235053923627	1.9838898	1.4085063
33.980676721799824	1.9690814	1.4032396
33.999003799912984	1.9876664	1.4098462
34.01733177417592	1.916555	1.384397
34.03566064518901	1.8750929	1.3693403
34.0539904135529	1.8282045	1.3521111
34.07232107986846	1.8759454	1.3696516
34.090652644736785	1.8260059	1.3512979
34.108985108759235	1.8368089	1.3552892
34.12731847253742	1.9077145	1.3812004
34.14565273667313	2.0076096	1.4169015
34.16398790176847	2.0304658	1.4249442
34.18232396842574	2.0935512	1.4469109
34.20066093724749	2.0866766	1.4445333
34.21899880883651	1.9396724	1.3927212
34.23733758379583	1.8499101	1.360114
34.25567726272874	1.8336127	1.3541095
34.27401784623872	1.9069386	1.3809195
34.29235933492957	2.0433002	1.4294405
34.31070172940526	2.0458496	1.430332
34.32904503027003	2.0025284	1.4151073
34.347389238128386	1.9510311	1.3967931
34.36573435358502	1.8467544	1.3589535
34.38408037724492	1.7799668	1.334154
34.402427309713296	1.9268705	1.3881176
34.42077515159559	1.9948848	1.412404
34.43912390349752	1.9513777	1.3969172
34.45747356602499	1.9442575	1.3943664
34.47582413978423	2.0241854	1.4227387
34.49417562538163	2.022669	1.4222057
34.51252802342388	1.9799131	1.4070939
34.53088133451789	2.1097991	1.4525148
34.54923555927084	2.0837736	1.4435282
34.567590698290104	1.9040782	1.3798834
34.58594675218336	1.8244797	1.350733
34.6043037215585	1.800586	1.3418591
34.62266160702365	1.9098244	1.381964
34.641020409187234	2.0801535	1.4422737
34.65938012865785	2.0101056	1.417782
34.677740766044394	1.8880833	1.3740754
34.69610232195598	1.8948057	1.3765194
34.714464797002016	1.8285396	1.3522351
34.73282819179208	1.7721759	1.331231
34.751192506936064	1.9390743	1.3925065
34.76955774304408	1.9647181	1.401684
34.7879239007265	1.9814187	1.4076288
34.80629098059391	1.9353187	1.3911573
34.824658983257194	1.9414158	1.393347
34.843027909327446	1.9490918	1.3960987
34.86139775941603	1.8378854	1.3556863
34.879768534134534	1.869129	1.3671609
34.89814023409483	1.9871966	1.4096797
34.91651285990901	2.0632522	1.4364026
34.93488641218944	1.909848	1.3819726
34.95326089154871	1.8574847	1.3628957
34.97163629859967	1.7899598	1.3378938
34.99001263395542	1.6774471	1.2951629
35.00838989822934	1.8531139	1.3612913
35.02676809203499	1.9611332	1.4004047
35.04514721598624	1.8531312	1.3612976
35.063527270697215	1.7432641	1.3203273
35.081908256782256	1.7831194	1.3353349
35.10029017485597	1.8408501	1.3567793
35.11867302553321	2.017701	1.420458
35.137056809429104	1.9292607	1.3889784
35.155441527159006	1.8080513	1.344638
35.173827179338524	1.9294404	1.389043
35.19221376658354	1.9835938	1.4084011
35.21060128951017	2.1511328	1.4666741
35.2289897487348	2.0743072	1.4402455
35.24737914487405	1.9370841	1.3917917
35.26576947854479	1.9199302	1.3856155
35.28416075036418	2.2244332	1.4914534
35.30255296094958	2.2449915	1.4983296
35.32094611091867	2.0315816	1.4253356
35.33934020088932	2.0883193	1.4451019
35.35773523147969	1.9762144	1.4057789
35.3761312033082	1.856469	1.3625231
35.394528116993506	1.7386411	1.3185754
35.41292597315452	1.8558658	1.3623017
35.431324772410434	2.1609974	1.4700332
35.449724515380666	2.2882073	1.5126822
35.46812520268491	2.283949	1.511274
35.486526834943106	2.0657995	1.4372889
35.504929412775454	1.7008767	1.3041767
35.52333293680242	1.8711463	1.3678985
35.54173740764471	2.0562122	1.4339498
35.560142825923286	2.068261	1.4381449
35.5785491922594	1.8804488	1.3712946
35.59695650727454	1.9534361	1.3976538
35.61536477159042	1.8569168	1.3626873
