0.008763373481513119	0.0	0.0
0.026290120649546365	0.11242709	0.3353015
0.043816868432600686	0.121336736	0.34833422
0.06134361724069026	0.08375415	0.2894031
0.07887036748382949	0.08485419	0.29129744
0.0963971195720331	0.052981555	0.23017722
0.11392387391531617	0.04342108	0.20837726
0.1314506309236943	0.097958274	0.31298286
0.1489773910071836	0.11014286	0.33187777
0.16650415457580078	0.15709133	0.3963475
0.18403092203956356	0.11509569	0.33925757
0.20155769380849	0.085634075	0.292633
0.2190844702925996	0.099802844	0.31591588
0.2366112519019124	0.17196424	0.41468573
0.2541380390464497	0.2429198	0.49286896
0.27166483213623416	0.2770955	0.5263986
0.28919163158128947	0.26724583	0.51695824
0.3067184377916406	0.25180462	0.5018014
0.324245251177314	0.20038724	0.44764632
0.34177207214833777	0.2432955	0.49324995
0.3592989011147415	0.25049743	0.50049716
0.37682573848655654	0.1908633	0.43687904
0.39435258467381573	0.11693184	0.34195298
0.41187944008655414	0.10715922	0.32735184
0.42940630513480854	0.14043008	0.37474
0.446933180228618	0.1926163	0.43888074
0.4644600657780234	0.16431367	0.40535623
0.48198696219306775	0.13882051	0.37258625
0.49951386988379676	0.1071762	0.32737777
0.5170407892602581	0.13433118	0.36651218
0.5345677207325025	0.17940418	0.4235613
0.5520946647105822	0.18656266	0.431929
0.5696216216045534	0.15278532	0.39087763
0.5871485918244737	0.115359224	0.33964574
0.6046755757804043	0.12936568	0.35967442
0.6222025738824094	0.15238991	0.3903715
0.6397295865405557	0.18391144	0.42884898
0.6572566141649129	0.19167574	0.4378079
0.6747836571655547	0.2062491	0.45414656
0.6923107159525568	0.19003147	0.435926
0.7098377909359992	0.20841883	0.4565291
0.7273648825259653	0.18493927	0.43004566
0.7448919911325411	0.17703666	0.42075723
0.762419117165817	0.14975971	0.38698798
0.7799462610358868	0.19103512	0.43707564
0.7974734231528482	0.23486157	0.4846252
0.8150006039268024	0.2471732	0.49716517
0.8325278037678551	0.22443429	0.47374496
0.8500550230861152	0.18523632	0.4303909
0.8675822622916969	0.19863747	0.44568765
0.8851095217947171	0.17077501	0.41324934
0.9026368020052984	0.18944873	0.43525708
0.9201641033335665	0.21064426	0.45895997
0.9376914261896523	0.20984055	0.45808357
0.9552187709836915	0.2052208	0.45301303
0.9727461381258234	0.16702768	0.4086902
0.990273528026193	0.16430068	0.4053402
1.0078009410949496	0.18744056	0.43294406
1.0253283777422473	0.22914772	0.47869375
1.0428558383782454	0.23209956	0.48176712
1.0603833234131086	0.26966956	0.5192972
1.0779108332570058	0.27871582	0.52793545
1.0954383683201119	0.3013956	0.5489951
1.112965929012607	0.3389611	0.5822036
1.1304935157446763	0.48920858	0.69943446
1.1480211289265108	0.55682313	0.7462058
1.1655487689683062	1.2837986	1.1330483
1.1830764362802655	1.5346762	1.2388204
1.200604131272596	1.9024708	1.3793008
1.2181318543555117	2.1905196	1.4800404
1.235659605939232	2.276408	1.508777
1.253187386433982	3.6141536	1.9010928
1.270715196249994	6.056286	2.4609523
1.2882430357975057	11.514734	3.3933368
1.3057709054867608	16.470356	4.0583687
1.3232988057280106	22.277925	4.7199497
1.3408267369315112	26.914621	5.1879306
1.358354699507526	30.336435	5.507852
1.3758826938663256	34.01646	5.832363
1.3934107204181858	35.746803	5.9788632
1.410938779573391	36.245907	6.0204573
1.4284668717422309	37.090702	6.090214
1.4459949973350033	36.60365	6.050095
1.4635231567620117	36.495735	6.04117
1.4810513504335687	35.491943	5.9575114
1.4985795787599925	34.921726	5.9094605
1.5161078421516088	34.43285	5.867951
1.5336361410187505	33.87466	5.8201942
1.5511644757717598	34.061485	5.8362217
1.5686928468209842	34.752663	5.8951387
1.58622125457678	35.389366	5.9488964
1.6037496994495108	36.5707	6.0473714
1.621278181849548	36.30799	6.0256114
1.6388067021872719	37.001087	6.082852
1.6563352608730693	36.458305	6.038071
1.673863858317336	35.445297	5.953595
1.6913924949304753	34.583633	5.880785
1.7089211711228998	33.496304	5.787599
1.7264498873050296	32.721703	5.7202888
1.7439786438872935	32.07907	5.663839
1.7615074412801288	31.096174	5.5763946
1.779036279893981	30.741322	5.5444856
1.796565160139305	30.069147	5.4835343
1.814094082426564	29.43364	5.4252777
1.8316230471662298	28.54026	5.3423085
1.849152054768784	27.71459	5.264465
1.8666811056447168	27.036547	5.199668
1.8842102002045273	26.555529	5.153206
1.901739338858724	25.775164	5.076925
1.9192685220178245	25.037544	5.003753
1.9367977500923557	24.285006	4.927982
1.9543270234928547	24.016607	4.9006743
1.971856342629867	23.400354	4.8373914
1.9893857079139496	22.897861	4.785171
2.006915119755667	22.591932	4.753097
2.0244445785655945	22.128347	4.7040777
2.0419740847543175	21.67183	4.655301
2.0595036387324317	20.96324	4.578563
2.0770332409105414	20.407042	4.5174155
2.094562891699263	20.293455	4.5048256
2.1120925915092217	19.850542	4.4553947
2.129622340751053	19.58084	4.425024
2.1471521398354043	187.56842	13.695562
2.1646819891729323	443.87512	21.068344
2.182211889174303	439.9938	20.976028
2.1997418402501974	452.5096	21.272274
2.2172718428113023	432.776	20.803268
2.234801897268317	320.78625	17.910507
2.2523320040319548	17.288822	4.157983
2.269862163512935	16.667025	4.0825267
2.287392376121992	16.212578	4.0264845
2.304922642269869	15.75385	3.969112
2.322452962367322	15.464475	3.9324896
2.3399833368251164	15.114042	3.8876781
2.357513766054032	15.099391	3.8857934
2.3750442504648586	14.890588	3.8588324
2.3925747904683963	14.737053	3.838887
2.410105386475459	14.378141	3.791852
2.4276360388968707	13.818531	3.7173285
2.445166748143469	13.598172	3.6875699
2.4626975146261025	13.306035	3.647744
2.4802283387556323	13.20063	3.6332672
2.4977592209429305	12.944822	3.5978913
2.5152901615988825	12.720611	3.5665965
2.5328211611343865	12.563174	3.5444567
2.5503522199603523	12.133761	3.4833548
2.5678833384877024	11.739247	3.4262586
2.5854145171273712	11.605536	3.40669
2.6029457562903064	11.454345	3.3844268
2.620477056387469	11.498574	3.3909547
2.6380084178298326	11.427001	3.3803847
2.655539841028383	11.374852	3.3726625
2.673071326394119	11.198929	3.3464801
2.6906028743380523	10.972402	3.3124616
2.708134485271211	10.679045	3.2678807
2.7256661596046325	10.492835	3.2392645
2.743197897749369	10.332973	3.2144942
2.760729700116486	10.349586	3.2170773
2.778261567117063	10.149826	3.1858792
2.795793499162193	9.901416	3.1466515
2.8133254966629817	9.72822	3.1190095
2.830857560030551	9.632376	3.103607
2.8483896896760337	9.668937	3.1094913
2.865921886010578	9.511072	3.0840027
2.883454149445347	9.330835	3.0546417
2.9009864803915177	9.187442	3.0310793
2.91851887926028	9.044312	3.0073762
2.9360513464628384	8.971661	2.995273
2.953583882410413	8.735523	2.955592
2.9711164875142373	8.705266	2.9504688
2.9886491621855606	8.590627	2.930977
3.0061819068356455	8.470989	2.9104965
3.023714721875769	8.329636	2.8861108
3.041247607717225	8.196674	2.8629835
3.0587805647713213	8.090215	2.8443303
3.0763135934493806	8.118924	2.8493726
3.0938466941627407	7.9283895	2.8157396
3.1113798673227544	7.769456	2.7873743
3.1289131133407904	7.592237	2.7554014
3.1464464326282315	7.5224595	2.7427104
3.1639798255964786	7.6320953	2.7626247
3.1815132926569443	7.551587	2.7480152
3.1990468342210603	7.4110084	2.7223167
3.216580450700272	7.256715	2.693829
3.2341141425060416	7.1942334	2.6822069
3.251647910049847	7.168541	2.6774132
3.2691817537431813	7.079635	2.6607585
3.286715673997555	6.9185376	2.6303113
3.3042496712244938	6.7765565	2.603182
3.32178374583554	6.6768045	2.5839512
3.339317898242251	6.7142725	2.5911913
3.3568521288562034	6.775575	2.6029935
3.3743864380889876	6.769731	2.6018708
3.3919208263522127	6.663164	2.5813105
3.4094552940575023	6.4981236	2.5491416
3.4269898416164972	6.448155	2.5393217
3.444524469440858	6.4305215	2.5358472
3.4620591779422587	6.3678308	2.523456
3.479593967532391	6.3077383	2.511521
3.4971288386229658	6.27942	2.505877
3.5146637916257086	6.1429896	2.4785056
3.5321988269523628	6.230707	2.4961383
3.5497339450146903	6.2787976	2.5057528
3.5672691462244708	6.429964	2.5357373
3.5848044309934988	6.4010224	2.5300243
3.60233979973359	6.240725	2.4981444
3.619875252856575	6.1382637	2.477552
3.6374107907743034	6.0235143	2.454285
3.6549464138986427	5.9931393	2.448089
3.6724821226414788	5.982033	2.4458194
3.690017917414714	5.971128	2.4435892
3.7075537986302702	6.0230484	2.45419
3.7250897667000857	6.06463	2.462647
3.7426258220361235	6.2378407	2.497567
3.7601619650503553	6.556872	2.560639
3.777698196154779	7.0984244	2.6642869
3.7952345157614067	8.120116	2.8495817
3.8127709242822716	8.974129	2.995685
3.830307422129425	11.056338	3.3251073
3.847844009714936	12.433284	3.526086
3.8653806874508954	15.766886	3.970754
3.882917455749409	15.407507	3.9252398
3.900454315022606	15.602032	3.9499407
3.917991265682631	12.614694	3.551717
3.9355283081416506	10.723331	3.2746499
3.9530654428118495	8.509674	2.9171345
3.970602670105433	7.259058	2.694264
3.9881399904346244	6.40482	2.5307746
4.005677404211669	6.3225837	2.5144749
4.023214911848827	6.303726	2.5107222
4.0407525137583855	6.314845	2.5129356
4.058290210352644	6.3724937	2.52438
4.075828002043927	6.2918057	2.5083473
4.0933658892445814	6.175402	2.4850357
4.110903872366966	6.152582	2.48044
4.128441951823468	6.015781	2.452709
4.145980128026488	5.9141474	2.431902
4.163518401388452	5.8620443	2.421166
4.181056772321807	5.9250083	2.434134
4.1985952412390155	6.0321875	2.456051
4.216133808552567	6.0637627	2.4624708
4.233672474674966	6.1338243	2.476656
4.251211240018741	6.3365703	2.5172546
4.268750104996445	6.6496506	2.5786917
4.286289070020643	7.564348	2.750336
4.303828135503928	9.111408	3.0185108
4.3213673018589125	29.260084	5.4092593
4.3389065694982305	90.386795	9.507197
4.356445938834537	165.54889	12.86658
4.3739854102805085	171.08455	13.079929
4.391524984248844	171.95842	13.113292
4.409064661152262	136.1208	11.667082
4.426604441403504	96.511406	9.824022
4.444144325415337	75.64994	8.697698
4.461684313600543	21.426592	4.6288867
4.47922440637193	21.498531	4.636651
4.496764604142329	19.537786	4.420157
4.5143049073245916	17.701664	4.2073345
4.531845316331589	15.989662	3.9987075
4.5493858315762195	13.52211	3.6772423
4.566926453471405	11.369735	3.3719037
4.584467182430081	9.123383	3.0204937
4.602008018865218	7.893665	2.8095667
4.619548963189798	7.149007	2.6737626
4.637090015816834	6.7852936	2.6048596
4.654631177159353	6.410713	2.5319386
4.672172447630417	6.113729	2.4725957
4.689713827643102	6.031742	2.4559605
4.7072553176105085	5.967138	2.4427726
4.724796917945764	5.8628087	2.4213238
4.742338629062015	5.7307086	2.39389
4.759880451372434	5.66095	2.379275
4.777422385290215	5.6243954	2.3715808
4.794964431228581	5.5007424	2.3453662
4.812506589600768	5.4652452	2.3377864
4.830048860820047	5.4621744	2.3371296
4.847591245299709	5.6035447	2.3671808
4.8651337434530655	5.570362	2.3601615
4.882676355693457	5.5206323	2.3496025
4.900219082434242	5.473642	2.3395815
4.917761924088813	5.451596	2.3348653
4.935304881070575	5.4066086	2.3252115
4.952847953792969	5.404673	2.3247952
4.970391142669449	5.3495	2.3128986
4.9879344481135055	5.3556004	2.314217
5.005477870538642	5.275014	2.2967398
5.023021410358394	5.3600955	2.315188
5.040565067986324	5.3957496	2.3228753
5.05810884383601	5.347922	2.3125575
5.075652738321066	5.2091885	2.2823646
5.09319675185512	5.186903	2.2774773
5.110740884851836	5.1979814	2.2799082
5.128285137724894	5.2323437	2.2874317
5.145829510888007	5.1813235	2.276252
5.163374004754908	5.2397733	2.289055
5.1809186197393595	5.2551723	2.2924163
5.198463356255145	5.2404466	2.2892022
5.216008214716077	5.170053	2.273775
5.233553195535998	5.2084165	2.2821956
5.251098299128764	5.175839	2.275047
5.268643525908272	5.214718	2.2835758
5.286188876288432	5.167223	2.2731526
5.3037343506831895	5.1700535	2.273775
5.32127994950651	5.1514926	2.26969
5.3388256731723915	5.1551375	2.2704928
5.356371522094851	5.1288676	2.2647004
5.373917496687938	5.144877	2.268232
5.391463597365729	5.1321287	2.2654202
5.40900982454232	5.071901	2.252088
5.426556178631843	5.0960693	2.2574475
5.444102660048449	5.0341296	2.2436867
5.4616492692063225	5.050491	2.2473297
5.479196006519669	5.033269	2.2434947
5.496742872402727	5.002287	2.2365792
5.514289867269756	5.030497	2.242877
5.531836991535049	5.0634794	2.2502177
5.549384245612924	5.077693	2.2533736
5.566931629917724	5.0218587	2.2409503
5.584479144863822	4.9466496	2.2241066
5.6020267908656205	4.9409504	2.2228248
5.619574568337545	5.009339	2.2381551
5.637122477694054	5.034607	2.243793
5.654670519349629	5.084996	2.2549937
5.672218693718784	5.098083	2.2578936
5.689767001216059	5.150146	2.2693932
5.707315442256021	5.1336465	2.2657552
5.724864017253266	5.130328	2.2650228
5.7424127266224225	5.106294	2.259711
5.75996157077814	5.017426	2.2399611
5.777510550135105	5.037462	2.244429
5.795059665108022	5.082519	2.2544444
5.812608916111639	5.1498413	2.2693262
5.830158303560715	5.241177	2.2893617
5.847707827870055	5.210324	2.2826133
5.86525748945448	5.2167096	2.2840118
5.8828072887288485	5.330826	2.3088582
5.900357226108044	5.440856	2.3325644
5.917907302006979	5.4027734	2.3243866
5.9354575168406	5.8700256	2.4228137
5.9530078710238765	6.3302336	2.5159955
5.970558364971812	6.9127326	2.6292076
5.988108999099438	7.2663946	2.695625
6.005659773821818	7.880579	2.807237
6.023210689554039	7.6074615	2.7581627
6.040761746711227	7.9837623	2.8255553
6.058312945708531	7.422627	2.7244499
6.075864286961132	6.9545426	2.6371467
6.093415770884244	6.3164086	2.5132465
6.1109673978931065	5.8603115	2.420808
6.128519168402993	5.3819747	2.3199084
6.146071082829204	5.2757444	2.2968988
6.163623141587075	5.144826	2.268221
6.181175345091969	5.0408125	2.2451754
6.198727693759281	5.0217395	2.240924
6.216280188004435	5.0045424	2.2370834
6.233832828242885	5.032718	2.243372
6.251385614890126	5.0774064	2.2533102
6.268938548361669	5.0593743	2.2493052
6.286491629073067	5.002791	2.236692
6.304044857439898	5.027614	2.2422342
6.321598233877777	4.99381	2.2346835
6.339151758802344	4.9937263	2.2346647
6.356705432629277	4.9254847	2.2193432
6.37425925577428	4.880095	2.2090938
6.391813228653095	4.8486133	2.2019567
6.409367351681486	4.8550696	2.2034223
6.426921625275259	4.905671	2.214875
6.44447604985025	4.900274	2.2136562
6.46203062582232	4.92979	2.220313
6.47958535360737	4.8904176	2.2114289
6.497140233621328	4.9262085	2.2195063
6.514695266280161	4.903821	2.2144573
6.532250451999859	4.900062	2.2136085
6.549805791196454	4.9022884	2.214111
6.567361284286002	4.9054074	2.2148154
6.584916931684597	4.9172454	2.2174864
6.602472733808367	4.907638	2.215319
6.6200286910734665	4.8978567	2.2131102
6.637584803896092	4.8758917	2.208142
6.655141072692462	4.878082	2.208638
6.672697497878842	4.898528	2.2132618
6.690254079871514	4.9175425	2.2175534
6.707810819086808	4.9196787	2.218035
6.725367715941078	4.8462243	2.201414
6.742924770850719	4.8586354	2.2042313
6.760481984232151	4.925352	2.2193134
6.778039356501836	4.929058	2.2201483
6.795596888076266	4.9614034	2.2274208
6.813154579371963	4.982137	2.2320702
6.830712430805492	4.9678297	2.2288628
6.84827044279344	4.902631	2.2141886
6.865828615752445	4.880225	2.2091231
6.883386950099159	4.910401	2.2159424
6.900945446250287	4.8965716	2.2128198
6.918504104622553	4.8671355	2.2061586
6.936062925632727	4.825398	2.1966789
6.953621909697607	4.831432	2.198052
6.971181057234028	4.8989286	2.2133524
6.988740368658859	4.9933405	2.2345784
7.006299844389007	5.10223	2.2588117
7.023859484841407	5.1689997	2.2735434
7.041419290433036	5.226346	2.2861204
7.058979261580902	5.324681	2.307527
7.0765393987020495	5.5278926	2.3511472
7.094099702213559	5.9383235	2.4368675
7.111660172532549	6.3100386	2.511979
7.129220810076164	6.6672254	2.582097
7.146781615261595	7.249811	2.6925473
7.16434258850606	7.4242663	2.7247508
7.181903730226821	7.8026276	2.7933183
7.1994650408411704	7.8208723	2.7965822
7.217026520766437	8.033733	2.8343842
7.234588170419983	8.281183	2.8777046
7.252149990219215	8.240799	2.8706791
7.269711980581568	8.165827	2.8575912
7.2872741419245175	7.9365573	2.8171897
7.304836474665574	7.648812	2.7656486
7.322398979222286	7.3639407	2.713658
7.339961656012233	7.10613	2.6657326
7.357524505453039	6.7392015	2.5959973
7.375087527962357	6.4348454	2.5366998
7.392650723957886	6.154237	2.4807734
7.410214093857353	5.808375	2.410057
7.427777638078528	5.61591	2.369791
7.445341357039213	5.38377	2.3202953
7.4629052511572525	5.2423368	2.289615
7.480469320850524	5.1871195	2.277525
7.498033566536948	5.1641073	2.2724671
7.5155979886344735	5.1587644	2.2712913
7.5331625875610975	5.104014	2.2592065
7.550727363734844	5.0981817	2.2579153
7.568292317573788	5.083145	2.2545831
7.585857449496025	5.1049294	2.2594092
7.603422759919705	5.083636	2.2546918
7.620988249263007	5.0532074	2.247934
7.638553917944147	5.0732102	2.2523787
7.656119766381391	5.0981545	2.2579093
7.673685794993023	5.115908	2.2618372
7.691252004197388	5.040592	2.2451262
7.70881839441285	5.089719	2.2560406
7.726384966057826	5.1428285	2.2677805
7.743951719550762	5.172652	2.2743464
7.761518655310149	5.088265	2.2557182
7.779085773754511	5.0527363	2.2478292
7.796653075302419	5.0376415	2.2444692
7.814220560372475	5.0899906	2.2561007
7.831788229383323	5.1500382	2.2693696
7.8493560827536495	5.2096176	2.2824588
7.866924120902174	5.271936	2.2960696
7.884492344247663	5.2559524	2.2925863
7.9020607532089135	5.282889	2.2984536
7.919629348204771	5.2713957	2.295952
7.937198129654115	5.253849	2.2921276
7.954767097975865	5.2719307	2.2960684
7.972336253588986	5.2526946	2.2918758
7.989905596912472	5.290247	2.3000536
8.007475128365371	5.262284	2.2939668
8.025044848366756	5.3541555	2.3139048
8.042614757335754	5.541792	2.3541012
8.060184855691523	5.627795	2.3722975
8.07775514385327	5.68659	2.3846571
8.095325622240228	5.7066445	2.3888583
8.112896291271687	5.723719	2.3924296
8.130467151366968	5.75581	2.3991268
8.148038202945436	5.788752	2.4059825
8.165609446426497	5.8128476	2.4109848
8.183180882229594	5.859806	2.4207036
8.200752510774217	5.790719	2.4063914
8.218324332479893	5.7896295	2.406165
8.235896347766193	5.823856	2.4132667
8.253468557052724	5.895463	2.4280574
8.27104096075914	5.899557	2.4289005
8.288613559305137	5.9284487	2.4348407
8.306186353110448	5.9353733	2.4362621
8.32375934259485	6.02352	2.454286
8.341332528178162	6.0623627	2.4621866
8.358905910280246	6.1131115	2.4724708
8.376479489321003	6.117245	2.4733064
8.394053265720377	6.11274	2.4723957
8.411627239898356	6.13719	2.4773352
8.42920141227497	6.168444	2.4836352
8.44677578327029	6.208919	2.4917703
8.464350353304427	6.1745434	2.4848628
8.48192512279754	6.1372604	2.4773495
8.499500092169827	6.078121	2.4653845
8.51707526184153	6.0495105	2.4595752
8.534650632232934	6.0850224	2.4667838
8.552226203764365	6.101925	2.4702075
8.569801976856192	6.098564	2.469527
8.587377951928834	6.0781465	2.4653897
8.60495412940274	6.102676	2.4703596
8.622530509698416	6.1661444	2.4831722
8.6401070932364	6.267318	2.5034611
8.657683880437283	6.434413	2.5366144
8.675260871721695	6.566956	2.5626073
8.692838067510303	6.7996073	2.6076057
8.710415468223834	6.906265	2.6279774
8.727993074283043	7.0091014	2.6474707
8.745570886108737	6.9934626	2.6445155
8.763148904121765	6.9771147	2.6414227
8.78072712874302	7.0082226	2.6473048
8.798305560393441	7.225976	2.6881175
8.815884199494006	7.4288507	2.725592
8.833463046465745	7.586972	2.7544458
8.851042101729728	7.7380123	2.7817283
8.86862136570707	8.072526	2.8412192
8.886200838818924	8.231005	2.8689728
8.903780521486505	8.275215	2.8766673
8.921360414131055	8.3271	2.8856714
8.938940517173874	8.437444	2.904728
8.956520831036297	8.576538	2.9285727
8.97410135613971	8.896518	2.9827032
8.99168209290554	9.018398	3.0030649
9.009263041755265	9.3453	3.0570083
9.026844203110405	9.576576	3.0946045
9.044425577392525	9.748735	3.1222966
9.062007165023239	9.7513	3.1227071
9.079588966424197	10.010847	3.1639922
9.097170982017108	10.167884	3.188712
9.11475321222372	11.0766	3.3281527
9.132335657465825	12.002065	3.4643996
9.149918318165264	12.060505	3.4728239
9.167501194743924	12.60081	3.549762
9.18508428762374	12.341207	3.5130053
9.202667597226693	12.333212	3.5118673
9.220251123974803	11.8973	3.4492462
9.237834868290143	11.6295	3.4102054
9.255418830594836	11.356344	3.3699176
9.273003011311046	10.904655	3.3022199
9.290587410860985	10.723204	3.2746303
9.308172029666911	10.213997	3.1959345
9.32575686815113	9.937734	3.1524172
9.343341926735997	8.642497	2.9398124
9.360927205843916	8.293255	2.8798013
9.378512705897327	8.067305	2.8403
9.396098427318728	7.8589296	2.8033783
9.413684370530664	7.7877216	2.790649
9.431270535955722	7.705567	2.7758904
9.448856924016539	7.702225	2.7752883
9.466443535135806	7.618187	2.7601063
9.484030369736251	7.6685104	2.7692075
9.501617428240658	7.6890197	2.7729082
9.519204711071852	7.658606	2.7674186
9.536792218652714	7.654788	2.7667286
9.55437995140617	7.6898375	2.7730556
9.571967909755191	7.742447	2.7825253
9.589556094122802	7.7565	2.7850494
9.60714450493207	7.7283316	2.7799876
9.624733142606116	7.7151546	2.7776167
9.642322007568108	7.75818	2.785351
9.659911100241267	7.7381434	2.7817519
9.677500421048851	7.8191476	2.796274
9.695089970414175	7.9114327	2.812727
9.712679748760609	8.053018	2.8377838
9.730269756511557	8.094041	2.845003
9.747859994090492	8.055743	2.8382642
9.765450461920915	7.9581404	2.8210175
9.78304116042639	7.973487	2.8237364
9.800632090030527	7.98502	2.8257778
9.81822325115699	8.028393	2.833442
9.835814644229481	8.035785	2.834746
9.853406269671762	8.022952	2.8324816
9.870998127907646	8.0215435	2.832233
9.888590219360985	8.008045	2.829849
9.906182544455698	8.039856	2.835464
9.923775103615734	8.105981	2.8471005
9.941367897265108	8.108182	2.847487
9.958960925827878	8.057306	2.8385394
9.97655418972816	8.100862	2.8462012
9.994147689390106	8.133035	2.8518476
10.011741425237934	8.179431	2.8599703
10.029335397695904	8.206349	2.8646727
10.04692960718833	8.202612	2.8640203
10.06452405413958	8.199713	2.863514
10.082118738974064	8.161373	2.8568118
10.099713662116246	8.048569	2.837
10.117308823990651	7.9631057	2.8218975
10.134904225021844	7.8759913	2.8064196
10.152499865634445	7.877995	2.8067765
10.170095746253125	7.86449	2.80437
10.18769186730261	7.958484	2.8210785
10.205288229207675	8.06065	2.8391283
10.222884832393145	8.034292	2.8344827
10.2404816772839	8.006634	2.8295996
10.258078764304868	7.9308558	2.8161776
10.275676093881035	7.917279	2.813766
10.293273666437438	7.9044123	2.8114786
10.310871482399158	7.925688	2.8152597
10.32846954219134	7.9673357	2.8226469
10.346067846239173	7.9779215	2.8245215
10.363666394967908	7.988682	2.8264256
10.38126518880283	8.0113325	2.8304298
10.398864228169298	8.004427	2.8292096
10.416463513492713	8.012376	2.830614
10.434063045198531	7.9800816	2.8249037
10.451662823712262	7.961231	2.8215654
10.469262849459467	8.078496	2.8422694
10.486863122865758	8.025986	2.833017
10.504463644356806	8.039747	2.8354447
10.522064414358338	7.938343	2.8175066
10.539665433296118	7.882654	2.8076065
10.557266701595987	7.7479563	2.783515
10.574868219683818	7.6259165	2.761506
10.592469987985552	7.5176997	2.7418425
10.610072006927185	7.409578	2.722054
10.627674276934751	7.2870655	2.6994565
10.64527679843435	7.13064	2.6703258
10.662879571852143	7.0517125	2.6555061
10.680482597614331	6.970389	2.6401494
10.698085876147173	6.8715506	2.6213644
10.715689407876988	6.7246895	2.5932007
10.733293193230146	6.6912065	2.5867367
10.750897232633072	6.5958285	2.5682344
10.76850152651225	6.492372	2.5480134
10.786106075294207	6.407971	2.531397
10.803710879405534	6.3466706	2.51926
10.821315939272877	6.313149	2.512598
10.83892125532294	6.2475953	2.499519
10.856526827982472	6.200266	2.4900334
10.874132657678285	6.173304	2.4846134
10.891738744837243	6.118026	2.4734643
10.909345089886271	6.0339	2.4563997
10.926951693252343	6.0076213	2.451045
10.944558555362494	5.974567	2.4442928
10.96216567664381	5.9112973	2.431316
10.979773057523436	5.8683543	2.4224687
10.997380698428573	5.8262362	2.4137597
11.014988599786477	5.731202	2.393993
11.032596762024461	5.624638	2.3716319
11.050205185569892	5.4990034	2.3449955
11.067813870850198	5.419163	2.3279097
11.085422818292859	5.3269296	2.3080142
11.10303202832541	5.2715707	2.2959902
11.120641501375454	5.2504077	2.2913768
11.138251237870636	5.22147	2.2850535
11.155861238238671	5.1919823	2.278592
11.173471502907317	5.1653857	2.2727485
11.191082032304402	5.073427	2.2524269
11.208692826857805	4.9488654	2.2246046
11.226303886995465	4.8428917	2.2006571
11.243915213145371	4.8297043	2.1976588
11.261526805735578	4.8198056	2.1954055
11.279138665194196	4.7807474	2.186492
11.296750791949393	4.74421	2.1781206
11.314363186429393	4.7318187	2.1752744
11.331975849062479	4.7361364	2.1762667
11.34958878027699	4.6415577	2.1544275
11.36720198050133	4.5635023	2.1362355
11.384815450163948	4.502292	2.1218605
11.402429189693366	4.4872546	2.118314
11.420043199518153	4.450684	2.1096644
11.437657480066942	63.38541	7.9614954
11.455272031768422	85.105034	9.225239
11.472886855051353	107.46558	10.366561
11.490501950344528	99.020256	9.950892
11.508117318076819	84.328415	9.18305
11.52573295867715	45.694023	6.7597356
11.543348872574514	4.0321712	2.0080266
11.560965060197946	4.055918	2.013931
11.57858152197655	4.0800257	2.0199072
11.59619825833949	3.9932494	1.9983116
11.613815269715985	3.9282792	1.9819887
11.631432556535323	38.430122	6.1992035
11.649050119226837	82.9679	9.108672
11.666667958219929	93.38552	9.663618
11.68428607394406	107.619415	10.373978
11.701904466828756	82.4343	9.079334
11.719523137303586	65.3053	8.081169
11.737142085798196	4.5315795	2.1287508
11.754761312742286	3.6297407	1.9051878
11.772380818565619	3.5826416	1.8927867
11.790000603698015	3.5902774	1.8948027
11.80762066856935	3.6237645	1.9036188
11.825241013609572	3.626683	1.9043852
11.842861639248683	3.5088353	1.8731885
11.860482545916748	3.3720412	1.8363118
11.878103734043883	3.301205	1.8169218
11.895725204060282	3.2976143	1.8159335
11.91334695639619	3.3279681	1.8242719
11.930968991481919	3.3368864	1.8267146
11.948591309747824	3.338851	1.8272523
11.966213911624347	3.310762	1.8195499
11.98383679754198	3.268736	1.8079646
12.001459967931268	3.2174006	1.7937114
12.019083423222835	3.2010045	1.7891351
12.036707163847352	3.2077825	1.7910284
12.05433119023556	3.2025282	1.7895609
12.071955502818259	3.2042055	1.7900295
12.089580102026313	3.1666343	1.779504
12.107204988290643	3.1532886	1.7757502
12.12483016204224	3.1210332	1.7666446
12.142455623712152	3.0582473	1.7487845
12.16008137373149	3.0187678	1.7374601
12.177707412531431	3.0013087	1.7324286
12.19533374054321	3.0248694	1.7392151
12.212960358198126	3.0145237	1.7362384
12.230587265927545	3.0000057	1.7320524
12.248214464162889	2.9599628	1.7204542
12.265841953335649	2.9456522	1.7162902
12.283469733877375	2.940518	1.7147938
12.301097806219685	2.895021	1.7014761
12.31872617079425	2.8748868	1.6955491
12.336354828032825	2.8560877	1.6899964
12.353983778367205	2.885395	1.6986451
12.371613022229262	2.8845437	1.6983944
12.389242560050928	2.9039598	1.7041008
12.406872392264201	2.8767498	1.6960984
12.424502519301143	2.8364434	1.6841744
12.442132941593874	2.7647321	1.6627483
12.459763659574586	2.727481	1.6515087
12.477394673675532	2.7277176	1.6515803
12.49502598432903	2.7324557	1.6530142
12.51265759196746	2.7495127	1.6581655
12.530289497023267	2.7361786	1.6541399
12.547921699928967	2.7583175	1.6608183
12.565554201117134	2.7407334	1.655516
12.583187001020404	2.7377121	1.6546034
12.600820100071486	2.7059138	1.6449662
12.618453498703152	2.688848	1.6397707
12.636087197348235	2.6860545	1.6389186
12.65372119643964	2.7257707	1.6509908
12.671355496410326	2.7416198	1.6557838
12.68899009769333	2.7614982	1.6617756
12.706625000721749	2.778144	1.6667765
12.724260205928752	2.8213599	1.6796904
12.741895713747551	2.887292	1.6992034
12.759531524611454	2.9291022	1.711462
12.777167638953818	2.8877022	1.699324
12.794804057208072	2.873782	1.6952232
12.812440779807702	2.9158769	1.7075939
12.830077807186271	3.1046698	1.7620074
12.847715139777405	3.1720035	1.7810119
12.865352778014795	3.395163	1.8425968
12.882990722332197	3.4663424	1.8618116
12.90062897316344	3.5383658	1.8810544
12.918267530942412	3.5841084	1.8931742
12.935906396103071	3.5076003	1.8728589
12.953545569079449	3.631711	1.9057049
12.971185050305628	3.4654746	1.8615786
12.988824840215775	3.469997	1.8627927
13.006464939244115	3.5005465	1.8709748
13.024105347824943	3.3567848	1.8321531
13.041746066392617	3.439822	1.8546757
13.05938709538157	3.2247438	1.7957572
13.077028435226296	3.2556436	1.8043402
13.094670086361363	3.1787136	1.7828947
13.112312049221401	3.1180253	1.7657931
13.129954324241112	3.041191	1.7439011
13.147596911855258	2.8801584	1.6971029
13.165239812498685	2.8417919	1.6857615
13.182883026606293	2.7560878	1.660147
13.200526554613058	2.6967356	1.642174
13.218170396954017	2.6603057	1.6310444
13.235814554064284	2.6475632	1.6271335
13.253459026379034	2.653622	1.6289941
13.271103814333523	2.6170602	1.617733
13.288748918363058	2.6148736	1.6170571
13.306394338903031	2.6368713	1.6238446
13.32404007638889	2.6433833	1.6258485
13.341686131256164	2.664547	1.632344
13.359332503940449	2.6456907	1.626558
13.376979194877402	2.6566703	1.6299295
13.394626204502751	2.662749	1.6317933
13.412273533252307	2.6687784	1.6336396
13.429921181561937	2.671738	1.6345452
13.447569149867581	2.685689	1.6388072
13.465217438605247	2.693423	1.6411651
13.482866048211022	2.6848705	1.6385574
13.500514979121052	2.6887777	1.6397493
13.518164231771568	2.6385264	1.6243541
13.535813806598844	2.601145	1.6128066
13.553463704039254	2.5590103	1.5996907
13.571113924529229	2.5601943	1.6000607
13.588764468505275	2.5950706	1.6109223
13.606415336403956	2.6588225	1.6305896
13.624066528661917	2.6876051	1.6393917
13.641718045715882	2.7366846	1.6542928
13.659369888002635	2.7938178	1.6714717
13.67702205595903	2.8245606	1.680643
13.694674550021993	2.8952398	1.7015405
13.712327370628532	2.9374442	1.7138973
13.729980518215713	3.0002632	1.7321268
13.747633993220681	3.0898516	1.7577974
13.765287796080647	3.144263	1.773207
13.7829419272329	3.1983826	1.7884022
13.800596387114801	3.2604985	1.805685
13.818251176163775	3.2981937	1.816093
13.835906294817324	3.3654282	1.8345103
13.853561743513023	3.3941426	1.8423198
13.871217522688525	3.4269109	1.8511918
13.888873632781538	3.4696467	1.8626988
13.906530074229858	3.4358468	1.8536037
13.92418684747135	3.417097	1.8485392
13.941843952943948	3.4104476	1.8467398
13.959501391085665	3.4195197	1.8491943
13.977159162334578	3.3481176	1.8297862
13.994817267128846	3.317475	1.8213937
14.012475705906693	3.2398427	1.7999563
14.030134479106424	3.1705842	1.7806134
14.047793587166414	3.0724895	1.7528518
14.065453030525108	3.0061467	1.7338243
14.083112809621026	2.934612	1.713071
14.100772924892766	2.881891	1.6976134
14.118433376778997	2.8603635	1.6912609
14.136094165718458	2.7918425	1.6708808
14.153755292149969	2.7134442	1.6472535
14.171416756512416	2.6358836	1.6235404
14.189078559244768	2.582077	1.6068842
14.20674070078606	2.5119083	1.5849001
14.224403181575408	2.4452858	1.563741
14.242066002051999	2.3870912	1.5450214
14.259729162655093	2.3667278	1.5384173
14.277392663824022	2.3972979	1.548321
14.295056505998208	2.3601658	1.5362831
14.312720689617128	2.3538983	1.5342419
14.330385215120348	2.3355117	1.528238
14.348050082947497	2.3514025	1.5334283
14.3657152935383	2.3728833	1.5404166
14.383380847332528	2.3999643	1.5491818
14.401046744770051	2.4194994	1.555474
14.418712986290798	2.391503	1.5464486
14.436379572334793	2.378332	1.5421841
14.454046503342123	2.3810062	1.543051
14.471713779752946	2.4244735	1.557072
14.489381402007504	2.4206755	1.555852
14.507049370546113	2.4006476	1.5494024
14.524717685809168	2.3917012	1.5465126
14.542386348237134	2.4151826	1.5540857
14.560055358270553	2.3816426	1.5432571
14.577724716350051	2.3992517	1.5489519
14.595394422916325	2.3973658	1.548343
14.61306447841015	2.4387167	1.5616391
14.63073488327237	2.4338267	1.5600727
14.648405637943917	2.4653971	1.5701584
14.6660767428658	2.4651928	1.5700933
14.683748198479094	2.4611971	1.5688204
14.701420005224954	2.5048892	1.5826842
14.719092163544628	2.58876	1.6089624
14.73676467387942	2.6106834	1.6157609
14.754437536670727	2.6396902	1.6247123
14.772110752360014	2.6658547	1.6327446
14.78978432138882	2.69694	1.6422362
14.807458244198777	2.7105303	1.6463689
14.82513252123159	2.6775417	1.6363195
14.842807152929028	2.6817968	1.6376193
14.860482139732962	2.6440613	1.626057
14.87815748208531	2.6247435	1.620106
14.8958331804281	2.615135	1.6171379
14.91350923520342	2.5967417	1.6114409
14.931185646853438	2.609269	1.6153232
14.948862415820408	2.5742853	1.604458
14.966539542546656	2.5868342	1.6083639
14.98421702747459	2.5729876	1.6040535
15.001894871046696	2.6127694	1.6164063
15.019573073705542	2.648159	1.6273165
15.037251635893766	2.6728818	1.6348951
15.054930558054092	2.6958442	1.6419026
15.072609840629323	2.6598763	1.6309128
15.090289484062351	2.7232985	1.650242
15.107969488796124	2.8423827	1.6859367
15.125649855273691	3.0510168	1.746716
15.14333058393817	3.4343638	1.8532037
15.161011675232768	4.03519	2.0087783
15.17869312960076	4.735841	2.1761987
15.196374947485506	5.3976603	2.3232865
15.214057129330447	6.732318	2.594671
15.231739675579114	8.759367	2.9596229
15.249422586675102	13.171068	3.6291966
15.267105863062092	17.57525	4.1922846
15.284789505183847	24.639446	4.963814
15.302473513484218	29.502005	5.431575
15.320157888407127	33.455784	5.7840977
15.337842630396578	32.3527	5.6879435
15.355527739896656	29.474182	5.429013
15.37321321735153	22.92578	4.7880874
15.39089906320545	15.598211	3.9494572
15.408585277902748	10.137286	3.1839106
15.42627186188783	6.3651857	2.522932
15.443958815605198	4.5978923	2.1442697
15.461646139499424	3.7703092	1.9417284
15.479333834015168	3.43627	1.8537179
15.497021899597165	3.1222935	1.7670013
15.514710336690234	2.8776598	1.6963667
15.53239914573928	2.6781824	1.6365153
15.550088327189297	2.5741704	1.6044221
15.567777881485336	2.5142004	1.585623
15.58546780907256	2.5343099	1.5919516
15.6031581103962	2.5066493	1.5832402
15.620848785901568	2.4639335	1.5696921
15.638539836034063	2.4171534	1.5547197
15.656231261239173	2.414558	1.5538847
15.673923061962451	2.4133372	1.553492
15.691615238649552	2.4042737	1.550572
15.709307791746202	2.3931	1.5469648
15.727000721698221	2.3750215	1.5411105
15.744694028951498	2.4047003	1.5507096
15.76238771395202	2.3935275	1.5471029
15.780081777145844	2.3810322	1.5430593
15.797776218979125	2.3332367	1.5274936
15.815471039898094	2.33284	1.5273638
15.833166240349064	2.3487191	1.5325532
15.850861820778437	2.365521	1.538025
15.868557781632699	2.3860965	1.5446994
15.886254123358412	2.3759012	1.5413959
15.903950846402232	2.3873534	1.5451063
15.921647951210897	2.4229803	1.5565926
15.939345438231225	2.4682667	1.5710719
15.957043307910133	2.502411	1.5819011
15.974741560694602	2.4970672	1.5802112
15.992440197031714	2.5071528	1.5833992
16.01013921736862	2.4974582	1.5803349
16.02783862215259	2.5188985	1.5871038
16.045538411830933	2.5055773	1.5829016
16.06323858685107	2.4786751	1.5743809
16.080939147660512	2.4771674	1.573902
16.09864009470684	2.447362	1.5644046
16.11634142843774	2.4255567	1.5574199
16.134043149300954	2.3962266	1.5479751
16.15174525774433	2.3714588	1.5399542
16.169447754215817	2.3643603	1.5376476
16.18715063916342	2.3483584	1.5324354
16.204853913035244	2.3673766	1.5386281
16.222557576279478	2.4004543	1.54934
16.240261629344403	22.385096	4.731289
16.257966072678386	42.91088	6.5506396
16.275670906729868	38.0278	6.1666684
16.293376131947387	2.4948494	1.5795093
16.31108174877957	2.5031648	1.5821393
16.328787757675133	2.5122623	1.5850118
16.34649415908287	2.535458	1.5923122
16.364200953451657	2.5915387	1.6098256
16.38190814123048	2.6176877	1.617927
16.39961572286839	2.6554596	1.6295581
16.41732369881455	2.6583486	1.6304443
16.43503206951817	2.6863418	1.6390064
16.45274083542859	2.7019312	1.6437552
16.47044999699522	2.7489872	1.658007
16.488159554667558	2.8031747	1.6742684
16.505869508895184	2.8526108	1.6889673
16.523579860127786	2.9420056	1.7152276
16.541290608815117	2.9906354	1.7293453
16.559001755407035	3.0162508	1.7367357
16.57671330035348	3.087343	1.7570837
16.59442524410448	3.1687684	1.7801034
16.61213758711015	3.3205	1.8222239
16.629850329820705	3.3569477	1.8321975
16.647563472686436	3.412103	1.8471879
16.665277016157724	3.3650386	1.8344041
16.682990960685053	3.4195704	1.8492081
16.70070530671898	3.439869	1.8546884
16.718420054710155	3.4761186	1.8644352
16.736135205109335	3.5071862	1.8727483
16.753850758367335	3.533206	1.8796824
16.771566714935087	3.5480263	1.8836205
16.789283075263597	3.567631	1.8888173
16.80699983980398	3.6195168	1.9025028
16.82471700900741	3.7066195	1.9252583
16.84243458332518	3.835226	1.9583733
16.860152563208665	3.9300613	1.9824382
16.87787094910932	3.989201	1.9972985
16.89558974147871	4.006201	2.0015495
16.913308940768466	4.0573573	2.0142882
16.931028547430333	4.127555	2.0316384
16.94874856191613	4.223519	2.0551202
16.966468984677785	4.2833166	2.0696175
16.98418981616729	4.316759	2.0776813
17.00191105683676	4.349651	2.0855815
17.019632707138374	4.4249134	2.1035478
17.03735476752442	4.469863	2.1142051
17.05507723844728	4.539526	2.1306164
17.072800120359403	4.513247	2.1244404
17.090523413713353	4.539591	2.1306314
17.108247118961785	4.5394363	2.1305952
17.125971236557437	4.5546694	2.1341672
17.143695766953133	4.5751486	2.1389596
17.161420710601806	4.5203786	2.1261182
17.179146067956477	4.522734	2.126672
17.19687183947025	4.5014586	2.121664
17.21459802559634	4.5533795	2.1338649
17.232324626788028	4.552363	2.1336267
17.25005164349871	4.5600924	2.1354373
17.267779076181863	4.6123967	2.147649
17.285506925291074	4.5863132	2.141568
17.30323519127999	4.5663004	2.1368904
17.320963874602384	4.5370297	2.1300304
17.33869297571211	4.545732	2.1320722
17.356422495063114	4.5517898	2.1334925
17.37415243310944	4.5438952	2.1316414
17.391882790305218	4.5806794	2.140252
17.40961356710468	4.549672	2.132996
17.42734476396215	4.5274606	2.127783
17.445076381332044	4.5493345	2.132917
17.462808419668868	4.53272	2.1290185
17.48054087942723	4.6301713	2.1517832
17.498273761061835	4.7456365	2.1784482
17.51600706502747	5.13615	2.2663076
17.533740791779024	5.7234545	2.3923743
17.551474941771485	6.63286	2.575434
17.56920951545993	8.574268	2.9281852
17.586944513299528	9.832781	3.1357265
17.60467993574556	12.61441	3.5516772
17.622415783253373	15.165002	3.8942268
17.64015205627843	17.951902	4.2369685
17.657888755276293	20.252226	4.5002475
17.675625880702604	21.748938	4.6635756
17.69336343301311	20.175129	4.4916735
17.71110141266366	18.012917	4.2441626
17.728839820110178	15.241936	3.904092
17.746578655808705	12.169149	3.4884307
17.764317920215372	10.135126	3.1835713
17.7820576137864	8.430507	2.9035335
17.79979773697811	7.1070495	2.665905
17.81753829024692	5.903548	2.4297218
17.835279274049356	5.228166	2.2865183
17.85302068884201	4.5299053	2.1283574
17.870762535081607	4.1128883	2.0280256
17.888504813224934	3.84814	1.9616677
17.90624752372891	3.6889079	1.920653
17.923990667050536	3.5567932	1.8859463
17.941734243646895	3.453339	1.8583162
17.959478253975185	3.454088	1.8585176
17.9772226984927	3.4558706	1.8589972
17.994967577656833	3.414172	1.8477478
18.01271289192506	3.3662696	1.8347397
18.030458641754965	3.3004603	1.8167169
18.04820482760425	3.276536	1.8101205
18.06595144993067	3.2412798	1.8003554
18.083698509192125	3.2101445	1.7916876
18.101446005846576	3.2090008	1.7913684
18.119193940352105	3.2236714	1.7954586
18.136942313166887	3.1876783	1.7854071
18.1546911247492	3.1520722	1.7754077
18.1724403755574	3.0857346	1.7566259
18.19019006604997	3.0515707	1.7468746
18.207940196685467	3.033192	1.7416061
18.225690767922575	3.0406287	1.7437398
18.243441780220046	3.0554266	1.7479779
18.261193234036764	3.0409842	1.7438418
18.278945129831676	3.0038517	1.7331623
18.29669746806386	3.0325987	1.7414358
18.314450249192483	3.027117	1.7398612
18.3322034736768	3.010528	1.7350874
18.349957141976184	2.959185	1.7202282
18.3677112545501	2.962819	1.7212842
18.385465811858108	3.0087678	1.73458
18.403220814359884	3.0366137	1.7425882
18.420976262515172	3.056544	1.7482975
18.43873215678387	3.0777864	1.7543621
18.456488497625923	3.1224349	1.7670413
18.474245285501407	3.2053149	1.7903394
18.492002520870486	3.2750983	1.8097233
18.50976020419343	3.3428986	1.8283595
18.527518335930615	3.6105008	1.9001318
18.545276916542516	4.1825128	2.0451193
18.563035946489688	4.3475685	2.0850823
18.580795426232832	4.7640896	2.1826794
18.598555356232698	4.6729736	2.1617062
18.616315736950185	4.9216075	2.2184696
18.63407656884626	4.5737333	2.138629
18.65183785238201	4.7417536	2.1775568
18.669599588018617	4.5832987	2.140864
18.68736177621737	4.561861	2.1358514
18.705124417439652	4.534401	2.1294134
18.72288751214696	4.4059544	2.0990365
18.740651060800886	4.5867305	2.1416655
18.758415063863115	4.3086143	2.07572
18.77617952179546	4.450924	2.1097212
18.793944435059814	4.2223544	2.0548368
18.811709804118184	4.2176685	2.0536964
18.829475629432675	4.188318	2.046538
18.8472419114655	3.9485397	1.9870933
18.86500865067897	4.006279	2.001569
18.88277584753551	3.6698866	1.9156948
18.90054350249763	3.7189448	1.9284565
18.918311616027957	3.4534025	1.8583332
18.936080188589226	3.3696563	1.8356624
18.953849220644265	3.0218513	1.7383473
18.971618712656007	2.810468	1.676445
18.9893886650875	2.7455313	1.6569645
19.007159078401887	7.9388394	2.8175945
19.024929953062408	32.798264	5.726977
19.042701289532435	32.722702	5.720376
19.060473088275405	25.293884	5.0293026
19.07824534975489	2.5887895	1.6089716
19.096018074434568	2.5837057	1.607391
19.113791262778197	2.594414	1.6107185
19.13156491524966	2.5902848	1.6094362
19.149339032312945	2.555908	1.5987207
19.167113614432136	2.5230677	1.5884167
19.184888662071433	2.52315	1.5884426
19.202664175695123	2.5267754	1.5895834
19.220440155767623	2.4994607	1.5809683
19.238216602753447	2.4872756	1.5771099
19.2559935171172	2.4955273	1.5797238
19.27377089932361	2.492842	1.5788736
19.291548749837514	2.4782004	1.5742301
19.309327069123835	2.4459176	1.5639429
19.32710585764763	2.4413593	1.562485
19.344885115874032	2.470945	1.571924
19.362664844268313	2.4934661	1.5790713
19.380445043295822	2.4414542	1.5625154
19.39822571342203	2.4400177	1.5620556
19.41600685511252	2.4253376	1.5573496
19.43378846883297	2.4600763	1.5684631
19.451570555049173	2.4857123	1.5766141
19.469353114227037	2.494261	1.5793229
19.48713614683254	2.4794009	1.5746113
19.50491965333182	2.4714742	1.5720923
19.52270363419109	2.4874	1.5771494
19.540488089876686	2.474966	1.5732025
19.55827302085503	2.4533012	1.5663017
19.576058427592674	2.4553404	1.5669526
19.593844310556282	2.4972157	1.5802581
19.611630670212598	2.503666	1.5822977
19.629417507028506	2.4987557	1.5807453
19.64720482147098	2.4860353	1.5767167
19.6649926140071	2.5151052	1.5859083
19.682780885104084	2.500935	1.5814345
19.70056963522921	2.4786584	1.5743756
19.718358864849908	2.4794092	1.574614
19.7361485744337	2.4881985	1.5774025
19.753938764448215	2.5032313	1.5821604
19.771729435361202	2.4821804	1.5754937
19.789520587640506	2.5013185	1.5815557
19.807312221754092	2.5077617	1.5835913
19.825104338170043	2.516359	1.5863036
19.842896937356517	2.4677827	1.5709178
19.860690019781824	2.447305	1.5643865
19.87848358591436	2.4526253	1.5660859
19.896277636222635	2.4706979	1.5718454
19.914072171175278	2.489882	1.5779359
19.931867191241015	2.4922023	1.5786711
19.94966269688869	2.4717286	1.5721732
19.967458688587264	2.4317954	1.5594215
19.985255166805807	2.4262047	1.5576279
20.00305213201348	2.4379432	1.5613915
20.020849584679578	2.4514756	1.5657189
20.038647525273507	2.4380138	1.561414
20.05644595426477	2.4181168	1.5550295
20.07424487212299	2.4334822	1.5599623
20.092044279317903	2.4303303	1.5589516
20.109844176319353	2.4043725	1.5506039
20.127644563597304	2.374495	1.5409397
20.145445441621817	2.4064977	1.5512891
20.16324681086307	2.4245625	1.5571007
20.181048671791373	2.4136791	1.553602
20.198851024877122	2.3509033	1.5332656
20.216653870590836	2.3268945	1.5254161
20.234457209403146	2.3299088	1.5264039
20.252261041784802	2.3612442	1.5366341
20.270065368206662	2.364089	1.5375594
20.287870189139685	2.3357646	1.5283209
20.305675505054968	2.3378828	1.5290136
20.323481316423702	2.3640623	1.5375508
20.341287623717207	2.3504107	1.5331049
20.359094427406884	2.3232236	1.5242125
20.376901727964288	2.3162582	1.5219258
20.39470952586107	2.3146198	1.5213875
20.41251782156899	2.3298233	1.5263759
20.430326615559935	2.3126469	1.520739
20.448135908305886	2.3214903	1.5236437
20.465945700278965	2.3260577	1.5251418
20.483755991951384	2.3163152	1.5219445
20.50156678379548	2.3244264	1.524607
20.519378076283708	2.3153994	1.5216436
20.537189869888635	2.3090315	1.5195497
20.55500216508294	2.305329	1.518331
20.572814962339415	2.3000255	1.5165834
20.59062826213098	2.2827005	1.5108608
20.60844206493066	2.284103	1.5113249
20.626256371211593	2.2869413	1.5122637
20.644071181447032	2.2907536	1.5135236
20.66188649611036	2.3086743	1.5194322
20.67970231567506	2.3133392	1.5209665
20.697518640614742	2.3118525	1.5204777
20.715335471403122	2.2777164	1.5092105
20.73315280851404	2.2620554	1.5040131
20.750970652421447	2.266543	1.5055043
20.768789003599412	2.2985766	1.5161058
20.786607862522136	2.2794929	1.509799
20.8044272296639	2.2617297	1.5039048
20.82224710549913	2.2659783	1.5053167
20.84006749050237	2.2684207	1.5061277
20.857888385148268	3.8422673	1.9601703
20.8757097899116	45.93445	6.777496
20.893531705267254	64.7527	8.046906
20.911354131690224	83.76826	9.1525
20.92917706965566	69.0354	8.308754
20.94700051963877	50.097744	7.0779757
20.96482448211493	29.387142	5.420991
20.982648957559622	4.1327214	2.0329096
21.00047394644843	2.2499704	1.4999901
21.01829944925707	2.2084012	1.4860691
21.036125466461375	2.2143953	1.4880844
21.053951998537297	2.2108047	1.4868774
21.071779045960906	2.2157166	1.4885284
21.089606609208378	2.2018144	1.4838512
21.10743468875603	2.1663349	1.4718474
21.12526328508028	2.1602733	1.4697869
21.143092398657675	2.1675372	1.4722558
21.16092202996488	2.1816952	1.4770563
21.17875217947867	2.1888237	1.4794674
21.19658284767596	2.15018	1.4663492
21.21441403503377	2.1597733	1.4696168
21.232245742029225	2.1612515	1.4701196
21.2500779691396	2.1400814	1.4629017
21.26791071684227	2.1142843	1.4540578
21.28574398561475	2.119664	1.4559066
21.30357777593465	2.1203504	1.4561423
21.321412088279704	2.1305382	1.4596363
21.339246923127792	2.1154692	1.4544653
21.357082280956888	2.0973284	1.4482156
21.3749181622451	2.0812323	1.4426477
21.392754567470647	2.0911086	1.4460666
21.41059149711187	2.1180317	1.4553459
21.42842895164726	2.129642	1.4593292
21.446266931555378	2.1313057	1.4598992
21.464105437314945	2.1018717	1.4497833
21.481944469404798	2.1065946	1.4514112
21.49978402830388	2.0959527	1.4477406
21.51762411449127	2.0988834	1.4487524
21.53546472844617	2.057723	1.4344766
21.553305870647876	2.0215359	1.4218073
21.571147541575865	2.0262456	1.4234625
21.58898974170967	2.0765011	1.441007
21.60683247152899	2.0720072	1.4394468
21.62467573151363	2.063984	1.4366572
21.642519522143523	2.0426912	1.4292275
21.660363843898722	2.0213027	1.4217253
21.6782086972594	2.0215642	1.4218172
21.696054082705864	2.016139	1.4199082
21.713900000718535	2.0117743	1.4183702
21.73174645177795	2.0269523	1.4237107
21.749593436364794	2.0000381	1.414227
21.767440954959845	2.0041063	1.4156646
21.785289008044032	1.981812	1.4077685
21.803137596098388	2.0009181	1.4145381
21.820986719604086	1.9883826	1.4101002
21.838836379042412	2.0271244	1.4237711
21.85668657489478	2.0210686	1.4216429
21.87453730764273	2.0068479	1.4166325
21.892388577767914	1.9923042	1.4114901
21.91024038575213	1.9967564	1.4130663
21.928092732077285	2.0077636	1.4169557
21.945945617225426	1.99757	1.4133542
21.963799041678694	2.0011451	1.4146184
21.981653005919398	31.325249	5.596896
21.999507510429943	78.11078	8.83803
22.01736255569286	73.07452	8.548364
22.035218142190818	4.1464343	2.0362794
22.05307427040661	1.9979497	1.4134885
22.07093094082315	2.0034528	1.4154338
22.088788153923474	1.97845	1.4065738
22.106645910190746	1.9370875	1.3917929
22.12450421010827	1.9297285	1.3891467
22.142363054159464	1.9379836	1.3921148
22.16022244282787	1.9345407	1.3908777
22.178082376597164	1.9387436	1.3923877
22.195942855951145	1.935463	1.3912091
22.213803881373742	1.9278044	1.388454
22.231665453349002	1.9349433	1.3910224
22.24952757236111	1.9330235	1.3903321
22.26739023889438	1.9222697	1.3864595
22.28525345343323	1.8927311	1.3757657
22.30311721646225	1.8813463	1.3716218
22.320981528466113	1.8942962	1.3763343
22.33884638992964	1.9148078	1.3837658
22.356711801337788	1.9194213	1.3854318
22.37457776317561	1.9022226	1.3792108
22.392444275928337	1.8641878	1.3653526
22.410311340081282	1.8338441	1.354195
22.428178956119904	1.8651427	1.3657023
22.446047124529805	1.9030766	1.3795204
22.46391584579669	1.9479338	1.395684
22.481785120406414	1.9048765	1.3801726
22.49965494884496	1.9139026	1.3834387
22.51752533159841	1.9385633	1.392323
22.53539626915302	1.9636772	1.4013127
22.553267761995137	1.8985083	1.3778636
22.571139810611264	1.9134655	1.3832808
22.589012415488025	1.9072175	1.3810204
22.60688557711216	1.9122565	1.3828436
22.624759295970566	1.866991	1.3663788
22.642633572550263	1.9158636	1.3841473
22.660508407338362	1.9717208	1.4041798
22.67838380082217	1.9841655	1.4086041
22.696259753489077	1.9397649	1.3927544
22.714136265826614	1.8961941	1.3770237
22.73201333832246	1.8917098	1.3753945
22.74989097146439	1.9052728	1.3803163
22.76776916574035	1.9168658	1.3845092
22.785647921638393	1.918827	1.3852173
22.803527239646712	1.8851196	1.3729966
22.82140712025363	1.8749081	1.3692728
22.839287563947593	1.8950249	1.3765991
22.85716857121719	1.9114628	1.3825566
22.875050142551135	1.8915893	1.3753506
22.892932278438277	1.8872893	1.3737864
22.910814979367604	1.913728	1.3833755
22.928698245828222	1.9585742	1.3994907
22.946582078309387	1.947612	1.3955687
22.96446647730047	1.9063623	1.3807108
22.98235144329098	1.8901625	1.3748318
23.000236976770562	1.9244797	1.3872561
23.018123078229	1.9499463	1.3964047
23.03600974815619	1.9360995	1.3914379
23.053896987042194	1.9199281	1.3856146
23.071784795377173	1.8928049	1.3757925
23.08967317365145	1.8526402	1.3611172
23.10756212235546	1.8677686	1.3666633
23.125451641979787	1.9167324	1.384461
23.143341733015134	1.9503121	1.3965358
23.161232395952357	1.9433864	1.3940539
23.179123631282426	1.9283526	1.3886514
23.197015439496468	1.9105841	1.3822387
23.214907821085717	1.9357702	1.3913195
23.23280077654157	1.9232695	1.38682
23.250694306355538	1.9110737	1.3824159
23.268588411019277	1.9171861	1.384625
23.28648309102458	1.9360257	1.3914114
23.304378346863356	1.9026235	1.3793561
23.322274179027676	1.8750497	1.3693246
23.340170588009723	1.864517	1.3654732
23.358067574301852	1.8763205	1.3697885
23.37596513839651	1.8823192	1.3719764
23.39386328078629	1.8679713	1.3667375
23.411762001963947	1.8787872	1.3706886
23.429661302422353	1.8717173	1.3681072
23.4475611826545	1.9088976	1.3816286
23.46546164315356	1.928056	1.3885446
23.48336268441279	1.9379835	1.3921148
23.501264306925638	1.9415877	1.3934087
23.51916651118564	1.9049319	1.3801928
23.537069297686497	1.8666955	1.3662707
23.554972666922037	1.841257	1.3569293
23.57287661938623	1.8385093	1.3559164
23.59078115557318	1.8742083	1.3690172
23.608686275977128	1.9023217	1.3792468
23.62659198109246	1.9118822	1.3827083
23.6444982714137	1.8821952	1.3719312
23.66240514743549	1.8942851	1.3763303
23.68031260965263	1.8839825	1.3725824
23.698220658560068	1.8758236	1.3696071
23.716129294652845	1.8854355	1.3731116
23.7340385184262	1.9128757	1.3830675
23.75194833037546	1.9263893	1.3879443
23.769858730996123	1.8976495	1.377552
23.78776972078382	1.8948677	1.376542
23.80568130023431	1.9004405	1.3785646
23.823593469843495	1.9177734	1.3848369
23.841506230107424	1.9284307	1.3886795
23.859419581522275	1.921957	1.3863467
23.87733352458438	1.871338	1.3679686
23.89524805979019	1.8096261	1.3452234
23.913163187636318	1.8061728	1.3439393
23.931078908619508	1.8629068	1.3648834
23.948995223236633	1.9217044	1.3862555
23.966912131984735	1.9687331	1.4031155
23.98482963536096	2.0145266	1.4193403
24.002747733862616	2.0394845	1.4281052
24.020666427987155	2.018851	1.4208628
24.038585718232156	1.9993957	1.4139999
24.056505605095353	1.9935665	1.4119371
24.074426089074617	2.031302	1.4252375
24.092347170667946	2.0232813	1.422421
24.110268850373515	2.0130477	1.4188191
24.128191128689586	2.0380104	1.427589
24.146114006114626	2.05568	1.4337643
24.164037483147187	2.0661325	1.4374048
24.181961560286005	2.0644648	1.4368246
24.199886238029926	2.0692546	1.4384904
24.21781151687797	2.0358088	1.4268178
24.235737397329274	2.012953	1.4187858
24.253663879883135	1.9618975	1.4006776
24.271590965038975	1.9450415	1.3946475
24.289518653296376	1.9861437	1.409306
24.30744694515505	2.026315	1.423487
24.32537584111486	2.017029	1.4202214
24.34330534167581	1.9936649	1.4119719
24.361235447338046	2.0452929	1.4301374
24.379166158601876	2.0399663	1.4282739
24.39709747596772	2.0700493	1.4387666
24.41502939993615	2.0589533	1.4349053
24.432961931007917	2.0451267	1.4300792
24.450895069683856	2.0121863	1.4185156
24.468828816465	1.9448389	1.3945748
24.4867631718525	1.9183109	1.385031
24.504698136347656	1.9271147	1.3882055
24.52263371045192	1.9526101	1.3973583
24.540569894666874	1.9974474	1.4133108
24.558506689494266	1.9944608	1.4122539
24.57644409543597	1.968246	1.402942
24.594382112994012	1.8921083	1.3755393
24.61232074267057	1.8753368	1.3694293
24.630259984967953	1.8800141	1.3711361
24.64819984038863	1.925757	1.3877165
24.66614030943522	1.9568306	1.3988676
24.684081392610462	1.9183035	1.3850284
24.702023090417274	1.9194992	1.3854599
24.7199654033587	1.9085436	1.3815005
24.737908331937927	1.9564576	1.3987343
24.755851876658305	1.9765878	1.4059117
24.773796038023324	2.0181434	1.4206138
24.79174081653661	2.0463183	1.4304959
24.809686212701962	2.0666783	1.4375947
24.827632227023294	2.0549574	1.4335122
24.8455788600047	2.0406356	1.4285082
24.8635261121504	2.0601406	1.435319
24.88147398396475	2.1104183	1.4527279
24.899422475952303	2.1058776	1.4511642
24.917371588617698	2.113701	1.4538573
24.935321322465768	2.1480799	1.4656329
24.953271678001478	2.27367	1.5078694
24.97122265572994	2.478194	1.574228
24.989174256156414	2.8279462	1.6816498
25.00712647978632	3.349158	1.8300705
25.02507932712521	4.276253	2.0679104
25.043032798678798	5.7547174	2.398899
25.060986894952933	7.3821673	2.7170143
25.078941616453637	8.820226	2.9698865
25.096896963687055	9.574451	3.094261
25.114852937159508	10.259168	3.2029936
25.132809537377444	10.196935	3.193264
25.150766764847468	9.679909	3.1112552
25.168724620076347	8.312939	2.8832166
25.186683103570985	7.084552	2.6616821
25.204642215838426	5.751596	2.3982484
25.222601957385894	4.706334	2.1694088
25.24056232872074	3.6685255	1.9153395
25.25852333035048	2.9310246	1.7120235
25.276484962782778	2.433151	1.559856
25.294447226525435	2.155298	1.4680933
25.312410122086423	2.0339985	1.4261832
25.330373649973843	2.0000546	1.4142329
25.348337810695988	1.9785566	1.4066118
25.366302604761245	1.9303993	1.3893881
25.384268032678207	1.8737469	1.3688487
25.40223409495558	1.8730661	1.3686
25.420200792102257	1.8851719	1.3730156
25.438168124627246	1.8617002	1.3644414
25.45613609303974	1.822071	1.3498411
25.474104697849057	1.841735	1.3571054
25.492073939564698	1.8284268	1.3521934
25.510043818696285	1.8583114	1.363199
25.528014335753614	1.8931876	1.3759315
25.54598549124664	1.9241312	1.3871305
25.56395728568544	1.9130518	1.3831311
25.58192971958028	1.8633327	1.3650395
25.59990279344156	1.8251059	1.3509648
25.617876507779833	1.8317723	1.3534298
25.635850863105826	1.849127	1.3598261
25.653825859930386	1.8306873	1.3530289
25.671801498764548	1.8283988	1.352183
25.68977778011949	1.8491632	1.3598394
25.707754704506524	1.8485837	1.3596263
25.725732272437153	1.8200444	1.3490902
25.743710484423012	1.8314247	1.3533014
25.761689340975888	1.870696	1.3677338
25.77966884260774	1.9302847	1.3893468
25.797648989830662	1.9221712	1.386424
25.815629783156922	1.8625587	1.3647559
25.83361122309895	1.8247302	1.3508258
25.85159331016929	1.8462648	1.3587732
25.869576044880695	1.8922758	1.3756002
25.887559427746034	1.8524164	1.361035
25.90554345927836	1.8521028	1.3609198
25.92352813999086	1.8677025	1.3666391
25.94151347039689	1.8646286	1.365514
25.959499451009965	1.8336687	1.3541303
25.97748608234374	1.8252479	1.3510174
25.995473364912062	1.8171524	1.3480179
26.013461299228904	1.8019942	1.3423837
26.03144988580839	1.7737968	1.3318397
26.04943912516483	1.7493763	1.32264
26.067429017812675	1.7351308	1.3172436
26.085419564266537	1.7624842	1.3275858
26.103410765041186	1.7954154	1.3399311
26.12140262065155	1.7767849	1.332961
26.139395131612723	1.7407571	1.3193775
26.157388298439948	1.7354456	1.3173631
26.17538212164861	1.785633	1.3362758
26.193376601754295	1.7959691	1.3401377
26.211371739272714	1.8103683	1.3454993
26.229367534719746	1.7770236	1.3330505
26.247363988611433	1.812874	1.3464301
26.26536110146397	1.8357637	1.3549036
26.283358873793727	1.8298899	1.3527342
26.301357306117204	1.8056014	1.3437266
26.319356398951104	1.819727	1.3489726
26.33735615281224	1.8062432	1.3439654
26.35535656821762	1.8170546	1.3479817
26.373357645684404	1.8080804	1.3446488
26.39135938572991	1.7370617	1.3179764
26.409361788871614	1.7146865	1.3094604
26.427364855627165	1.732952	1.3164164
26.445368586514352	1.7982454	1.3409867
26.46337298205115	1.8285635	1.3522439
26.48137804275568	1.8154074	1.3473705
26.499383769146217	1.7868396	1.3367271
26.517390161741215	1.7937073	1.3392936
26.53539722105928	1.7884127	1.3373154
26.553404947619182	1.804317	1.3432487
26.571413341939856	1.7913122	1.3383992
26.589422404540397	1.7974601	1.3406938
26.60743213594006	1.8106084	1.3455884
26.62544253665827	1.7853656	1.3361757
26.64345360721459	1.7784458	1.3335838
26.66146534812879	1.7288958	1.3148748
26.679477759920758	1.732884	1.3163905
26.69749084311057	1.7775424	1.333245
26.71550459821847	1.7733905	1.3316871
26.733519025764842	1.7420851	1.3198807
26.751534126270258	1.7492604	1.3225961
26.769549900255434	1.7980572	1.3409165
26.787566348241267	1.7835784	1.3355068
26.80558347074881	1.7822964	1.3350267
26.823601268299267	1.7756482	1.3325346
26.841619741414036	1.7701529	1.3304709
26.85963889061465	1.795311	1.3398921
26.877658716422832	1.8386118	1.3559542
26.89567921936045	1.8247654	1.3508388
26.913700399949544	1.8211867	1.3495135
26.93172225871233	1.795645	1.3400168
26.949744796171174	1.7612655	1.3271267
26.967768012848605	1.804965	1.3434899
26.98579190926733	1.8581942	1.363156
27.003816485950225	1.8112131	1.3458132
27.021841743420318	1.7727749	1.331456
27.039867682200814	1.7814039	1.3346925
27.057894302815072	1.832096	1.3535494
27.07592160578664	1.8136919	1.3467338
27.0939495916392	1.7739395	1.3318932
27.111978260896635	1.7594457	1.3264409
27.13000761408296	1.7863612	1.3365482
27.148037651722397	1.782171	1.3349798
27.166068374339304	1.7780513	1.3334359
27.184099782458215	1.7948352	1.3397146
27.20213187660384	1.7738923	1.3318754
27.22016465730105	1.7843785	1.3358064
27.23819812507487	1.7809812	1.334534
27.256232280450533	1.7985743	1.3411094
27.274267123953383	1.7971219	1.3405677
27.292302656108987	1.7891952	1.337608
27.31033887744306	1.7870716	1.3368139
27.32837578848146	1.7849735	1.336029
27.34641338975026	1.79289	1.3389884
27.364451681775673	1.8109008	1.3456972
27.382490665084074	1.7918752	1.3386095
27.400530340202046	1.8145201	1.3470412
27.41857070765629	1.7843506	1.3357959
27.436611767973726	1.779219	1.3338737
27.454653521681404	1.7957982	1.340074
27.472695969306564	1.8241988	1.3506291
27.490739111376627	1.8354928	1.3548036
27.508782948419153	1.8136961	1.3467354
27.526827480961902	1.8180262	1.3483421
27.54487270953279	1.801506	1.342202
27.562918634659898	1.7997915	1.3415631
27.580965256871508	1.816461	1.3477615
27.599012576696026	1.8339955	1.3542509
27.617060594662068	1.8370433	1.3553756
27.63510931129842	1.8560292	1.3623616
27.65315872713401	1.8062819	1.3439798
27.67120884269797	1.7800333	1.3341789
27.68925965851958	1.7750496	1.3323098
27.707311175128307	1.79887	1.3412195
27.725363393053787	1.8034828	1.3429381
27.74341631282583	1.8714069	1.3679937
27.7614699349744	1.9312848	1.3897067
27.77952426002968	2.0627108	1.4362141
27.797579288521973	2.0833478	1.4433807
27.815635020981784	2.5668807	1.6021488
27.83369145793979	2.6808088	1.6373175
27.85174859992682	2.5489736	1.5965505
27.869806447473923	2.3654253	1.5379939
27.887865001112267	2.0244968	1.4228481
27.905924261373233	1.9055766	1.3804263
27.92398422878836	1.9224354	1.3865192
27.94204490388936	1.9048735	1.3801715
27.96010628720813	1.8319817	1.3535072
27.978168379276728	1.8240135	1.3505604
27.9962311806274	1.8090111	1.3449948
28.014294691792568	1.8473182	1.3591608
28.0323589133048	1.8524027	1.36103
28.050423845696887	1.8552362	1.3620706
28.068489489501758	1.8413249	1.3569543
28.086555845252523	1.8688395	1.367055
28.104622913482487	1.8704655	1.3676497
28.122690694725115	1.8627585	1.3648291
28.14075918951405	1.8417096	1.3570961
28.15882839838312	1.8658037	1.3659443
28.176898321866304	1.9096023	1.3818836
28.1949689604978	1.9600776	1.4000278
28.213040314811945	1.9822463	1.4079226
28.23111238534327	1.9622865	1.4008163
28.249185172626493	1.9582112	1.399361
28.267258677196473	1.9536134	1.3977172
28.285332899588294	1.9368601	1.3917112
28.303407840337172	1.9401581	1.3928956
28.321483499978545	1.9275279	1.3883544
28.33955987904799	1.9351069	1.3910812
28.357636978081285	1.9710646	1.403946
28.37571479761439	2.0222895	1.4220723
28.393793338183425	2.0081832	1.4171038
28.41187260032469	1.9680314	1.4028654
28.429952584574686	1.9833966	1.4083312
28.448033291470065	2.0444758	1.4298517
28.46611472154769	2.064991	1.4370077
28.484196875344566	2.0084362	1.417193
28.502279753397914	1.9719754	1.4042704
28.52036335624511	1.9752239	1.4054266
28.538447684423716	1.9659532	1.4021245
28.556532738471482	1.9816247	1.407702
28.574618518926325	1.9884351	1.4101188
28.59270502632635	2.0205588	1.4214636
28.61079226120985	2.056114	1.4339156
28.628880224115274	2.0192988	1.4210204
28.646968915581287	1.9903579	1.4108005
28.66505833614671	1.9587247	1.3995445
28.68314848635055	1.9691279	1.4032562
28.701239366732004	2.022613	1.422186
28.71933097783044	2.0809941	1.4425651
28.737423320185403	2.1324995	1.460308
28.75551639433665	2.123337	1.4571675
28.773610200824074	2.1007447	1.4493946
28.791704740187793	2.126083	1.4581094
28.80980001296809	2.1774457	1.475617
28.827896019705413	2.1289425	1.4590896
28.845992760940433	2.0761993	1.4409022
28.86409023721397	2.0836427	1.4434829
28.88218844906704	2.1646311	1.4712685
28.900287397040845	2.2090697	1.4862939
28.918387081676755	2.2267683	1.492236
28.936487503516343	2.2286513	1.4928668
28.954588663101365	2.214847	1.4882362
28.97269056097374	2.2460976	1.4986986
28.990793197675597	2.2996686	1.5164658
29.00889657374923	2.347902	1.5322865
29.027000689737125	2.3997238	1.5491042
29.04510554618196	2.428671	1.5584193
29.06321114362659	2.414539	1.5538788
29.08131748261405	2.424668	1.5571346
29.099424563687567	2.4559872	1.5671589
29.11753238739057	2.4999814	1.581133
29.13564095426663	2.5277367	1.5898857
29.15375026485954	2.5492797	1.5966464
29.171860319713275	2.613204	1.6165408
29.18997111937199	2.7131872	1.6471756
29.20808266438002	2.6862707	1.6389847
29.226194955281898	2.625231	1.6202564
29.244307992622335	2.6797862	1.6370052
29.26242177694624	2.7297454	1.6521941
29.2805363087987	2.81153	1.6767617
29.29865158872498	2.8789673	1.696752
29.316767617270557	2.8711903	1.6944587
29.334884394981064	2.8742862	1.695372
29.353001922402367	2.891735	1.7005103
29.37112020008047	3.0047257	1.7334144
29.389239228561596	3.142952	1.7728373
29.407359008392152	3.342418	1.8282281
29.42547954011872	3.5887377	1.8943964
29.44360082428809	4.094125	2.0233943
29.46172286144722	4.984755	2.2326565
29.479845652143283	6.596447	2.5683548
29.497969196923606	9.27564	3.0455935
29.516093496335728	13.164596	3.6283047
29.5342185509274	16.76347	4.0943217
29.55234436124651	19.850723	4.4554152
29.570470927841175	21.24485	4.609214
29.588598251259686	21.011003	4.583776
29.60672633205055	19.200933	4.381887
29.624855170762405	16.23134	4.028814
29.642984767944146	12.827658	3.581572
29.66111512414481	9.46107	3.0758853
29.67924623991366	6.9502654	2.6363356
29.697378115800138	5.186364	2.277359
29.71551075235387	4.261246	2.0642786
29.733644150124675	3.8206055	1.9546369
29.751778309662576	3.5594702	1.8866558
29.769913231517766	3.375657	1.8372961
29.78804891624066	3.2737594	1.8093534
29.806185364381818	3.2644475	1.8067782
29.82432257649206	3.2632306	1.8064414
29.842460553122333	3.240474	1.8001317
29.86059929482382	3.2849185	1.8124344
29.878738802147872	3.356184	1.831989
29.896879075646048	3.3072433	1.8185828
29.915020115870114	3.2284074	1.7967769
29.933161923371976	3.2175605	1.793756
29.951304498703777	3.2103806	1.7917535
29.969447842417857	3.2147803	1.7929809
29.987591955066733	3.2261574	1.7961507
30.005736837203123	3.209517	1.7915125
30.023882489379943	3.2031848	1.7897444
30.04202891215028	3.1290867	1.7689224
30.060176106067455	3.1106484	1.763703
30.078324071684946	3.198111	1.7883264
30.09647280955646	3.1981988	1.7883508
30.114622320235863	3.1495	1.774683
30.132772604277257	3.0861397	1.7567412
30.1509236622349	3.080044	1.7550055
30.16907549466328	3.0868523	1.7569441
30.18722810211705	3.0747674	1.7535014
30.205381485151097	3.0466328	1.7454606
30.22353564432045	3.0010803	1.7323626
30.241690580180403	2.9975402	1.7313406
30.25984629328638	2.962695	1.721248
30.278002784194037	2.9755683	1.7249836
30.296160053459246	3.0414524	1.743976
30.314318101638033	3.0304008	1.7408047
30.332476929286646	2.9411304	1.7149724
30.35063653696153	2.9064095	1.7048194
30.368796925219307	2.904723	1.7043247
30.386958094616844	2.9273307	1.7109444
30.40512004571115	2.9407952	1.7148746
30.423282779059463	2.905693	1.7046094
30.441446295219233	2.8618846	1.6917106
30.459610594748067	2.8544579	1.689514
30.47777567820382	2.8741858	1.6953424
30.495941546144504	2.8870473	1.6991314
30.51410819912835	2.8820403	1.6976572
30.532275637713795	2.7871463	1.6694748
30.55044386245946	2.844335	1.6865157
30.56861287392416	2.8180394	1.6787018
30.586782672666956	2.7255666	1.650929
30.604953259247047	2.7106967	1.6464194
30.623124634223885	2.78053	1.6674922
30.641296798157075	2.8199005	1.679256
30.659469751606462	2.8325822	1.6830277
30.677643495132074	2.7680576	1.663748
30.695818029294152	2.7367625	1.6543163
30.713993354653116	2.7283864	1.6517828
30.73216947176962	2.7365196	1.6542429
30.75034638120448	2.763523	1.6623847
30.768524083518756	2.7137458	1.6473451
30.786702579273673	2.7349088	1.653756
30.80488186903069	2.848604	1.6877807
30.82306195335144	3.0943625	1.75908
30.841242832797782	3.3809638	1.8387398
30.85942450793176	3.6347094	1.9064914
30.877606979315637	3.9418538	1.9854102
30.895790247511883	4.408947	2.0997493
30.913974313083134	4.8702583	2.2068663
30.932159176592283	5.2714224	2.2959578
30.95034483860237	5.521509	2.3497891
30.968531299676698	5.4961762	2.3443925
30.98671856037873	5.2529674	2.2919352
31.00490662127215	4.842348	2.2005336
31.023095482920848	4.3795404	2.092735
31.04128514588892	3.8185244	1.9541045
31.059475610740662	3.2982264	1.8161019
31.07766687804056	2.8857772	1.6987575
31.09585894835335	2.6100175	1.6155549
31.11405182224393	2.4727092	1.5724851
31.132245500277417	2.5003693	1.5812556
31.15043998301914	2.4441602	1.5633811
31.168635271034628	2.4041653	1.5505371
31.18683136488964	2.473487	1.5727323
31.20502826515008	2.472479	1.5724119
31.223225972382135	2.4567096	1.5673895
31.241424487152155	2.5158825	1.5861534
31.259623810026692	2.5725887	1.6039292
31.27782394157253	2.5299673	1.5905871
31.296024882356644	2.436634	1.5609721
31.314226632946237	2.3992703	1.5489578
31.332429193908684	2.366987	1.5385015
31.350632565811598	2.3434768	1.5308418
31.368836749222787	2.3438792	1.5309733
31.387041744710295	2.437204	1.5611547
31.40524755284232	2.482947	1.575737
31.423454174187317	2.4440155	1.5633347
31.441661609313922	2.434503	1.5602894
31.459869858791002	2.4473133	1.5643891
31.478078923187628	2.3923032	1.5467073
31.496288803073064	2.3257477	1.5250403
31.514499499016807	2.3219197	1.5237846
31.532711011588546	2.3287244	1.5260159
31.550923341358178	2.3164732	1.5219965
31.56913648889584	2.2454743	1.4984907
31.587350454771844	2.2745378	1.5081571
31.605565239556732	2.3371358	1.5287694
31.62378084382127	2.3573215	1.5353571
31.641997268136382	2.3302915	1.5265292
31.660214513073274	2.317843	1.5224464
31.67843257920331	2.3241339	1.524511
31.6966514670981	2.3686883	1.5390544
31.71487117732944	2.3763695	1.5415478
31.733091710469346	2.3007774	1.5168314
31.751313067090052	2.1941295	1.4812595
31.769535247764008	2.1838336	1.47778
31.787758253063878	2.197179	1.4822885
31.805982083562526	2.259484	1.503158
31.824206739833024	2.3064148	1.5186886
31.84243222244869	2.3156168	1.521715
31.860658531983013	2.2904856	1.513435
31.878885669009737	2.297883	1.515877
31.897113634102784	2.2440948	1.4980303
31.91534242783632	2.2082345	1.4860129
31.933572050784694	2.2099712	1.4865972
31.951802503522508	2.2366097	1.4955299
31.970033786624548	2.2310987	1.4936863
31.988265900665834	2.293536	1.5144424
32.006498846221575	2.2763872	1.5087701
32.02473262386724	2.1852746	1.4782674
32.04296723417845	2.1320975	1.4601704
32.0612026777311	2.135015	1.461169
32.07943895510129	2.1261036	1.4581164
32.097676066865304	2.1886716	1.479416
32.115914013599685	2.1513398	1.4667447
32.13415279588115	2.144897	1.4645467
32.152392414286666	2.116688	1.4548842
32.1706328693934	2.1255922	1.457941
32.18887416177875	2.121751	1.4566232
32.20711629202032	2.0991118	1.4488312
32.225359260695924	2.1044664	1.4506779
32.243603068383614	2.1156085	1.4545132
32.26184771566166	2.0683947	1.4381914
32.28009320310852	2.0730903	1.439823
32.2983395313029	2.1024144	1.4499705
32.31658670082372	2.0393384	1.4280541
32.33483471225012	2.0753503	1.4406077
32.35308356616143	2.1355743	1.4613605
32.371333263137245	2.1297557	1.4593682
32.38958380375734	2.0665593	1.4375533
32.407835188601744	2.1450975	1.4646151
32.42608741825067	2.1728725	1.4740666
32.444340493284585	2.1099968	1.4525828
32.46259441428416	2.0398214	1.4282231
32.48084918183028	1.9879103	1.4099327
32.49910479650405	1.9848859	1.4088598
32.51736125888683	2.0301888	1.4248469
32.53561856956014	2.053989	1.4331744
32.5538767291058	1.9761301	1.405749
32.572135738105764	2.017765	1.4204806
32.59039559714228	2.0412672	1.4287292
32.608656306797776	2.0431428	1.4293854
32.62691786765491	2.0485606	1.4312794
32.645180280296586	2.078623	1.441743
32.663443545305896	2.097227	1.4481807
32.68170766326619	2.0343845	1.4263185
32.69997263476099	1.9977235	1.4134084
32.7182384603741	2.003652	1.4155042
32.7365051406895	2.018808	1.4208477
32.75477267629144	1.9587789	1.3995638
32.77304106776434	1.9914953	1.4112035
32.79131031569289	2.0735483	1.439982
32.809580420661966	2.0548468	1.4334737
32.827851383256714	1.9895604	1.4105178
32.84612320406245	2.0079474	1.4170207
32.86439588366476	1.9963061	1.412907
32.88266942264945	2.0376608	1.4274666
32.9009438216025	2.0056822	1.4162211
32.9192190811102	1.9833028	1.4082979
32.937495201758985	2.0795622	1.4420687
32.95577218413556	2.0203278	1.4213823
32.974050028826866	1.9129581	1.3830973
32.992328736420035	1.9286726	1.3887665
33.010608307502444	1.9616742	1.4005978
33.02888874266169	1.9976677	1.4133887
33.047170042485604	2.0066946	1.4165784
33.06545220756225	2.0238671	1.4226269
33.083735238479896	2.0142193	1.4192319
33.10201913582707	2.0282364	1.4241617
33.12030390019248	1.9646424	1.401657
33.138589532165135	1.9338404	1.390626
33.15687603233419	1.9191684	1.3853406
33.17516340128909	1.9135784	1.3833215
33.19345163961947	1.932987	1.390319
33.211740747915215	2.040308	1.4283935
33.23003072676643	2.114481	1.4541255
33.248321576763466	2.039434	1.4280875
33.266613298496885	1.9407074	1.3930928
33.28490589255747	1.9731618	1.4046928
33.30319935953626	2.0482616	1.4311749
33.32149370002451	1.9826909	1.4080806
33.339788914613706	1.9273812	1.3883015
33.358085003895575	1.9797326	1.4070297
33.376381968462034	2.0386932	1.4278282
33.39467980890529	2.0185454	1.4207553
33.41297852581774	2.0457218	1.4302874
33.43127811979204	1.9931504	1.4117898
33.44957859142105	1.996175	1.4128606
33.467879941297866	2.0624428	1.4361207
33.486182170015844	2.0573225	1.4343369
33.50448527816853	1.977032	1.4060696
33.522789266349754	1.9633596	1.4011993
33.541094135153514	1.9759189	1.4056739
33.55939988517411	2.0357816	1.4268082
33.57770651700602	2.0083086	1.4171481
33.59601403124398	2.0111463	1.4181489
33.61432242848296	1.9627062	1.4009662
33.632631709318154	1.8970954	1.3773509
33.650941874344994	1.811716	1.346
33.66925292415916	1.8392488	1.356189
33.68756485935654	1.8759474	1.3696523
33.70587768053328	1.9320344	1.3899764
33.724191388285746	1.9543035	1.397964
33.74250598321054	1.87643	1.3698285
33.760821465904506	1.8520622	1.3609049
33.77913783696474	1.8732989	1.3686851
33.79745509698852	1.966563	1.402342
33.815773246573414	1.9742324	1.4050738
33.8340922863172	1.9528598	1.3974476
33.852412216817896	1.9397851	1.3927617
33.87073303867377	1.9610626	1.4003794
33.889054752483304	1.9580425	1.3993007
33.907377358845245	1.9288021	1.3888133
33.92570085835853	1.8348945	1.3545828
33.94402525162239	1.8022693	1.3424863
33.96235053923627	1.9177902	1.384843
33.980676721799824	1.9302195	1.3893234
33.999003799912984	1.8371735	1.3554237
34.01733177417592	1.7361214	1.3176196
34.03566064518901	1.8015927	1.3422343
34.0539904135529	1.9543273	1.3979726
34.07232107986846	2.0873861	1.4447789
34.090652644736785	1.9982594	1.4135981
34.108985108759235	1.9276606	1.3884022
34.12731847253742	1.8730729	1.3686025
34.14565273667313	1.9533645	1.3976282
34.16398790176847	2.0474226	1.4308817
34.18232396842574	2.1653502	1.4715129
34.20066093724749	2.105231	1.4509414
34.21899880883651	1.9520978	1.397175
34.23733758379583	1.9382209	1.3922
34.25567726272874	1.9514804	1.3969539
34.27401784623872	1.9803939	1.4072647
34.29235933492957	2.0933986	1.4468582
34.31070172940526	2.0864415	1.4444519
34.32904503027003	2.102728	1.4500786
34.347389238128386	2.0268197	1.4236642
34.36573435358502	2.0080233	1.4170474
34.38408037724492	2.1196544	1.4559033
34.402427309713296	2.0938327	1.4470083
34.42077515159559	2.123228	1.4571301
34.43912390349752	2.021697	1.4218639
34.45747356602499	1.8294246	1.3525622
34.47582413978423	1.805863	1.343824
34.49417562538163	1.9813986	1.4076216
34.51252802342388	2.056707	1.4341223
34.53088133451789	2.0698586	1.4387003
34.54923555927084	2.0319633	1.4254695
34.567590698290104	1.8737532	1.3688511
34.58594675218336	1.94914	1.396116
34.6043037215585	2.041802	1.4289163
34.62266160702365	1.9680885	1.4028858
34.641020409187234	1.8643229	1.3654021
34.65938012865785	1.6481012	1.2837839
34.677740766044394	1.7326298	1.316294
34.69610232195598	1.7478285	1.3220546
34.714464797002016	1.8619274	1.3645246
34.73282819179208	2.0044138	1.4157733
34.751192506936064	2.1703668	1.4732164
34.76955774304408	2.2114005	1.4870778
34.7879239007265	2.3743052	1.540878
34.80629098059391	2.2755148	1.508481
34.824658983257194	2.078716	1.4417753
34.843027909327446	1.9674741	1.4026668
34.86139775941603	2.0001125	1.4142534
34.879768534134534	1.9874014	1.4097522
34.89814023409483	2.0322382	1.425566
34.91651285990901	1.9708691	1.4038764
34.93488641218944	1.9036481	1.3797276
34.95326089154871	1.9038484	1.3798001
34.97163629859967	1.9310787	1.3896326
34.99001263395542	2.0313823	1.4252657
35.00838989822934	2.0667322	1.4376134
35.02676809203499	1.9221648	1.3864216
35.04514721598624	1.929737	1.3891498
35.063527270697215	1.9935331	1.4119253
35.081908256782256	2.0655398	1.4371986
35.10029017485597	1.8451475	1.3583621
35.11867302553321	1.6970965	1.3027265
35.137056809429104	1.8018541	1.3423316
35.155441527159006	1.9117396	1.3826567
35.173827179338524	1.9370818	1.3917909
35.19221376658354	2.0614972	1.4357915
35.21060128951017	1.9264874	1.3879796
35.2289897487348	1.809004	1.3449922
35.24737914487405	1.8934466	1.3760257
35.26576947854479	1.9313438	1.389728
35.28416075036418	1.7048993	1.305718
35.30255296094958	1.7129717	1.3088055
35.32094611091867	1.8720051	1.3682123
35.33934020088932	2.0317526	1.4253956
35.35773523147969	2.6325948	1.6225272
35.3761312033082	2.760079	1.6613485
35.394528116993506	2.4259825	1.5575566
35.41292597315452	2.4828684	1.5757121
35.431324772410434	2.572778	1.6039882
35.449724515380666	2.3542123	1.5343442
35.46812520268491	2.3487072	1.5325493
35.486526834943106	2.3662777	1.538271
35.504929412775454	1.8231226	1.3502306
35.52333293680242	1.475078	1.2145278
35.54173740764471	1.4553034	1.2063596
35.560142825923286	1.6833566	1.2974423
35.5785491922594	2.0011559	1.4146222
35.59695650727454	2.013346	1.4189242
35.61536477159042	1.7820303	1.3349271
