0.008763373481513119	0.0	0.0
0.026290120649546365	0.11242709	0.3353015
0.043816868432600686	0.31317762	0.55962276
0.06134361724069026	0.28306237	0.53203607
0.07887036748382949	0.27459794	0.5240209
0.0963971195720331	0.1179482	0.34343588
0.11392387391531617	0.049822204	0.22320887
0.1314506309236943	0.0059639164	0.0772264
0.1489773910071836	0.078184195	0.27961436
0.16650415457580078	0.13748792	0.37079364
0.18403092203956356	0.1798455	0.42408195
0.20155769380849	0.14046064	0.3747808
0.2190844702925996	0.10239175	0.31998712
0.2366112519019124	0.07345614	0.27102792
0.2541380390464497	0.15654431	0.39565682
0.27166483213623416	0.19286498	0.43916395
0.28919163158128947	0.2376339	0.48747706
0.3067184377916406	0.24749789	0.4974916
0.324245251177314	0.22162445	0.47077006
0.34177207214833777	0.21043156	0.4587282
0.3592989011147415	0.17577754	0.41925833
0.37682573848655654	0.1178221	0.34325224
0.39435258467381573	0.0748092	0.27351272
0.41187944008655414	0.038738698	0.19682148
0.42940630513480854	0.083624855	0.28917962
0.446933180228618	0.13933556	0.37327677
0.4644600657780234	0.19046809	0.4364265
0.48198696219306775	0.18099311	0.42543286
0.49951386988379676	0.1867376	0.43213147
0.5170407892602581	0.1951089	0.44171134
0.5345677207325025	0.17123449	0.4138049
0.5520946647105822	0.13425736	0.36641148
0.5696216216045534	0.090840176	0.30139703
0.5871485918244737	0.07628681	0.27620065
0.6046755757804043	0.11753699	0.34283668
0.6222025738824094	0.14300723	0.37816298
0.6397295865405557	0.15495245	0.39364
0.6572566141649129	0.15161152	0.38937324
0.6747836571655547	0.14869392	0.3856085
0.6923107159525568	0.17788789	0.42176756
0.7098377909359992	0.21172631	0.46013728
0.7273648825259653	0.23796332	0.48781484
0.7448919911325411	0.23545384	0.48523587
0.762419117165817	0.19923627	0.44635892
0.7799462610358868	0.15584603	0.3947734
0.7974734231528482	0.15624516	0.39527857
0.8150006039268024	0.16009623	0.40012026
0.8325278037678551	0.13935463	0.37330234
0.8500550230861152	0.16226123	0.40281662
0.8675822622916969	0.16283679	0.40353042
0.8851095217947171	0.22569051	0.47506896
0.9026368020052984	0.21658993	0.46539223
0.9201641033335665	0.20189543	0.44932777
0.9376914261896523	0.1881828	0.43380043
0.9552187709836915	0.20826621	0.45636192
0.9727461381258234	0.20503439	0.45280725
0.990273528026193	0.20455372	0.45227617
1.0078009410949496	0.21033767	0.45862585
1.0253283777422473	0.20976788	0.45800424
1.0428558383782454	0.23070227	0.48031476
1.0603833234131086	0.25841966	0.50834996
1.0779108332570058	0.30259767	0.55008876
1.0954383683201119	0.3608704	0.6007249
1.112965929012607	0.37355217	0.6111891
1.1304935157446763	0.42136875	0.6491292
1.1480211289265108	0.47208425	0.6870839
1.1655487689683062	1.4050791	1.1853603
1.1830764362802655	1.7463651	1.321501
1.200604131272596	2.2035835	1.4844472
1.2181318543555117	2.488705	1.5775629
1.235659605939232	2.4057817	1.5510583
1.253187386433982	3.7880304	1.9462863
1.270715196249994	6.099773	2.4697719
1.2882430357975057	11.554973	3.3992605
1.3057709054867608	16.251043	4.031258
1.3232988057280106	21.87115	4.67666
1.3408267369315112	26.735085	5.170598
1.358354699507526	30.68896	5.5397615
1.3758826938663256	34.950382	5.911885
1.3934107204181858	36.982944	6.0813603
1.410938779573391	37.20661	6.0997224
1.4284668717422309	37.44557	6.119279
1.4459949973350033	36.746166	6.0618615
1.4635231567620117	36.764774	6.0633965
1.4810513504335687	35.961132	5.99676
1.4985795787599925	35.398125	5.949632
1.5161078421516088	35.106632	5.925085
1.5336361410187505	34.27933	5.8548555
1.5511644757717598	34.38097	5.8635287
1.5686928468209842	35.159817	5.929571
1.58622125457678	35.491867	5.957505
1.6037496994495108	36.52373	6.0434866
1.621278181849548	36.029953	6.002496
1.6388067021872719	36.9513	6.0787582
1.6563352608730693	36.803486	6.0665874
1.673863858317336	35.960506	5.996708
1.6913924949304753	35.242424	5.936533
1.7089211711228998	33.9912	5.8301973
1.7264498873050296	33.241104	5.76551
1.7439786438872935	32.41615	5.693518
1.7615074412801288	31.859655	5.644436
1.779036279893981	31.307642	5.595323
1.796565160139305	30.282032	5.502911
1.814094082426564	29.33263	5.415961
1.8316230471662298	28.458378	5.3346395
1.849152054768784	27.786669	5.271306
1.8666811056447168	27.337145	5.2284937
1.8842102002045273	26.62751	5.160185
1.901739338858724	26.002743	5.0992885
1.9192685220178245	25.429127	5.04273
1.9367977500923557	24.655628	4.9654436
1.9543270234928547	24.26509	4.925961
1.971856342629867	23.550602	4.852896
1.9893857079139496	23.040539	4.800056
2.006915119755667	22.58281	4.752137
2.0244445785655945	21.816185	4.6707797
2.0419740847543175	21.609945	4.6486497
2.0595036387324317	20.931671	4.5751143
2.0770332409105414	20.537756	4.53186
2.094562891699263	20.268019	4.502002
2.1120925915092217	19.795727	4.449239
2.129622340751053	19.749641	4.444057
2.1471521398354043	188.0189	13.711999
2.1646819891729323	444.456	21.082125
2.182211889174303	440.51965	20.98856
2.1997418402501974	452.63583	21.27524
2.2172718428113023	432.35635	20.79318
2.234801897268317	320.1902	17.893858
2.2523320040319548	16.71045	4.0878415
2.269862163512935	16.46307	4.057471
2.287392376121992	16.257236	4.0320263
2.304922642269869	15.895633	3.9869328
2.322452962367322	15.732105	3.9663718
2.3399833368251164	15.566626	3.9454563
2.357513766054032	15.388396	3.9228046
2.3750442504648586	15.002074	3.8732512
2.3925747904683963	14.627352	3.824572
2.410105386475459	14.134759	3.759622
2.4276360388968707	13.887583	3.7266047
2.445166748143469	13.807245	3.71581
2.4626975146261025	13.596093	3.687288
2.4802283387556323	13.407856	3.661674
2.4977592209429305	13.113665	3.6212795
2.5152901615988825	12.859596	3.5860279
2.5328211611343865	12.745563	3.5700927
2.5503522199603523	12.611471	3.5512633
2.5678833384877024	12.500391	3.5355892
2.5854145171273712	12.358778	3.5155053
2.6029457562903064	12.086038	3.476498
2.620477056387469	11.768607	3.4305403
2.6380084178298326	11.530452	3.3956518
2.655539841028383	11.301857	3.3618236
2.673071326394119	11.100576	3.3317528
2.6906028743380523	10.939045	3.3074226
2.708134485271211	10.693865	3.2701476
2.7256661596046325	10.622308	3.2591882
2.743197897749369	10.324244	3.2131362
2.760729700116486	10.239929	3.1999888
2.778261567117063	10.096643	3.1775217
2.795793499162193	9.965527	3.1568222
2.8133254966629817	9.828004	3.1349647
2.830857560030551	9.701771	3.1147666
2.8483896896760337	9.62032	3.101664
2.865921886010578	9.521195	3.0856435
2.883454149445347	9.362545	3.0598276
2.9009864803915177	9.170722	3.02832
2.91851887926028	8.901936	2.983611
2.9360513464628384	8.860883	2.9767234
2.953583882410413	8.752021	2.9583814
2.9711164875142373	8.631629	2.9379635
2.9886491621855606	8.566701	2.9268928
3.0061819068356455	8.400399	2.8983443
3.023714721875769	8.365178	2.8922617
3.041247607717225	8.184781	2.8609056
3.0587805647713213	7.9734282	2.823726
3.0763135934493806	7.9744368	2.8239045
3.0938466941627407	7.9460626	2.818876
3.1113798673227544	7.976005	2.8241823
3.1289131133407904	7.95958	2.8212729
3.1464464326282315	7.953108	2.8201256
3.1639798255964786	8.012786	2.8306866
3.1815132926569443	7.898948	2.8105068
3.1990468342210603	7.719883	2.7784677
3.216580450700272	7.3718266	2.7151108
3.2341141425060416	7.20273	2.6837902
3.251647910049847	7.1896443	2.6813512
3.2691817537431813	7.0949554	2.6636357
3.286715673997555	7.0037045	2.6464512
3.3042496712244938	6.814516	2.610463
3.32178374583554	6.7110686	2.590573
3.339317898242251	6.6893005	2.5863683
3.3568521288562034	6.693013	2.587086
3.3743864380889876	6.633895	2.575635
3.3919208263522127	6.503645	2.5502245
3.4094552940575023	6.4526186	2.5402005
3.4269898416164972	6.45589	2.5408444
3.444524469440858	6.487284	2.5470147
3.4620591779422587	6.4902496	2.547597
3.479593967532391	6.454869	2.5406435
3.4971288386229658	6.439603	2.5376372
3.5146637916257086	6.4583845	2.541335
3.5321988269523628	6.452372	2.540152
3.5497339450146903	6.405834	2.5309749
3.5672691462244708	6.3679757	2.523485
3.5848044309934988	6.310556	2.512082
3.60233979973359	6.2453465	2.4990692
3.619875252856575	6.121643	2.4741955
3.6374107907743034	6.142781	2.4784634
3.6549464138986427	6.2306585	2.4961288
3.6724821226414788	6.290614	2.5081096
3.690017917414714	6.2817826	2.5063484
3.7075537986302702	6.1903114	2.4880335
3.7250897667000857	6.220893	2.4941719
3.7426258220361235	6.338157	2.5175698
3.7601619650503553	6.6724896	2.5831163
3.777698196154779	7.1943154	2.6822221
3.7952345157614067	8.254237	2.8730187
3.8127709242822716	9.112424	3.0186791
3.830307422129425	11.182901	3.3440845
3.847844009714936	29.947596	5.47244
3.8653806874508954	97.43785	9.871061
3.882917455749409	96.79898	9.838647
3.900454315022606	96.80541	9.838974
3.917991265682631	41.383396	6.432993
3.9355283081416506	11.003373	3.3171332
3.9530654428118495	8.761391	2.9599648
3.970602670105433	7.4479685	2.7290967
3.9881399904346244	6.5456367	2.5584443
4.005677404211669	6.481869	2.5459516
4.023214911848827	6.3316197	2.516271
4.0407525137583855	6.385779	2.52701
4.058290210352644	6.315829	2.5131314
4.075828002043927	6.2572484	2.5014493
4.0933658892445814	6.1648726	2.482916
4.110903872366966	6.0809207	2.4659524
4.128441951823468	6.066361	2.4629984
4.145980128026488	6.090807	2.467956
4.163518401388452	6.164055	2.4827514
4.181056772321807	6.2605457	2.5021083
4.1985952412390155	6.1755548	2.4850664
4.216133808552567	6.104215	2.470671
4.233672474674966	6.058365	2.4613745
4.251211240018741	6.208743	2.491735
4.268750104996445	6.5058823	2.550663
4.286289070020643	7.4131923	2.7227178
4.303828135503928	9.111893	3.0185912
4.3213673018589125	29.355276	5.418051
4.3389065694982305	90.62899	9.519926
4.356445938834537	165.8164	12.876972
4.3739854102805085	171.36023	13.090464
4.391524984248844	172.28159	13.125608
4.409064661152262	136.34175	11.676547
4.426604441403504	96.65458	9.831306
4.444144325415337	75.81683	8.707286
4.461684313600543	21.6883	4.6570697
4.47922440637193	22.081413	4.6990867
4.496764604142329	20.234343	4.49826
4.5143049073245916	18.274725	4.2748947
4.531845316331589	16.155315	4.0193677
4.5493858315762195	13.210353	3.634605
4.566926453471405	11.062326	3.3260076
4.584467182430081	9.117817	3.0195723
4.602008018865218	8.16612	2.8576424
4.619548963189798	7.532646	2.7445667
4.637090015816834	7.0031996	2.6463559
4.654631177159353	6.644019	2.5775995
4.672172447630417	6.3196383	2.513889
4.689713827643102	6.169923	2.483933
4.7072553176105085	5.954995	2.440286
4.724796917945764	5.789015	2.406037
4.742338629062015	5.6277432	2.3722866
4.759880451372434	5.4766636	2.3402274
4.777422385290215	5.41913	2.3279026
4.794964431228581	5.352336	2.3135116
4.812506589600768	5.396373	2.3230095
4.830048860820047	5.394224	2.322547
4.847591245299709	5.4858356	2.342186
4.8651337434530655	5.504919	2.3462565
4.882676355693457	5.488521	2.3427594
4.900219082434242	5.4605107	2.3367736
4.917761924088813	5.4684415	2.33847
4.935304881070575	5.38414	2.320375
4.952847953792969	5.3738647	2.3181598
4.970391142669449	5.3066416	2.3036149
4.9879344481135055	5.4059954	2.3250797
5.005477870538642	5.405882	2.3250554
5.023021410358394	5.3562307	2.3143532
5.040565067986324	5.3380146	2.3104143
5.05810884383601	5.3509474	2.3132114
5.075652738321066	5.3673396	2.316752
5.09319675185512	5.3911386	2.3218825
5.110740884851836	5.3145947	2.3053405
5.128285137724894	5.2981253	2.3017657
5.145829510888007	5.267913	2.2951934
5.163374004754908	5.3376546	2.3103364
5.1809186197393595	5.3210077	2.306731
5.198463356255145	5.324009	2.3073814
5.216008214716077	5.337198	2.3102376
5.233553195535998	5.295337	2.3011599
5.251098299128764	5.246974	2.2906275
5.268643525908272	5.2227874	2.2853417
5.286188876288432	5.2194233	2.2846057
5.3037343506831895	5.2826047	2.2983918
5.32127994950651	5.2480707	2.2908669
5.3388256731723915	5.2014456	2.2806678
5.356371522094851	5.11255	2.2610948
5.373917496687938	5.0775433	2.2533405
5.391463597365729	5.0989823	2.2580926
5.40900982454232	5.1468544	2.268668
5.426556178631843	5.206733	2.2818267
5.444102660048449	5.156785	2.2708557
5.4616492692063225	5.0169272	2.2398498
5.479196006519669	4.9143963	2.2168438
5.496742872402727	4.8981256	2.213171
5.514289867269756	5.0074186	2.2377262
5.531836991535049	5.1045246	2.2593195
5.549384245612924	5.1223907	2.26327
5.566931629917724	5.05043	2.2473161
5.584479144863822	5.01954	2.240433
5.6020267908656205	5.0435386	2.2457824
5.619574568337545	5.082126	2.254357
5.637122477694054	5.0978174	2.2578347
5.654670519349629	5.110148	2.2605636
5.672218693718784	5.0688415	2.2514088
5.689767001216059	5.042496	2.2455504
5.707315442256021	5.083395	2.2546387
5.724864017253266	5.071206	2.2519338
5.7424127266224225	5.161166	2.27182
5.75996157077814	5.1526933	2.2699544
5.777510550135105	5.2245083	2.2857184
5.795059665108022	5.20321	2.2810545
5.812608916111639	5.1744514	2.2747421
5.830158303560715	5.287441	2.2994435
5.847707827870055	5.2235327	2.2855048
5.86525748945448	5.242307	2.2896085
5.8828072887288485	5.316558	2.3057663
5.900357226108044	5.397346	2.3232188
5.917907302006979	5.5147	2.3483398
5.9354575168406	6.112266	2.4722998
5.9530078710238765	6.7494483	2.59797
5.970558364971812	7.1979017	2.6828907
5.988108999099438	7.463782	2.7319922
6.005659773821818	7.8842072	2.807883
6.023210689554039	7.7520394	2.7842484
6.040761746711227	8.236977	2.8700132
6.058312945708531	7.6351843	2.7631838
6.075864286961132	7.2751284	2.6972446
6.093415770884244	6.5966206	2.5683887
6.1109673978931065	6.0205016	2.453671
6.128519168402993	5.4088893	2.325702
6.146071082829204	5.333005	2.30933
6.163623141587075	5.264673	2.2944875
6.181175345091969	5.187986	2.277715
6.198727693759281	5.116971	2.2620723
6.216280188004435	5.052352	2.2477438
6.233832828242885	5.001674	2.2364423
6.251385614890126	5.0761294	2.2530267
6.268938548361669	5.079133	2.253693
6.286491629073067	5.0555625	2.248458
6.304044857439898	5.049324	2.24707
6.321598233877777	4.9995165	2.2359598
6.339151758802344	4.986939	2.2331455
6.356705432629277	4.9631376	2.2278101
6.37425925577428	4.962788	2.2277317
6.391813228653095	4.923998	2.2190082
6.409367351681486	4.9568706	2.226403
6.426921625275259	4.9413223	2.2229085
6.44447604985025	5.004093	2.236983
6.46203062582232	4.9380407	2.2221704
6.47958535360737	4.9208336	2.218295
6.497140233621328	4.8417907	2.200407
6.514695266280161	4.836359	2.1991723
6.532250451999859	4.9056277	2.2148652
6.549805791196454	4.9344535	2.221363
6.567361284286002	4.9250464	2.2192445
6.584916931684597	4.9074817	2.2152836
6.602472733808367	4.8634095	2.205314
6.6200286910734665	4.8118234	2.1935868
6.637584803896092	4.7828493	2.1869726
6.655141072692462	4.780171	2.1863601
6.672697497878842	4.849393	2.2021337
6.690254079871514	4.8645234	2.2055664
6.707810819086808	4.837366	2.1994014
6.725367715941078	4.7991877	2.1907048
6.742924770850719	4.8148174	2.1942692
6.760481984232151	4.880104	2.2090957
6.778039356501836	4.9281797	2.2199504
6.795596888076266	4.9435215	2.2234032
6.813154579371963	4.9372697	2.2219968
6.830712430805492	4.8975077	2.2130313
6.84827044279344	4.883073	2.2097676
6.865828615752445	4.9134326	2.2166264
6.883386950099159	4.9377446	2.2221036
6.900945446250287	4.896823	2.2128766
6.918504104622553	4.8494983	2.2021577
6.936062925632727	4.816473	2.1946464
6.953621909697607	4.907586	2.2153072
6.971181057234028	4.9978995	2.2355983
6.988740368658859	4.990462	2.2339342
7.006299844389007	5.0214534	2.24086
7.023859484841407	5.0842676	2.254832
7.041419290433036	5.243175	2.289798
7.058979261580902	5.425868	2.3293493
7.0765393987020495	5.6793485	2.3831384
7.094099702213559	6.0465217	2.4589677
7.111660172532549	6.3638372	2.5226648
7.129220810076164	6.6881323	2.5861423
7.146781615261595	7.246321	2.6918993
7.16434258850606	7.5098677	2.7404137
7.181903730226821	7.939852	2.8177743
7.1994650408411704	7.913796	2.813147
7.217026520766437	8.06827	2.84047
7.234588170419983	8.212348	2.8657196
7.252149990219215	8.276134	2.876827
7.269711980581568	8.212941	2.865823
7.2872741419245175	8.065188	2.8399274
7.304836474665574	7.666489	2.7688425
7.322398979222286	7.339061	2.7090702
7.339961656012233	7.1352363	2.6711862
7.357524505453039	6.8251367	2.6124961
7.375087527962357	6.5408773	2.557514
7.392650723957886	6.239441	2.4978874
7.410214093857353	5.817652	2.4119809
7.427777638078528	5.594523	2.3652744
7.445341357039213	5.380421	2.3195734
7.4629052511572525	5.300113	2.3021975
7.480469320850524	5.260402	2.2935567
7.498033566536948	5.2223024	2.2852356
7.5155979886344735	5.154087	2.2702615
7.5331625875610975	5.0835013	2.254662
7.550727363734844	5.091018	2.2563286
7.568292317573788	5.0843024	2.25484
7.585857449496025	5.1400714	2.2671726
7.603422759919705	5.1122184	2.2610216
7.620988249263007	5.1309333	2.2651563
7.638553917944147	5.125024	2.2638516
7.656119766381391	5.163663	2.2723694
7.673685794993023	5.2381577	2.2887022
7.691252004197388	5.188307	2.2777855
7.70881839441285	5.129036	2.2647376
7.726384966057826	5.078485	2.2535493
7.743951719550762	5.0708985	2.2518656
7.761518655310149	5.078452	2.2535422
7.779085773754511	5.1403885	2.2672424
7.796653075302419	5.1425757	2.2677248
7.814220560372475	5.1972647	2.279751
7.831788229383323	5.177761	2.2754693
7.8493560827536495	5.14239	2.2676837
7.866924120902174	5.127848	2.2644753
7.884492344247663	5.151831	2.2697647
7.9020607532089135	5.2284646	2.2865837
7.919629348204771	5.2750063	2.2967381
7.937198129654115	5.277692	2.2973228
7.954767097975865	5.3109903	2.3045585
7.972336253588986	5.3252625	2.307653
7.989905596912472	5.315749	2.3055909
8.007475128365371	5.325024	2.3076015
8.025044848366756	5.338029	2.3104174
8.042614757335754	5.4650836	2.3377519
8.060184855691523	5.5594163	2.3578415
8.07775514385327	5.7058578	2.3886938
8.095325622240228	5.809599	2.410311
8.112896291271687	5.805304	2.4094198
8.130467151366968	5.8106565	2.4105303
8.148038202945436	5.8300815	2.4145563
8.165609446426497	5.7572975	2.399437
8.183180882229594	5.845396	2.4177253
8.200752510774217	5.9056835	2.4301612
8.218324332479893	5.8997164	2.4289331
8.235896347766193	5.915009	2.432079
8.253468557052724	5.846871	2.4180303
8.27104096075914	5.815699	2.411576
8.288613559305137	5.8009796	2.4085224
8.306186353110448	5.907611	2.4305577
8.32375934259485	6.038059	2.4572463
8.341332528178162	6.13613	2.4771214
8.358905910280246	6.1878815	2.4875453
8.376479489321003	6.179634	2.485887
8.394053265720377	6.2633996	2.5026784
8.411627239898356	6.248486	2.4996972
8.42920141227497	6.2545204	2.5009038
8.44677578327029	6.2056403	2.4911122
8.464350353304427	6.192965	2.4885669
8.48192512279754	6.1613293	2.4822025
8.499500092169827	6.1304436	2.4759734
8.51707526184153	6.026943	2.4549832
8.534650632232934	6.0161624	2.4527867
8.552226203764365	5.970535	2.4434679
8.569801976856192	6.0291467	2.4554322
8.587377951928834	6.0882144	2.4674308
8.60495412940274	6.1659217	2.4831274
8.622530509698416	6.2610884	2.5022166
8.6401070932364	6.363062	2.522511
8.657683880437283	6.4580836	2.541276
8.675260871721695	6.5531597	2.559914
8.692838067510303	6.7065744	2.5897055
8.710415468223834	6.864546	2.6200278
8.727993074283043	7.0417376	2.6536272
8.745570886108737	7.0826197	2.6613193
8.763148904121765	7.152631	2.6744404
8.78072712874302	7.18649	2.680763
8.798305560393441	7.3384748	2.708962
8.815884199494006	7.4850445	2.7358809
8.833463046465745	7.6087804	2.7584019
8.851042101729728	7.744018	2.7828076
8.86862136570707	8.059875	2.8389919
8.886200838818924	8.239658	2.8704805
8.903780521486505	8.32978	2.8861358
8.921360414131055	8.404681	2.899083
8.938940517173874	8.565232	2.9266417
8.956520831036297	8.708967	2.9510958
8.97410135613971	8.982876	2.9971447
8.99168209290554	9.084593	3.0140657
9.009263041755265	9.34221	3.0565028
9.026844203110405	9.586628	3.0962281
9.044425577392525	9.714564	3.1168196
9.062007165023239	9.815765	3.1330123
9.079588966424197	10.053288	3.1706922
9.097170982017108	10.174934	3.1898172
9.11475321222372	11.085392	3.3294733
9.132335657465825	11.916101	3.4519706
9.149918318165264	11.972441	3.4601214
9.167501194743924	12.500772	3.535643
9.18508428762374	12.250661	3.5000944
9.202667597226693	12.278465	3.504064
9.220251123974803	11.937952	3.4551342
9.237834868290143	11.727062	3.42448
9.255418830594836	11.555766	3.3993773
9.273003011311046	11.112855	3.3335948
9.290587410860985	10.862842	3.2958825
9.308172029666911	10.275487	3.20554
9.32575686815113	9.933809	3.1517947
9.343341926735997	8.621261	2.9361982
9.360927205843916	8.3398485	2.8878796
9.378512705897327	8.171145	2.8585215
9.396098427318728	7.9857645	2.8259096
9.413684370530664	7.9387913	2.8175862
9.431270535955722	7.8867064	2.8083282
9.448856924016539	7.80474	2.7936964
9.466443535135806	7.6976757	2.7744687
9.484030369736251	7.6511045	2.766063
9.501617428240658	7.63775	2.763648
9.519204711071852	7.65668	2.7670708
9.536792218652714	7.6372905	2.7635648
9.55437995140617	7.7190104	2.7783108
9.571967909755191	7.7731795	2.7880423
9.589556094122802	7.7892427	2.7909214
9.60714450493207	7.8094206	2.794534
9.624733142606116	7.8490705	2.8016193
9.642322007568108	7.914531	2.8132777
9.659911100241267	7.966029	2.8224156
9.677500421048851	7.928186	2.8157034
9.695089970414175	7.9550123	2.8204632
9.712679748760609	7.994536	2.827461
9.730269756511557	8.079657	2.8424737
9.747859994090492	8.108273	2.847503
9.765450461920915	8.110178	2.8478374
9.78304116042639	8.113033	2.8483386
9.800632090030527	8.110219	2.8478446
9.81822325115699	8.083894	2.8432188
9.835814644229481	8.038093	2.835153
9.853406269671762	8.031902	2.8340611
9.870998127907646	8.138467	2.8528
9.888590219360985	8.270585	2.8758626
9.906182544455698	8.2878065	2.878855
9.923775103615734	8.282551	2.877942
9.941367897265108	8.217464	2.866612
9.958960925827878	8.2421255	2.8709102
9.97655418972816	8.264481	2.874801
9.994147689390106	8.283899	2.8781765
10.011741425237934	8.264101	2.8747349
10.029335397695904	8.206985	2.8647838
10.04692960718833	8.120467	2.8496432
10.06452405413958	8.103362	2.8466406
10.082118738974064	8.11635	2.8489208
10.099713662116246	8.148044	2.854478
10.117308823990651	8.128594	2.851069
10.134904225021844	8.124231	2.8503036
10.152499865634445	8.082346	2.8429468
10.170095746253125	8.058354	2.8387241
10.18769186730261	8.067722	2.8403735
10.205288229207675	8.069189	2.8406317
10.222884832393145	8.069934	2.8407629
10.2404816772839	8.046974	2.8367188
10.258078764304868	7.9982057	2.82811
10.275676093881035	8.014665	2.8310182
10.293273666437438	7.959461	2.8212516
10.310871482399158	8.053198	2.8378158
10.32846954219134	8.056336	2.8383687
10.346067846239173	8.106679	2.847223
10.363666394967908	8.025293	2.8328948
10.38126518880283	7.961916	2.8216867
10.398864228169298	8.054297	2.8380094
10.416463513492713	8.051921	2.8375907
10.434063045198531	8.015077	2.8310912
10.451662823712262	7.9835305	2.8255143
10.469262849459467	8.04819	2.8369331
10.486863122865758	8.064232	2.839759
10.504463644356806	8.034732	2.8345602
10.522064414358338	7.960058	2.8213575
10.539665433296118	7.847526	2.8013437
10.557266701595987	7.7326207	2.780759
10.574868219683818	7.5587645	2.7493207
10.592469987985552	7.511272	2.74067
10.610072006927185	7.5196285	2.7421942
10.627674276934751	7.5410056	2.7460892
10.64527679843435	7.431333	2.726047
10.662879571852143	7.2208376	2.6871617
10.680482597614331	7.044847	2.654213
10.698085876147173	6.983435	2.642619
10.715689407876988	6.948727	2.6360438
10.733293193230146	6.8717732	2.6214068
10.750897232633072	6.6684895	2.582342
10.76850152651225	6.5382047	2.5569913
10.786106075294207	6.475383	2.5446773
10.803710879405534	6.4644785	2.5425339
10.821315939272877	6.484231	2.5464153
10.83892125532294	6.4070687	2.5312188
10.856526827982472	6.331498	2.5162468
10.874132657678285	6.2683196	2.5036612
10.891738744837243	6.188845	2.4877388
10.909345089886271	6.1250453	2.4748828
10.926951693252343	6.004853	2.4504802
10.944558555362494	5.9994617	2.44938
10.96216567664381	5.967483	2.4428432
10.979773057523436	5.9985423	2.4491923
10.997380698428573	5.925463	2.4342275
11.014988599786477	5.7916427	2.4065833
11.032596762024461	5.6571913	2.378485
11.050205185569892	5.5182047	2.3490858
11.067813870850198	5.489924	2.3430586
11.085422818292859	5.4171386	2.3274748
11.10303202832541	5.402227	2.324269
11.120641501375454	5.4283123	2.3298738
11.138251237870636	5.4025455	2.3243377
11.155861238238671	5.357065	2.3145335
11.173471502907317	5.20758	2.2820122
11.191082032304402	5.140719	2.2673154
11.208692826857805	5.110874	2.2607243
11.226303886995465	5.070548	2.2517877
11.243915213145371	4.9789996	2.231367
11.261526805735578	4.8648634	2.2056434
11.279138665194196	4.824457	2.1964648
11.296750791949393	4.7705574	2.1841605
11.314363186429393	4.743187	2.177886
11.331975849062479	4.65375	2.1572552
11.34958878027699	4.5856895	2.1414223
11.36720198050133	4.5787477	2.1398008
11.384815450163948	4.585522	2.1413832
11.402429189693366	4.5610666	2.1356654
11.420043199518153	4.476451	2.1157625
11.437657480066942	63.41742	7.9635053
11.455272031768422	85.08089	9.22393
11.472886855051353	107.48396	10.367447
11.490501950344528	99.027016	9.951232
11.508117318076819	84.42104	9.188092
11.52573295867715	45.846867	6.7710314
11.543348872574514	4.1935515	2.0478163
11.560965060197946	4.119552	2.029668
11.57858152197655	4.074606	2.0185654
11.59619825833949	4.016375	2.0040896
11.613815269715985	3.9737833	1.993435
11.631432556535323	38.417343	6.1981726
11.649050119226837	82.95973	9.108223
11.666667958219929	93.35136	9.661851
11.68428607394406	107.5908	10.372599
11.701904466828756	82.39722	9.0772915
11.719523137303586	65.2924	8.080371
11.737142085798196	4.580849	2.140292
11.754761312742286	3.7019045	1.9240334
11.772380818565619	3.6462326	1.9095111
11.790000603698015	3.5986464	1.8970098
11.80762066856935	3.5893877	1.894568
11.825241013609572	3.5525875	1.884831
11.842861639248683	3.5061228	1.8724644
11.860482545916748	3.4928849	1.8689262
11.878103734043883	3.4579864	1.8595662
11.895725204060282	3.4482021	1.8569335
11.91334695639619	3.415745	1.8481734
11.930968991481919	3.393866	1.8422449
11.948591309747824	3.3367748	1.8266841
11.966213911624347	3.3188372	1.8217676
11.98383679754198	3.3133285	1.820255
12.001459967931268	3.2900739	1.8138561
12.019083423222835	3.2444851	1.8012455
12.036707163847352	3.1861458	1.7849778
12.05433119023556	3.1627905	1.7784237
12.071955502818259	3.1466672	1.7738848
12.089580102026313	3.117271	1.7655795
12.107204988290643	3.1141293	1.7646896
12.12483016204224	3.074303	1.753369
12.142455623712152	3.066128	1.7510363
12.16008137373149	3.0534954	1.7474253
12.177707412531431	3.102238	1.7613171
12.19533374054321	3.1028533	1.7614918
12.212960358198126	3.0701454	1.7521831
12.230587265927545	3.0105538	1.7350948
12.248214464162889	2.9969707	1.7311761
12.265841953335649	2.9828262	1.7270861
12.283469733877375	2.966591	1.7223794
12.301097806219685	2.969924	1.7233467
12.31872617079425	2.9575646	1.7197571
12.336354828032825	2.95095	1.7178329
12.353983778367205	2.9688816	1.7230443
12.371613022229262	2.907832	1.7052366
12.389242560050928	2.901014	1.7032363
12.406872392264201	2.9129975	1.7067505
12.424502519301143	2.9532537	1.7185034
12.442132941593874	2.9344592	1.7130263
12.459763659574586	2.9122674	1.7065367
12.477394673675532	2.8586638	1.6907583
12.49502598432903	2.826667	1.6812695
12.51265759196746	2.7964544	1.6722603
12.530289497023267	2.78384	1.6684843
12.547921699928967	2.8252769	1.680856
12.565554201117134	2.86533	1.6927285
12.583187001020404	2.8373277	1.6844369
12.600820100071486	2.796317	1.6722192
12.618453498703152	2.7851298	1.6688708
12.636087197348235	2.787433	1.6695607
12.65372119643964	2.7777042	1.6666446
12.671355496410326	2.7832916	1.66832
12.68899009769333	2.8043542	1.6746206
12.706625000721749	2.8146157	1.6776817
12.724260205928752	2.8184676	1.6788292
12.741895713747551	2.830083	1.6822851
12.759531524611454	2.847659	1.6875008
12.777167638953818	2.8877456	1.6993368
12.794804057208072	2.9295838	1.7116027
12.812440779807702	3.0133169	1.7358907
12.830077807186271	3.0991464	1.7604393
12.847715139777405	3.1478348	1.7742138
12.865352778014795	3.3293228	1.8246433
12.882990722332197	3.4710522	1.863076
12.90062897316344	3.5558739	1.8857025
12.918267530942412	3.6513364	1.9108471
12.935906396103071	3.5628598	1.8875539
12.953545569079449	3.695327	1.9223233
12.971185050305628	3.4898922	1.8681253
12.988824840215775	3.4837186	1.8664722
13.006464939244115	3.504837	1.872121
13.024105347824943	3.3633952	1.8339561
13.041746066392617	3.4590065	1.8598405
13.05938709538157	3.2975197	1.8159074
13.077028435226296	3.277179	1.8102981
13.094670086361363	3.1792402	1.7830424
13.112312049221401	3.111462	1.7639337
13.129954324241112	3.067395	1.751398
13.147596911855258	2.8961632	1.7018118
13.165239812498685	2.8266406	1.6812617
13.182883026606293	2.780011	1.6673365
13.200526554613058	2.7451231	1.6568413
13.218170396954017	2.747175	1.6574605
13.235814554064284	2.7240875	1.650481
13.253459026379034	2.7176285	1.6485231
13.271103814333523	2.6951206	1.6416823
13.288748918363058	2.7151093	1.6477588
13.306394338903031	2.7016852	1.6436803
13.32404007638889	2.6498084	1.6278232
13.341686131256164	2.6346865	1.6231717
13.359332503940449	2.6346176	1.6231505
13.376979194877402	2.6682987	1.6334928
13.394626204502751	2.6756291	1.635735
13.412273533252307	2.6924908	1.6408811
13.429921181561937	2.6577258	1.6302533
13.447569149867581	2.6569428	1.6300131
13.465217438605247	2.6518679	1.6284556
13.482866048211022	2.687346	1.6393126
13.500514979121052	2.6839929	1.6382896
13.518164231771568	2.6649604	1.6324706
13.535813806598844	2.6317682	1.6222725
13.553463704039254	2.6308074	1.6219764
13.571113924529229	2.631019	1.6220417
13.588764468505275	2.619682	1.6185431
13.606415336403956	2.6556091	1.629604
13.624066528661917	2.6893344	1.639919
13.641718045715882	2.752057	1.6589326
13.659369888002635	2.781578	1.6678064
13.67702205595903	2.8733656	1.6951004
13.694674550021993	2.9532099	1.7184906
13.712327370628532	3.028851	1.7403594
13.729980518215713	3.0973048	1.7599162
13.747633993220681	3.1414165	1.7724042
13.765287796080647	3.1942632	1.7872502
13.7829419272329	3.232601	1.7979435
13.800596387114801	3.2335327	1.7982026
13.818251176163775	3.2582104	1.8050513
13.835906294817324	3.306778	1.8184549
13.853561743513023	3.3685334	1.8353565
13.871217522688525	3.4046497	1.8451693
13.888873632781538	3.4330282	1.8528433
13.906530074229858	3.458572	1.8597236
13.92418684747135	3.4862583	1.8671525
13.941843952943948	3.4749317	1.8641169
13.959501391085665	3.411184	1.8469391
13.977159162334578	3.3572795	1.832288
13.994817267128846	3.3181732	1.8215853
14.012475705906693	3.269437	1.8081585
14.030134479106424	3.1875691	1.7853764
14.047793587166414	3.1087952	1.7631776
14.065453030525108	3.029598	1.740574
14.083112809621026	2.9865859	1.7281741
14.100772924892766	2.9305987	1.7118992
14.118433376778997	2.8916917	1.7004975
14.136094165718458	2.7990923	1.6730489
14.153755292149969	2.7328246	1.6531256
14.171416756512416	2.68586	1.6388594
14.189078559244768	2.5919187	1.6099437
14.20674070078606	2.536472	1.5926305
14.224403181575408	2.4852996	1.5764832
14.242066002051999	2.4772532	1.5739292
14.259729162655093	2.4357955	1.5607035
14.277392663824022	2.3988674	1.5488278
14.295056505998208	2.3553023	1.5346994
14.312720689617128	2.389303	1.545737
14.330385215120348	2.4176404	1.5548763
14.348050082947497	2.449197	1.5649911
14.3657152935383	2.44272	1.5629203
14.383380847332528	2.3803985	1.5428541
14.401046744770051	2.3708134	1.5397446
14.418712986290798	2.344175	1.5310699
14.436379572334793	2.3708718	1.5397636
14.454046503342123	2.3666089	1.5383786
14.471713779752946	2.3431463	1.530734
14.489381402007504	2.3224635	1.5239631
14.507049370546113	2.3342779	1.5278344
14.524717685809168	2.3900032	1.5459635
14.542386348237134	2.4471962	1.5643517
14.560055358270553	2.4509003	1.5655352
14.577724716350051	2.4558475	1.5671144
14.595394422916325	2.4566286	1.5673636
14.61306447841015	2.494105	1.5792736
14.63073488327237	2.5121202	1.5849669
14.648405637943917	2.527076	1.5896779
14.6660767428658	2.4904664	1.5781212
14.683748198479094	2.4883394	1.5774472
14.701420005224954	2.529568	1.5904616
14.719092163544628	2.613496	1.616631
14.73676467387942	2.6844072	1.638416
14.754437536670727	2.7050672	1.6447089
14.772110752360014	2.7011442	1.6435158
14.78978432138882	2.6826437	1.6378778
14.807458244198777	2.7443964	1.656622
14.82513252123159	2.7122774	1.6468993
14.842807152929028	2.7000844	1.6431934
14.860482139732962	2.5989316	1.6121202
14.87815748208531	2.5780184	1.6056209
14.8958331804281	2.6005976	1.6126368
14.91350923520342	2.5742855	1.604458
14.931185646853438	2.6065419	1.6144788
14.948862415820408	2.5610056	1.6003143
14.966539542546656	2.5918097	1.6099099
14.98421702747459	2.5816844	1.606762
15.001894871046696	2.5857947	1.6080407
15.019573073705542	2.586342	1.6082108
15.037251635893766	2.5911524	1.6097057
15.054930558054092	2.6488786	1.6275376
15.072609840629323	2.6872835	1.6392936
15.090289484062351	2.8013568	1.6737254
15.107969488796124	2.9232447	1.7097499
15.125649855273691	3.1404881	1.7721423
15.14333058393817	3.5519447	1.8846604
15.161011675232768	4.172032	2.0425553
15.17869312960076	4.830621	2.1978674
15.196374947485506	5.5151052	2.348426
15.214057129330447	6.8388257	2.615115
15.231739675579114	8.980877	2.9968112
15.249422586675102	13.4795265	3.6714475
15.267105863062092	17.913656	4.232453
15.284789505183847	24.832565	4.983228
15.302473513484218	29.539806	5.4350533
15.320157888407127	33.61406	5.7977633
15.337842630396578	32.540573	5.7044344
15.355527739896656	29.735865	5.45306
15.37321321735153	23.189627	4.815561
15.39089906320545	15.898984	3.987353
15.408585277902748	10.238141	3.1997094
15.42627186188783	6.3406253	2.5180597
15.443958815605198	4.5520663	2.133557
15.461646139499424	3.802106	1.949899
15.479333834015168	3.3756065	1.8372824
15.497021899597165	3.0689347	1.7518375
15.514710336690234	2.833952	1.6834346
15.53239914573928	2.6801047	1.6371025
15.550088327189297	2.5774827	1.6054541
15.567777881485336	2.4820783	1.5754613
15.58546780907256	2.463327	1.5694989
15.6031581103962	2.477282	1.5739384
15.620848785901568	2.5083296	1.5837708
15.638539836034063	2.495461	1.5797029
15.656231261239173	2.4724636	1.5724069
15.673923061962451	2.4601026	1.5684714
15.691615238649552	2.423115	1.5566359
15.709307791746202	2.3711693	1.5398601
15.727000721698221	2.330598	1.5266297
15.744694028951498	2.3567367	1.5351666
15.76238771395202	2.4364996	1.5609291
15.780081777145844	2.4569979	1.5674814
15.797776218979125	2.4396334	1.5619326
15.815471039898094	2.4280841	1.5582311
15.833166240349064	2.4391048	1.5617634
15.850861820778437	2.420098	1.5556664
15.868557781632699	2.436554	1.5609465
15.886254123358412	2.4467094	1.5641961
15.903950846402232	2.462494	1.5692335
15.921647951210897	2.4711218	1.5719802
15.939345438231225	2.503284	1.5821769
15.957043307910133	2.523304	1.5884911
15.974741560694602	2.544894	1.5952724
15.992440197031714	2.497696	1.58041
16.01013921736862	2.460419	1.5685723
16.02783862215259	2.4378538	1.5613629
16.045538411830933	2.4519095	1.5658574
16.06323858685107	2.4446983	1.5635531
16.080939147660512	2.4506912	1.5654684
16.09864009470684	2.4361303	1.5608108
16.11634142843774	2.4506161	1.5654444
16.134043149300954	2.4359097	1.5607401
16.15174525774433	2.4151146	1.5540639
16.169447754215817	2.407947	1.5517561
16.18715063916342	2.4118571	1.5530155
16.204853913035244	2.4247649	1.5571656
16.222557576279478	2.4285765	1.5583891
16.240261629344403	22.420757	4.7350564
16.257966072678386	42.963833	6.5546803
16.275670906729868	38.066036	6.169768
16.293376131947387	2.4949372	1.579537
16.31108174877957	2.5130663	1.5852654
16.328787757675133	2.540868	1.59401
16.34649415908287	2.5857196	1.6080173
16.364200953451657	2.6240973	1.6199065
16.38190814123048	2.619044	1.6183461
16.39961572286839	2.6039636	1.6136801
16.41732369881455	2.6332963	1.6227435
16.43503206951817	2.7015743	1.6436466
16.45274083542859	2.7716558	1.664829
16.47044999699522	2.8106196	1.6764903
16.488159554667558	2.820017	1.6792907
16.505869508895184	2.8634758	1.6921808
16.523579860127786	2.9529076	1.7184026
16.541290608815117	3.062938	1.7501252
16.559001755407035	3.1486301	1.774438
16.57671330035348	3.201357	1.7892336
16.59442524410448	3.2930567	1.8146782
16.61213758711015	3.456621	1.859199
16.629850329820705	3.5415606	1.8819034
16.647563472686436	3.5482898	1.8836905
16.665277016157724	3.4837513	1.866481
16.682990960685053	3.437081	1.8539367
16.70070530671898	3.4352698	1.853448
16.718420054710155	3.4723115	1.8634139
16.736135205109335	3.5819075	1.8925928
16.753850758367335	3.640899	1.908114
16.771566714935087	3.652256	1.9110876
16.789283075263597	3.6769965	1.9175496
16.80699983980398	3.719817	1.9286827
16.82471700900741	3.7798276	1.9441779
16.84243458332518	3.8546214	1.963319
16.860152563208665	3.9660585	1.9914966
16.87787094910932	4.0118675	2.0029647
16.89558974147871	4.055445	2.0138135
16.913308940768466	4.137245	2.0340219
16.931028547430333	4.2548223	2.062722
16.94874856191613	4.305688	2.075015
16.966468984677785	4.3387794	2.0829737
16.98418981616729	4.3296356	2.0807776
17.00191105683676	4.3623714	2.088629
17.019632707138374	4.398447	2.0972476
17.03735476752442	4.4145527	2.1010838
17.05507723844728	4.4860444	2.1180284
17.072800120359403	4.5452776	2.1319656
17.090523413713353	4.558342	2.1350274
17.108247118961785	4.605611	2.1460688
17.125971236557437	4.6011877	2.145038
17.143695766953133	4.633835	2.1526344
17.161420710601806	4.64658	2.1555927
17.179146067956477	4.618048	2.1489644
17.19687183947025	4.6286755	2.1514356
17.21459802559634	4.602412	2.1453233
17.232324626788028	4.6198797	2.1493905
17.25005164349871	4.609717	2.147025
17.267779076181863	4.614	2.1480224
17.285506925291074	4.5841274	2.1410575
17.30323519127999	4.5736914	2.138619
17.320963874602384	4.5906625	2.1425831
17.33869297571211	4.6177278	2.1488898
17.356422495063114	4.526061	2.127454
17.37415243310944	4.4515457	2.1098688
17.391882790305218	4.4100275	2.1000066
17.40961356710468	4.4309387	2.1049795
17.42734476396215	4.5201917	2.1260743
17.445076381332044	4.6289344	2.151496
17.462808419668868	4.735409	2.1760995
17.48054087942723	4.825919	2.1967974
17.498273761061835	4.860652	2.2046885
17.51600706502747	5.146345	2.2685556
17.533740791779024	5.7279887	2.3933218
17.551474941771485	6.6540136	2.5795374
17.56920951545993	8.623822	2.9366345
17.586944513299528	9.915593	3.1489034
17.60467993574556	12.730841	3.5680304
17.622415783253373	15.29934	3.911437
17.64015205627843	17.9721	4.2393513
17.657888755276293	20.30802	4.506442
17.675625880702604	21.785168	4.6674585
17.69336343301311	20.340153	4.510006
17.71110141266366	18.210909	4.267424
17.728839820110178	15.58693	3.9480286
17.746578655808705	12.459273	3.5297697
17.764317920215372	10.369534	3.220176
17.7820576137864	8.660394	2.9428546
17.79979773697811	7.3150744	2.7046394
17.81753829024692	6.0533814	2.460362
17.835279274049356	5.224039	2.2856157
17.85302068884201	4.519554	2.1259243
17.870762535081607	4.0583115	2.0145252
17.888504813224934	3.8067815	1.9510975
17.90624752372891	3.650282	1.9105711
17.923990667050536	3.58665	1.8938453
17.941734243646895	3.5144253	1.87468
17.959478253975185	3.5226407	1.8768699
17.9772226984927	3.483858	1.8665096
17.994967577656833	3.4389932	1.8544523
18.01271289192506	3.3677216	1.8351353
18.030458641754965	3.366116	1.8346978
18.04820482760425	3.337198	1.8268
18.06595144993067	3.293264	1.8147352
18.083698509192125	3.220099	1.7944634
18.101446005846576	3.2080305	1.7910975
18.119193940352105	3.2066345	1.7907078
18.136942313166887	3.1893692	1.7858806
18.1546911247492	3.180577	1.7834172
18.1724403755574	3.1379616	1.7714293
18.19019006604997	3.122358	1.7670195
18.207940196685467	3.1213858	1.7667444
18.225690767922575	3.1373084	1.7712449
18.243441780220046	3.136354	1.7709755
18.261193234036764	3.0950286	1.7592694
18.278945129831676	3.0495164	1.7462865
18.29669746806386	3.0293727	1.7405093
18.314450249192483	3.0087442	1.7345732
18.3322034736768	3.0325332	1.741417
18.349957141976184	3.0373209	1.742791
18.3677112545501	3.0518997	1.7469687
18.385465811858108	3.0308504	1.7409338
18.403220814359884	3.0112817	1.7353045
18.420976262515172	2.9900315	1.7291708
18.43873215678387	3.0401564	1.7436044
18.456488497625923	3.12034	1.7664485
18.474245285501407	3.2104905	1.7917842
18.492002520870486	3.2905996	1.814001
18.50976020419343	3.371552	1.8361787
18.527518335930615	3.6690478	1.9154758
18.545276916542516	4.187215	2.0462685
18.563035946489688	4.312839	2.0767376
18.580795426232832	4.700154	2.1679838
18.598555356232698	4.6049232	2.1459086
18.616315736950185	4.9029913	2.2142699
18.63407656884626	4.585375	2.1413488
18.65183785238201	4.7449465	2.17829
18.669599588018617	4.5360475	2.1297998
18.68736177621737	4.530487	2.128494
18.705124417439652	4.5233502	2.126817
18.72288751214696	4.356104	2.0871282
18.740651060800886	4.5117083	2.1240783
18.758415063863115	4.304156	2.074646
18.77617952179546	4.4688816	2.113973
18.793944435059814	4.1737213	2.0429688
18.811709804118184	4.14172	2.0351217
18.829475629432675	4.076984	2.0191543
18.8472419114655	3.878444	1.9693766
18.86500865067897	4.0261264	2.006521
18.88277584753551	3.760035	1.939081
18.90054350249763	3.7790775	1.943985
18.918311616027957	3.4120579	1.8471756
18.936080188589226	3.2816656	1.8115368
18.953849220644265	2.9955356	1.7307615
18.971618712656007	2.8430417	1.6861322
18.9893886650875	2.8017883	1.6738544
19.007159078401887	7.9655075	2.822323
19.024929953062408	32.83023	5.729767
19.042701289532435	32.782753	5.7256227
19.060473088275405	25.364351	5.0363035
19.07824534975489	2.667118	1.6331314
19.096018074434568	2.665971	1.6327802
19.113791262778197	2.6340082	1.6229628
19.13156491524966	2.606108	1.6143445
19.149339032312945	2.5397465	1.5936582
19.167113614432136	2.4892483	1.5777352
19.184888662071433	2.5145478	1.5857326
19.202664175695123	2.5970173	1.6115264
19.220440155767623	2.6007714	1.6126907
19.238216602753447	2.5821607	1.6069103
19.2559935171172	2.5603282	1.6001025
19.27377089932361	2.5430918	1.5947074
19.291548749837514	2.5494373	1.5966958
19.309327069123835	2.552559	1.5976729
19.32710585764763	2.5244293	1.5888453
19.344885115874032	2.4846745	1.576285
19.362664844268313	2.4411998	1.562434
19.380445043295822	2.4740174	1.5729009
19.39822571342203	2.4799259	1.5747781
19.41600685511252	2.5213096	1.5878632
19.43378846883297	2.5272055	1.5897187
19.451570555049173	2.5120668	1.5849501
19.469353114227037	2.5065103	1.5831962
19.48713614683254	2.5243976	1.5888354
19.50491965333182	2.5144286	1.585695
19.52270363419109	2.5138342	1.5855075
19.540488089876686	2.4943082	1.579338
19.55827302085503	2.4795957	1.5746732
19.576058427592674	2.4598706	1.5683974
19.593844310556282	2.4629312	1.5693729
19.611630670212598	2.47719	1.5739092
19.629417507028506	2.480897	1.5750864
19.64720482147098	2.4837158	1.5759809
19.6649926140071	2.4909334	1.5782691
19.682780885104084	2.4973655	1.5803055
19.70056963522921	2.534778	1.5920986
19.718358864849908	2.5654614	1.6017058
19.7361485744337	2.5807266	1.606464
19.753938764448215	2.5335848	1.5917238
19.771729435361202	2.510841	1.5845633
19.789520587640506	2.4869707	1.5770133
19.807312221754092	2.4973366	1.5802964
19.825104338170043	2.4733553	1.5726905
19.842896937356517	2.489663	1.5778666
19.860690019781824	2.499397	1.5809481
19.87848358591436	2.5035846	1.5822719
19.896277636222635	2.4903233	1.5780758
19.914072171175278	2.4581618	1.5678526
19.931867191241015	2.4524424	1.5660276
19.94966269688869	2.4885917	1.577527
19.967458688587264	2.5028632	1.582044
19.985255166805807	2.4979985	1.5805057
20.00305213201348	2.494458	1.5793853
20.020849584679578	2.503371	1.5822045
20.038647525273507	2.486877	1.5769835
20.05644595426477	2.4523706	1.5660046
20.07424487212299	2.4261775	1.5576192
20.092044279317903	2.4189825	1.5553079
20.109844176319353	2.420803	1.5558931
20.127644563597304	2.4287887	1.5584571
20.145445441621817	2.4392805	1.5618197
20.16324681086307	2.4069614	1.5514385
20.181048671791373	2.3854527	1.544491
20.198851024877122	2.385755	1.5445889
20.216653870590836	2.3901126	1.5459989
20.234457209403146	2.37308	1.5404805
20.252261041784802	2.3578358	1.5355246
20.270065368206662	2.3684502	1.538977
20.287870189139685	2.34354	1.5308625
20.305675505054968	2.3306887	1.5266594
20.323481316423702	2.3200326	1.5231653
20.341287623717207	2.331964	1.527077
20.359094427406884	2.3182511	1.5225804
20.376901727964288	2.3066294	1.5187591
20.39470952586107	2.3419032	1.5303278
20.41251782156899	2.3703308	1.5395879
20.430326615559935	2.366971	1.5384964
20.448135908305886	2.3672915	1.5386004
20.465945700278965	2.3463604	1.5317835
20.483755991951384	2.3320253	1.527097
20.50156678379548	2.3082643	1.5192972
20.519378076283708	2.3263679	1.5252435
20.537189869888635	2.3440397	1.5310256
20.55500216508294	2.3376036	1.5289223
20.572814962339415	2.3500938	1.5330015
20.59062826213098	2.3476698	1.5322108
20.60844206493066	2.3192942	1.5229229
20.626256371211593	2.2796426	1.5098485
20.644071181447032	2.2834458	1.5111074
20.66188649611036	2.3049548	1.5182078
20.67970231567506	2.297949	1.5158988
20.697518640614742	2.276985	1.5089681
20.715335471403122	2.2773938	1.5091037
20.73315280851404	2.2702944	1.5067496
20.750970652421447	2.2845874	1.5114851
20.768789003599412	2.2659757	1.5053158
20.786607862522136	2.24069	1.4968934
20.8044272296639	2.256162	1.5020525
20.82224710549913	2.27796	1.5092913
20.84006749050237	2.271777	1.5072415
20.857888385148268	3.853738	1.963094
20.8757097899116	45.973408	6.7803693
20.893531705267254	64.78396	8.048848
20.911354131690224	83.769196	9.152552
20.92917706965566	69.04174	8.309136
20.94700051963877	50.108578	7.078741
20.96482448211493	29.351835	5.417733
20.982648957559622	4.072599	2.018068
21.00047394644843	2.2243252	1.4914172
21.01829944925707	2.2685897	1.5061839
21.036125466461375	2.2949924	1.5149232
21.053951998537297	2.2781994	1.5093706
21.071779045960906	2.262367	1.5041167
21.089606609208378	2.256421	1.5021389
21.10743468875603	2.2438264	1.4979407
21.12526328508028	2.2327368	1.4942346
21.143092398657675	2.216666	1.4888473
21.16092202996488	2.1940777	1.481242
21.17875217947867	2.15011	1.4663253
21.19658284767596	2.1376398	1.4620669
21.21441403503377	2.1655316	1.4715745
21.232245742029225	2.189185	1.4795895
21.2500779691396	2.160433	1.4698411
21.26791071684227	2.1451974	1.4646492
21.28574398561475	2.1390197	1.4625388
21.30357777593465	2.1451926	1.4646477
21.321412088279704	2.1537116	1.4675529
21.339246923127792	2.1398005	1.4628057
21.357082280956888	2.129543	1.4592954
21.3749181622451	2.1154768	1.4544679
21.392754567470647	2.1112876	1.453027
21.41059149711187	2.0774279	1.4413285
21.42842895164726	2.060212	1.4353439
21.446266931555378	2.0732243	1.4398695
21.464105437314945	2.1361222	1.4615479
21.481944469404798	2.1505077	1.466461
21.49978402830388	2.129811	1.4593872
21.51762411449127	2.1169684	1.4549805
21.53546472844617	2.104427	1.4506644
21.553305870647876	2.1029422	1.4501525
21.571147541575865	2.1166883	1.4548843
21.58898974170967	2.1397648	1.4627935
21.60683247152899	2.1050243	1.4508702
21.62467573151363	2.096125	1.4478
21.642519522143523	2.1074705	1.451713
21.660363843898722	2.124231	1.4574742
21.6782086972594	2.0953426	1.4475298
21.696054082705864	2.0710518	1.4391149
21.713900000718535	2.048711	1.4313319
21.73174645177795	2.0369055	1.427202
21.749593436364794	2.048408	1.431226
21.767440954959845	2.0689175	1.4383732
21.785289008044032	2.0451748	1.4300961
21.803137596098388	2.0287092	1.4243276
21.820986719604086	2.0443668	1.4298136
21.838836379042412	2.044835	1.4299773
21.85668657489478	2.026247	1.423463
21.87453730764273	2.0070512	1.4167043
21.892388577767914	2.004339	1.4157468
21.91024038575213	1.9970021	1.4131533
21.928092732077285	1.9884311	1.4101174
21.945945617225426	1.9724326	1.4044333
21.963799041678694	1.9696133	1.4034292
21.981653005919398	31.308607	5.5954094
21.999507510429943	78.099304	8.837381
22.01736255569286	73.03678	8.546156
22.035218142190818	4.1542435	2.038196
22.05307427040661	1.9987925	1.4137866
22.07093094082315	1.991437	1.4111829
22.088788153923474	1.9737068	1.4048867
22.106645910190746	1.9996495	1.4140897
22.12450421010827	2.0179915	1.4205602
22.142363054159464	2.0106246	1.4179649
22.16022244282787	1.9982642	1.4135997
22.178082376597164	1.9741282	1.4050367
22.195942855951145	1.9767668	1.4059753
22.213803881373742	1.998868	1.4138132
22.231665453349002	2.0134633	1.4189656
22.24952757236111	2.0014267	1.4147179
22.26739023889438	1.9549626	1.3981998
22.28525345343323	1.9373083	1.3918723
22.30311721646225	1.9577051	1.3991802
22.320981528466113	2.0000622	1.4142356
22.33884638992964	1.9860942	1.4092885
22.356711801337788	1.9767756	1.4059786
22.37457776317561	1.9333721	1.3904575
22.392444275928337	1.9285865	1.3887355
22.410311340081282	1.9284608	1.3886904
22.428178956119904	1.9488533	1.3960134
22.446047124529805	1.9619224	1.4006864
22.46391584579669	1.9999809	1.4142069
22.481785120406414	2.0022337	1.4150031
22.49965494884496	1.9976512	1.4133829
22.51752533159841	1.9766409	1.4059306
22.53539626915302	1.959363	1.3997725
22.553267761995137	1.9590094	1.3996462
22.571139810611264	1.9583343	1.399405
22.589012415488025	1.9654489	1.4019446
22.60688557711216	1.9541962	1.3979257
22.624759295970566	1.9395077	1.392662
22.642633572550263	1.9265772	1.3880119
22.660508407338362	1.9446065	1.3944916
22.67838380082217	1.9730539	1.4046544
22.696259753489077	2.0133398	1.4189221
22.714136265826614	1.9689684	1.4031993
22.73201333832246	1.9281062	1.3885627
22.74989097146439	1.9056323	1.3804464
22.76776916574035	1.8908079	1.3750665
22.785647921638393	1.9130403	1.383127
22.803527239646712	1.8688734	1.3670675
22.82140712025363	1.893498	1.3760443
22.839287563947593	1.9127171	1.3830101
22.85716857121719	1.9212855	1.3861045
22.875050142551135	1.9155475	1.3840331
22.892932278438277	1.8733143	1.3686907
22.910814979367604	1.8664154	1.3661681
22.928698245828222	1.8570098	1.3627214
22.946582078309387	1.9061754	1.3806431
22.96446647730047	1.870029	1.36749
22.98235144329098	1.8602201	1.3638989
23.000236976770562	1.8494837	1.3599572
23.018123078229	1.8868535	1.3736279
23.03600974815619	1.8986328	1.3779088
23.053896987042194	1.914864	1.3837861
23.071784795377173	1.8439351	1.3579158
23.08967317365145	1.8189194	1.3486732
23.10756212235546	1.867529	1.3665757
23.125451641979787	1.9406598	1.3930757
23.143341733015134	1.980808	1.4074118
23.161232395952357	1.9729037	1.4046009
23.179123631282426	1.951483	1.3969549
23.197015439496468	1.986193	1.4093236
23.214907821085717	1.97945	1.4069293
23.23280077654157	1.9636165	1.401291
23.250694306355538	1.9206876	1.3858887
23.268588411019277	1.9200414	1.3856556
23.28648309102458	1.9399023	1.3928038
23.304378346863356	1.9426118	1.393776
23.322274179027676	1.9187835	1.3852016
23.340170588009723	1.9201378	1.3856903
23.358067574301852	1.9620517	1.4007325
23.37596513839651	1.9578729	1.3992401
23.39386328078629	1.9107759	1.3823081
23.411762001963947	1.8887106	1.3743037
23.429661302422353	1.8873475	1.3738077
23.4475611826545	1.9063346	1.3807008
23.46546164315356	1.9115885	1.3826021
23.48336268441279	1.8913323	1.3752571
23.501264306925638	1.8861517	1.3733723
23.51916651118564	1.9276537	1.3883997
23.537069297686497	1.9399556	1.3928229
23.554972666922037	1.9456077	1.3948504
23.57287661938623	1.9244181	1.387234
23.59078115557318	1.9101558	1.3820839
23.608686275977128	1.9051044	1.3802552
23.62659198109246	1.90311	1.3795326
23.6444982714137	1.9218885	1.3863219
23.66240514743549	1.8807797	1.3714153
23.68031260965263	1.8681374	1.3667982
23.698220658560068	1.877815	1.3703339
23.716129294652845	1.8681511	1.3668033
23.7340385184262	1.8686606	1.3669896
23.75194833037546	1.8697301	1.3673807
23.769858730996123	1.885282	1.3730557
23.78776972078382	1.8817512	1.3717693
23.80568130023431	1.9455411	1.3948265
23.823593469843495	1.9454596	1.3947973
23.841506230107424	1.8990765	1.3780699
23.859419581522275	1.879793	1.3710555
23.87733352458438	1.9135101	1.3832968
23.89524805979019	1.9414235	1.3933498
23.913163187636318	1.9259367	1.3877813
23.931078908619508	1.9389899	1.3924762
23.948995223236633	1.9733295	1.4047525
23.966912131984735	2.0299754	1.424772
23.98482963536096	2.0654554	1.4371692
24.002747733862616	2.0112174	1.4181739
24.020666427987155	1.975235	1.4054306
24.038585718232156	2.016515	1.4200405
24.056505605095353	2.052934	1.4328064
24.074426089074617	2.103552	1.4503628
24.092347170667946	2.116949	1.4549739
24.110268850373515	2.161616	1.4702436
24.128191128689586	2.1600852	1.4697229
24.146114006114626	2.0668783	1.4376642
24.164037483147187	2.0550523	1.4335454
24.181961560286005	2.0560153	1.4338812
24.199886238029926	2.0872698	1.4447386
24.21781151687797	2.1241531	1.4574475
24.235737397329274	2.0847065	1.4438512
24.253663879883135	2.0191474	1.4209671
24.271590965038975	2.0145276	1.4193405
24.289518653296376	2.0334785	1.4260008
24.30744694515505	2.0449936	1.4300327
24.32537584111486	2.0390646	1.4279583
24.34330534167581	2.055432	1.4336778
24.361235447338046	2.064716	1.4369121
24.379166158601876	2.0413518	1.4287589
24.39709747596772	1.9768027	1.4059882
24.41502939993615	1.9658669	1.4020938
24.432961931007917	1.9662261	1.4022218
24.450895069683856	1.9785956	1.4066256
24.468828816465	1.9465725	1.3951962
24.4867631718525	1.9319458	1.3899446
24.504698136347656	1.9342024	1.390756
24.52263371045192	1.9536695	1.3977373
24.540569894666874	1.9905379	1.4108642
24.558506689494266	1.9768814	1.4060161
24.57644409543597	1.9399649	1.3928262
24.594382112994012	1.9850504	1.4089181
24.61232074267057	2.0168908	1.4201728
24.630259984967953	2.0324688	1.4256468
24.64819984038863	2.00662	1.4165522
24.66614030943522	2.0356119	1.4267488
24.684081392610462	2.0626366	1.4361882
24.702023090417274	2.0699599	1.4387355
24.7199654033587	2.0734599	1.4399513
24.737908331937927	2.0999897	1.4491341
24.755851876658305	2.1440113	1.4642442
24.773796038023324	2.111748	1.4531854
24.79174081653661	2.0863142	1.4444079
24.809686212701962	2.1041775	1.4505783
24.827632227023294	2.0811388	1.4426153
24.8455788600047	2.0711048	1.4391333
24.8635261121504	2.1083581	1.4520186
24.88147398396475	2.097643	1.4483242
24.899422475952303	2.0859957	1.4442977
24.917371588617698	2.0964544	1.4479138
24.935321322465768	2.1596785	1.4695845
24.953271678001478	2.2511618	1.5003872
24.97122265572994	2.4510512	1.5655833
24.989174256156414	2.8261688	1.6811212
25.00712647978632	3.441845	1.855221
25.02507932712521	4.4065785	2.0991852
25.043032798678798	5.8896637	2.426863
25.060986894952933	7.5641584	2.7503016
25.078941616453637	9.005167	3.000861
25.096896963687055	9.887538	3.1444457
25.114852937159508	10.495194	3.2396288
25.132809537377444	10.326216	3.213443
25.150766764847468	9.713339	3.116623
25.168724620076347	8.421176	2.9019263
25.186683103570985	7.2521605	2.6929836
25.204642215838426	5.808369	2.4100559
25.222601957385894	4.6517067	2.1567817
25.24056232872074	3.6093028	1.8998165
25.25852333035048	2.8986857	1.7025527
25.276484962782778	2.3904326	1.5461024
25.294447226525435	2.1449814	1.4645755
25.312410122086423	2.020446	1.4214239
25.330373649973843	1.9544882	1.39803
25.348337810695988	1.9325038	1.3901453
25.366302604761245	1.915203	1.3839086
25.384268032678207	1.9005876	1.378618
25.40223409495558	1.9110792	1.3824179
25.420200792102257	1.8812662	1.3715926
25.438168124627246	1.8421863	1.3572717
25.45613609303974	1.8323524	1.3536441
25.474104697849057	1.8722515	1.3683025
25.492073939564698	1.8861339	1.3733659
25.510043818696285	1.8716651	1.3680881
25.528014335753614	1.8760141	1.3696766
25.54598549124664	1.8746494	1.3691784
25.56395728568544	1.897743	1.3775859
25.58192971958028	1.8828112	1.3721557
25.59990279344156	1.891813	1.3754319
25.617876507779833	1.875217	1.3693856
25.635850863105826	1.8536652	1.3614937
25.653825859930386	1.8882174	1.3741243
25.671801498764548	1.955866	1.3985227
25.68977778011949	1.9410962	1.3932322
25.707754704506524	1.9198179	1.3855749
25.725732272437153	1.8865806	1.3735285
25.743710484423012	1.8431396	1.3576227
25.761689340975888	1.8503102	1.3602611
25.77966884260774	1.8508009	1.3604414
25.797648989830662	1.8624994	1.3647342
25.815629783156922	1.8361706	1.3550537
25.83361122309895	1.8088182	1.3449231
25.85159331016929	1.7819101	1.334882
25.869576044880695	1.7930467	1.339047
25.887559427746034	1.7978202	1.3408282
25.90554345927836	1.8208367	1.3493838
25.92352813999086	1.8245306	1.3507519
25.94151347039689	1.7911017	1.3383205
25.959499451009965	1.7811093	1.3345821
25.97748608234374	1.8136444	1.3467162
25.995473364912062	1.8380522	1.3557478
26.013461299228904	1.831816	1.353446
26.03144988580839	1.8539199	1.3615873
26.04943912516483	1.8901911	1.3748422
26.067429017812675	1.8600008	1.3638185
26.085419564266537	1.8428234	1.3575063
26.103410765041186	1.8887438	1.3743157
26.12140262065155	1.9158924	1.3841577
26.139395131612723	1.9249582	1.3874286
26.157388298439948	1.9073509	1.3810687
26.17538212164861	1.852556	1.3610864
26.193376601754295	1.7920774	1.3386849
26.211371739272714	1.7955072	1.3399653
26.229367534719746	1.850824	1.3604499
26.247363988611433	1.9039518	1.3798376
26.26536110146397	1.8823345	1.371982
26.283358873793727	1.8602927	1.3639255
26.301357306117204	1.8545265	1.36181
26.319356398951104	1.8472936	1.3591518
26.33735615281224	1.8200041	1.3490753
26.35535656821762	1.8097118	1.3452553
26.373357645684404	1.7722678	1.3312654
26.39135938572991	1.801907	1.3423513
26.409361788871614	1.8121638	1.3461664
26.427364855627165	1.7833693	1.3354285
26.445368586514352	1.7668186	1.3292173
26.46337298205115	1.7762215	1.3327496
26.48137804275568	1.8064473	1.3440413
26.499383769146217	1.8123252	1.3462263
26.517390161741215	1.8255125	1.3511153
26.53539722105928	1.8869146	1.3736501
26.553404947619182	1.9169439	1.3845375
26.571413341939856	1.8618664	1.3645022
26.589422404540397	1.8340259	1.3542621
26.60743213594006	1.787831	1.337098
26.62544253665827	1.8472944	1.3591521
26.64345360721459	1.8641617	1.3653431
26.66146534812879	1.8461004	1.3587128
26.679477759920758	1.8403194	1.3565837
26.69749084311057	1.8389432	1.3560764
26.71550459821847	1.8410856	1.3568661
26.733519025764842	1.8597693	1.3637336
26.751534126270258	1.8553149	1.3620994
26.769549900255434	1.8463644	1.35881
26.787566348241267	1.8345258	1.3544466
26.80558347074881	1.8557998	1.3622774
26.823601268299267	1.8307073	1.3530363
26.841619741414036	1.8219627	1.349801
26.85963889061465	1.758926	1.3262451
26.877658716422832	1.7781949	1.3334898
26.89567921936045	1.8246458	1.3507944
26.913700399949544	1.8342317	1.3543382
26.93172225871233	1.791169	1.3383456
26.949744796171174	1.7442613	1.3207048
26.967768012848605	1.8025031	1.3425733
26.98579190926733	1.8464929	1.3588572
27.003816485950225	1.8142619	1.3469454
27.021841743420318	1.7795514	1.3339983
27.039867682200814	1.7496877	1.3227576
27.057894302815072	1.748797	1.322421
27.07592160578664	1.7493342	1.322624
27.0939495916392	1.7802033	1.3342426
27.111978260896635	1.7926415	1.3388957
27.13000761408296	1.8696991	1.3673694
27.148037651722397	1.8935684	1.3760699
27.166068374339304	1.8743068	1.3690532
27.184099782458215	1.8082122	1.3446978
27.20213187660384	1.7940636	1.3394266
27.22016465730105	1.7892319	1.3376217
27.23819812507487	1.8076007	1.3444704
27.256232280450533	1.836474	1.3551656
27.274267123953383	1.857295	1.3628261
27.292302656108987	1.8208054	1.3493723
27.31033887744306	1.8024874	1.3425674
27.32837578848146	1.8259802	1.3512883
27.34641338975026	1.8418132	1.3571342
27.364451681775673	1.8113047	1.3458472
27.382490665084074	1.7931539	1.339087
27.400530340202046	1.7710983	1.3308262
27.41857070765629	1.8135414	1.3466779
27.436611767973726	1.8542799	1.3617195
27.454653521681404	1.8377095	1.3556215
27.472695969306564	1.8381649	1.3557894
27.490739111376627	1.8526386	1.3611166
27.508782948419153	1.821559	1.3496515
27.526827480961902	1.7695179	1.3302323
27.54487270953279	1.7808464	1.3344835
27.562918634659898	1.845823	1.3586107
27.580965256871508	1.9064968	1.3807595
27.599012576696026	1.9040104	1.3798589
27.617060594662068	1.8521888	1.3609514
27.63510931129842	1.8347311	1.3545225
27.65315872713401	1.8956066	1.3768103
27.67120884269797	1.9083366	1.3814256
27.68925965851958	1.874836	1.3692465
27.707311175128307	1.863167	1.3649788
27.725363393053787	1.8368119	1.3552903
27.74341631282583	1.8219436	1.3497939
27.7614699349744	1.846794	1.358968
27.77952426002968	2.0715778	1.4392977
27.797579288521973	2.1450727	1.4646066
27.815635020981784	2.5598989	1.5999684
27.83369145793979	2.6717496	1.6345488
27.85174859992682	2.6224291	1.6193916
27.869806447473923	2.5232503	1.5884743
27.887865001112267	2.1534345	1.4674585
27.905924261373233	1.9776967	1.406306
27.92398422878836	1.9554967	1.3983908
27.94204490388936	1.9523371	1.3972605
27.96010628720813	1.9096701	1.3819082
27.978168379276728	1.8779945	1.3703994
27.9962311806274	1.8636327	1.3651494
28.014294691792568	1.8679357	1.3667244
28.0323589133048	1.8205115	1.3492633
28.050423845696887	1.837784	1.355649
28.068489489501758	1.8365076	1.355178
28.086555845252523	1.8538488	1.3615612
28.104622913482487	1.8821249	1.3719056
28.122690694725115	1.9507244	1.3966833
28.14075918951405	1.956286	1.3986729
28.15882839838312	1.9619492	1.400696
28.176898321866304	1.9043144	1.379969
28.1949689604978	1.914243	1.3835617
28.213040314811945	1.938134	1.3921688
28.23111238534327	1.9351834	1.3911088
28.249185172626493	1.9415057	1.3933792
28.267258677196473	1.949856	1.3963724
28.285332899588294	1.9245806	1.3872925
28.303407840337172	1.9213547	1.3861294
28.321483499978545	1.9265537	1.3880035
28.33955987904799	1.92804	1.3885388
28.357636978081285	1.935282	1.3911442
28.37571479761439	1.9600803	1.4000287
28.393793338183425	2.0394404	1.4280897
28.41187260032469	2.054599	1.4333873
28.429952584574686	2.0347397	1.426443
28.448033291470065	2.0066512	1.4165632
28.46611472154769	2.046121	1.4304268
28.484196875344566	2.0590744	1.4349475
28.502279753397914	2.0165522	1.4200536
28.52036335624511	2.0001948	1.4142824
28.538447684423716	1.9604522	1.4001615
28.556532738471482	1.9835396	1.4083819
28.574618518926325	2.0180385	1.4205768
28.59270502632635	2.0474765	1.4309006
28.61079226120985	2.0549834	1.4335213
28.628880224115274	2.0844777	1.4437721
28.646968915581287	2.076473	1.4409972
28.66505833614671	2.0447588	1.4299506
28.68314848635055	2.0275805	1.4239314
28.701239366732004	2.075514	1.4406644
28.71933097783044	2.106347	1.451326
28.737423320185403	2.1305413	1.4596374
28.75551639433665	2.159806	1.4696279
28.773610200824074	2.1809928	1.4768184
28.791704740187793	2.1746643	1.4746743
28.80980001296809	2.1459026	1.46489
28.827896019705413	2.1412165	1.4632896
28.845992760940433	2.1520448	1.4669849
28.86409023721397	2.1735907	1.4743103
28.88218844906704	2.1697826	1.4730182
28.900287397040845	2.2240348	1.4913198
28.918387081676755	2.2615695	1.5038515
28.936487503516343	2.261699	1.5038946
28.954588663101365	2.2117777	1.4872047
28.97269056097374	2.2269468	1.4922959
28.990793197675597	2.285298	1.5117203
29.00889657374923	2.3591728	1.53596
29.027000689737125	2.3798535	1.5426774
29.04510554618196	2.444347	1.5634407
29.06321114362659	2.4329355	1.559787
29.08131748261405	2.3826807	1.5435934
29.099424563687567	2.4104493	1.5525621
29.11753238739057	2.524949	1.5890088
29.13564095426663	2.5586293	1.5995716
29.15375026485954	2.6061127	1.6143459
29.171860319713275	2.63419	1.6230189
29.18997111937199	2.6798396	1.6370215
29.20808266438002	2.6906633	1.6403241
29.226194955281898	2.734382	1.6535966
29.244307992622335	2.8039322	1.6744946
29.26242177694624	2.8352206	1.6838113
29.2805363087987	2.887711	1.6993266
29.29865158872498	2.8962193	1.7018282
29.316767617270557	2.9185216	1.7083682
29.334884394981064	2.9838142	1.727372
29.353001922402367	3.0432029	1.7444779
29.37112020008047	3.036034	1.7424219
29.389239228561596	3.0910733	1.7581449
29.407359008392152	3.2819774	1.8116229
29.42547954011872	3.581176	1.8923995
29.44360082428809	4.087486	2.021753
29.46172286144722	4.9095497	2.2157505
29.479845652143283	6.551143	2.55952
29.497969196923606	9.340944	3.0562959
29.516093496335728	13.328932	3.650881
29.5342185509274	17.084389	4.1333265
29.55234436124651	20.353817	4.5115204
29.570470927841175	21.850183	4.674418
29.588598251259686	21.672613	4.6553855
29.60672633205055	19.880594	4.458766
29.624855170762405	16.650448	4.080496
29.642984767944146	13.1631775	3.6281095
29.66111512414481	9.770865	3.1258383
29.67924623991366	7.097442	2.6641026
29.697378115800138	5.1640997	2.2724655
29.71551075235387	4.2760687	2.0678658
29.733644150124675	3.8536932	1.9630826
29.751778309662576	3.656168	1.9121109
29.769913231517766	3.5753837	1.8908685
29.78804891624066	3.4715817	1.8632181
29.806185364381818	3.362626	1.8337464
29.82432257649206	3.3355892	1.8263595
29.842460553122333	3.3609955	1.8333018
29.86059929482382	3.330709	1.825023
29.878738802147872	3.3040862	1.8177146
29.896879075646048	3.2666476	1.807387
29.915020115870114	3.2706764	1.8085011
29.933161923371976	3.2893434	1.8136547
29.951304498703777	3.2988646	1.8162776
29.969447842417857	3.3210144	1.822365
29.987591955066733	3.2193315	1.7942495
30.005736837203123	3.2090304	1.7913767
30.023882489379943	3.2596874	1.8054605
30.04202891215028	3.2350795	1.7986327
30.060176106067455	3.1900241	1.7860639
30.078324071684946	3.247994	1.8022192
30.09647280955646	3.236709	1.7990856
30.114622320235863	3.1170087	1.7655052
30.132772604277257	3.087917	1.757247
30.1509236622349	3.1691058	1.7801982
30.16907549466328	3.2340436	1.7983447
30.18722810211705	3.152185	1.7754394
30.205381485151097	3.1581683	1.7771236
30.22353564432045	3.1227684	1.7671356
30.241690580180403	3.1086633	1.7631402
30.25984629328638	3.1342278	1.770375
30.278002784194037	3.0562456	1.7482121
30.296160053459246	2.9414577	1.7150679
30.314318101638033	2.8969479	1.7020422
30.332476929286646	2.9384346	1.7141863
30.35063653696153	2.9687617	1.7230095
30.368796925219307	3.0261908	1.739595
30.386958094616844	2.994977	1.7306002
30.40512004571115	2.9564304	1.7194273
30.423282779059463	2.899417	1.7027674
30.441446295219233	2.8631067	1.6920717
30.459610594748067	2.8965304	1.7019197
30.47777567820382	2.891095	1.700322
30.495941546144504	2.8683758	1.693628
30.51410819912835	2.84761	1.6874863
30.532275637713795	2.8322868	1.6829399
30.55044386245946	2.7717447	1.6648557
30.56861287392416	2.8046663	1.6747139
30.586782672666956	2.8624697	1.6918834
30.604953259247047	2.8606389	1.6913424
30.623124634223885	2.8790338	1.6967716
30.641296798157075	2.8154159	1.6779201
30.659469751606462	2.7913544	1.6707346
30.677643495132074	2.7798257	1.6672809
30.695818029294152	2.7898684	1.6702899
30.713993354653116	2.7147877	1.6476613
30.73216947176962	2.6746125	1.6354243
30.75034638120448	2.7041943	1.6444435
30.768524083518756	2.7285101	1.6518203
30.786702579273673	2.7120478	1.6468296
30.80488186903069	2.825215	1.6808376
30.82306195335144	3.0108159	1.7351702
30.841242832797782	3.2825944	1.8117932
30.85942450793176	3.639494	1.9077457
30.877606979315637	4.014599	2.0036464
30.895790247511883	4.3275113	2.0802672
30.913974313083134	4.7511363	2.1797101
30.932159176592283	5.1976366	2.2798326
30.95034483860237	5.530859	2.3517778
30.968531299676698	5.5087843	2.34708
30.98671856037873	5.2600675	2.2934837
31.00490662127215	4.913431	2.2166262
31.023095482920848	4.5248437	2.127168
31.04128514588892	4.0256195	2.0063946
31.059475610740662	3.4144807	1.8478314
31.07766687804056	2.8749464	1.6955667
31.09585894835335	2.5797126	1.6061484
31.11405182224393	2.521989	1.5880772
31.132245500277417	2.5795062	1.6060841
31.15043998301914	2.5819693	1.6068507
31.168635271034628	2.4469776	1.5642818
31.18683136488964	2.387498	1.545153
31.20502826515008	2.421432	1.5560951
31.223225972382135	2.4900784	1.5779983
31.241424487152155	2.548344	1.5963533
31.259623810026692	2.4975264	1.5803564
31.27782394157253	2.4195352	1.5554855
31.296024882356644	2.4469078	1.5642595
31.314226632946237	2.4571083	1.5675166
31.332429193908684	2.4198306	1.5555805
31.350632565811598	2.4561415	1.5672082
31.368836749222787	2.4001687	1.5492477
31.387041744710295	2.3757193	1.5413369
31.40524755284232	2.4514875	1.5657227
31.423454174187317	2.5569432	1.5990444
31.441661609313922	2.559857	1.5999553
31.459869858791002	2.5211267	1.5878056
31.478078923187628	2.504045	1.5824175
31.496288803073064	2.4487696	1.5648545
31.514499499016807	2.3983576	1.5486631
31.532711011588546	2.372884	1.5404168
31.550923341358178	2.391046	1.5463008
31.56913648889584	2.447751	1.5645291
31.587350454771844	2.4032586	1.5502447
31.605565239556732	2.3537955	1.5342084
31.62378084382127	2.3611317	1.5365975
31.641997268136382	2.327192	1.5255136
31.660214513073274	2.402165	1.549892
31.67843257920331	2.4181228	1.5550314
31.6966514670981	2.3267605	1.5253723
31.71487117732944	2.2019107	1.4838836
31.733091710469346	2.2206502	1.4901847
31.751313067090052	2.3053854	1.5183495
31.769535247764008	2.3572426	1.5353314
31.787758253063878	2.332723	1.5273254
31.805982083562526	2.2510142	1.5003381
31.824206739833024	2.2131674	1.4876719
31.84243222244869	2.2659593	1.5053103
31.860658531983013	2.3136914	1.5210823
31.878885669009737	2.271402	1.507117
31.897113634102784	2.2937324	1.5145073
31.91534242783632	2.2863212	1.5120586
31.933572050784694	2.156502	1.4685034
31.951802503522508	2.092184	1.4464384
31.970033786624548	2.1430583	1.4639188
31.988265900665834	2.1985207	1.4827409
32.006498846221575	2.1006637	1.4493667
32.02473262386724	2.0022542	1.4150103
32.04296723417845	2.029242	1.4245147
32.0612026777311	2.052454	1.4326388
32.07943895510129	2.1057856	1.4511325
32.097676066865304	2.1903539	1.4799844
32.115914013599685	2.286161	1.5120056
32.13415279588115	2.2710285	1.5069932
32.152392414286666	2.1533918	1.467444
32.1706328693934	2.0620635	1.4359887
32.18887416177875	2.1041958	1.4505847
32.20711629202032	2.1492515	1.4660325
32.225359260695924	2.116685	1.4548831
32.243603068383614	2.124403	1.4575332
32.26184771566166	2.1265483	1.4582689
32.28009320310852	2.1284735	1.458929
32.2983395313029	2.1489084	1.4659156
32.31658670082372	2.1603477	1.4698122
32.33483471225012	2.1645246	1.4712323
32.35308356616143	2.1152763	1.454399
32.371333263137245	2.0743427	1.4402579
32.38958380375734	2.0001116	1.414253
32.407835188601744	1.9756712	1.4055856
32.42608741825067	2.028323	1.4241921
32.444340493284585	2.0689075	1.4383698
32.46259441428416	2.0725062	1.4396201
32.48084918183028	2.0428028	1.4292666
32.49910479650405	2.0662482	1.437445
32.51736125888683	2.0629292	1.43629
32.53561856956014	2.0687833	1.4383266
32.5538767291058	2.068255	1.4381429
32.572135738105764	2.0925357	1.44656
32.59039559714228	2.1277378	1.4586767
32.608656306797776	2.0923817	1.4465067
32.62691786765491	2.0611665	1.4356763
32.645180280296586	2.0513306	1.4322467
32.663443545305896	2.1219602	1.456695
32.68170766326619	2.1390142	1.4625369
32.69997263476099	2.1450098	1.4645852
32.7182384603741	2.1330273	1.4604887
32.7365051406895	2.026998	1.4237268
32.75477267629144	1.9455721	1.3948376
32.77304106776434	2.0005867	1.414421
32.79131031569289	2.0218244	1.4219087
32.809580420661966	2.0260456	1.4233923
32.827851383256714	1.9636695	1.40131
32.84612320406245	1.8798817	1.3710878
32.86439588366476	1.9282503	1.3886145
32.88266942264945	2.020833	1.42156
32.9009438216025	2.0768096	1.4411141
32.9192190811102	2.0646527	1.4368899
32.937495201758985	1.9804652	1.40729
32.95577218413556	1.8576196	1.3629452
32.974050028826866	1.8946838	1.3764751
32.992328736420035	1.9545553	1.3980541
33.010608307502444	2.0014486	1.4147257
33.02888874266169	1.9997135	1.4141123
33.047170042485604	1.9373772	1.391897
33.06545220756225	1.9813356	1.4075992
33.083735238479896	2.1071448	1.4516008
33.10201913582707	2.1340604	1.4608424
33.12030390019248	2.0480585	1.431104
33.138589532165135	1.9494225	1.3962172
33.15687603233419	1.9852636	1.4089938
33.17516340128909	2.0603065	1.4353768
33.19345163961947	2.0904624	1.4458432
33.211740747915215	2.1390162	1.4625375
33.23003072676643	2.0850651	1.4439754
33.248321576763466	1.9758346	1.4056438
33.266613298496885	1.9558824	1.3985287
33.28490589255747	1.9476047	1.3955661
33.30319935953626	2.0084512	1.4171984
33.32149370002451	2.030067	1.4248042
33.339788914613706	2.0016074	1.4147818
33.358085003895575	1.9426314	1.3937831
33.376381968462034	1.8847977	1.3728794
33.39467980890529	1.899868	1.378357
33.41297852581774	1.924707	1.3873382
33.43127811979204	1.9495773	1.3962727
33.44957859142105	2.0118272	1.418389
33.467879941297866	1.9967486	1.4130635
33.486182170015844	1.989704	1.4105687
33.50448527816853	2.015044	1.4195224
33.522789266349754	2.0715396	1.4392844
33.541094135153514	1.9893639	1.4104481
33.55939988517411	1.8649592	1.3656352
33.57770651700602	1.8569713	1.3627074
33.59601403124398	1.9155325	1.3840276
33.61432242848296	1.9451498	1.3946862
33.632631709318154	1.9819022	1.4078006
33.650941874344994	1.8985765	1.3778884
33.66925292415916	1.8769217	1.3700079
33.68756485935654	1.9703143	1.4036788
33.70587768053328	2.1373644	1.4619727
33.724191388285746	2.0794885	1.4420432
33.74250598321054	2.0330434	1.4258482
33.760821465904506	1.9698704	1.4035207
33.77913783696474	1.9894463	1.4104773
33.79745509698852	1.9453179	1.3947465
33.815773246573414	2.0133815	1.4189367
33.8340922863172	2.0473952	1.4308722
33.852412216817896	2.022359	1.4220966
33.87073303867377	1.9114331	1.3825458
33.889054752483304	1.9374268	1.3919148
33.907377358845245	1.9621748	1.4007765
33.92570085835853	1.9061092	1.3806192
33.94402525162239	1.8922457	1.3755893
33.96235053923627	1.8781519	1.3704568
33.980676721799824	1.769899	1.3303756
33.999003799912984	1.6955676	1.3021396
34.01733177417592	1.7979407	1.3408731
34.03566064518901	1.9379133	1.3920895
34.0539904135529	2.0242875	1.4227746
34.07232107986846	2.0405345	1.4284728
34.090652644736785	1.9262785	1.3879043
34.108985108759235	1.9835353	1.4083804
34.12731847253742	2.060118	1.4353111
34.14565273667313	2.057945	1.434554
34.16398790176847	2.0655174	1.4371908
34.18232396842574	2.046237	1.4304674
34.20066093724749	1.9159918	1.3841935
34.21899880883651	1.7669202	1.3292555
34.23733758379583	1.8004137	1.341795
34.25567726272874	1.9764637	1.4058676
34.27401784623872	2.1101408	1.4526324
34.29235933492957	1.9990152	1.4138653
34.31070172940526	1.9782833	1.4065146
34.32904503027003	2.0940845	1.4470952
34.347389238128386	2.18472	1.4780798
34.36573435358502	2.135303	1.4612676
34.38408037724492	2.0635917	1.4365207
34.402427309713296	2.0801337	1.4422668
34.42077515159559	2.107643	1.4517723
34.43912390349752	1.9818324	1.4077756
34.45747356602499	2.099415	1.4489359
34.47582413978423	2.1136694	1.4538465
34.49417562538163	1.9517426	1.3970479
34.51252802342388	1.9127927	1.3830374
34.53088133451789	1.940594	1.393052
34.54923555927084	1.9826832	1.4080778
34.567590698290104	1.970506	1.4037471
34.58594675218336	1.9202762	1.3857403
34.6043037215585	1.8623077	1.364664
34.62266160702365	1.7557356	1.3250418
34.641020409187234	1.8160335	1.3476028
34.65938012865785	1.7801155	1.3342097
34.677740766044394	1.9251922	1.3875129
34.69610232195598	2.082596	1.4431202
34.714464797002016	2.1385078	1.4623638
34.73282819179208	2.0720239	1.4394526
34.751192506936064	2.0488703	1.4313875
34.76955774304408	2.0955892	1.447615
34.7879239007265	2.1230068	1.4570541
34.80629098059391	2.0292451	1.4245157
34.824658983257194	1.9363376	1.3915235
34.843027909327446	1.8020663	1.3424107
34.86139775941603	1.8824639	1.3720292
34.879768534134534	1.9849948	1.4088985
34.89814023409483	1.962414	1.4008619
34.91651285990901	1.834504	1.3544387
34.93488641218944	1.8761917	1.3697414
34.95326089154871	1.9123904	1.382892
34.97163629859967	2.0342953	1.4262873
34.99001263395542	2.0214438	1.4217749
35.00838989822934	2.0665994	1.4375671
35.02676809203499	2.1045756	1.4507155
35.04514721598624	2.1241755	1.4574552
35.063527270697215	2.078241	1.4416106
35.081908256782256	2.0085888	1.4172469
35.10029017485597	2.0044205	1.4157755
35.11867302553321	1.8932068	1.3759385
35.137056809429104	1.7267047	1.3140414
35.155441527159006	1.7292401	1.3150058
35.173827179338524	1.8648702	1.3656025
35.19221376658354	1.8101666	1.3454243
35.21060128951017	1.788516	1.3373541
35.2289897487348	2.03421	1.4262574
35.24737914487405	2.2131293	1.487659
35.26576947854479	2.372371	1.5402503
35.28416075036418	2.3035808	1.5177552
35.30255296094958	2.154553	1.4678396
35.32094611091867	2.1750681	1.4748112
35.33934020088932	2.2678783	1.5059476
35.35773523147969	2.6442358	1.6261107
35.3761312033082	2.6375246	1.6240457
35.394528116993506	2.2577784	1.5025905
35.41292597315452	2.0350733	1.4265599
35.431324772410434	2.0724254	1.4395921
35.449724515380666	1.9865655	1.4094558
35.46812520268491	1.9831607	1.4082474
35.486526834943106	2.2754629	1.5084637
35.504929412775454	2.3841474	1.5440685
35.52333293680242	2.28946	1.5130961
35.54173740764471	2.0904107	1.4458252
35.560142825923286	1.7923048	1.3387699
35.5785491922594	1.5352333	1.2390453
35.59695650727454	1.4111413	1.1879147
35.61536477159042	1.0391313	1.019378
