0.008763373481513119	0.0	0.0
0.026290120649546365	0.29253078	0.5408611
0.043816868432600686	0.31057236	0.5572902
0.06134361724069026	0.47379756	0.6883295
0.07887036748382949	0.38855785	0.62334406
0.0963971195720331	0.28406313	0.53297573
0.11392387391531617	0.28473574	0.53360635
0.1314506309236943	0.27067825	0.5202675
0.1489773910071836	0.24033011	0.49023476
0.16650415457580078	0.16465424	0.40577608
0.18403092203956356	0.11517171	0.33936957
0.20155769380849	0.10367889	0.32199207
0.2190844702925996	0.12424649	0.35248616
0.2366112519019124	0.10874127	0.32975942
0.2541380390464497	0.090835504	0.30138928
0.27166483213623416	0.1099869	0.33164272
0.28919163158128947	0.09999159	0.31621447
0.3067184377916406	0.10943101	0.33080357
0.324245251177314	0.0837465	0.28938988
0.34177207214833777	0.11671614	0.34163743
0.3592989011147415	0.14228481	0.3772066
0.37682573848655654	0.2066473	0.45458478
0.39435258467381573	0.21685651	0.46567854
0.41187944008655414	0.20276605	0.4502955
0.42940630513480854	0.19784409	0.44479668
0.446933180228618	0.22526225	0.47461802
0.4644600657780234	0.22598629	0.47538015
0.48198696219306775	0.18964346	0.4354807
0.49951386988379676	0.16346495	0.404308
0.5170407892602581	0.16684166	0.40846255
0.5345677207325025	0.17899108	0.42307338
0.5520946647105822	0.1786475	0.42266712
0.5696216216045534	0.15615928	0.39516994
0.5871485918244737	0.13013028	0.36073574
0.6046755757804043	0.13456818	0.36683536
0.6222025738824094	0.16311254	0.40387192
0.6397295865405557	0.19800057	0.44497254
0.6572566141649129	0.20190455	0.4493379
0.6747836571655547	0.21245939	0.46093318
0.6923107159525568	0.193352	0.4397181
0.7098377909359992	0.16318408	0.4039605
0.7273648825259653	0.1559647	0.39492366
0.7448919911325411	0.164615	0.40572774
0.762419117165817	0.21025911	0.4585402
0.7799462610358868	0.24493814	0.49491224
0.7974734231528482	0.28303382	0.53200924
0.8150006039268024	0.26798505	0.5176727
0.8325278037678551	0.21741797	0.466281
0.8500550230861152	0.15816219	0.3976961
0.8675822622916969	0.15615472	0.39516416
0.8851095217947171	0.17585628	0.4193522
0.9026368020052984	0.22279823	0.47201508
0.9201641033335665	0.26574975	0.5155092
0.9376914261896523	0.27792323	0.52718425
0.9552187709836915	0.26472405	0.51451343
0.9727461381258234	0.2321996	0.48187092
0.990273528026193	0.268085	0.5177693
1.0078009410949496	0.32530493	0.57035506
1.0253283777422473	0.34578693	0.5880365
1.0428558383782454	0.35548526	0.59622586
1.0603833234131086	0.32106915	0.56662965
1.0779108332570058	0.33667555	0.5802375
1.0954383683201119	0.34492445	0.5873027
1.112965929012607	0.4461297	0.6679294
1.1304935157446763	0.59003484	0.7681373
1.1480211289265108	0.6489879	0.80559784
1.1655487689683062	1.4726001	1.2135074
1.1830764362802655	1.7747605	1.3322014
1.200604131272596	2.1049628	1.450849
1.2181318543555117	2.264739	1.504905
1.235659605939232	2.1875958	1.4790523
1.253187386433982	3.7307413	1.9315127
1.270715196249994	6.0975223	2.4693162
1.2882430357975057	11.570837	3.4015932
1.3057709054867608	16.646729	4.0800405
1.3232988057280106	22.732107	4.76782
1.3408267369315112	27.764048	5.2691603
1.358354699507526	31.467743	5.6096115
1.3758826938663256	35.293213	5.9408092
1.3934107204181858	36.87653	6.0726047
1.410938779573391	36.912155	6.075537
1.4284668717422309	37.647892	6.135788
1.4459949973350033	37.449734	6.119619
1.4635231567620117	37.63644	6.1348543
1.4810513504335687	36.677902	6.056228
1.4985795787599925	35.73296	5.977705
1.5161078421516088	35.29187	5.9406962
1.5336361410187505	35.110462	5.9254084
1.5511644757717598	35.359802	5.9464107
1.5686928468209842	35.747097	5.9788876
1.58622125457678	36.264816	6.0220275
1.6037496994495108	37.11732	6.0923986
1.621278181849548	37.04624	6.086562
1.6388067021872719	37.76388	6.145232
1.6563352608730693	37.536736	6.1267233
1.673863858317336	36.572872	6.047551
1.6913924949304753	35.51327	5.9593015
1.7089211711228998	34.423393	5.867145
1.7264498873050296	33.634872	5.799558
1.7439786438872935	33.02656	5.746874
1.7615074412801288	32.26899	5.68058
1.779036279893981	31.432913	5.6065063
1.796565160139305	30.405811	5.5141463
1.814094082426564	29.364824	5.418932
1.8316230471662298	28.519644	5.3403788
1.849152054768784	27.615534	5.2550483
1.8666811056447168	27.27994	5.22302
1.8842102002045273	26.688591	5.1661
1.901739338858724	26.312637	5.1295843
1.9192685220178245	26.008196	5.099823
1.9367977500923557	25.370968	5.03696
1.9543270234928547	24.633688	4.9632335
1.971856342629867	23.90627	4.889404
1.9893857079139496	23.277042	4.824629
2.006915119755667	22.944624	4.790055
2.0244445785655945	22.408411	4.7337523
2.0419740847543175	22.015003	4.6920147
2.0595036387324317	21.627071	4.6504917
2.0770332409105414	21.255419	4.61036
2.094562891699263	20.943125	4.576366
2.1120925915092217	20.308516	4.506497
2.129622340751053	19.915508	4.4626794
2.1471521398354043	188.0574	13.713403
2.1646819891729323	444.40997	21.081034
2.182211889174303	440.56198	20.989569
2.1997418402501974	453.05667	21.285128
2.2172718428113023	433.00974	20.808886
2.234801897268317	321.09833	17.919216
2.2523320040319548	17.586422	4.193617
2.269862163512935	17.225239	4.15033
2.287392376121992	17.067656	4.131302
2.304922642269869	16.675627	4.08358
2.322452962367322	16.39923	4.0495963
2.3399833368251164	15.853598	3.9816577
2.357513766054032	15.673182	3.958937
2.3750442504648586	15.429762	3.9280736
2.3925747904683963	15.171119	3.8950121
2.410105386475459	14.797254	3.8467197
2.4276360388968707	14.4576	3.802315
2.445166748143469	14.137882	3.7600374
2.4626975146261025	13.899492	3.7282023
2.4802283387556323	13.597084	3.6874225
2.4977592209429305	13.355606	3.6545322
2.5152901615988825	13.050911	3.6126044
2.5328211611343865	12.854679	3.5853422
2.5503522199603523	12.756861	3.5716748
2.5678833384877024	12.623633	3.5529752
2.5854145171273712	12.590532	3.548314
2.6029457562903064	12.344812	3.5135186
2.620477056387469	12.076702	3.4751549
2.6380084178298326	11.874193	3.4458952
2.655539841028383	11.764962	3.4300091
2.673071326394119	11.80622	3.436018
2.6906028743380523	11.4985485	3.390951
2.708134485271211	11.184897	3.344383
2.7256661596046325	10.898684	3.3013155
2.743197897749369	10.526541	3.2444632
2.760729700116486	10.630136	3.2603889
2.778261567117063	10.418322	3.2277424
2.795793499162193	10.2711735	3.2048671
2.8133254966629817	10.010166	3.1638846
2.830857560030551	9.843207	3.1373887
2.8483896896760337	9.843992	3.1375136
2.865921886010578	9.774183	3.126369
2.883454149445347	9.680763	3.1113925
2.9009864803915177	9.479123	3.0788186
2.91851887926028	9.279788	3.0462744
2.9360513464628384	9.089658	3.014906
2.953583882410413	8.891923	2.9819326
2.9711164875142373	8.688845	2.9476845
2.9886491621855606	8.648875	2.940897
3.0061819068356455	8.7368355	2.955814
3.023714721875769	8.881808	2.9802363
3.041247607717225	8.814821	2.9689765
3.0587805647713213	8.513325	2.9177601
3.0763135934493806	8.203474	2.8641708
3.0938466941627407	8.085277	2.843462
3.1113798673227544	8.073388	2.8413708
3.1289131133407904	7.9917765	2.826973
3.1464464326282315	7.911221	2.8126893
3.1639798255964786	7.756554	2.785059
3.1815132926569443	7.6753273	2.7704382
3.1990468342210603	7.738766	2.7818637
3.216580450700272	7.6577115	2.767257
3.2341141425060416	7.522405	2.7427003
3.251647910049847	7.3005834	2.7019591
3.2691817537431813	7.1460648	2.6732125
3.286715673997555	7.1560206	2.6750739
3.3042496712244938	7.077106	2.660283
3.32178374583554	7.1150823	2.667411
3.339317898242251	7.1129317	2.667008
3.3568521288562034	7.0945873	2.6635666
3.3743864380889876	7.079797	2.6607888
3.3919208263522127	6.9788294	2.6417475
3.4094552940575023	6.805932	2.608818
3.4269898416164972	6.718727	2.5920508
3.444524469440858	6.7092166	2.5902154
3.4620591779422587	6.6914783	2.5867891
3.479593967532391	6.5918174	2.5674534
3.4971288386229658	6.4366307	2.5370517
3.5146637916257086	6.284107	2.506812
3.5321988269523628	6.240496	2.4980986
3.5497339450146903	6.230451	2.496087
3.5672691462244708	6.357635	2.521435
3.5848044309934988	6.359183	2.521742
3.60233979973359	6.377713	2.5254135
3.619875252856575	6.3148837	2.5129433
3.6374107907743034	6.25262	2.500524
3.6549464138986427	6.2448044	2.4989607
3.6724821226414788	6.2035046	2.4906836
3.690017917414714	6.2447104	2.498942
3.7075537986302702	6.3636384	2.5226252
3.7250897667000857	6.487867	2.5471292
3.7426258220361235	6.6775637	2.5840983
3.7601619650503553	6.971605	2.6403797
3.777698196154779	7.4025135	2.720756
3.7952345157614067	8.386364	2.895922
3.8127709242822716	9.278681	3.0460927
3.830307422129425	11.599697	3.4058328
3.847844009714936	30.488432	5.521633
3.8653806874508954	97.92829	9.895872
3.882917455749409	97.04781	9.851285
3.900454315022606	96.91102	9.844339
3.917991265682631	41.508423	6.4427032
3.9355283081416506	11.263519	3.3561168
3.9530654428118495	9.08103	3.0134747
3.970602670105433	7.69729	2.774399
3.9881399904346244	6.6951394	2.5874968
4.005677404211669	6.5734057	2.5638654
4.023214911848827	6.607841	2.5705721
4.0407525137583855	6.5317206	2.5557232
4.058290210352644	6.474268	2.5444584
4.075828002043927	6.4235973	2.5344818
4.0933658892445814	6.323951	2.5147467
4.110903872366966	6.2292175	2.49584
4.128441951823468	6.144399	2.4787898
4.145980128026488	6.077334	2.465225
4.163518401388452	6.0984244	2.4694989
4.181056772321807	6.09516	2.4688377
4.1985952412390155	6.172205	2.4843922
4.216133808552567	6.223022	2.4945986
4.233672474674966	6.303634	2.5107038
4.251211240018741	6.4613757	2.5419235
4.268750104996445	6.519828	2.5533953
4.286289070020643	7.2981944	2.701517
4.303828135503928	8.923918	2.9872928
4.3213673018589125	29.366613	5.419097
4.3389065694982305	90.6796	9.522584
4.356445938834537	165.99806	12.884024
4.3739854102805085	171.39394	13.091751
4.391524984248844	172.26263	13.1248865
4.409064661152262	136.36821	11.67768
4.426604441403504	96.67542	9.832366
4.444144325415337	75.874565	8.710601
4.461684313600543	21.998945	4.6903033
4.47922440637193	22.396753	4.732521
4.496764604142329	20.626295	4.5416183
4.5143049073245916	18.698263	4.3241487
4.531845316331589	16.54609	4.0676885
4.5493858315762195	13.614177	3.6897395
4.566926453471405	11.329184	3.3658853
4.584467182430081	9.323122	3.0533788
4.602008018865218	8.232825	2.86929
4.619548963189798	7.511424	2.7406976
4.637090015816834	6.9249806	2.6315358
4.654631177159353	6.7161	2.591544
4.672172447630417	6.4194293	2.5336592
4.689713827643102	6.29785	2.5095518
4.7072553176105085	6.0460763	2.458877
4.724796917945764	5.85107	2.4188986
4.742338629062015	5.764743	2.4009879
4.759880451372434	5.7130585	2.3902006
4.777422385290215	5.703524	2.3882053
4.794964431228581	5.7117167	2.3899198
4.812506589600768	5.7234797	2.3923795
4.830048860820047	5.656631	2.3783672
4.847591245299709	5.5922327	2.3647902
4.8651337434530655	5.5454636	2.3548808
4.882676355693457	5.5193253	2.3493245
4.900219082434242	5.6379437	2.3744354
4.917761924088813	5.553839	2.3566585
4.935304881070575	5.509819	2.3473003
4.952847953792969	5.4578266	2.3361993
4.970391142669449	5.4443903	2.3333218
4.9879344481135055	5.4869494	2.342424
5.005477870538642	5.412601	2.3264997
5.023021410358394	5.3470874	2.312377
5.040565067986324	5.3182955	2.306143
5.05810884383601	5.3398957	2.3108215
5.075652738321066	5.43577	2.3314738
5.09319675185512	5.453904	2.3353596
5.110740884851836	5.395517	2.3228252
5.128285137724894	5.3718195	2.3177185
5.145829510888007	5.4163604	2.3273075
5.163374004754908	5.433766	2.331044
5.1809186197393595	5.4152565	2.3270705
5.198463356255145	5.3404126	2.3109334
5.216008214716077	5.302778	2.302776
5.233553195535998	5.29772	2.3016777
5.251098299128764	5.2158737	2.2838287
5.268643525908272	5.1969705	2.2796865
5.286188876288432	5.218565	2.2844179
5.3037343506831895	5.206667	2.2818122
5.32127994950651	5.223747	2.2855518
5.3388256731723915	5.21048	2.2826476
5.356371522094851	5.2526755	2.2918715
5.373917496687938	5.2290654	2.286715
5.391463597365729	5.262467	2.2940068
5.40900982454232	5.2019305	2.280774
5.426556178631843	5.171224	2.2740326
5.444102660048449	5.208079	2.2821217
5.4616492692063225	5.1648965	2.272641
5.479196006519669	5.1775427	2.2754214
5.496742872402727	5.1252484	2.2639012
5.514289867269756	5.131959	2.2653828
5.531836991535049	5.1437783	2.2679899
5.549384245612924	5.1947317	2.2791953
5.566931629917724	5.2348914	2.2879884
5.584479144863822	5.2379017	2.2886462
5.6020267908656205	5.262251	2.2939596
5.619574568337545	5.281702	2.2981954
5.637122477694054	5.267011	2.294997
5.654670519349629	5.2660847	2.294795
5.672218693718784	5.209129	2.2823515
5.689767001216059	5.177194	2.2753448
5.707315442256021	5.1879954	2.277717
5.724864017253266	5.19699	2.2796907
5.7424127266224225	5.240567	2.2892284
5.75996157077814	5.267638	2.2951336
5.777510550135105	5.3693495	2.3171856
5.795059665108022	5.3824024	2.3200004
5.812608916111639	5.387471	2.3210926
5.830158303560715	5.435422	2.3313992
5.847707827870055	5.4279857	2.3298037
5.86525748945448	5.469418	2.3386786
5.8828072887288485	5.5185046	2.3491497
5.900357226108044	5.559794	2.3579216
5.917907302006979	5.633225	2.3734417
5.9354575168406	6.3236947	2.5146956
5.9530078710238765	6.976943	2.6413903
5.970558364971812	7.529388	2.743973
5.988108999099438	7.915885	2.8135183
6.005659773821818	8.490459	2.9138393
6.023210689554039	8.191465	2.8620737
6.040761746711227	8.523725	2.9195418
6.058312945708531	7.803198	2.7934206
6.075864286961132	7.29946	2.7017512
6.093415770884244	6.671448	2.5829146
6.1109673978931065	6.1286325	2.4756074
6.128519168402993	5.5821824	2.3626642
6.146071082829204	5.444436	2.3333316
6.163623141587075	5.21732	2.2841454
6.181175345091969	5.1204143	2.262833
6.198727693759281	5.129159	2.2647645
6.216280188004435	5.2033935	2.2810948
6.233832828242885	5.162078	2.2720206
6.251385614890126	5.1258507	2.2640343
6.268938548361669	5.065201	2.2506
6.286491629073067	5.0554614	2.2484353
6.304044857439898	5.116041	2.2618668
6.321598233877777	5.1181917	2.262342
6.339151758802344	5.04933	2.2470715
6.356705432629277	4.998129	2.2356496
6.37425925577428	4.947267	2.2242453
6.391813228653095	4.9622116	2.2276022
6.409367351681486	4.9888234	2.2335675
6.426921625275259	4.9452863	2.2238
6.44447604985025	4.977921	2.2311256
6.46203062582232	4.9523005	2.2253766
6.47958535360737	4.93663	2.2218528
6.497140233621328	5.0018196	2.2364748
6.514695266280161	5.0204005	2.2406251
6.532250451999859	5.0484977	2.2468863
6.549805791196454	4.9753337	2.2305455
6.567361284286002	4.9154825	2.2170887
6.584916931684597	4.8976264	2.2130582
6.602472733808367	4.8925734	2.2119162
6.6200286910734665	4.890982	2.2115564
6.637584803896092	4.9579544	2.2266464
6.655141072692462	5.040053	2.2450063
6.672697497878842	5.05316	2.2479236
6.690254079871514	5.0381374	2.2445796
6.707810819086808	5.0888257	2.2558427
6.725367715941078	5.092859	2.2567363
6.742924770850719	5.157354	2.2709808
6.760481984232151	5.076933	2.253205
6.778039356501836	5.0309796	2.2429845
6.795596888076266	4.954492	2.225869
6.813154579371963	4.9921412	2.23431
6.830712430805492	5.0437493	2.2458293
6.84827044279344	5.066555	2.250901
6.865828615752445	5.0156384	2.239562
6.883386950099159	5.002237	2.2365682
6.900945446250287	5.0025983	2.2366488
6.918504104622553	5.024188	2.24147
6.936062925632727	5.095173	2.2572489
6.953621909697607	5.1891074	2.2779613
6.971181057234028	5.226023	2.2860496
6.988740368658859	5.221317	2.28502
7.006299844389007	5.22766	2.2864077
7.023859484841407	5.320264	2.3065698
7.041419290433036	5.3934026	2.32237
7.058979261580902	5.4979844	2.344778
7.0765393987020495	5.6875896	2.3848667
7.094099702213559	6.0979123	2.4693952
7.111660172532549	6.4733596	2.5442798
7.129220810076164	6.8475647	2.6167853
7.146781615261595	7.3527308	2.711592
7.16434258850606	7.5405183	2.7460005
7.181903730226821	7.9374137	2.8173416
7.1994650408411704	8.087007	2.8437662
7.217026520766437	8.219057	2.8668897
7.234588170419983	8.487185	2.9132774
7.252149990219215	8.4647875	2.9094307
7.269711980581568	8.390081	2.8965638
7.2872741419245175	8.156295	2.8559227
7.304836474665574	7.8320785	2.7985852
7.322398979222286	7.538724	2.7456737
7.339961656012233	7.2835474	2.6988049
7.357524505453039	6.933024	2.6330636
7.375087527962357	6.6320744	2.5752814
7.392650723957886	6.3241105	2.5147784
7.410214093857353	6.045527	2.4587653
7.427777638078528	5.859438	2.4206276
7.445341357039213	5.70897	2.3893452
7.4629052511572525	5.598331	2.3660793
7.480469320850524	5.484614	2.3419251
7.498033566536948	5.3269324	2.3080149
7.5155979886344735	5.2072263	2.2819347
7.5331625875610975	5.1029325	2.2589672
7.550727363734844	5.0634418	2.2502093
7.568292317573788	5.0890923	2.2559016
7.585857449496025	5.086014	2.2552192
7.603422759919705	5.1475506	2.2688215
7.620988249263007	5.175881	2.2750564
7.638553917944147	5.1418614	2.2675674
7.656119766381391	5.1924167	2.2786875
7.673685794993023	5.2337074	2.2877297
7.691252004197388	5.277288	2.2972348
7.70881839441285	5.271623	2.2960017
7.726384966057826	5.237186	2.2884898
7.743951719550762	5.2045197	2.2813416
7.761518655310149	5.2304893	2.2870264
7.779085773754511	5.2368183	2.2884095
7.796653075302419	5.259042	2.29326
7.814220560372475	5.328506	2.3083558
7.831788229383323	5.3873873	2.3210745
7.8493560827536495	5.353648	2.313795
7.866924120902174	5.3818517	2.319882
7.884492344247663	5.329162	2.308498
7.9020607532089135	5.3514876	2.3133283
7.919629348204771	5.3017955	2.3025627
7.937198129654115	5.35535	2.314163
7.954767097975865	5.3889246	2.3214056
7.972336253588986	5.406962	2.3252876
7.989905596912472	5.46923	2.3386385
8.007475128365371	5.5342393	2.3524964
8.025044848366756	5.5108075	2.3475108
8.042614757335754	5.6246314	2.3716304
8.060184855691523	5.6397176	2.374809
8.07775514385327	5.727424	2.3932037
8.095325622240228	5.7521596	2.398366
8.112896291271687	5.740369	2.3959067
8.130467151366968	5.767894	2.401644
8.148038202945436	5.8149333	2.4114172
8.165609446426497	5.876608	2.4241717
8.183180882229594	5.964703	2.442274
8.200752510774217	5.964497	2.442232
8.218324332479893	5.989067	2.447257
8.235896347766193	5.963719	2.4420726
8.253468557052724	6.006871	2.450892
8.27104096075914	6.023261	2.4542334
8.288613559305137	6.06905	2.4635441
8.306186353110448	6.134472	2.4767866
8.32375934259485	6.192109	2.488395
8.341332528178162	6.1863546	2.4872384
8.358905910280246	6.2914977	2.5082858
8.376479489321003	6.3222265	2.5144038
8.394053265720377	6.373015	2.5244832
8.411627239898356	6.353832	2.520681
8.42920141227497	6.279536	2.5059001
8.44677578327029	6.1946316	2.4889016
8.464350353304427	6.1772175	2.485401
8.48192512279754	6.1564746	2.4812243
8.499500092169827	6.243559	2.4987113
8.51707526184153	6.28565	2.50712
8.534650632232934	6.27669	2.5053322
8.552226203764365	6.2168226	2.4933558
8.569801976856192	6.1668386	2.4833121
8.587377951928834	6.2386713	2.497733
8.60495412940274	6.318163	2.5135956
8.622530509698416	6.384007	2.5266593
8.6401070932364	6.4870415	2.546967
8.657683880437283	6.596985	2.5684595
8.675260871721695	6.738119	2.5957887
8.692838067510303	6.8677087	2.6206315
8.710415468223834	6.943329	2.6350198
8.727993074283043	7.100658	2.664706
8.745570886108737	7.1714196	2.6779506
8.763148904121765	7.2381425	2.6903796
8.78072712874302	7.1741614	2.6784625
8.798305560393441	7.3357043	2.7084506
8.815884199494006	7.466824	2.732549
8.833463046465745	7.6516795	2.766167
8.851042101729728	7.7602906	2.78573
8.86862136570707	7.97894	2.8247018
8.886200838818924	8.199352	2.863451
8.903780521486505	8.352149	2.8900084
8.921360414131055	8.51714	2.918414
8.938940517173874	8.567751	2.927072
8.956520831036297	8.665155	2.9436636
8.97410135613971	8.909361	2.9848552
8.99168209290554	9.098252	3.016331
9.009263041755265	9.507537	3.0834293
9.026844203110405	9.739264	3.1207793
9.044425577392525	9.899964	3.146421
9.062007165023239	9.995621	3.161585
9.079588966424197	10.263923	3.2037358
9.097170982017108	10.4453	3.231919
9.11475321222372	11.523179	3.3945808
9.132335657465825	12.489287	3.5340185
9.149918318165264	12.522776	3.5387535
9.167501194743924	12.986537	3.6036837
9.18508428762374	12.593493	3.5487313
9.202667597226693	12.669603	3.5594387
9.220251123974803	12.484803	3.533384
9.237834868290143	12.162126	3.487424
9.255418830594836	11.839105	3.4408
9.273003011311046	11.243633	3.3531528
9.290587410860985	11.017839	3.319313
9.308172029666911	10.43169	3.2298126
9.32575686815113	10.151094	3.1860783
9.343341926735997	8.742044	2.9566948
9.360927205843916	8.553091	2.9245667
9.378512705897327	8.385695	2.8958066
9.396098427318728	8.215927	2.866344
9.413684370530664	8.0970955	2.8455396
9.431270535955722	7.87669	2.806544
9.448856924016539	7.8041444	2.7935898
9.466443535135806	7.772579	2.7879345
9.484030369736251	7.7719245	2.7878172
9.501617428240658	7.7350903	2.781203
9.519204711071852	7.7479186	2.7835083
9.536792218652714	7.8245316	2.7972364
9.55437995140617	7.918573	2.8139958
9.571967909755191	7.974689	2.823949
9.589556094122802	7.953167	2.820136
9.60714450493207	7.953407	2.8201785
9.624733142606116	7.9483175	2.819276
9.642322007568108	8.026073	2.8330326
9.659911100241267	8.037305	2.835014
9.677500421048851	8.077584	2.8421092
9.695089970414175	8.064156	2.8397458
9.712679748760609	8.081469	2.8427923
9.730269756511557	8.145356	2.854007
9.747859994090492	8.185148	2.8609698
9.765450461920915	8.17725	2.859589
9.78304116042639	8.169436	2.8582227
9.800632090030527	8.195619	2.8627992
9.81822325115699	8.260591	2.8741243
9.835814644229481	8.291024	2.8794138
9.853406269671762	8.351274	2.889857
9.870998127907646	8.382946	2.8953319
9.888590219360985	8.365464	2.8923113
9.906182544455698	8.311047	2.8828886
9.923775103615734	8.284902	2.8783505
9.941367897265108	8.355089	2.890517
9.958960925827878	8.37057	2.8931937
9.97655418972816	8.370789	2.8932314
9.994147689390106	8.359521	2.8912835
10.011741425237934	8.365815	2.892372
10.029335397695904	8.326423	2.885554
10.04692960718833	8.344864	2.8887477
10.06452405413958	8.285873	2.8785193
10.082118738974064	8.303295	2.8815439
10.099713662116246	8.309944	2.8826973
10.117308823990651	8.360178	2.8913972
10.134904225021844	8.351836	2.8899543
10.152499865634445	8.269038	2.8755934
10.170095746253125	8.240827	2.870684
10.18769186730261	8.223656	2.8676918
10.205288229207675	8.220513	2.8671439
10.222884832393145	8.152063	2.855182
10.2404816772839	8.13954	2.8529878
10.258078764304868	8.117891	2.8491914
10.275676093881035	8.124477	2.8503468
10.293273666437438	8.084262	2.8432837
10.310871482399158	8.116559	2.8489575
10.32846954219134	8.097983	2.8456955
10.346067846239173	8.1423235	2.8534756
10.363666394967908	8.1366205	2.8524761
10.38126518880283	8.118668	2.8493276
10.398864228169298	8.197401	2.8631103
10.416463513492713	8.258401	2.8737433
10.434063045198531	8.284823	2.878337
10.451662823712262	8.2489805	2.872104
10.469262849459467	8.272899	2.8762648
10.486863122865758	8.257694	2.8736205
10.504463644356806	8.204086	2.8642776
10.522064414358338	8.052245	2.837648
10.539665433296118	8.02685	2.8331695
10.557266701595987	7.9479804	2.8192163
10.574868219683818	7.859366	2.803456
10.592469987985552	7.725865	2.779544
10.610072006927185	7.550729	2.747859
10.627674276934751	7.5542064	2.7484918
10.64527679843435	7.4196734	2.7239077
10.662879571852143	7.308315	2.7033894
10.680482597614331	7.132208	2.6706195
10.698085876147173	7.0171075	2.6489823
10.715689407876988	6.9425144	2.634865
10.733293193230146	6.8844767	2.6238286
10.750897232633072	6.818282	2.6111841
10.76850152651225	6.773504	2.6025956
10.786106075294207	6.693658	2.5872104
10.803710879405534	6.5476723	2.558842
10.821315939272877	6.423845	2.5345304
10.83892125532294	6.3118615	2.5123417
10.856526827982472	6.3090734	2.511787
10.874132657678285	6.3141856	2.5128043
10.891738744837243	6.2731347	2.5046227
10.909345089886271	6.2232175	2.4946377
10.926951693252343	6.1608195	2.4820998
10.944558555362494	6.1512756	2.4801764
10.96216567664381	6.0353837	2.4567018
10.979773057523436	5.897105	2.4283955
10.997380698428573	5.836195	2.4158218
11.014988599786477	5.78638	2.4054894
11.032596762024461	5.7614875	2.4003098
11.050205185569892	5.6682477	2.380808
11.067813870850198	5.6668224	2.380509
11.085422818292859	5.63114	2.3730023
11.10303202832541	5.5548224	2.356867
11.120641501375454	5.424756	2.3291106
11.138251237870636	5.3282413	2.3082983
11.155861238238671	5.2753015	2.2968025
11.173471502907317	5.3008037	2.3023474
11.191082032304402	5.2584662	2.2931347
11.208692826857805	5.1359134	2.2662554
11.226303886995465	5.052779	2.2478387
11.243915213145371	4.9646225	2.2281432
11.261526805735578	4.872228	2.2073123
11.279138665194196	4.8204594	2.1955545
11.296750791949393	4.737351	2.1765456
11.314363186429393	4.7204037	2.172649
11.331975849062479	4.720833	2.1727479
11.34958878027699	4.6801457	2.1633644
11.36720198050133	4.6244063	2.1504433
11.384815450163948	4.582279	2.140626
11.402429189693366	4.5952168	2.1436458
11.420043199518153	4.6104655	2.1471994
11.437657480066942	63.512043	7.9694443
11.455272031768422	85.14989	9.22767
11.472886855051353	107.5503	10.370646
11.490501950344528	99.198685	9.959853
11.508117318076819	84.57708	9.19658
11.52573295867715	45.92476	6.776781
11.543348872574514	4.1468897	2.0363913
11.560965060197946	4.072779	2.0181127
11.57858152197655	4.047953	2.0119526
11.59619825833949	4.0324216	2.008089
11.613815269715985	4.0477176	2.011894
11.631432556535323	38.54173	6.2081985
11.649050119226837	83.072075	9.114388
11.666667958219929	93.463165	9.667635
11.68428607394406	107.696884	10.377711
11.701904466828756	82.493996	9.082621
11.719523137303586	65.33423	8.082959
11.737142085798196	4.5854177	2.1413589
11.754761312742286	3.6742995	1.9168463
11.772380818565619	3.6498265	1.9104519
11.790000603698015	3.6044123	1.8985289
11.80762066856935	3.6234994	1.9035492
11.825241013609572	3.5691822	1.8892279
11.842861639248683	3.4999483	1.8708149
11.860482545916748	3.4476914	1.856796
11.878103734043883	3.4717736	1.8632696
11.895725204060282	3.4695394	1.86267
11.91334695639619	3.4545388	1.858639
11.930968991481919	3.3799067	1.8384522
11.948591309747824	3.366122	1.8346994
11.966213911624347	3.346196	1.8292611
11.98383679754198	3.324233	1.8232479
12.001459967931268	3.3059132	1.818217
12.019083423222835	3.33032	1.8249164
12.036707163847352	3.2986739	1.8162252
12.05433119023556	3.2882864	1.8133633
12.071955502818259	3.2571056	1.8047453
12.089580102026313	3.2454631	1.8015169
12.107204988290643	3.225433	1.7959491
12.12483016204224	3.1639569	1.7787515
12.142455623712152	3.10504	1.7621124
12.16008137373149	3.0464344	1.7454038
12.177707412531431	3.0594294	1.7491225
12.19533374054321	3.064564	1.7505896
12.212960358198126	3.0856333	1.756597
12.230587265927545	3.0469694	1.7455571
12.248214464162889	3.048081	1.7458754
12.265841953335649	3.0288897	1.7403705
12.283469733877375	3.01065	1.7351224
12.301097806219685	2.9950585	1.7306237
12.31872617079425	3.031034	1.7409865
12.336354828032825	3.0158694	1.7366259
12.353983778367205	2.9336238	1.7127825
12.371613022229262	2.8807383	1.6972737
12.389242560050928	2.8317058	1.6827673
12.406872392264201	2.850835	1.6884416
12.424502519301143	2.8823965	1.6977623
12.442132941593874	2.924206	1.710031
12.459763659574586	2.923529	1.709833
12.477394673675532	2.9100828	1.7058965
12.49502598432903	2.8540716	1.6893998
12.51265759196746	2.8031316	1.6742555
12.530289497023267	2.775061	1.6658514
12.547921699928967	2.7759674	1.6661235
12.565554201117134	2.7882931	1.6698183
12.583187001020404	2.8058186	1.6750578
12.600820100071486	2.8219812	1.6798754
12.618453498703152	2.8410144	1.6855309
12.636087197348235	2.8313015	1.6826471
12.65372119643964	2.806453	1.6752472
12.671355496410326	2.8193724	1.6790987
12.68899009769333	2.8222406	1.6799525
12.706625000721749	2.8460207	1.6870153
12.724260205928752	2.885685	1.6987303
12.741895713747551	2.9416735	1.7151308
12.759531524611454	3.0051546	1.7335382
12.777167638953818	3.0177863	1.7371777
12.794804057208072	3.009302	1.7347339
12.812440779807702	3.0271058	1.739858
12.830077807186271	3.1540399	1.7759616
12.847715139777405	3.2136714	1.7926716
12.865352778014795	3.447124	1.8566432
12.882990722332197	3.5660665	1.8884032
12.90062897316344	3.6484168	1.9100829
12.918267530942412	3.765343	1.9404491
12.935906396103071	3.682095	1.9188786
12.953545569079449	3.8880737	1.9718199
12.971185050305628	3.6215217	1.9030296
12.988824840215775	3.6242428	1.9037445
13.006464939244115	3.6112916	1.9003398
13.024105347824943	3.4989312	1.870543
13.041746066392617	3.604209	1.8984754
13.05938709538157	3.4230382	1.8501455
13.077028435226296	3.431254	1.8523644
13.094670086361363	3.3560312	1.8319473
13.112312049221401	3.2683496	1.8078578
13.129954324241112	3.149449	1.7746687
13.147596911855258	2.9082022	1.7053452
13.165239812498685	2.8603923	1.6912694
13.182883026606293	2.7705362	1.6644927
13.200526554613058	2.7479815	1.6577036
13.218170396954017	2.7095819	1.6460807
13.235814554064284	2.71054	1.6463718
13.253459026379034	2.6976297	1.6424463
13.271103814333523	2.6829863	1.6379824
13.288748918363058	2.7176006	1.6485146
13.306394338903031	2.7113893	1.6466297
13.32404007638889	2.7086709	1.645804
13.341686131256164	2.7087483	1.6458275
13.359332503940449	2.679957	1.6370574
13.376979194877402	2.6735206	1.6350904
13.394626204502751	2.7123075	1.6469084
13.412273533252307	2.7284544	1.6518034
13.429921181561937	2.7394562	1.6551303
13.447569149867581	2.73621	1.6541494
13.465217438605247	2.7484076	1.6578321
13.482866048211022	2.7630591	1.6622452
13.500514979121052	2.744458	1.6566405
13.518164231771568	2.7140794	1.6474463
13.535813806598844	2.6819456	1.6376647
13.553463704039254	2.6973033	1.6423469
13.571113924529229	2.682474	1.637826
13.588764468505275	2.6528943	1.6287708
13.606415336403956	2.653519	1.6289625
13.624066528661917	2.6790483	1.6367799
13.641718045715882	2.755445	1.6599534
13.659369888002635	2.822545	1.6800432
13.67702205595903	2.8945255	1.7013305
13.694674550021993	2.9767249	1.7253188
13.712327370628532	3.068645	1.7517549
13.729980518215713	3.1524653	1.7755183
13.747633993220681	3.2143137	1.7928507
13.765287796080647	3.2640934	1.8066802
13.7829419272329	3.2898898	1.8138053
13.800596387114801	3.3011167	1.8168975
13.818251176163775	3.341219	1.8279002
13.835906294817324	3.4090748	1.846368
13.853561743513023	3.4806488	1.8656497
13.871217522688525	3.465315	1.8615357
13.888873632781538	3.4510746	1.8577068
13.906530074229858	3.4687493	1.8624579
13.92418684747135	3.473392	1.8637038
13.941843952943948	3.4955387	1.8696359
13.959501391085665	3.4912004	1.8684754
13.977159162334578	3.4506881	1.8576028
13.994817267128846	3.3676217	1.835108
14.012475705906693	3.256599	1.8046049
14.030134479106424	3.2233627	1.7953726
14.047793587166414	3.1825855	1.7839803
14.065453030525108	3.152109	1.7754179
14.083112809621026	3.044682	1.7449018
14.100772924892766	2.9738266	1.7244786
14.118433376778997	2.9372218	1.7138325
14.136094165718458	2.8485587	1.6877674
14.153755292149969	2.7311678	1.6526245
14.171416756512416	2.6066508	1.6145126
14.189078559244768	2.5318108	1.5911665
14.20674070078606	2.5228827	1.5883585
14.224403181575408	2.5446434	1.5951939
14.242066002051999	2.5379431	1.5930923
14.259729162655093	2.4847808	1.5763187
14.277392663824022	2.4630194	1.5694009
14.295056505998208	2.4563208	1.5672654
14.312720689617128	2.4674134	1.5708003
14.330385215120348	2.449008	1.5649307
14.348050082947497	2.4215932	1.5561469
14.3657152935383	2.4356954	1.5606714
14.383380847332528	2.4355512	1.5606252
14.401046744770051	2.4325173	1.5596529
14.418712986290798	2.3799438	1.5427066
14.436379572334793	2.3967261	1.5481364
14.454046503342123	2.3819377	1.5433527
14.471713779752946	2.36648	1.5383368
14.489381402007504	2.3374677	1.5288779
14.507049370546113	2.338966	1.5293678
14.524717685809168	2.3341854	1.5278041
14.542386348237134	2.373192	1.5405169
14.560055358270553	2.383953	1.5440055
14.577724716350051	2.4107347	1.552654
14.595394422916325	2.4153843	1.5541507
14.61306447841015	2.461126	1.5687977
14.63073488327237	2.4774258	1.573984
14.648405637943917	2.5102088	1.5843638
14.6660767428658	2.513749	1.5854807
14.683748198479094	2.5455165	1.5954674
14.701420005224954	2.5787828	1.6058589
14.719092163544628	2.623591	1.6197503
14.73676467387942	2.6618397	1.6315145
14.754437536670727	2.6525807	1.6286745
14.772110752360014	2.641918	1.6253978
14.78978432138882	2.6264873	1.6206441
14.807458244198777	2.6186364	1.6182201
14.82513252123159	2.5998802	1.6124144
14.842807152929028	2.6603272	1.631051
14.860482139732962	2.661525	1.6314181
14.87815748208531	2.6727698	1.6348608
14.8958331804281	2.6648612	1.6324402
14.91350923520342	2.6292765	1.6215044
14.931185646853438	2.6625364	1.631728
14.948862415820408	2.6746995	1.6354508
14.966539542546656	2.7221162	1.6498837
14.98421702747459	2.6919453	1.6407149
15.001894871046696	2.6641371	1.6322185
15.019573073705542	2.6472113	1.6270252
15.037251635893766	2.6763482	1.6359549
15.054930558054092	2.7450345	1.6568146
15.072609840629323	2.7721784	1.664986
15.090289484062351	2.855956	1.6899574
15.107969488796124	3.1283393	1.7687112
15.125649855273691	3.5217564	1.8766344
15.14333058393817	4.021607	2.0053945
15.161011675232768	5.0183105	2.2401586
15.17869312960076	6.387999	2.5274491
15.196374947485506	8.177434	2.8596213
15.214057129330447	11.203872	3.3472185
15.231739675579114	15.992451	3.9990563
15.249422586675102	21.10236	4.5937304
15.267105863062092	24.346178	4.9341846
15.284789505183847	24.734644	4.9733934
15.302473513484218	22.830473	4.7781243
15.320157888407127	19.261982	4.3888474
15.337842630396578	14.98276	3.870757
15.355527739896656	11.59167	3.4046543
15.37321321735153	8.980357	2.9967244
15.39089906320545	6.538383	2.5570261
15.408585277902748	4.9108696	2.2160482
15.42627186188783	3.7958107	1.948284
15.443958815605198	3.243885	1.8010788
15.461646139499424	2.905382	1.7045181
15.479333834015168	2.730071	1.6522927
15.497021899597165	2.6733425	1.6350359
15.514710336690234	2.6124995	1.6163229
15.53239914573928	2.5618622	1.6005819
15.550088327189297	2.5442371	1.5950665
15.567777881485336	2.5047033	1.5826254
15.58546780907256	2.4848511	1.576341
15.6031581103962	2.483743	1.5759895
15.620848785901568	2.501571	1.5816355
15.638539836034063	2.5006294	1.5813378
15.656231261239173	2.4477181	1.5645185
15.673923061962451	2.4113266	1.5528446
15.691615238649552	2.4033668	1.5502796
15.709307791746202	2.4168336	1.5546169
15.727000721698221	2.4302726	1.5589331
15.744694028951498	2.4430356	1.5630213
15.76238771395202	2.4253447	1.5573518
15.780081777145844	2.406307	1.5512276
15.797776218979125	2.3997424	1.5491102
15.815471039898094	2.3874269	1.54513
15.833166240349064	2.3847554	1.5442653
15.850861820778437	2.4072123	1.5515194
15.868557781632699	2.397332	1.548332
15.886254123358412	2.4207458	1.5558746
15.903950846402232	2.4090762	1.5521199
15.921647951210897	2.4078536	1.551726
15.939345438231225	2.4038734	1.5504429
15.957043307910133	2.3998418	1.5491422
15.974741560694602	2.4057746	1.5510559
15.992440197031714	2.4031327	1.550204
16.01013921736862	2.389621	1.5458399
16.02783862215259	2.355578	1.5347892
16.045538411830933	2.3618891	1.5368439
16.06323858685107	2.346901	1.5319599
16.080939147660512	2.369085	1.5391833
16.09864009470684	2.3907208	1.5461956
16.11634142843774	2.4414816	1.5625241
16.134043149300954	2.4590359	1.5681313
16.15174525774433	2.4806917	1.5750211
16.169447754215817	2.477817	1.5741084
16.18715063916342	2.4228618	1.5565544
16.204853913035244	2.3864036	1.5447989
16.222557576279478	2.4125419	1.5532359
16.240261629344403	22.44162	4.737259
16.257966072678386	42.9842	6.5562334
16.275670906729868	38.137207	6.175533
16.293376131947387	2.5484393	1.5963832
16.31108174877957	2.5511544	1.5972333
16.328787757675133	2.5362177	1.5925506
16.34649415908287	2.5287218	1.5901955
16.364200953451657	2.5703497	1.6032311
16.38190814123048	2.6557755	1.629655
16.39961572286839	2.7143426	1.6475261
16.41732369881455	2.7193756	1.649053
16.43503206951817	2.699629	1.6430548
16.45274083542859	2.7411873	1.6556531
16.47044999699522	2.767988	1.6637272
16.488159554667558	2.8057928	1.6750501
16.505869508895184	2.8676436	1.6934118
16.523579860127786	2.9546554	1.7189112
16.541290608815117	2.9897275	1.7290828
16.559001755407035	2.9894016	1.7289886
16.57671330035348	3.0391405	1.7433131
16.59442524410448	3.1452222	1.7734774
16.61213758711015	3.2604415	1.8056693
16.629850329820705	3.2794604	1.8109281
16.647563472686436	3.2906	1.8140011
16.665277016157724	3.3113685	1.8197166
16.682990960685053	3.393571	1.8421648
16.70070530671898	3.4574256	1.8594154
16.718420054710155	3.5301003	1.8788562
16.736135205109335	3.5889063	1.8944409
16.753850758367335	3.627233	1.9045296
16.771566714935087	3.6499295	1.9104788
16.789283075263597	3.7146356	1.927339
16.80699983980398	3.8153083	1.9532814
16.82471700900741	3.8888786	1.972024
16.84243458332518	3.9181855	1.9794407
16.860152563208665	3.9740806	1.9935097
16.87787094910932	4.079065	2.0196695
16.89558974147871	4.172232	2.0426042
16.913308940768466	4.249528	2.0614383
16.931028547430333	4.3176804	2.0779028
16.94874856191613	4.3249865	2.0796602
16.966468984677785	4.348998	2.0854251
16.98418981616729	4.4201703	2.10242
17.00191105683676	4.5044355	2.1223655
17.019632707138374	4.573048	2.1384687
17.03735476752442	4.5481706	2.132644
17.05507723844728	4.558124	2.1349764
17.072800120359403	4.570561	2.137887
17.090523413713353	4.644495	2.1551092
17.108247118961785	4.6335073	2.1525583
17.125971236557437	4.6516933	2.1567786
17.143695766953133	4.677361	2.1627207
17.161420710601806	4.694552	2.1666915
17.179146067956477	4.672475	2.1615908
17.19687183947025	4.6654677	2.1599693
17.21459802559634	4.7218084	2.1729722
17.232324626788028	4.735554	2.176133
17.25005164349871	4.6682906	2.1606228
17.267779076181863	4.5662594	2.1368809
17.285506925291074	4.518901	2.1257706
17.30323519127999	4.518987	2.125791
17.320963874602384	4.540029	2.1307344
17.33869297571211	4.5138063	2.124572
17.356422495063114	4.5312	2.1286616
17.37415243310944	4.492876	2.1196406
17.391882790305218	4.493087	2.1196902
17.40961356710468	4.4675684	2.1136622
17.42734476396215	4.5217967	2.1264517
17.445076381332044	4.527732	2.1278467
17.462808419668868	4.5582814	2.135013
17.48054087942723	4.6977053	2.167419
17.498273761061835	4.989849	2.233797
17.51600706502747	5.4667315	2.3381042
17.533740791779024	6.1475577	2.4794269
17.551474941771485	7.5413446	2.746151
17.56920951545993	8.659741	2.9427438
17.586944513299528	10.9187565	3.3043542
17.60467993574556	12.668904	3.5593405
17.622415783253373	14.551917	3.8146975
17.64015205627843	16.05492	4.0068593
17.657888755276293	17.208147	4.14827
17.675625880702604	17.67169	4.203771
17.69336343301311	17.51764	4.185408
17.71110141266366	16.689608	4.0852914
17.728839820110178	15.708686	3.9634185
17.746578655808705	14.626511	3.8244622
17.764317920215372	13.004305	3.6061482
17.7820576137864	11.330483	3.3660784
17.79979773697811	9.274831	3.0454607
17.81753829024692	7.4291935	2.7256546
17.835279274049356	5.8497496	2.4186256
17.85302068884201	4.842585	2.2005875
17.870762535081607	4.205919	2.0508337
17.888504813224934	3.8849685	1.9710324
17.90624752372891	3.7351735	1.9326597
17.923990667050536	3.6127362	1.9007199
17.941734243646895	3.5283077	1.878379
17.959478253975185	3.4647238	1.8613769
17.9772226984927	3.4693334	1.8626146
17.994967577656833	3.4372654	1.8539864
18.01271289192506	3.384821	1.8397883
18.030458641754965	3.3256998	1.8236501
18.04820482760425	3.2941546	1.8149806
18.06595144993067	3.288643	1.8134615
18.083698509192125	3.2701797	1.8083638
18.101446005846576	3.2534463	1.8037312
18.119193940352105	3.2234077	1.7953851
18.136942313166887	3.1931305	1.7869333
18.1546911247492	3.229171	1.7969894
18.1724403755574	3.2002368	1.7889205
18.19019006604997	3.1613457	1.7780174
18.207940196685467	3.1037421	1.761744
18.225690767922575	3.099434	1.7605209
18.243441780220046	3.102328	1.7613426
18.261193234036764	3.0595303	1.7491513
18.278945129831676	3.0265033	1.7396848
18.29669746806386	2.970855	1.7236168
18.314450249192483	3.0171366	1.7369907
18.3322034736768	3.055145	1.7478973
18.349957141976184	3.0703251	1.7522343
18.3677112545501	3.0646882	1.7506251
18.385465811858108	3.060283	1.7493664
18.403220814359884	3.0419607	1.7441218
18.420976262515172	3.0652897	1.7507969
18.43873215678387	3.1229725	1.7671934
18.456488497625923	3.1789384	1.7829578
18.474245285501407	3.263324	1.8064673
18.492002520870486	3.3147936	1.8206575
18.50976020419343	3.362197	1.8336295
18.527518335930615	3.5955145	1.8961842
18.545276916542516	4.171202	2.0423522
18.563035946489688	4.366405	2.0895944
18.580795426232832	4.834572	2.198766
18.598555356232698	4.747555	2.1788883
18.616315736950185	5.1164083	2.2619479
18.63407656884626	4.781603	2.1866877
18.65183785238201	4.9523587	2.2253895
18.669599588018617	4.6702566	2.1610777
18.68736177621737	4.6374936	2.153484
18.705124417439652	4.6608887	2.158909
18.72288751214696	4.480062	2.1166158
18.740651060800886	4.6074214	2.1464906
18.758415063863115	4.297433	2.073025
18.77617952179546	4.480978	2.116832
18.793944435059814	4.2560306	2.063015
18.811709804118184	4.2492657	2.0613747
18.829475629432675	4.17143	2.042408
18.8472419114655	3.9411743	1.9852391
18.86500865067897	4.042675	2.0106404
18.88277584753551	3.7169526	1.92794
18.90054350249763	3.7824826	1.9448606
18.918311616027957	3.50142	1.8712082
18.936080188589226	3.4169776	1.8485069
18.953849220644265	3.0500867	1.7464497
18.971618712656007	2.8592725	1.6909384
18.9893886650875	2.7844403	1.6686642
19.007159078401887	7.95558	2.8205638
19.024929953062408	32.876842	5.7338333
19.042701289532435	32.80899	5.7279134
19.060473088275405	25.357439	5.035617
19.07824534975489	2.6268296	1.6207497
19.096018074434568	2.6634464	1.6320069
19.113791262778197	2.650389	1.6280016
19.13156491524966	2.602654	1.6132743
19.149339032312945	2.5399413	1.5937194
19.167113614432136	2.5146499	1.5857648
19.184888662071433	2.538301	1.5932046
19.202664175695123	2.5415404	1.5942209
19.220440155767623	2.511676	1.5848268
19.238216602753447	2.4944417	1.5793802
19.2559935171172	2.5206223	1.5876467
19.27377089932361	2.5215492	1.5879387
19.291548749837514	2.4999492	1.5811228
19.309327069123835	2.4804783	1.5749534
19.32710585764763	2.465718	1.5702605
19.344885115874032	2.4737937	1.5728298
19.362664844268313	2.4747643	1.5731384
19.380445043295822	2.4824486	1.5755788
19.39822571342203	2.4856968	1.5766093
19.41600685511252	2.4787657	1.5744096
19.43378846883297	2.4459155	1.5639423
19.451570555049173	2.439791	1.561983
19.469353114227037	2.46384	1.5696623
19.48713614683254	2.530608	1.5907885
19.50491965333182	2.540492	1.5938921
19.52270363419109	2.506483	1.5831876
19.540488089876686	2.4518783	1.5658475
19.55827302085503	2.4423065	1.562788
19.576058427592674	2.453387	1.5663291
19.593844310556282	2.4561787	1.5672201
19.611630670212598	2.4721887	1.5723195
19.629417507028506	2.4472132	1.5643572
19.64720482147098	2.4678042	1.5709246
19.6649926140071	2.4664235	1.5704851
19.682780885104084	2.524225	1.588781
19.70056963522921	2.509879	1.5842597
19.718358864849908	2.5031207	1.5821253
19.7361485744337	2.5179262	1.5867975
19.753938764448215	2.5215197	1.5879294
19.771729435361202	2.5162394	1.5862659
19.789520587640506	2.505367	1.5828351
19.807312221754092	2.5509112	1.5971572
19.825104338170043	2.5522256	1.5975686
19.842896937356517	2.531235	1.5909855
19.860690019781824	2.5049183	1.5826933
19.87848358591436	2.4877753	1.5772684
19.896277636222635	2.490985	1.5782855
19.914072171175278	2.5223284	1.588184
19.931867191241015	2.5138986	1.5855279
19.94966269688869	2.511063	1.5846335
19.967458688587264	2.5027516	1.5820087
19.985255166805807	2.5350707	1.5921905
20.00305213201348	2.5128984	1.5852125
20.020849584679578	2.483391	1.5758779
20.038647525273507	2.4696064	1.5714982
20.05644595426477	2.4912744	1.5783771
20.07424487212299	2.4541562	1.5665747
20.092044279317903	2.4245803	1.5571064
20.109844176319353	2.4105349	1.5525898
20.127644563597304	2.4105911	1.5526079
20.145445441621817	2.426426	1.557699
20.16324681086307	2.4550126	1.5668479
20.181048671791373	2.438647	1.5616168
20.198851024877122	2.4052408	1.5508839
20.216653870590836	2.3662145	1.5382504
20.234457209403146	2.3564801	1.535083
20.252261041784802	2.3895016	1.5458013
20.270065368206662	2.437152	1.561138
20.287870189139685	2.4252925	1.557335
20.305675505054968	2.3703816	1.5396043
20.323481316423702	2.3216088	1.5236826
20.341287623717207	2.3449006	1.5313069
20.359094427406884	2.3891077	1.5456738
20.376901727964288	2.415924	1.5543243
20.39470952586107	2.4412994	1.5624658
20.41251782156899	2.4240496	1.556936
20.430326615559935	2.3767462	1.54167
20.448135908305886	2.3535953	1.5341432
20.465945700278965	2.3523104	1.5337243
20.483755991951384	2.350465	1.5331227
20.50156678379548	2.3895514	1.5458174
20.519378076283708	2.3877032	1.5452194
20.537189869888635	2.3665125	1.5383474
20.55500216508294	2.3472822	1.5320842
20.572814962339415	2.3551242	1.5346414
20.59062826213098	2.352546	1.5338012
20.60844206493066	2.3440835	1.5310401
20.626256371211593	2.3564339	1.535068
20.644071181447032	2.3645988	1.5377252
20.66188649611036	2.38705	1.5450081
20.67970231567506	2.3374872	1.5288843
20.697518640614742	2.307124	1.518922
20.715335471403122	2.3026464	1.5174474
20.73315280851404	2.301391	1.5170336
20.750970652421447	2.2918575	1.5138882
20.768789003599412	2.3114257	1.5203373
20.786607862522136	2.3460026	1.5316666
20.8044272296639	2.3369932	1.5287228
20.82224710549913	2.3356123	1.528271
20.84006749050237	2.3070083	1.518884
20.857888385148268	3.8287647	1.956723
20.8757097899116	45.929203	6.7771087
20.893531705267254	64.789375	8.049185
20.911354131690224	83.79852	9.154153
20.92917706965566	69.074	8.311077
20.94700051963877	50.157223	7.082176
20.96482448211493	29.42529	5.424508
20.982648957559622	4.142416	2.0352926
21.00047394644843	2.2707198	1.5068908
21.01829944925707	2.2683103	1.5060911
21.036125466461375	2.23819	1.4960581
21.053951998537297	2.1976852	1.4824592
21.071779045960906	2.2041888	1.4846511
21.089606609208378	2.2340562	1.494676
21.10743468875603	2.2441885	1.4980615
21.12526328508028	2.2360291	1.4953358
21.143092398657675	2.232663	1.4942098
21.16092202996488	2.219051	1.4896479
21.17875217947867	2.201214	1.4836489
21.19658284767596	2.2199721	1.4899571
21.21441403503377	2.2385218	1.4961691
21.232245742029225	2.2465806	1.4988598
21.2500779691396	2.2181473	1.4893446
21.26791071684227	2.2135334	1.4877948
21.28574398561475	2.1950812	1.4815806
21.30357777593465	2.1939223	1.4811895
21.321412088279704	2.1658309	1.4716762
21.339246923127792	2.1799777	1.4764748
21.357082280956888	2.1620183	1.4703803
21.3749181622451	2.1513126	1.4667354
21.392754567470647	2.1626308	1.4705886
21.41059149711187	2.1804905	1.4766484
21.42842895164726	2.14694	1.465244
21.446266931555378	2.1410248	1.4632242
21.464105437314945	2.1439996	1.4642403
21.481944469404798	2.1436253	1.4641124
21.49978402830388	2.1361449	1.4615556
21.51762411449127	2.1228125	1.4569875
21.53546472844617	2.1246045	1.4576023
21.553305870647876	2.1213803	1.4564959
21.571147541575865	2.116053	1.454666
21.58898974170967	2.079613	1.4420863
21.60683247152899	2.0530322	1.4328406
21.62467573151363	2.0619645	1.4359542
21.642519522143523	2.0691836	1.4384657
21.660363843898722	2.055671	1.4337611
21.6782086972594	2.0462997	1.4304893
21.696054082705864	2.027959	1.4240643
21.713900000718535	2.0541866	1.4332434
21.73174645177795	2.0866513	1.4445246
21.749593436364794	2.0874856	1.4448134
21.767440954959845	2.0598686	1.4352242
21.785289008044032	2.0386102	1.4277991
21.803137596098388	2.0325983	1.4256922
21.820986719604086	2.022305	1.4220777
21.838836379042412	2.0267904	1.4236538
21.85668657489478	2.0365918	1.4270921
21.87453730764273	2.06023	1.4353502
21.892388577767914	2.0499158	1.4317527
21.91024038575213	2.0476732	1.4309694
21.928092732077285	2.0085807	1.4172441
21.945945617225426	1.9705215	1.4037527
21.963799041678694	1.9854368	1.4090552
21.981653005919398	31.368696	5.600776
21.999507510429943	78.192184	8.842634
22.01736255569286	73.13	8.551608
22.035218142190818	4.2291474	2.056489
22.05307427040661	2.0533872	1.4329644
22.07093094082315	2.0136416	1.4190284
22.088788153923474	1.9933443	1.4118584
22.106645910190746	2.0179994	1.4205631
22.12450421010827	2.0272758	1.4238243
22.142363054159464	1.9968113	1.4130857
22.16022244282787	1.9618562	1.4006628
22.178082376597164	1.9864132	1.4094018
22.195942855951145	2.026468	1.4235407
22.213803881373742	2.052355	1.4326043
22.231665453349002	2.027646	1.4239544
22.24952757236111	1.9975128	1.4133339
22.26739023889438	1.9793684	1.4069003
22.28525345343323	1.9587269	1.3995452
22.30311721646225	1.9523275	1.3972571
22.320981528466113	1.9643159	1.4015405
22.33884638992964	1.963279	1.4011706
22.356711801337788	1.9643743	1.4015614
22.37457776317561	1.9455683	1.3948363
22.392444275928337	1.959125	1.3996875
22.410311340081282	1.9928298	1.4116763
22.428178956119904	2.0013545	1.4146924
22.446047124529805	1.9894109	1.4104648
22.46391584579669	1.9589734	1.3996333
22.481785120406414	1.9692085	1.4032849
22.49965494884496	1.9751817	1.4054116
22.51752533159841	1.9605827	1.4002081
22.53539626915302	1.9134341	1.3832693
22.553267761995137	1.9146343	1.3837031
22.571139810611264	1.9777187	1.4063139
22.589012415488025	2.006485	1.4165045
22.60688557711216	1.9752562	1.4054381
22.624759295970566	1.917509	1.3847414
22.642633572550263	1.8725238	1.3684019
22.660508407338362	1.8728842	1.3685336
22.67838380082217	1.9041293	1.3799019
22.696259753489077	1.913875	1.3834287
22.714136265826614	1.882226	1.3719424
22.73201333832246	1.848676	1.3596603
22.74989097146439	1.8830864	1.3722559
22.76776916574035	1.9292027	1.3889574
22.785647921638393	1.9436766	1.394158
22.803527239646712	1.9282006	1.3885967
22.82140712025363	1.9295171	1.3890706
22.839287563947593	1.9175423	1.3847536
22.85716857121719	1.8949249	1.3765627
22.875050142551135	1.8909868	1.3751316
22.892932278438277	1.9229361	1.3866997
22.910814979367604	1.9469788	1.3953419
22.928698245828222	1.9431168	1.3939573
22.946582078309387	1.9406564	1.3930744
22.96446647730047	1.9559609	1.3985567
22.98235144329098	1.951094	1.3968157
23.000236976770562	1.9113991	1.3825336
23.018123078229	1.8724215	1.3683646
23.03600974815619	1.8629254	1.3648902
23.053896987042194	1.838954	1.3560804
23.071784795377173	1.8796524	1.3710041
23.08967317365145	1.9090793	1.3816943
23.10756212235546	1.9637115	1.4013249
23.125451641979787	1.9141383	1.3835238
23.143341733015134	1.9153454	1.38396
23.161232395952357	1.9046052	1.3800744
23.179123631282426	1.9205635	1.385844
23.197015439496468	1.92462	1.3873068
23.214907821085717	1.9253616	1.387574
23.23280077654157	1.9625181	1.400899
23.250694306355538	1.9798371	1.4070668
23.268588411019277	1.9892496	1.4104075
23.28648309102458	1.9751825	1.4054118
23.304378346863356	1.9820509	1.4078532
23.322274179027676	1.9903225	1.4107879
23.340170588009723	1.9749842	1.4053413
23.358067574301852	1.9459721	1.394981
23.37596513839651	1.9134992	1.3832929
23.39386328078629	1.8879851	1.3740396
23.411762001963947	1.9014908	1.3789456
23.429661302422353	1.974561	1.4051907
23.4475611826545	1.9853703	1.4090316
23.46546164315356	1.981852	1.4077827
23.48336268441279	1.9477255	1.3956094
23.501264306925638	1.9699831	1.4035609
23.51916651118564	1.947871	1.3956615
23.537069297686497	1.947256	1.3954412
23.554972666922037	1.9524062	1.3972853
23.57287661938623	1.9638059	1.4013586
23.59078115557318	1.9357301	1.3913052
23.608686275977128	1.8913264	1.375255
23.62659198109246	1.8610141	1.3641899
23.6444982714137	1.8615732	1.3643948
23.66240514743549	1.863378	1.365056
23.68031260965263	1.8840014	1.3725893
23.698220658560068	1.9185909	1.3851321
23.716129294652845	1.9598563	1.3999487
23.7340385184262	1.967755	1.402767
23.75194833037546	1.9495935	1.3962785
23.769858730996123	1.9459821	1.3949846
23.78776972078382	1.9804155	1.4072723
23.80568130023431	1.9634665	1.4012375
23.823593469843495	1.9453455	1.3947564
23.841506230107424	1.9340537	1.3907026
23.859419581522275	1.9541781	1.3979192
23.87733352458438	1.9720218	1.404287
23.89524805979019	1.9113878	1.3825295
23.913163187636318	1.8889598	1.3743943
23.931078908619508	1.929564	1.3890874
23.948995223236633	2.0059814	1.4163268
23.966912131984735	2.0203586	1.4213932
23.98482963536096	2.0556953	1.4337696
24.002747733862616	2.0227513	1.4222347
24.020666427987155	2.0204566	1.4214276
24.038585718232156	2.0025873	1.415128
24.056505605095353	2.0272262	1.4238069
24.074426089074617	2.0732362	1.4398737
24.092347170667946	2.0935411	1.4469074
24.110268850373515	2.068799	1.4383321
24.128191128689586	2.0451689	1.430094
24.146114006114626	1.9981201	1.4135487
24.164037483147187	2.012063	1.418472
24.181961560286005	2.0215623	1.4218166
24.199886238029926	2.0089655	1.4173799
24.21781151687797	1.9946414	1.4123178
24.235737397329274	2.0237243	1.4225767
24.253663879883135	2.0347788	1.4264567
24.271590965038975	2.0632133	1.436389
24.289518653296376	2.0480444	1.431099
24.30744694515505	2.007499	1.4168624
24.32537584111486	1.9747237	1.4052486
24.34330534167581	1.9945563	1.4122876
24.361235447338046	2.0263197	1.4234886
24.379166158601876	2.0120852	1.4184799
24.39709747596772	2.0453336	1.4301516
24.41502939993615	2.0332994	1.4259381
24.432961931007917	2.0006156	1.4144312
24.450895069683856	1.9820803	1.4078637
24.468828816465	1.992062	1.4114043
24.4867631718525	2.0217261	1.4218742
24.504698136347656	2.014335	1.4192727
24.52263371045192	2.0130994	1.4188373
24.540569894666874	2.018991	1.420912
24.558506689494266	2.007065	1.4167092
24.57644409543597	1.967568	1.4027003
24.594382112994012	1.9329973	1.3903228
24.61232074267057	1.9474958	1.3955271
24.630259984967953	1.9437044	1.394168
24.64819984038863	1.9414142	1.3933464
24.66614030943522	1.9523771	1.3972749
24.684081392610462	1.9826467	1.4080648
24.702023090417274	2.0075462	1.416879
24.7199654033587	1.9614487	1.4005173
24.737908331937927	1.9350773	1.3910706
24.755851876658305	2.0118103	1.418383
24.773796038023324	2.1133435	1.4537343
24.79174081653661	2.1216645	1.4565935
24.809686212701962	2.1039717	1.4505074
24.827632227023294	2.0949824	1.4474053
24.8455788600047	2.068048	1.4380709
24.8635261121504	2.0594223	1.4350687
24.88147398396475	2.0682113	1.4381278
24.899422475952303	2.0856802	1.4441885
24.917371588617698	2.1051993	1.4509305
24.935321322465768	2.159442	1.469504
24.953271678001478	2.2687197	1.506227
24.97122265572994	2.5180366	1.5868323
24.989174256156414	2.8402603	1.6853071
25.00712647978632	3.2744675	1.809549
25.02507932712521	3.803868	1.9503508
25.043032798678798	4.363575	2.0889173
25.060986894952933	5.03153	2.243107
25.078941616453637	5.769964	2.402075
25.096896963687055	6.6912694	2.5867488
25.114852937159508	7.853986	2.8024964
25.132809537377444	8.368994	2.8929212
25.150766764847468	8.416076	2.9010472
25.168724620076347	7.8119507	2.7949867
25.186683103570985	6.7589865	2.599805
25.204642215838426	5.5822372	2.362676
25.222601957385894	4.2006464	2.049548
25.24056232872074	3.1777349	1.7826202
25.25852333035048	2.5382204	1.5931793
25.276484962782778	2.2130885	1.4876453
25.294447226525435	2.0893378	1.4454542
25.312410122086423	2.004386	1.4157634
25.330373649973843	1.9172671	1.3846542
25.348337810695988	1.9190265	1.3852893
25.366302604761245	1.8858964	1.3732795
25.384268032678207	1.8410434	1.3568505
25.40223409495558	1.8519506	1.3608639
25.420200792102257	1.8959309	1.3769281
25.438168124627246	1.8755707	1.3695147
25.45613609303974	1.8803912	1.3712736
25.474104697849057	1.9092232	1.3817464
25.492073939564698	1.9492714	1.3961631
25.510043818696285	1.9167421	1.3844645
25.528014335753614	1.8631066	1.3649566
25.54598549124664	1.8139793	1.3468405
25.56395728568544	1.8210832	1.3494751
25.58192971958028	1.8457574	1.3585865
25.59990279344156	1.8903588	1.3749032
25.617876507779833	1.9217682	1.3862785
25.635850863105826	1.8793983	1.3709115
25.653825859930386	1.8673323	1.3665037
25.671801498764548	1.9008322	1.3787067
25.68977778011949	1.9092866	1.3817694
25.707754704506524	1.8617094	1.3644447
25.725732272437153	1.8024356	1.3425481
25.743710484423012	1.7874086	1.33694
25.761689340975888	1.8315023	1.3533301
25.77966884260774	1.8472939	1.3591518
25.797648989830662	1.8717058	1.368103
25.815629783156922	1.8945068	1.3764108
25.83361122309895	1.8969415	1.377295
25.85159331016929	1.8643936	1.365428
25.869576044880695	1.8899873	1.3747681
25.887559427746034	1.8850045	1.3729547
25.90554345927836	1.8553764	1.362122
25.92352813999086	1.8244538	1.3507235
25.94151347039689	1.8308125	1.3530751
25.959499451009965	1.8454075	1.3584578
25.97748608234374	1.8517156	1.3607776
25.995473364912062	1.8691206	1.3671578
26.013461299228904	1.8815017	1.3716785
26.03144988580839	1.864481	1.36546
26.04943912516483	1.8515158	1.3607042
26.067429017812675	1.8481051	1.3594503
26.085419564266537	1.8218194	1.3497479
26.103410765041186	1.8447288	1.358208
26.12140262065155	1.8315994	1.3533659
26.139395131612723	1.8112137	1.3458134
26.157388298439948	1.8208063	1.3493725
26.17538212164861	1.8593869	1.3635933
26.193376601754295	1.8753526	1.3694352
26.211371739272714	1.879263	1.3708621
26.229367534719746	1.8817726	1.3717772
26.247363988611433	1.8385401	1.3559277
26.26536110146397	1.8159323	1.3475653
26.283358873793727	1.8532559	1.3613434
26.301357306117204	1.8938892	1.3761865
26.319356398951104	1.9078057	1.3812333
26.33735615281224	1.8810562	1.371516
26.35535656821762	1.8773998	1.3701824
26.373357645684404	1.8644339	1.3654428
26.39135938572991	1.820981	1.3494374
26.409361788871614	1.7744071	1.3320688
26.427364855627165	1.7696909	1.3302972
26.445368586514352	1.8179199	1.3483026
26.46337298205115	1.8501967	1.3602194
26.48137804275568	1.865221	1.365731
26.499383769146217	1.8474972	1.3592267
26.517390161741215	1.7883434	1.3372896
26.53539722105928	1.7742025	1.3319919
26.553404947619182	1.8060348	1.3438879
26.571413341939856	1.816626	1.3478227
26.589422404540397	1.7847258	1.3359363
26.60743213594006	1.7372519	1.3180485
26.62544253665827	1.7443037	1.3207209
26.64345360721459	1.7857385	1.3363153
26.66146534812879	1.7796519	1.334036
26.679477759920758	1.7806128	1.334396
26.69749084311057	1.8132966	1.3465871
26.71550459821847	1.831555	1.3533496
26.733519025764842	1.8088326	1.3449285
26.751534126270258	1.8354148	1.3547748
26.769549900255434	1.8643615	1.3654163
26.787566348241267	1.8706379	1.3677126
26.80558347074881	1.8320109	1.353518
26.823601268299267	1.836782	1.3552793
26.841619741414036	1.8225521	1.3500193
26.85963889061465	1.8355169	1.3548125
26.877658716422832	1.8933731	1.375999
26.89567921936045	1.8657455	1.3659229
26.913700399949544	1.7995225	1.3414629
26.93172225871233	1.754836	1.3247023
26.949744796171174	1.7438539	1.3205506
26.967768012848605	1.7388606	1.3186586
26.98579190926733	1.7824569	1.3350868
27.003816485950225	1.7659658	1.3288965
27.021841743420318	1.718579	1.3109459
27.039867682200814	1.7124388	1.3086019
27.057894302815072	1.7609909	1.3270233
27.07592160578664	1.7891097	1.337576
27.0939495916392	1.795897	1.3401108
27.111978260896635	1.7916324	1.3385187
27.13000761408296	1.7450032	1.3209857
27.148037651722397	1.7850128	1.3360437
27.166068374339304	1.8265946	1.3515157
27.184099782458215	1.8324703	1.3536876
27.20213187660384	1.8099514	1.3453443
27.22016465730105	1.8171239	1.3480073
27.23819812507487	1.8254024	1.3510746
27.256232280450533	1.8484337	1.3595711
27.274267123953383	1.8866067	1.373538
27.292302656108987	1.870489	1.3676583
27.31033887744306	1.8392994	1.3562077
27.32837578848146	1.8402879	1.3565722
27.34641338975026	1.8178207	1.3482658
27.364451681775673	1.8442173	1.3580196
27.382490665084074	1.8344718	1.3544267
27.400530340202046	1.823161	1.3502448
27.41857070765629	1.7866856	1.3366696
27.436611767973726	1.8463218	1.3587942
27.454653521681404	1.860201	1.3638918
27.472695969306564	1.827974	1.3520259
27.490739111376627	1.803417	1.3429136
27.508782948419153	1.8174922	1.348144
27.526827480961902	1.8147599	1.3471302
27.54487270953279	1.8124068	1.3462566
27.562918634659898	1.764427	1.3283173
27.580965256871508	1.7348515	1.3171376
27.599012576696026	1.7639513	1.3281382
27.617060594662068	1.7983942	1.3410422
27.63510931129842	1.8132992	1.346588
27.65315872713401	1.8201454	1.3491277
27.67120884269797	1.8272892	1.3517727
27.68925965851958	1.8200094	1.3490772
27.707311175128307	1.7882283	1.3372465
27.725363393053787	1.7894359	1.337698
27.74341631282583	1.8105955	1.3455837
27.7614699349744	1.8255779	1.3511394
27.77952426002968	2.0393631	1.4280627
27.797579288521973	2.116581	1.4548475
27.815635020981784	2.5000632	1.5811588
27.83369145793979	2.5379875	1.5931063
27.85174859992682	2.4124422	1.5532038
27.869806447473923	2.2714863	1.507145
27.887865001112267	2.0124161	1.4185965
27.905924261373233	1.8786211	1.370628
27.92398422878836	1.8789477	1.3707471
27.94204490388936	1.9049209	1.3801887
27.96010628720813	1.8997327	1.3783079
27.978168379276728	1.8375511	1.355563
27.9962311806274	1.8083725	1.3447574
28.014294691792568	1.8113382	1.3458596
28.0323589133048	1.841701	1.3570929
28.050423845696887	1.8890604	1.3744309
28.068489489501758	1.943413	1.3940635
28.086555845252523	1.9217296	1.3862646
28.104622913482487	1.8664097	1.366166
28.122690694725115	1.822449	1.3499811
28.14075918951405	1.8648328	1.3655888
28.15882839838312	1.9283736	1.3886589
28.176898321866304	1.909199	1.3817377
28.1949689604978	1.8968946	1.377278
28.213040314811945	1.8861362	1.3733667
28.23111238534327	1.8819603	1.3718456
28.249185172626493	1.9182606	1.3850129
28.267258677196473	1.9285299	1.3887151
28.285332899588294	1.9232348	1.3868074
28.303407840337172	1.9371587	1.3918185
28.321483499978545	1.9216467	1.3862348
28.33955987904799	1.8794128	1.3709167
28.357636978081285	1.8677815	1.366668
28.37571479761439	1.8968954	1.3772782
28.393793338183425	1.958586	1.3994949
28.41187260032469	1.9867917	1.409536
28.429952584574686	1.9660617	1.4021633
28.448033291470065	1.9193408	1.3854028
28.46611472154769	1.9468887	1.3953096
28.484196875344566	1.9663521	1.4022667
28.502279753397914	1.9957154	1.4126979
28.52036335624511	1.9732699	1.4047313
28.538447684423716	2.0229332	1.4222986
28.556532738471482	2.0263152	1.423487
28.574618518926325	2.0188036	1.4208461
28.59270502632635	1.9936599	1.4119703
28.61079226120985	1.9779987	1.4064134
28.628880224115274	2.0190995	1.4209502
28.646968915581287	2.0340812	1.4262122
28.66505833614671	1.9821686	1.4078951
28.68314848635055	1.9649651	1.4017721
28.701239366732004	2.0254703	1.4231901
28.71933097783044	2.0593097	1.4350295
28.737423320185403	2.0990515	1.4488103
28.75551639433665	2.028419	1.4242258
28.773610200824074	2.0066862	1.4165756
28.791704740187793	2.0874686	1.4448074
28.80980001296809	2.1613288	1.4701458
28.827896019705413	2.1975906	1.4824272
28.845992760940433	2.1442974	1.464342
28.86409023721397	2.1513045	1.4667326
28.88218844906704	2.1873193	1.4789588
28.900287397040845	2.211493	1.487109
28.918387081676755	2.237386	1.4957894
28.936487503516343	2.2623622	1.5041151
28.954588663101365	2.2747514	1.508228
28.97269056097374	2.2704618	1.5068052
28.990793197675597	2.3574452	1.5353974
29.00889657374923	2.3653758	1.5379778
29.027000689737125	2.3585837	1.5357682
29.04510554618196	2.3582346	1.5356544
29.06321114362659	2.3780305	1.5420865
29.08131748261405	2.4665248	1.5705174
29.099424563687567	2.5173972	1.5866307
29.11753238739057	2.5391426	1.5934688
29.13564095426663	2.5982058	1.6118951
29.15375026485954	2.6299894	1.6217242
29.171860319713275	2.6403167	1.6249051
29.18997111937199	2.670417	1.6341411
29.20808266438002	2.744145	1.6565461
29.226194955281898	2.8224626	1.6800187
29.244307992622335	2.8658583	1.6928846
29.26242177694624	2.8421016	1.6858534
29.2805363087987	2.836046	1.6840564
29.29865158872498	2.814557	1.6776642
29.316767617270557	2.7875242	1.6695881
29.334884394981064	2.809667	1.6762061
29.353001922402367	2.9263895	1.7106693
29.37112020008047	3.0130982	1.7358278
29.389239228561596	3.0842004	1.7561891
29.407359008392152	3.2870123	1.813012
29.42547954011872	3.7011392	1.9238346
29.44360082428809	4.330484	2.0809815
29.46172286144722	5.3946967	2.3226485
29.479845652143283	6.933712	2.6331942
29.497969196923606	9.091758	3.0152543
29.516093496335728	11.736187	3.4258118
29.5342185509274	14.756534	3.8414233
29.55234436124651	17.225153	4.1503196
29.570470927841175	18.636395	4.316989
29.588598251259686	18.31375	4.2794566
29.60672633205055	16.928108	4.1143785
29.624855170762405	14.662301	3.8291385
29.642984767944146	11.743655	3.4269016
29.66111512414481	8.961677	2.9936059
29.67924623991366	6.7120976	2.5907717
29.697378115800138	5.0804067	2.2539756
29.71551075235387	4.1128545	2.0280173
29.733644150124675	3.7149534	1.9274215
29.751778309662576	3.5254996	1.8776314
29.769913231517766	3.4994087	1.8706707
29.78804891624066	3.5433812	1.8823872
29.806185364381818	3.4156685	1.8481528
29.82432257649206	3.3279877	1.8242773
29.842460553122333	3.3268135	1.8239554
29.86059929482382	3.3094556	1.819191
29.878738802147872	3.2879102	1.8132596
29.896879075646048	3.232397	1.7978868
29.915020115870114	3.2277024	1.7965808
29.933161923371976	3.2776072	1.8104163
29.951304498703777	3.280629	1.8112507
29.969447842417857	3.2416997	1.800472
29.987591955066733	3.3253562	1.823556
30.005736837203123	3.32226	1.8227067
30.023882489379943	3.317739	1.8214662
30.04202891215028	3.3115976	1.8197795
30.060176106067455	3.2565925	1.8046031
30.078324071684946	3.2805352	1.8112248
30.09647280955646	3.2216454	1.7948942
30.114622320235863	3.19687	1.7879794
30.132772604277257	3.2222385	1.7950594
30.1509236622349	3.2727306	1.809069
30.16907549466328	3.1480663	1.7742791
30.18722810211705	3.0311735	1.7410265
30.205381485151097	2.978288	1.7257717
30.22353564432045	3.0263908	1.7396525
30.241690580180403	3.0167851	1.7368895
30.25984629328638	2.9487646	1.7171967
30.278002784194037	2.9936752	1.730224
30.296160053459246	2.995309	1.7306961
30.314318101638033	3.0040913	1.7332314
30.332476929286646	2.9979396	1.7314559
30.35063653696153	2.9665928	1.7223799
30.368796925219307	2.9654615	1.7220515
30.386958094616844	2.9409165	1.71491
30.40512004571115	2.8992002	1.7027038
30.423282779059463	2.812271	1.6769828
30.441446295219233	2.8209598	1.6795713
30.459610594748067	2.8913553	1.7003986
30.47777567820382	2.863225	1.6921067
30.495941546144504	2.8508623	1.6884496
30.51410819912835	2.7956376	1.672016
30.532275637713795	2.7282083	1.6517289
30.55044386245946	2.8452678	1.6867921
30.56861287392416	2.8663046	1.6930164
30.586782672666956	2.8271475	1.6814123
30.604953259247047	2.828825	1.6819111
30.623124634223885	2.8060918	1.6751393
30.641296798157075	2.7832117	1.6682961
30.659469751606462	2.7627168	1.6621423
30.677643495132074	2.708322	1.6456981
30.695818029294152	2.6830413	1.6379992
30.713993354653116	2.732028	1.6528847
30.73216947176962	2.7183762	1.6487498
30.75034638120448	2.7283404	1.6517689
30.768524083518756	2.6885502	1.6396799
30.786702579273673	2.6787803	1.636698
30.80488186903069	2.7655017	1.6629797
30.82306195335144	2.8686714	1.6937152
30.841242832797782	3.1226606	1.7671051
30.85942450793176	3.425704	1.8508657
30.877606979315637	3.7095914	1.9260299
30.895790247511883	4.0627313	2.015622
30.913974313083134	4.534203	2.1293669
30.932159176592283	4.9517717	2.2252576
30.95034483860237	5.1140037	2.2614162
30.968531299676698	4.8553996	2.2034972
30.98671856037873	4.4142094	2.101002
31.00490662127215	4.0214443	2.005354
31.023095482920848	3.5682378	1.888978
31.04128514588892	3.0826004	1.7557336
31.059475610740662	2.666111	1.632823
31.07766687804056	2.4032438	1.5502399
31.09585894835335	2.3765273	1.5415989
31.11405182224393	2.4140558	1.5537232
31.132245500277417	2.4391248	1.5617697
31.15043998301914	2.449589	1.5651163
31.168635271034628	2.4548924	1.5668097
31.18683136488964	2.4721968	1.5723221
31.20502826515008	2.4701917	1.5716844
31.223225972382135	2.4545293	1.5666938
31.241424487152155	2.4379354	1.561389
31.259623810026692	2.3843977	1.5441495
31.27782394157253	2.2949104	1.5148962
31.296024882356644	2.307268	1.5189693
31.314226632946237	2.399167	1.5489244
31.332429193908684	2.5360942	1.5925119
31.350632565811598	2.6350486	1.6232833
31.368836749222787	2.5410616	1.5940708
31.387041744710295	2.4697537	1.571545
31.40524755284232	2.5146744	1.5857725
31.423454174187317	2.5658445	1.6018254
31.441661609313922	2.5116558	1.5848204
31.459869858791002	2.4376895	1.5613102
31.478078923187628	2.354677	1.5344957
31.496288803073064	2.419935	1.555614
31.514499499016807	2.5069094	1.5833223
31.532711011588546	2.490715	1.5782
31.550923341358178	2.4161098	1.5543841
31.56913648889584	2.4101703	1.5524724
31.587350454771844	2.3516345	1.533504
31.605565239556732	2.3389037	1.5293474
31.62378084382127	2.311787	1.5204562
31.641997268136382	2.2881446	1.5126615
31.660214513073274	2.339419	1.5295159
31.67843257920331	2.3293672	1.5262264
31.6966514670981	2.259583	1.503191
31.71487117732944	2.204487	1.4847516
31.733091710469346	2.212629	1.4874909
31.751313067090052	2.2562153	1.5020703
31.769535247764008	2.2606535	1.503547
31.787758253063878	2.2671282	1.5056986
31.805982083562526	2.2543285	1.5014422
31.824206739833024	2.253933	1.5013105
31.84243222244869	2.2353141	1.4950967
31.860658531983013	2.1844754	1.4779971
31.878885669009737	2.2247624	1.4915638
31.897113634102784	2.2936668	1.5144857
31.91534242783632	2.278253	1.5093883
31.933572050784694	2.1983893	1.4826967
31.951802503522508	2.129812	1.4593875
31.970033786624548	2.1410038	1.4632169
31.988265900665834	2.2140522	1.4879692
32.006498846221575	2.3143375	1.5212947
32.02473262386724	2.3446393	1.5312215
32.04296723417845	2.2723527	1.5074325
32.0612026777311	2.203662	1.4844736
32.07943895510129	2.144268	1.464332
32.097676066865304	2.1406841	1.4631077
32.115914013599685	2.17156	1.4736214
32.13415279588115	2.1865685	1.478705
32.152392414286666	2.219399	1.4897647
32.1706328693934	2.191282	1.4802979
32.18887416177875	2.0829473	1.443242
32.20711629202032	1.989027	1.4103287
32.225359260695924	2.0810425	1.4425819
32.243603068383614	2.1590772	1.4693799
32.26184771566166	2.1353996	1.4613006
32.28009320310852	2.088295	1.4450934
32.2983395313029	2.0832438	1.4433447
32.31658670082372	2.0580754	1.4345994
32.33483471225012	2.104261	1.4506071
32.35308356616143	2.0889776	1.4453295
32.371333263137245	2.0304642	1.4249436
32.38958380375734	2.0553834	1.4336609
32.407835188601744	2.1772861	1.475563
32.42608741825067	2.1801817	1.4765439
32.444340493284585	2.1302798	1.4595478
32.46259441428416	2.0681596	1.4381098
32.48084918183028	2.044143	1.4297353
32.49910479650405	2.0684369	1.4382061
32.51736125888683	2.0324407	1.4256369
32.53561856956014	1.9770045	1.40606
32.5538767291058	1.998314	1.4136174
32.572135738105764	2.0450666	1.4300582
32.59039559714228	2.0541103	1.4332168
32.608656306797776	2.085013	1.4439573
32.62691786765491	2.1067457	1.4514633
32.645180280296586	2.1115937	1.4531324
32.663443545305896	2.0984268	1.4485948
32.68170766326619	2.0782506	1.4416139
32.69997263476099	2.0429196	1.4293073
32.7182384603741	2.0257268	1.4232802
32.7365051406895	1.9932133	1.4118121
32.75477267629144	1.9526104	1.3973583
32.77304106776434	1.9722877	1.4043816
32.79131031569289	2.0404017	1.4284263
32.809580420661966	2.069612	1.4386146
32.827851383256714	2.0686634	1.4382849
32.84612320406245	2.0501018	1.4318177
32.86439588366476	2.0908606	1.4459808
32.88266942264945	2.055573	1.4337269
32.9009438216025	2.0766091	1.4410444
32.9192190811102	1.9895499	1.410514
32.937495201758985	2.0111525	1.4181511
32.95577218413556	2.0312655	1.4252247
32.974050028826866	2.0324244	1.4256313
32.992328736420035	1.951359	1.3969105
33.010608307502444	1.8363202	1.3551089
33.02888874266169	1.792848	1.3389727
33.047170042485604	1.9861047	1.4092922
33.06545220756225	2.0016673	1.4148029
33.083735238479896	1.9226185	1.3865852
33.10201913582707	1.9077269	1.3812048
33.12030390019248	1.9290066	1.3888868
33.138589532165135	1.9094748	1.3818375
33.15687603233419	1.9475073	1.3955312
33.17516340128909	1.9506788	1.396667
33.19345163961947	1.9665327	1.4023311
33.211740747915215	1.9914452	1.4111857
33.23003072676643	1.9895804	1.4105248
33.248321576763466	2.0651329	1.437057
33.266613298496885	2.07111	1.4391352
33.28490589255747	2.08537	1.4440811
33.30319935953626	2.0554278	1.4336764
33.32149370002451	1.9794289	1.4069217
33.339788914613706	1.9068222	1.3808774
33.358085003895575	1.8760085	1.3696746
33.376381968462034	1.910487	1.3822037
33.39467980890529	1.9426082	1.3937749
33.41297852581774	1.8672332	1.3664674
33.43127811979204	1.8165097	1.3477795
33.44957859142105	1.7831743	1.3353555
33.467879941297866	1.8236095	1.3504108
33.486182170015844	1.9343637	1.3908141
33.50448527816853	1.9171122	1.3845983
33.522789266349754	1.8535568	1.3614539
33.541094135153514	1.8682902	1.3668541
33.55939988517411	1.8910731	1.375163
33.57770651700602	1.8973585	1.3774464
33.59601403124398	1.8948095	1.3765208
33.61432242848296	1.9387583	1.392393
33.632631709318154	1.959682	1.3998864
33.650941874344994	1.9489996	1.3960658
33.66925292415916	1.8511914	1.360585
33.68756485935654	1.8947548	1.376501
33.70587768053328	1.889171	1.3744712
33.724191388285746	1.90955	1.3818647
33.74250598321054	1.9076583	1.38118
33.760821465904506	1.8678558	1.3666952
33.77913783696474	1.8590364	1.3634648
33.79745509698852	1.9734308	1.4047885
33.815773246573414	2.0179183	1.4205345
33.8340922863172	2.0309396	1.4251103
33.852412216817896	2.010787	1.4180223
33.87073303867377	1.8830845	1.3722553
33.889054752483304	1.8569887	1.3627137
33.907377358845245	1.8704557	1.3676461
33.92570085835853	1.8686842	1.3669982
33.94402525162239	1.9034762	1.3796653
33.96235053923627	1.9390649	1.3925031
33.980676721799824	1.8514937	1.3606961
33.999003799912984	1.912878	1.3830683
34.01733177417592	1.9671854	1.4025638
34.03566064518901	1.9245613	1.3872856
34.0539904135529	1.8544654	1.3617876
34.07232107986846	1.9545808	1.3980632
34.090652644736785	2.018999	1.4209149
34.108985108759235	1.9751018	1.4053831
34.12731847253742	1.9454937	1.3948096
34.14565273667313	1.9120748	1.3827779
34.16398790176847	1.9293121	1.3889968
34.18232396842574	1.937685	1.3920076
34.20066093724749	1.7654111	1.3286878
34.21899880883651	1.7077118	1.3067945
34.23733758379583	1.7339085	1.3167796
34.25567726272874	1.723146	1.3126866
34.27401784623872	1.7990505	1.3412869
34.29235933492957	1.9348284	1.3909811
34.31070172940526	1.9564788	1.3987418
34.32904503027003	1.9385859	1.3923311
34.347389238128386	1.8659765	1.3660074
34.36573435358502	1.956182	1.3986357
34.38408037724492	1.9487121	1.3959628
34.402427309713296	1.9924082	1.4115269
34.42077515159559	2.072283	1.4395427
34.43912390349752	2.1260068	1.4580833
34.45747356602499	2.1912937	1.4803019
34.47582413978423	2.1750937	1.4748199
34.49417562538163	2.0151563	1.419562
34.51252802342388	1.8653163	1.3657658
34.53088133451789	1.8238825	1.3505119
34.54923555927084	1.8080553	1.3446394
34.567590698290104	1.9196072	1.3854989
34.58594675218336	2.0348568	1.4264841
34.6043037215585	2.0452073	1.4301075
34.62266160702365	2.0673504	1.4378283
34.641020409187234	1.9901241	1.4107176
34.65938012865785	1.9795463	1.4069635
34.677740766044394	2.0283296	1.4241943
34.69610232195598	2.0226712	1.4222065
34.714464797002016	1.9547452	1.3981221
34.73282819179208	2.0087466	1.4173026
34.751192506936064	2.0370693	1.4272593
34.76955774304408	1.9421121	1.3935968
34.7879239007265	2.0221467	1.4220221
34.80629098059391	2.078258	1.4416164
34.824658983257194	1.932298	1.3900712
34.843027909327446	1.9725966	1.4044915
34.86139775941603	2.0501196	1.4318238
34.879768534134534	2.0431385	1.429384
34.89814023409483	1.9306862	1.3894913
34.91651285990901	1.9535675	1.3977008
34.93488641218944	1.983848	1.4084914
34.95326089154871	2.0604613	1.4354306
34.97163629859967	1.9253132	1.3875566
34.99001263395542	1.9362866	1.3915051
35.00838989822934	2.0434058	1.4294775
35.02676809203499	2.043512	1.4295146
35.04514721598624	1.9009521	1.3787502
35.063527270697215	1.8960015	1.3769537
35.081908256782256	1.9848475	1.4088461
35.10029017485597	1.9566342	1.3987974
35.11867302553321	1.8004915	1.3418239
35.137056809429104	1.7645073	1.3283476
35.155441527159006	1.7301944	1.3153685
35.173827179338524	1.5666621	1.2516637
35.19221376658354	1.7468764	1.3216945
35.21060128951017	2.024337	1.422792
35.2289897487348	2.0083408	1.4171594
35.24737914487405	1.79309	1.339063
35.26576947854479	1.6985619	1.3032889
35.28416075036418	1.9087325	1.3815689
35.30255296094958	1.9411548	1.3932533
35.32094611091867	1.9006624	1.3786452
35.33934020088932	1.8980322	1.3776909
35.35773523147969	1.8877037	1.3739372
35.3761312033082	2.114518	1.4541382
35.394528116993506	2.3530133	1.5339534
35.41292597315452	2.227295	1.4924124
35.431324772410434	1.8682473	1.3668385
35.449724515380666	1.8201232	1.3491194
35.46812520268491	1.8327792	1.3538017
35.486526834943106	1.7954088	1.3399286
35.504929412775454	1.9670852	1.4025282
35.52333293680242	2.0936098	1.4469311
35.54173740764471	2.1598523	1.4696436
35.560142825923286	2.4189668	1.5553027
35.5785491922594	2.4676673	1.5708811
35.59695650727454	2.5365646	1.5926596
35.61536477159042	2.2811265	1.5103399
