0.008763373481513119	0.0	0.0
0.026290120649546365	0.0	0.0
0.043816868432600686	0.0	0.0
0.06134361724069026	0.0	0.0
0.07887036748382949	0.0	0.0
0.0963971195720331	0.028871369	0.16991577
0.11392387391531617	0.05057437	0.22488746
0.1314506309236943	0.081979215	0.28632012
0.1489773910071836	0.09597349	0.3097959
0.16650415457580078	0.17973307	0.42394936
0.18403092203956356	0.20786867	0.45592615
0.20155769380849	0.20795262	0.4560182
0.2190844702925996	0.24560097	0.49558145
0.2366112519019124	0.22404301	0.4733318
0.2541380390464497	0.17269559	0.4155666
0.27166483213623416	0.13664173	0.3696508
0.28919163158128947	0.1270768	0.35647833
0.3067184377916406	0.1776445	0.42147896
0.324245251177314	0.18014331	0.42443293
0.34177207214833777	0.17598952	0.41951105
0.3592989011147415	0.17343417	0.4164543
0.37682573848655654	0.15316181	0.3913589
0.39435258467381573	0.18119316	0.42566788
0.41187944008655414	0.20252043	0.4500227
0.42940630513480854	0.21689412	0.46571892
0.446933180228618	0.21931368	0.46830937
0.4644600657780234	0.23032819	0.4799252
0.48198696219306775	0.20728919	0.45529023
0.49951386988379676	0.2329045	0.4826018
0.5170407892602581	0.21246727	0.46094173
0.5345677207325025	0.2048022	0.45255077
0.5520946647105822	0.18676817	0.43216684
0.5696216216045534	0.16925977	0.4114119
0.5871485918244737	0.16614127	0.4076043
0.6046755757804043	0.1156603	0.34008867
0.6222025738824094	0.1587712	0.39846104
0.6397295865405557	0.1862997	0.43162447
0.6572566141649129	0.19325927	0.43961263
0.6747836571655547	0.17781699	0.42168352
0.6923107159525568	0.1680472	0.40993562
0.7098377909359992	0.17473288	0.41801062
0.7273648825259653	0.15559302	0.3944528
0.7448919911325411	0.124112755	0.3522964
0.762419117165817	0.11713914	0.34225595
0.7799462610358868	0.15595876	0.39491615
0.7974734231528482	0.17570756	0.41917485
0.8150006039268024	0.20058349	0.4478655
0.8325278037678551	0.18614829	0.43144906
0.8500550230861152	0.20607919	0.45395947
0.8675822622916969	0.19849768	0.4455308
0.8851095217947171	0.19532576	0.44195673
0.9026368020052984	0.20804715	0.45612186
0.9201641033335665	0.19634856	0.44311237
0.9376914261896523	0.20531322	0.45311502
0.9552187709836915	0.2210621	0.4701724
0.9727461381258234	0.24162911	0.49155784
0.990273528026193	0.24037051	0.49027595
1.0078009410949496	0.22885498	0.4783879
1.0253283777422473	0.22677532	0.4762093
1.0428558383782454	0.21305066	0.4615741
1.0603833234131086	0.24048764	0.4903954
1.0779108332570058	0.28561598	0.5344305
1.0954383683201119	0.31241074	0.55893713
1.112965929012607	0.38133755	0.61752534
1.1304935157446763	0.48156703	0.6939503
1.1480211289265108	0.49287587	0.70205116
1.1655487689683062	1.208716	1.0994163
1.1830764362802655	1.4755564	1.2147248
1.200604131272596	1.9044682	1.3800247
1.2181318543555117	2.258029	1.502674
1.235659605939232	2.2851298	1.5116646
1.253187386433982	3.8029134	1.950106
1.270715196249994	6.265057	2.5030096
1.2882430357975057	11.526293	3.3950396
1.3057709054867608	16.165869	4.02068
1.3232988057280106	21.685776	4.656799
1.3408267369315112	26.595736	5.1571054
1.358354699507526	30.175917	5.493261
1.3758826938663256	34.201942	5.8482428
1.3934107204181858	36.463734	6.038521
1.410938779573391	37.09561	6.0906167
1.4284668717422309	37.955223	6.160781
1.4459949973350033	37.858982	6.1529655
1.4635231567620117	38.06996	6.170086
1.4810513504335687	36.921345	6.0762935
1.4985795787599925	35.78929	5.982415
1.5161078421516088	34.78673	5.898028
1.5336361410187505	34.058647	5.8359785
1.5511644757717598	34.11395	5.840715
1.5686928468209842	34.536713	5.8767943
1.58622125457678	35.126644	5.9267735
1.6037496994495108	36.545807	6.045313
1.621278181849548	36.683517	6.056692
1.6388067021872719	37.56154	6.128747
1.6563352608730693	36.96368	6.0797763
1.673863858317336	36.102505	6.008536
1.6913924949304753	35.23658	5.936041
1.7089211711228998	33.93186	5.825106
1.7264498873050296	32.880352	5.734139
1.7439786438872935	32.055775	5.661782
1.7615074412801288	31.3722	5.601089
1.779036279893981	30.77857	5.547844
1.796565160139305	29.858332	5.4642777
1.814094082426564	29.399202	5.422103
1.8316230471662298	28.709064	5.358084
1.849152054768784	27.59595	5.253185
1.8666811056447168	26.633114	5.160728
1.8842102002045273	25.89904	5.08911
1.901739338858724	25.692753	5.068802
1.9192685220178245	25.285192	5.0284386
1.9367977500923557	24.818262	4.981793
1.9543270234928547	24.162714	4.9155583
1.971856342629867	23.490265	4.846676
1.9893857079139496	22.800556	4.774993
2.006915119755667	22.406446	4.733545
2.0244445785655945	21.892399	4.678931
2.0419740847543175	21.423447	4.6285467
2.0595036387324317	21.009636	4.5836267
2.0770332409105414	20.5904	4.537665
2.094562891699263	20.512486	4.5290713
2.1120925915092217	20.138845	4.4876323
2.129622340751053	19.785355	4.448073
2.1471521398354043	187.68881	13.699957
2.1646819891729323	443.71783	21.064611
2.182211889174303	439.81213	20.971699
2.1997418402501974	452.46628	21.271255
2.2172718428113023	432.69522	20.801327
2.234801897268317	320.72073	17.908678
2.2523320040319548	17.042149	4.128214
2.269862163512935	16.602924	4.0746684
2.287392376121992	16.173359	4.0216117
2.304922642269869	15.923764	3.9904592
2.322452962367322	15.839192	3.9798484
2.3399833368251164	15.568445	3.9456868
2.357513766054032	15.295686	3.91097
2.3750442504648586	14.842481	3.852594
2.3925747904683963	14.5033655	3.8083284
2.410105386475459	14.326167	3.7849925
2.4276360388968707	13.942963	3.7340276
2.445166748143469	13.793498	3.71396
2.4626975146261025	13.51303	3.6760073
2.4802283387556323	13.238505	3.6384757
2.4977592209429305	13.176488	3.6299431
2.5152901615988825	13.007159	3.606544
2.5328211611343865	12.96732	3.6010165
2.5503522199603523	12.70909	3.564981
2.5678833384877024	12.3933735	3.5204225
2.5854145171273712	12.077243	3.4752328
2.6029457562903064	11.747102	3.4274046
2.620477056387469	11.53631	3.3965144
2.6380084178298326	11.48812	3.3894129
2.655539841028383	11.367161	3.371522
2.673071326394119	11.209354	3.3480375
2.6906028743380523	10.998585	3.3164115
2.708134485271211	10.778697	3.2830925
2.7256661596046325	10.591278	3.2544243
2.743197897749369	10.355196	3.2179492
2.760729700116486	10.239986	3.199998
2.778261567117063	10.034477	3.1677244
2.795793499162193	9.946974	3.1538823
2.8133254966629817	9.772024	3.1260238
2.830857560030551	9.699913	3.1144683
2.8483896896760337	9.675418	3.1105335
2.865921886010578	9.545889	3.0896423
2.883454149445347	9.410856	3.0677118
2.9009864803915177	9.1789465	3.0296776
2.91851887926028	8.989509	2.998251
2.9360513464628384	8.823696	2.9704707
2.953583882410413	8.864974	2.9774106
2.9711164875142373	8.830933	2.9716885
2.9886491621855606	8.776946	2.9625912
3.0061819068356455	8.554025	2.9247265
3.023714721875769	8.486045	2.9130816
3.041247607717225	8.4072485	2.8995256
3.0587805647713213	8.224675	2.8678694
3.0763135934493806	8.017316	2.8314865
3.0938466941627407	7.8765817	2.8065248
3.1113798673227544	7.8047447	2.7936974
3.1289131133407904	7.780886	2.789424
3.1464464326282315	7.6617727	2.7679908
3.1639798255964786	7.5323615	2.7445147
3.1815132926569443	7.397087	2.7197587
3.1990468342210603	7.343494	2.7098882
3.216580450700272	7.3028326	2.7023754
3.2341141425060416	7.2389984	2.6905386
3.251647910049847	7.1840854	2.6803143
3.2691817537431813	7.15765	2.6753786
3.286715673997555	7.281894	2.6984985
3.3042496712244938	7.2733197	2.6969092
3.32178374583554	7.189555	2.6813345
3.339317898242251	6.945111	2.6353579
3.3568521288562034	6.795928	2.6069
3.3743864380889876	6.7657347	2.6011026
3.3919208263522127	6.728067	2.5938518
3.4094552940575023	6.6465745	2.5780952
3.4269898416164972	6.569574	2.563118
3.444524469440858	6.437052	2.5371346
3.4620591779422587	6.365139	2.5229228
3.479593967532391	6.401414	2.5301015
3.4971288386229658	6.3023624	2.5104506
3.5146637916257086	6.288136	2.5076156
3.5321988269523628	6.319088	2.5137796
3.5497339450146903	6.3141727	2.512802
3.5672691462244708	6.3381357	2.5175655
3.5848044309934988	6.251065	2.500213
3.60233979973359	6.1225624	2.4743812
3.619875252856575	6.0794415	2.4656525
3.6374107907743034	6.09551	2.4689085
3.6549464138986427	6.1648397	2.4829094
3.6724821226414788	6.1823454	2.4864323
3.690017917414714	6.1302567	2.4759355
3.7075537986302702	6.0555167	2.4607959
3.7250897667000857	6.135584	2.477011
3.7426258220361235	6.3454328	2.5190144
3.7601619650503553	6.690952	2.5866873
3.777698196154779	7.184401	2.6803732
3.7952345157614067	8.236857	2.8699925
3.8127709242822716	9.009563	3.0015936
3.830307422129425	11.289746	3.3600218
3.847844009714936	12.760727	3.572216
3.8653806874508954	16.231375	4.028818
3.882917455749409	15.812798	3.9765308
3.900454315022606	15.825604	3.9781408
3.917991265682631	12.716121	3.565967
3.9355283081416506	10.742488	3.2775736
3.9530654428118495	8.596704	2.9320135
3.970602670105433	7.3495383	2.7110033
3.9881399904346244	6.5679364	2.5627985
4.005677404211669	6.4830866	2.5461905
4.023214911848827	6.34615	2.5191567
4.0407525137583855	6.3776517	2.5254014
4.058290210352644	6.2937427	2.5087333
4.075828002043927	6.237187	2.497436
4.0933658892445814	6.1540694	2.4807396
4.110903872366966	6.0861425	2.4670107
4.128441951823468	6.073627	2.464473
4.145980128026488	6.03285	2.456186
4.163518401388452	5.9136324	2.431796
4.181056772321807	5.902802	2.4295683
4.1985952412390155	5.9140253	2.431877
4.216133808552567	6.005524	2.450617
4.233672474674966	6.1757183	2.4850993
4.251211240018741	6.3170524	2.5133748
4.268750104996445	6.498824	2.5492792
4.286289070020643	7.46278	2.731809
4.303828135503928	9.205692	3.0340884
4.3213673018589125	29.518753	5.4331164
4.3389065694982305	90.66287	9.521706
4.356445938834537	165.72911	12.873582
4.3739854102805085	171.08948	13.080117
4.391524984248844	172.04114	13.116446
4.409064661152262	136.21329	11.671045
4.426604441403504	96.82015	9.839724
4.444144325415337	76.06712	8.721647
4.461684313600543	21.88272	4.677897
4.47922440637193	22.16251	4.7077074
4.496764604142329	20.221325	4.496813
4.5143049073245916	18.284176	4.276
4.531845316331589	16.21132	4.0263286
4.5493858315762195	13.316066	3.6491184
4.566926453471405	11.160612	3.3407502
4.584467182430081	9.023576	3.0039268
4.602008018865218	7.9350567	2.8169234
4.619548963189798	7.2470164	2.6920283
4.637090015816834	6.9274073	2.6319969
4.654631177159353	6.756275	2.5992837
4.672172447630417	6.5003276	2.549574
4.689713827643102	6.3208036	2.5141208
4.7072553176105085	5.999348	2.4493568
4.724796917945764	5.813834	2.4111893
4.742338629062015	5.7418666	2.3962193
4.759880451372434	5.720359	2.3917272
4.777422385290215	5.706776	2.388886
4.794964431228581	5.6041803	2.367315
4.812506589600768	5.5400944	2.3537405
4.830048860820047	5.448596	2.3342228
4.847591245299709	5.447104	2.333903
4.8651337434530655	5.4808893	2.34113
4.882676355693457	5.5212994	2.3497446
4.900219082434242	5.519649	2.3493934
4.917761924088813	5.4567914	2.3359776
4.935304881070575	5.453414	2.3352547
4.952847953792969	5.509054	2.3471375
4.970391142669449	5.52871	2.351321
4.9879344481135055	5.519114	2.3492794
5.005477870538642	5.4267106	2.3295302
5.023021410358394	5.331849	2.3090796
5.040565067986324	5.273236	2.2963526
5.05810884383601	5.258039	2.2930415
5.075652738321066	5.1869206	2.2774813
5.09319675185512	5.235483	2.288118
5.110740884851836	5.3141146	2.3052363
5.128285137724894	5.3988976	2.3235528
5.145829510888007	5.3745694	2.3183117
5.163374004754908	5.2840943	2.2987158
5.1809186197393595	5.258009	2.2930348
5.198463356255145	5.2681117	2.2952368
5.216008214716077	5.2195	2.2846224
5.233553195535998	5.1701365	2.2737935
5.251098299128764	5.1272244	2.2643375
5.268643525908272	5.0747814	2.2527275
5.286188876288432	5.0827847	2.2545033
5.3037343506831895	5.1388288	2.2668984
5.32127994950651	5.1584444	2.271221
5.3388256731723915	5.215057	2.28365
5.356371522094851	5.1640615	2.2724571
5.373917496687938	5.070004	2.251667
5.391463597365729	5.011996	2.2387488
5.40900982454232	4.918922	2.2178643
5.426556178631843	4.946855	2.2241526
5.444102660048449	5.02004	2.2405446
5.4616492692063225	5.0188737	2.2402842
5.479196006519669	5.063451	2.2502112
5.496742872402727	5.0446024	2.2460191
5.514289867269756	5.0796304	2.2538035
5.531836991535049	5.069958	2.2516568
5.549384245612924	5.0815206	2.2542229
5.566931629917724	5.0987816	2.2580483
5.584479144863822	5.1205616	2.2628658
5.6020267908656205	5.0976663	2.2578013
5.619574568337545	5.1300488	2.264961
5.637122477694054	5.1545863	2.2703714
5.654670519349629	5.1349216	2.2660365
5.672218693718784	5.0702505	2.2517216
5.689767001216059	5.0341797	2.243698
5.707315442256021	5.016031	2.2396498
5.724864017253266	5.030919	2.242971
5.7424127266224225	5.1107817	2.2607038
5.75996157077814	5.1223755	2.2632666
5.777510550135105	5.1074653	2.2599702
5.795059665108022	5.0630517	2.2501225
5.812608916111639	5.02689	2.2420726
5.830158303560715	5.1738415	2.274608
5.847707827870055	5.204332	2.2813005
5.86525748945448	5.3450418	2.3119347
5.8828072887288485	5.4201565	2.3281229
5.900357226108044	5.469665	2.3387315
5.917907302006979	5.5318036	2.3519785
5.9354575168406	6.0815783	2.4660857
5.9530078710238765	6.6791644	2.584408
5.970558364971812	7.285561	2.6991777
5.988108999099438	7.6133432	2.7592287
6.005659773821818	8.132117	2.8516867
6.023210689554039	7.835702	2.7992325
6.040761746711227	8.158427	2.856296
6.058312945708531	7.547625	2.7472942
6.075864286961132	7.161928	2.676178
6.093415770884244	6.596023	2.5682724
6.1109673978931065	6.084982	2.4667757
6.128519168402993	5.5216103	2.3498106
6.146071082829204	5.37736	2.3189135
6.163623141587075	5.1982775	2.279973
6.181175345091969	5.0945644	2.2571142
6.198727693759281	4.9996243	2.2359838
6.216280188004435	5.0594635	2.249325
6.233832828242885	5.0409336	2.2452023
6.251385614890126	5.1235027	2.2635155
6.268938548361669	5.17398	2.2746384
6.286491629073067	5.104057	2.259216
6.304044857439898	5.0357614	2.2440503
6.321598233877777	4.8744993	2.2078269
6.339151758802344	4.8511176	2.2025254
6.356705432629277	4.855461	2.203511
6.37425925577428	4.871248	2.2070904
6.391813228653095	4.897038	2.2129252
6.409367351681486	4.9169197	2.217413
6.426921625275259	4.95014	2.224891
6.44447604985025	4.998261	2.2356791
6.46203062582232	4.9779687	2.231136
6.47958535360737	4.908819	2.2155855
6.497140233621328	4.839747	2.1999426
6.514695266280161	4.771176	2.184302
6.532250451999859	4.7971573	2.1902413
6.549805791196454	4.832133	2.1982112
6.567361284286002	4.882381	2.209611
6.584916931684597	4.9090824	2.2156448
6.602472733808367	4.9361854	2.221753
6.6200286910734665	4.995509	2.2350636
6.637584803896092	4.9601383	2.2271369
6.655141072692462	4.9202366	2.2181606
6.672697497878842	4.9325376	2.2209318
6.690254079871514	4.9423456	2.2231386
6.707810819086808	4.977036	2.2309272
6.725367715941078	4.9173255	2.2175043
6.742924770850719	4.902138	2.2140772
6.760481984232151	4.859138	2.2043452
6.778039356501836	4.863592	2.2053554
6.795596888076266	4.899267	2.2134287
6.813154579371963	4.9652357	2.2282808
6.830712430805492	4.9332194	2.2210853
6.84827044279344	4.9013767	2.2139053
6.865828615752445	4.9497437	2.224802
6.883386950099159	4.9992476	2.2358997
6.900945446250287	5.0256596	2.2417984
6.918504104622553	4.9771514	2.230953
6.936062925632727	4.942152	2.2230952
6.953621909697607	4.861742	2.2049358
6.971181057234028	4.884482	2.2100863
6.988740368658859	4.914328	2.2168283
7.006299844389007	4.999567	2.2359712
7.023859484841407	5.0918036	2.2565024
7.041419290433036	5.244288	2.290041
7.058979261580902	5.412121	2.3263965
7.0765393987020495	5.6483264	2.3766208
7.094099702213559	6.011156	2.451766
7.111660172532549	6.2926164	2.5085087
7.129220810076164	6.656055	2.5799332
7.146781615261595	7.245017	2.6916568
7.16434258850606	7.4888277	2.7365723
7.181903730226821	7.8541727	2.8025298
7.1994650408411704	7.9111576	2.812678
7.217026520766437	7.9755645	2.8241043
7.234588170419983	8.239804	2.8705058
7.252149990219215	8.269675	2.8757043
7.269711980581568	8.148873	2.854623
7.2872741419245175	7.9739943	2.823826
7.304836474665574	7.586891	2.7544312
7.322398979222286	7.3874445	2.7179854
7.339961656012233	7.178316	2.679238
7.357524505453039	6.848205	2.6169076
7.375087527962357	6.5384755	2.5570443
7.392650723957886	6.258233	2.501646
7.410214093857353	5.9118176	2.431423
7.427777638078528	5.7144217	2.3904858
7.445341357039213	5.4845023	2.3419015
7.4629052511572525	5.3101096	2.3043675
7.480469320850524	5.177542	2.2754214
7.498033566536948	5.148143	2.268952
7.5155979886344735	5.115938	2.261844
7.5331625875610975	5.1043854	2.2592888
7.550727363734844	5.151919	2.269784
7.568292317573788	5.1536756	2.270171
7.585857449496025	5.1194606	2.2626226
7.603422759919705	5.104836	2.2593884
7.620988249263007	5.081058	2.2541203
7.638553917944147	5.0958734	2.257404
7.656119766381391	5.143806	2.267996
7.673685794993023	5.17652	2.2751966
7.691252004197388	5.196586	2.2796023
7.70881839441285	5.209539	2.2824414
7.726384966057826	5.159178	2.2713823
7.743951719550762	5.1067615	2.2598145
7.761518655310149	5.1337605	2.2657802
7.779085773754511	5.1648326	2.2726269
7.796653075302419	5.256468	2.2926989
7.814220560372475	5.275388	2.296821
7.831788229383323	5.25106	2.2915192
7.8493560827536495	5.214018	2.2834225
7.866924120902174	5.1832905	2.276684
7.884492344247663	5.1944704	2.279138
7.9020607532089135	5.254285	2.2922227
7.919629348204771	5.303248	2.3028781
7.937198129654115	5.359734	2.31511
7.954767097975865	5.3651924	2.3162885
7.972336253588986	5.3165064	2.3057551
7.989905596912472	5.2567954	2.2927701
8.007475128365371	5.2559834	2.2925932
8.025044848366756	5.3239064	2.3073592
8.042614757335754	5.56998	2.3600805
8.060184855691523	5.636221	2.3740726
8.07775514385327	5.7539196	2.398733
8.095325622240228	5.7804685	2.4042604
8.112896291271687	5.8287916	2.414289
8.130467151366968	5.9295874	2.4350743
8.148038202945436	5.967637	2.4428747
8.165609446426497	5.9599347	2.4412978
8.183180882229594	5.9575577	2.440811
8.200752510774217	5.908034	2.4306448
8.218324332479893	5.916363	2.4323575
8.235896347766193	5.8467674	2.418009
8.253468557052724	5.8095446	2.4102998
8.27104096075914	5.7988057	2.408071
8.288613559305137	5.892833	2.4275157
8.306186353110448	6.035246	2.4566739
8.32375934259485	6.1633625	2.4826121
8.341332528178162	6.2329373	2.4965851
8.358905910280246	6.2727942	2.5045547
8.376479489321003	6.3028274	2.5105433
8.394053265720377	6.2929025	2.508566
8.411627239898356	6.201111	2.490203
8.42920141227497	6.120663	2.4739974
8.44677578327029	6.0663576	2.4629977
8.464350353304427	6.085927	2.466967
8.48192512279754	6.087496	2.4672852
8.499500092169827	6.1266327	2.4752035
8.51707526184153	6.1158156	2.4730175
8.534650632232934	6.165844	2.4831119
8.552226203764365	6.1056237	2.470956
8.569801976856192	6.0854936	2.4668794
8.587377951928834	6.009945	2.451519
8.60495412940274	6.0353303	2.456691
8.622530509698416	6.109896	2.4718204
8.6401070932364	6.276749	2.5053442
8.657683880437283	6.420549	2.5338802
8.675260871721695	6.500703	2.5496476
8.692838067510303	6.6807184	2.5847087
8.710415468223834	6.8219	2.6118767
8.727993074283043	7.033753	2.6521223
8.745570886108737	7.017867	2.6491258
8.763148904121765	7.080984	2.661012
8.78072712874302	7.152086	2.6743383
8.798305560393441	7.4350514	2.7267292
8.815884199494006	7.5188813	2.7420578
8.833463046465745	7.6143928	2.759419
8.851042101729728	7.645089	2.7649755
8.86862136570707	7.935699	2.8170373
8.886200838818924	8.105623	2.8470376
8.903780521486505	8.182052	2.8604286
8.921360414131055	8.31863	2.8842037
8.938940517173874	8.415236	2.9009027
8.956520831036297	8.627744	2.937302
8.97410135613971	8.880012	2.979935
8.99168209290554	9.117734	3.0195587
9.009263041755265	9.392161	3.0646634
9.026844203110405	9.639716	3.1047893
9.044425577392525	9.794996	3.129696
9.062007165023239	9.800687	3.130605
9.079588966424197	9.952763	3.1548
9.097170982017108	10.030992	3.167174
9.11475321222372	10.97749	3.3132296
9.132335657465825	11.934557	3.4546428
9.149918318165264	12.084322	3.4762511
9.167501194743924	12.671339	3.5596824
9.18508428762374	12.424836	3.524888
9.202667597226693	12.411297	3.522967
9.220251123974803	12.015459	3.4663322
9.237834868290143	11.710209	3.4220183
9.255418830594836	11.524783	3.394817
9.273003011311046	11.134994	3.3369138
9.290587410860985	10.902649	3.301916
9.308172029666911	10.367276	3.2198255
9.32575686815113	10.06072	3.1718638
9.343341926735997	8.776969	2.962595
9.360927205843916	8.586918	2.9303443
9.378512705897327	8.403259	2.8988376
9.396098427318728	8.16811	2.8579905
9.413684370530664	8.005798	2.829452
9.431270535955722	7.8207407	2.7965586
9.448856924016539	7.7412796	2.7823155
9.466443535135806	7.5877395	2.7545853
9.484030369736251	7.658706	2.7674367
9.501617428240658	7.670176	2.7695084
9.519204711071852	7.6818814	2.7716208
9.536792218652714	7.7241025	2.779227
9.55437995140617	7.762586	2.7861419
9.571967909755191	7.8042297	2.793605
9.589556094122802	7.8016505	2.7931435
9.60714450493207	7.8074656	2.7941842
9.624733142606116	7.801399	2.7930984
9.642322007568108	7.864738	2.804414
9.659911100241267	7.901333	2.810931
9.677500421048851	7.9456477	2.8188026
9.695089970414175	8.005343	2.8293715
9.712679748760609	8.090848	2.8444417
9.730269756511557	8.1764965	2.8594575
9.747859994090492	8.165623	2.8575554
9.765450461920915	8.108336	2.8475142
9.78304116042639	8.092979	2.8448162
9.800632090030527	8.142424	2.8534932
9.81822325115699	8.166119	2.8576422
9.835814644229481	8.202489	2.8639987
9.853406269671762	8.207831	2.8649313
9.870998127907646	8.204185	2.8642948
9.888590219360985	8.240424	2.8706138
9.906182544455698	8.253899	2.8729599
9.923775103615734	8.278259	2.8771963
9.941367897265108	8.271391	2.8760026
9.958960925827878	8.244432	2.871312
9.97655418972816	8.218195	2.8667395
9.994147689390106	8.244646	2.871349
10.011741425237934	8.227622	2.8683832
10.029335397695904	8.194066	2.8625278
10.04692960718833	8.111758	2.848115
10.06452405413958	8.083892	2.8432186
10.082118738974064	8.215501	2.8662696
10.099713662116246	8.248042	2.8719404
10.117308823990651	8.252016	2.8726323
10.134904225021844	8.187811	2.8614352
10.152499865634445	8.187959	2.861461
10.170095746253125	8.127385	2.850857
10.18769186730261	8.007032	2.82967
10.205288229207675	7.8959994	2.809982
10.222884832393145	7.903347	2.8112893
10.2404816772839	7.971884	2.8234525
10.258078764304868	8.044357	2.8362577
10.275676093881035	8.066912	2.840231
10.293273666437438	8.082322	2.8429425
10.310871482399158	8.059738	2.8389678
10.32846954219134	7.9656553	2.8223493
10.346067846239173	7.946103	2.8188834
10.363666394967908	7.9383254	2.8175035
10.38126518880283	8.008693	2.8299634
10.398864228169298	7.9885097	2.8263953
10.416463513492713	8.055833	2.83828
10.434063045198531	7.9888096	2.8264482
10.451662823712262	8.0369215	2.8349464
10.469262849459467	8.052477	2.8376887
10.486863122865758	8.061891	2.839347
10.504463644356806	8.067714	2.840372
10.522064414358338	8.065136	2.8399184
10.539665433296118	7.9706664	2.823237
10.557266701595987	7.8734474	2.8059664
10.574868219683818	7.783093	2.7898195
10.592469987985552	7.7137938	2.7773716
10.610072006927185	7.5892763	2.7548642
10.627674276934751	7.428606	2.7255468
10.64527679843435	7.2883625	2.6996968
10.662879571852143	7.200495	2.6833737
10.680482597614331	7.112221	2.6668746
10.698085876147173	7.01167	2.647956
10.715689407876988	6.918076	2.6302235
10.733293193230146	6.889866	2.6248555
10.750897232633072	6.810284	2.609652
10.76850152651225	6.6708136	2.5827918
10.786106075294207	6.5460615	2.5585272
10.803710879405534	6.431603	2.5360606
10.821315939272877	6.3899136	2.5278277
10.83892125532294	6.3437486	2.5186799
10.856526827982472	6.2701797	2.5040326
10.874132657678285	6.239755	2.49795
10.891738744837243	6.1666427	2.4832726
10.909345089886271	6.090635	2.4679213
10.926951693252343	5.976322	2.4446518
10.944558555362494	5.914568	2.4319885
10.96216567664381	5.837756	2.4161448
10.979773057523436	5.8292646	2.414387
10.997380698428573	5.7865634	2.4055276
11.014988599786477	5.736685	2.3951378
11.032596762024461	5.6757135	2.3823757
11.050205185569892	5.647823	2.376515
11.067813870850198	5.6606464	2.3792112
11.085422818292859	5.640301	2.3749318
11.10303202832541	5.515691	2.3485508
11.120641501375454	5.355958	2.3142943
11.138251237870636	5.265013	2.2945616
11.155861238238671	5.223575	2.285514
11.173471502907317	5.183504	2.276731
11.191082032304402	5.0871296	2.2554667
11.208692826857805	5.002651	2.2366607
11.226303886995465	4.9860454	2.2329454
11.243915213145371	4.8955593	2.2125912
11.261526805735578	4.831159	2.1979897
11.279138665194196	4.7807117	2.1864839
11.296750791949393	4.751683	2.1798356
11.314363186429393	4.71331	2.1710157
11.331975849062479	4.6413684	2.1543834
11.34958878027699	4.5906963	2.142591
11.36720198050133	4.538854	2.1304586
11.384815450163948	4.5285797	2.128046
11.402429189693366	4.5129375	2.1243675
11.420043199518153	4.4632177	2.112633
11.437657480066942	63.382996	7.961344
11.455272031768422	85.08508	9.224157
11.472886855051353	107.46824	10.366689
11.490501950344528	99.08454	9.954122
11.508117318076819	84.47687	9.19113
11.52573295867715	45.885494	6.7738833
11.543348872574514	4.2058177	2.0508091
11.560965060197946	4.11951	2.0296576
11.57858152197655	4.0969005	2.02408
11.59619825833949	4.044201	2.01102
11.613815269715985	3.982794	1.9956939
11.631432556535323	38.46121	6.20171
11.649050119226837	82.95173	9.107784
11.666667958219929	93.38111	9.66339
11.68428607394406	107.638535	10.374899
11.701904466828756	82.47134	9.081373
11.719523137303586	65.29662	8.080632
11.737142085798196	4.528675	2.1280684
11.754761312742286	3.671693	1.9161663
11.772380818565619	3.6483765	1.9100723
11.790000603698015	3.6170743	1.9018607
11.80762066856935	3.5591788	1.8865786
11.825241013609572	3.5175567	1.875515
11.842861639248683	3.4805875	1.8656332
11.860482545916748	3.4428716	1.8554977
11.878103734043883	3.4044087	1.845104
11.895725204060282	3.42763	1.851386
11.91334695639619	3.396977	1.843089
11.930968991481919	3.378356	1.8380305
11.948591309747824	3.3143222	1.820528
11.966213911624347	3.2943356	1.8150305
11.98383679754198	3.274732	1.809622
12.001459967931268	3.3003297	1.8166809
12.019083423222835	3.3174257	1.8213801
12.036707163847352	3.3238487	1.8231425
12.05433119023556	3.259353	1.8053678
12.071955502818259	3.223994	1.7955484
12.089580102026313	3.1730568	1.7813076
12.107204988290643	3.1813824	1.783643
12.12483016204224	3.1751626	1.7818986
12.142455623712152	3.17061	1.7806207
12.16008137373149	3.1497076	1.7747415
12.177707412531431	3.1239383	1.7674667
12.19533374054321	3.113969	1.7646441
12.212960358198126	3.071533	1.752579
12.230587265927545	3.0249255	1.7392312
12.248214464162889	2.9962986	1.730982
12.265841953335649	2.9874659	1.7284287
12.283469733877375	2.9562068	1.7193624
12.301097806219685	2.9318032	1.712251
12.31872617079425	2.953885	1.718687
12.336354828032825	2.9359894	1.7134728
12.353983778367205	2.9148853	1.7073035
12.371613022229262	2.862433	1.6918726
12.389242560050928	2.8562298	1.6900384
12.406872392264201	2.860593	1.6913288
12.424502519301143	2.8613594	1.6915553
12.442132941593874	2.8476095	1.6874862
12.459763659574586	2.8253305	1.680872
12.477394673675532	2.826821	1.6813153
12.49502598432903	2.812395	1.6770197
12.51265759196746	2.8235555	1.6803439
12.530289497023267	2.7836802	1.6684364
12.547921699928967	2.7949026	1.6717962
12.565554201117134	2.7620397	1.6619385
12.583187001020404	2.7620485	1.6619412
12.600820100071486	2.7739794	1.6655267
12.618453498703152	2.789505	1.6701812
12.636087197348235	2.7810647	1.6676525
12.65372119643964	2.7619452	1.6619102
12.671355496410326	2.755708	1.6600325
12.68899009769333	2.7751157	1.6658678
12.706625000721749	2.783998	1.6685317
12.724260205928752	2.8537357	1.6893003
12.741895713747551	2.9423685	1.7153333
12.759531524611454	2.981572	1.7267228
12.777167638953818	2.9707072	1.7235739
12.794804057208072	2.943378	1.7156276
12.812440779807702	3.0226445	1.7385755
12.830077807186271	3.1975284	1.7881634
12.847715139777405	3.2340555	1.798348
12.865352778014795	3.4246469	1.8505801
12.882990722332197	3.525126	1.8775319
12.90062897316344	3.6058502	1.8989077
12.918267530942412	3.6559925	1.912065
12.935906396103071	3.5258539	1.8777257
12.953545569079449	3.6567688	1.9122679
12.971185050305628	3.5036592	1.8718064
12.988824840215775	3.518328	1.8757206
13.006464939244115	3.5159295	1.8750812
13.024105347824943	3.347198	1.8295349
13.041746066392617	3.4452326	1.8561338
13.05938709538157	3.2797017	1.8109946
13.077028435226296	3.277009	1.8102511
13.094670086361363	3.2102175	1.791708
13.112312049221401	3.1298132	1.7691278
13.129954324241112	3.1085513	1.7631084
13.147596911855258	2.912124	1.7064946
13.165239812498685	2.8586707	1.6907604
13.182883026606293	2.7749639	1.6658223
13.200526554613058	2.7314715	1.6527164
13.218170396954017	2.7140114	1.6474257
13.235814554064284	2.732951	1.6531639
13.253459026379034	2.722683	1.6500554
13.271103814333523	2.7002397	1.6432406
13.288748918363058	2.6946733	1.641546
13.306394338903031	2.6955929	1.641826
13.32404007638889	2.6651502	1.6325288
13.341686131256164	2.6659427	1.6327715
13.359332503940449	2.653734	1.6290286
13.376979194877402	2.667674	1.6333016
13.394626204502751	2.6912968	1.6405172
13.412273533252307	2.7253473	1.6508626
13.429921181561937	2.7374396	1.654521
13.447569149867581	2.7193382	1.6490417
13.465217438605247	2.692141	1.6407745
13.482866048211022	2.6727436	1.6348528
13.500514979121052	2.6752672	1.6356244
13.518164231771568	2.6191041	1.6183647
13.535813806598844	2.5931447	1.6103244
13.553463704039254	2.619363	1.6184447
13.571113924529229	2.6600657	1.6309707
13.588764468505275	2.6910086	1.6404294
13.606415336403956	2.6811938	1.6374351
13.624066528661917	2.717269	1.648414
13.641718045715882	2.7825868	1.6681087
13.659369888002635	2.864238	1.6924059
13.67702205595903	2.903218	1.7038832
13.694674550021993	2.9473636	1.7167888
13.712327370628532	2.9971864	1.7312384
13.729980518215713	3.0957332	1.7594696
13.747633993220681	3.1330004	1.7700284
13.765287796080647	3.1746285	1.7817488
13.7829419272329	3.2247348	1.7957547
13.800596387114801	3.298367	1.8161407
13.818251176163775	3.323527	1.8230543
13.835906294817324	3.3746376	1.8370187
13.853561743513023	3.379281	1.8382821
13.871217522688525	3.4299932	1.8520241
13.888873632781538	3.4555385	1.8589079
13.906530074229858	3.5056634	1.8723416
13.92418684747135	3.4796846	1.8653913
13.941843952943948	3.4466953	1.8565278
13.959501391085665	3.4115283	1.8470323
13.977159162334578	3.379748	1.8384091
13.994817267128846	3.3550632	1.8316832
14.012475705906693	3.2421417	1.8005948
14.030134479106424	3.1529355	1.7756507
14.047793587166414	3.0835216	1.7559959
14.065453030525108	3.044064	1.7447246
14.083112809621026	2.9990973	1.7317902
14.100772924892766	2.9214377	1.7092214
14.118433376778997	2.880305	1.6971462
14.136094165718458	2.8251421	1.6808159
14.153755292149969	2.7532566	1.659294
14.171416756512416	2.6827426	1.637908
14.189078559244768	2.6533887	1.6289226
14.20674070078606	2.5895016	1.6091928
14.224403181575408	2.5211856	1.5878242
14.242066002051999	2.4501576	1.565298
14.259729162655093	2.414495	1.5538645
14.277392663824022	2.3780177	1.5420822
14.295056505998208	2.3681164	1.5388685
14.312720689617128	2.3759875	1.5414239
14.330385215120348	2.3859408	1.5446491
14.348050082947497	2.385222	1.5444164
14.3657152935383	2.3809223	1.5430237
14.383380847332528	2.3928516	1.5468845
14.401046744770051	2.3668237	1.5384485
14.418712986290798	2.3535604	1.5341318
14.436379572334793	2.3127737	1.5207807
14.454046503342123	2.3598607	1.5361838
14.471713779752946	2.348685	1.532542
14.489381402007504	2.3652089	1.5379236
14.507049370546113	2.3687098	1.5390613
14.524717685809168	2.3769329	1.5417305
14.542386348237134	2.3745656	1.5409626
14.560055358270553	2.38215	1.5434215
14.577724716350051	2.4087658	1.55202
14.595394422916325	2.424621	1.5571195
14.61306447841015	2.4900784	1.5779983
14.63073488327237	2.5065382	1.583205
14.648405637943917	2.519605	1.5873263
14.6660767428658	2.5258873	1.589304
14.683748198479094	2.5396028	1.5936131
14.701420005224954	2.55599	1.5987464
14.719092163544628	2.610101	1.6155807
14.73676467387942	2.6187816	1.618265
14.754437536670727	2.6374125	1.6240113
14.772110752360014	2.6716006	1.6345031
14.78978432138882	2.686337	1.6390048
14.807458244198777	2.7060962	1.6450217
14.82513252123159	2.6547353	1.6293359
14.842807152929028	2.6741164	1.6352726
14.860482139732962	2.668019	1.6334072
14.87815748208531	2.6530068	1.6288053
14.8958331804281	2.6581364	1.6303792
14.91350923520342	2.6369698	1.6238749
14.931185646853438	2.6836119	1.6381733
14.948862415820408	2.675835	1.635798
14.966539542546656	2.6599426	1.630933
14.98421702747459	2.59913	1.6121818
15.001894871046696	2.6253927	1.6203064
15.019573073705542	2.6714995	1.6344723
15.037251635893766	2.6960337	1.6419604
15.054930558054092	2.7110028	1.6465123
15.072609840629323	2.7154853	1.6478729
15.090289484062351	2.819238	1.6790587
15.107969488796124	2.9241102	1.710003
15.125649855273691	3.1376746	1.7713482
15.14333058393817	3.509031	1.8732408
15.161011675232768	4.106787	2.026521
15.17869312960076	4.7232633	2.173307
15.196374947485506	5.365049	2.3162575
15.214057129330447	6.7298408	2.5941937
15.231739675579114	8.907223	2.984497
15.249422586675102	13.552886	3.6814244
15.267105863062092	18.163692	4.2618885
15.284789505183847	25.42329	5.0421515
15.302473513484218	30.308575	5.5053225
15.320157888407127	34.48974	5.8727965
15.337842630396578	33.32841	5.7730765
15.355527739896656	30.637857	5.5351477
15.37321321735153	23.97331	4.8962545
15.39089906320545	16.306705	4.038156
15.408585277902748	10.291346	3.2080128
15.42627186188783	6.2938867	2.508762
15.443958815605198	4.5173373	2.125403
15.461646139499424	3.723337	1.929595
15.479333834015168	3.322591	1.8227975
15.497021899597165	3.0237312	1.7388879
15.514710336690234	2.81385	1.6774534
15.53239914573928	2.6445007	1.6261921
15.550088327189297	2.5788958	1.6058941
15.567777881485336	2.5465393	1.595788
15.58546780907256	2.5386739	1.5933217
15.6031581103962	2.523452	1.5885377
15.620848785901568	2.5231447	1.588441
15.638539836034063	2.4891922	1.5777174
15.656231261239173	2.4421198	1.5627283
15.673923061962451	2.4157748	1.5542763
15.691615238649552	2.4068737	1.5514102
15.709307791746202	2.4180822	1.5550184
15.727000721698221	2.4008958	1.5494825
15.744694028951498	2.3866844	1.5448898
15.76238771395202	2.351311	1.5333985
15.780081777145844	2.3502343	1.5330474
15.797776218979125	2.3343654	1.527863
15.815471039898094	2.335779	1.5283256
15.833166240349064	2.3635712	1.5373911
15.850861820778437	2.372442	1.5402733
15.868557781632699	2.429061	1.5585445
15.886254123358412	2.4572697	1.5675681
15.903950846402232	2.4731953	1.5726396
15.921647951210897	2.490769	1.578217
15.939345438231225	2.5178516	1.586774
15.957043307910133	2.5045652	1.5825819
15.974741560694602	2.4893298	1.577761
15.992440197031714	2.4977577	1.5804296
16.01013921736862	2.4924493	1.5787493
16.02783862215259	2.4734995	1.5727363
16.045538411830933	2.453959	1.5665118
16.06323858685107	2.4563828	1.5672852
16.080939147660512	2.4523017	1.5659827
16.09864009470684	2.4248798	1.5572026
16.11634142843774	2.4322464	1.5595661
16.134043149300954	2.4444656	1.5634787
16.15174525774433	2.4516163	1.5657638
16.169447754215817	2.4437947	1.5632641
16.18715063916342	2.3814228	1.543186
16.204853913035244	2.3783393	1.5421865
16.222557576279478	2.3728948	1.5404203
16.240261629344403	22.37677	4.730409
16.257966072678386	42.916862	6.5510964
16.275670906729868	38.03113	6.166939
16.293376131947387	2.4514744	1.5657185
16.31108174877957	2.4889586	1.5776434
16.328787757675133	2.546433	1.5957546
16.34649415908287	2.607078	1.6146449
16.364200953451657	2.614306	1.6168816
16.38190814123048	2.5850794	1.6078182
16.39961572286839	2.587472	1.6085621
16.41732369881455	2.6215599	1.6191232
16.43503206951817	2.6995687	1.6430365
16.45274083542859	2.7586977	1.6609328
16.47044999699522	2.8263342	1.6811705
16.488159554667558	2.8482006	1.6876613
16.505869508895184	2.8883524	1.6995153
16.523579860127786	2.9182847	1.7082988
16.541290608815117	2.9838717	1.7273887
16.559001755407035	3.0690174	1.7518611
16.57671330035348	3.1455266	1.7735633
16.59442524410448	3.2316084	1.7976675
16.61213758711015	3.3853302	1.8399267
16.629850329820705	3.4801366	1.8655125
16.647563472686436	3.55648	1.8858632
16.665277016157724	3.480671	1.8656557
16.682990960685053	3.4522963	1.8580356
16.70070530671898	3.4008489	1.8441391
16.718420054710155	3.4394333	1.854571
16.736135205109335	3.475497	1.8642685
16.753850758367335	3.5274506	1.8781508
16.771566714935087	3.5664065	1.8884932
16.789283075263597	3.6692834	1.9155374
16.80699983980398	3.7603753	1.9391687
16.82471700900741	3.8609924	1.9649408
16.84243458332518	3.8881536	1.9718401
16.860152563208665	3.9050314	1.9761152
16.87787094910932	3.9713037	1.992813
16.89558974147871	4.0447607	2.011159
16.913308940768466	4.149665	2.0370727
16.931028547430333	4.215694	2.0532155
16.94874856191613	4.2801313	2.068848
16.966468984677785	4.32294	2.079168
16.98418981616729	4.37989	2.0928187
17.00191105683676	4.366403	2.089594
17.019632707138374	4.4226494	2.1030097
17.03735476752442	4.458949	2.1116223
17.05507723844728	4.536947	2.130011
17.072800120359403	4.589705	2.1423597
17.090523413713353	4.6516194	2.1567614
17.108247118961785	4.670254	2.161077
17.125971236557437	4.6452007	2.1552727
17.143695766953133	4.63106	2.1519897
17.161420710601806	4.607653	2.1465445
17.179146067956477	4.6318665	2.152177
17.19687183947025	4.6042843	2.1457596
17.21459802559634	4.606568	2.1462917
17.232324626788028	4.637144	2.1534028
17.25005164349871	4.603112	2.1454866
17.267779076181863	4.6252995	2.150651
17.285506925291074	4.6261573	2.1508503
17.30323519127999	4.6087365	2.1467967
17.320963874602384	4.530234	2.1284347
17.33869297571211	4.533216	2.1291351
17.356422495063114	4.511361	2.1239965
17.37415243310944	4.507989	2.1232026
17.391882790305218	4.446037	2.1085627
17.40961356710468	4.4130497	2.100726
17.42734476396215	4.4557467	2.110864
17.445076381332044	4.5540175	2.1340144
17.462808419668868	4.654668	2.1574678
17.48054087942723	4.782754	2.186951
17.498273761061835	4.8804736	2.2091794
17.51600706502747	5.1925197	2.2787101
17.533740791779024	5.7282357	2.3933733
17.551474941771485	6.5971184	2.5684857
17.56920951545993	8.535888	2.9216242
17.586944513299528	9.777798	3.126947
17.60467993574556	12.6229515	3.5528793
17.622415783253373	15.212284	3.9002929
17.64015205627843	18.037395	4.2470455
17.657888755276293	20.50902	4.5286884
17.675625880702604	22.055513	4.6963296
17.69336343301311	20.63936	4.5430565
17.71110141266366	18.55979	4.3081074
17.728839820110178	15.791877	3.9738994
17.746578655808705	12.559591	3.5439513
17.764317920215372	10.383429	3.2223327
17.7820576137864	8.74852	2.9577897
17.79979773697811	7.427078	2.7252665
17.81753829024692	6.121917	2.4742508
17.835279274049356	5.248559	2.2909734
17.85302068884201	4.4569044	2.111138
17.870762535081607	4.0389395	2.0097113
17.888504813224934	3.815132	1.9532362
17.90624752372891	3.6820567	1.9188685
17.923990667050536	3.614423	1.9011636
17.941734243646895	3.537409	1.8808001
17.959478253975185	3.4943175	1.8693094
17.9772226984927	3.4456449	1.8562448
17.994967577656833	3.4659333	1.8617017
18.01271289192506	3.4640923	1.8612072
18.030458641754965	3.407719	1.8460008
18.04820482760425	3.3233614	1.8230089
18.06595144993067	3.297402	1.8158749
18.083698509192125	3.2977252	1.815964
18.101446005846576	3.273804	1.8093656
18.119193940352105	3.2200153	1.7944402
18.136942313166887	3.2030752	1.7897137
18.1546911247492	3.1656575	1.7792295
18.1724403755574	3.1252983	1.7678514
18.19019006604997	3.092016	1.758413
18.207940196685467	3.1029646	1.7615234
18.225690767922575	3.0955262	1.7594107
18.243441780220046	3.0917754	1.7583445
18.261193234036764	3.0551758	1.7479061
18.278945129831676	3.0357013	1.7423264
18.29669746806386	3.0077233	1.7342789
18.314450249192483	2.9903007	1.7292485
18.3322034736768	2.9975793	1.7313519
18.349957141976184	3.0087845	1.7345848
18.3677112545501	3.0323284	1.7413582
18.385465811858108	3.0498629	1.7463857
18.403220814359884	3.0039475	1.73319
18.420976262515172	3.0174963	1.7370943
18.43873215678387	3.090714	1.7580427
18.456488497625923	3.189816	1.7860056
18.474245285501407	3.257053	1.8047307
18.492002520870486	3.2987688	1.8162513
18.50976020419343	3.3429995	1.8283871
18.527518335930615	3.6265883	1.9043603
18.545276916542516	4.1501393	2.037189
18.563035946489688	4.317659	2.0778978
18.580795426232832	4.760738	2.1819115
18.598555356232698	4.648886	2.1561277
18.616315736950185	4.9555674	2.2261105
18.63407656884626	4.6033196	2.1455348
18.65183785238201	4.8170342	2.1947744
18.669599588018617	4.5857954	2.141447
18.68736177621737	4.552269	2.1336048
18.705124417439652	4.5377035	2.1301887
18.72288751214696	4.3284707	2.0804977
18.740651060800886	4.436975	2.106413
18.758415063863115	4.1700883	2.0420794
18.77617952179546	4.359316	2.0878975
18.793944435059814	4.154995	2.0383804
18.811709804118184	4.1637917	2.040537
18.829475629432675	4.171137	2.0423362
18.8472419114655	3.9811783	1.995289
18.86500865067897	4.032171	2.0080266
18.88277584753551	3.7188208	1.9284245
18.90054350249763	3.7590108	1.9388169
18.918311616027957	3.4642708	1.8612552
18.936080188589226	3.3927805	1.8419502
18.953849220644265	3.1196544	1.7662543
18.971618712656007	2.922108	1.7094175
18.9893886650875	2.823878	1.6804398
19.007159078401887	7.9816537	2.825182
19.024929953062408	32.851685	5.731639
19.042701289532435	32.79972	5.727104
19.060473088275405	25.396034	5.039448
19.07824534975489	2.660957	1.6312441
19.096018074434568	2.6136017	1.6166637
19.113791262778197	2.5986514	1.6120334
19.13156491524966	2.5957768	1.6111414
19.149339032312945	2.5939791	1.6105834
19.167113614432136	2.5623026	1.6007195
19.184888662071433	2.5517812	1.5974295
19.202664175695123	2.5272646	1.5897373
19.220440155767623	2.5116303	1.5848124
19.238216602753447	2.5230403	1.5884081
19.2559935171172	2.5681763	1.602553
19.27377089932361	2.5697885	1.603056
19.291548749837514	2.542543	1.5945354
19.309327069123835	2.5180993	1.586852
19.32710585764763	2.5013142	1.5815543
19.344885115874032	2.5018427	1.5817214
19.362664844268313	2.5014756	1.5816054
19.380445043295822	2.4619033	1.5690453
19.39822571342203	2.3918264	1.546553
19.41600685511252	2.396606	1.5480975
19.43378846883297	2.4065773	1.5513147
19.451570555049173	2.4336398	1.5600127
19.469353114227037	2.4299726	1.5588369
19.48713614683254	2.438001	1.56141
19.50491965333182	2.4609435	1.5687394
19.52270363419109	2.5024288	1.5819067
19.540488089876686	2.4838045	1.576009
19.55827302085503	2.4764962	1.5736887
19.576058427592674	2.4575999	1.5676734
19.593844310556282	2.4924295	1.578743
19.611630670212598	2.4715018	1.5721011
19.629417507028506	2.474533	1.5730649
19.64720482147098	2.4279602	1.5581913
19.6649926140071	2.4117448	1.5529794
19.682780885104084	2.4016955	1.5497404
19.70056963522921	2.4341733	1.5601838
19.718358864849908	2.491218	1.5783592
19.7361485744337	2.516329	1.5862942
19.753938764448215	2.555043	1.5984502
19.771729435361202	2.5458345	1.5955671
19.789520587640506	2.5486302	1.5964429
19.807312221754092	2.517635	1.5867057
19.825104338170043	2.5165105	1.5863513
19.842896937356517	2.5158007	1.5861276
19.860690019781824	2.5072706	1.5834364
19.87848358591436	2.4577098	1.5677085
19.896277636222635	2.4395168	1.5618953
19.914072171175278	2.4709795	1.5719349
19.931867191241015	2.47725	1.5739282
19.94966269688869	2.4812665	1.5752037
19.967458688587264	2.4669638	1.5706571
19.985255166805807	2.460215	1.5685073
20.00305213201348	2.4150157	1.5540321
20.020849584679578	2.4522874	1.565978
20.038647525273507	2.4715354	1.5721117
20.05644595426477	2.4795625	1.5746627
20.07424487212299	2.4607456	1.5686764
20.092044279317903	2.4708917	1.571907
20.109844176319353	2.450432	1.5653856
20.127644563597304	2.452395	1.5660124
20.145445441621817	2.4651046	1.5700651
20.16324681086307	2.4404004	1.5621781
20.181048671791373	2.4293501	1.5586373
20.198851024877122	2.4153366	1.5541353
20.216653870590836	2.4016466	1.5497247
20.234457209403146	2.345346	1.5314523
20.252261041784802	2.3552783	1.5346916
20.270065368206662	2.3703065	1.53958
20.287870189139685	2.3755367	1.5412776
20.305675505054968	2.3422892	1.5304539
20.323481316423702	2.3425322	1.5305333
20.341287623717207	2.3774595	1.5419012
20.359094427406884	2.4138248	1.5536488
20.376901727964288	2.4166725	1.5545651
20.39470952586107	2.3653126	1.5379573
20.41251782156899	2.323105	1.5241736
20.430326615559935	2.3161833	1.5219012
20.448135908305886	2.3474407	1.532136
20.465945700278965	2.373865	1.5407351
20.483755991951384	2.3947368	1.5474937
20.50156678379548	2.340416	1.5298418
20.519378076283708	2.3057346	1.5184646
20.537189869888635	2.3054764	1.5183796
20.55500216508294	2.3018682	1.5171909
20.572814962339415	2.313126	1.5208964
20.59062826213098	2.2599845	1.5033245
20.60844206493066	2.2563534	1.5021163
20.626256371211593	2.305417	1.51836
20.644071181447032	2.321601	1.5236801
20.66188649611036	2.3232343	1.5242159
20.67970231567506	2.2979023	1.5158833
20.697518640614742	2.2801304	1.51001
20.715335471403122	2.283957	1.5112766
20.73315280851404	2.2863595	1.5120713
20.750970652421447	2.319027	1.5228351
20.768789003599412	2.2899952	1.513273
20.786607862522136	2.2641842	1.5047207
20.8044272296639	2.2623055	1.5040963
20.82224710549913	2.2637136	1.5045643
20.84006749050237	2.2667124	1.5055605
20.857888385148268	3.8368888	1.9587978
20.8757097899116	45.94081	6.777965
20.893531705267254	64.78744	8.049065
20.911354131690224	83.7792	9.153098
20.92917706965566	69.07182	8.3109455
20.94700051963877	50.133793	7.080522
20.96482448211493	29.386911	5.4209695
20.982648957559622	4.1101513	2.027351
21.00047394644843	2.2458944	1.4986309
21.01829944925707	2.3046584	1.5181102
21.036125466461375	2.3272738	1.5255405
21.053951998537297	2.276073	1.5086659
21.071779045960906	2.22198	1.4906307
21.089606609208378	2.18547	1.4783336
21.10743468875603	2.169085	1.4727814
21.12526328508028	2.1809793	1.4768139
21.143092398657675	2.194211	1.4812869
21.16092202996488	2.2511585	1.5003861
21.17875217947867	2.2162337	1.488702
21.19658284767596	2.2176619	1.4891816
21.21441403503377	2.2034745	1.4844105
21.232245742029225	2.2146337	1.4881645
21.2500779691396	2.2298234	1.4932593
21.26791071684227	2.2180371	1.4893076
21.28574398561475	2.1642096	1.4711252
21.30357777593465	2.138066	1.4622127
21.321412088279704	2.133388	1.4606122
21.339246923127792	2.1591697	1.4694114
21.357082280956888	2.15934	1.4694693
21.3749181622451	2.1599476	1.469676
21.392754567470647	2.132974	1.4604704
21.41059149711187	2.1425595	1.4637485
21.42842895164726	2.1432881	1.4639974
21.446266931555378	2.1358995	1.4614717
21.464105437314945	2.1099756	1.4525754
21.481944469404798	2.0850222	1.4439605
21.49978402830388	2.05589	1.4338375
21.51762411449127	2.0550108	1.4335309
21.53546472844617	2.079199	1.4419428
21.553305870647876	2.0977921	1.4483757
21.571147541575865	2.0880847	1.4450207
21.58898974170967	2.071739	1.4393537
21.60683247152899	2.0780582	1.4415472
21.62467573151363	2.0812743	1.4426622
21.642519522143523	2.0366697	1.4271194
21.660363843898722	2.0461614	1.430441
21.6782086972594	2.046972	1.4307243
21.696054082705864	2.046146	1.4304355
21.713900000718535	2.0291252	1.4244736
21.73174645177795	2.0441058	1.4297223
21.749593436364794	2.0377247	1.4274889
21.767440954959845	2.0322468	1.4255689
21.785289008044032	2.03542	1.4266814
21.803137596098388	2.0158966	1.4198227
21.820986719604086	2.0002892	1.4143158
21.838836379042412	2.0057306	1.4162382
21.85668657489478	2.0126755	1.4186879
21.87453730764273	2.0342326	1.4262652
21.892388577767914	2.0073347	1.4168044
21.91024038575213	1.9923341	1.4115007
21.928092732077285	1.9601991	1.4000711
21.945945617225426	1.9592996	1.3997499
21.963799041678694	1.9547845	1.3981361
21.981653005919398	31.302584	5.594871
21.999507510429943	78.131615	8.839209
22.01736255569286	73.085335	8.548996
22.035218142190818	4.1640773	2.040607
22.05307427040661	1.9899337	1.4106501
22.07093094082315	2.0067587	1.4166011
22.088788153923474	2.0017142	1.4148195
22.106645910190746	1.992894	1.4116989
22.12450421010827	1.97937	1.4069009
22.142363054159464	1.9786689	1.4066516
22.16022244282787	1.9787277	1.4066726
22.178082376597164	1.9873891	1.4097478
22.195942855951145	1.9713728	1.4040558
22.213803881373742	1.9586333	1.3995118
22.231665453349002	1.9256675	1.3876842
22.24952757236111	1.9374282	1.3919153
22.26739023889438	1.9400984	1.3928741
22.28525345343323	1.9834325	1.4083439
22.30311721646225	1.9896655	1.410555
22.320981528466113	1.9854287	1.4090524
22.33884638992964	1.972806	1.4045662
22.356711801337788	1.9404938	1.3930161
22.37457776317561	1.9337846	1.3906058
22.392444275928337	1.9437822	1.3941959
22.410311340081282	1.9830426	1.4082055
22.428178956119904	1.9748572	1.4052961
22.446047124529805	1.9265573	1.3880048
22.46391584579669	1.9206623	1.3858796
22.481785120406414	1.9011893	1.3788363
22.49965494884496	1.9241925	1.3871527
22.51752533159841	1.9265178	1.3879906
22.53539626915302	1.9391854	1.3925464
22.553267761995137	1.9065597	1.3807822
22.571139810611264	1.9151345	1.3838838
22.589012415488025	1.9335123	1.3905079
22.60688557711216	1.9693937	1.403351
22.624759295970566	1.9721882	1.4043462
22.642633572550263	1.9735703	1.4048382
22.660508407338362	1.9709853	1.4039178
22.67838380082217	1.9533665	1.3976289
22.696259753489077	1.9516968	1.3970314
22.714136265826614	1.9557618	1.3984855
22.73201333832246	1.9501078	1.3964626
22.74989097146439	1.9573185	1.399042
22.76776916574035	1.9930605	1.411758
22.785647921638393	1.9569738	1.3989187
22.803527239646712	1.9504957	1.3966014
22.82140712025363	1.9425921	1.393769
22.839287563947593	1.9391996	1.3925514
22.85716857121719	1.9187199	1.3851787
22.875050142551135	1.9071771	1.3810059
22.892932278438277	1.9345278	1.3908731
22.910814979367604	1.9273223	1.3882803
22.928698245828222	1.9333423	1.3904468
22.946582078309387	1.916604	1.3844147
22.96446647730047	1.9302092	1.3893197
22.98235144329098	1.8928503	1.375809
23.000236976770562	1.8852491	1.3730438
23.018123078229	1.8967762	1.3772349
23.03600974815619	1.892139	1.3755504
23.053896987042194	1.8772379	1.3701233
23.071784795377173	1.8480574	1.3594327
23.08967317365145	1.8663833	1.3661565
23.10756212235546	1.8789169	1.3707359
23.125451641979787	1.935796	1.3913288
23.143341733015134	1.966392	1.402281
23.161232395952357	1.9431486	1.3939687
23.179123631282426	1.8660318	1.3660277
23.197015439496468	1.8228781	1.3501401
23.214907821085717	1.8414531	1.3570015
23.23280077654157	1.9024398	1.3792896
23.250694306355538	1.9338151	1.3906168
23.268588411019277	1.9445623	1.3944757
23.28648309102458	1.9444199	1.3944246
23.304378346863356	1.9552073	1.3982873
23.322274179027676	1.9611326	1.4004045
23.340170588009723	1.9799514	1.4071075
23.358067574301852	1.9740809	1.4050199
23.37596513839651	1.9397665	1.392755
23.39386328078629	1.9124924	1.382929
23.411762001963947	1.9086777	1.381549
23.429661302422353	1.9335934	1.3905371
23.4475611826545	1.9453437	1.3947558
23.46546164315356	1.9780896	1.4064457
23.48336268441279	1.9810411	1.4074947
23.501264306925638	1.9477241	1.3956089
23.51916651118564	1.9002533	1.3784968
23.537069297686497	1.9000245	1.3784138
23.554972666922037	1.9471982	1.3954204
23.57287661938623	1.9947723	1.4123641
23.59078115557318	1.992639	1.4116087
23.608686275977128	1.9522887	1.3972433
23.62659198109246	1.9247795	1.3873643
23.6444982714137	1.9273655	1.3882959
23.66240514743549	1.9142655	1.3835698
23.68031260965263	1.8844495	1.3727525
23.698220658560068	1.8572228	1.3627996
23.716129294652845	1.897327	1.377435
23.7340385184262	1.9126258	1.3829771
23.75194833037546	1.9521872	1.3972069
23.769858730996123	1.887505	1.373865
23.78776972078382	1.8594718	1.3636245
23.80568130023431	1.8505365	1.3603443
23.823593469843495	1.8836358	1.3724561
23.841506230107424	1.883238	1.3723111
23.859419581522275	1.8778502	1.3703468
23.87733352458438	1.8726251	1.368439
23.89524805979019	1.8800944	1.3711654
23.913163187636318	1.9030381	1.3795065
23.931078908619508	1.9595369	1.3998346
23.948995223236633	1.9956727	1.4126828
23.966912131984735	1.9929973	1.4117355
23.98482963536096	2.0060737	1.4163593
24.002747733862616	1.9867908	1.4095356
24.020666427987155	2.0014443	1.4147241
24.038585718232156	2.0207322	1.4215246
24.056505605095353	2.022875	1.4222782
24.074426089074617	2.0819838	1.442908
24.092347170667946	2.0670764	1.437733
24.110268850373515	2.0739825	1.4401329
24.128191128689586	2.0572252	1.434303
24.146114006114626	2.0713613	1.4392225
24.164037483147187	2.0982537	1.4485351
24.181961560286005	2.1225495	1.4568973
24.199886238029926	2.1177952	1.4552647
24.21781151687797	2.0864148	1.4444427
24.235737397329274	2.0556405	1.4337505
24.253663879883135	2.0538912	1.4331403
24.271590965038975	2.0231755	1.4223838
24.289518653296376	2.0146606	1.4193875
24.30744694515505	2.015108	1.419545
24.32537584111486	2.0386631	1.4278176
24.34330534167581	2.0618525	1.4359152
24.361235447338046	2.0751529	1.4405391
24.379166158601876	2.0858958	1.4442631
24.39709747596772	2.0255399	1.4232147
24.41502939993615	1.9688052	1.4031411
24.432961931007917	1.9537653	1.3977716
24.450895069683856	1.9332381	1.3904094
24.468828816465	1.9258404	1.3877465
24.4867631718525	1.9382654	1.392216
24.504698136347656	1.9627984	1.4009991
24.52263371045192	1.9718759	1.404235
24.540569894666874	1.9927019	1.411631
24.558506689494266	1.9701428	1.4036177
24.57644409543597	1.9776284	1.4062817
24.594382112994012	1.9659423	1.4021206
24.61232074267057	1.9550326	1.3982248
24.630259984967953	1.9373622	1.3918916
24.64819984038863	1.91357	1.3833185
24.66614030943522	1.9255319	1.3876354
24.684081392610462	1.9462862	1.3950936
24.702023090417274	1.9784935	1.4065893
24.7199654033587	1.9903011	1.4107803
24.737908331937927	2.037914	1.4275553
24.755851876658305	2.0885255	1.4451731
24.773796038023324	2.0720916	1.4394761
24.79174081653661	2.0444052	1.429827
24.809686212701962	2.0777695	1.441447
24.827632227023294	2.1162562	1.4547358
24.8455788600047	2.1275496	1.4586122
24.8635261121504	2.1350067	1.4611661
24.88147398396475	2.1295125	1.4592849
24.899422475952303	2.1350331	1.4611752
24.917371588617698	2.1156633	1.454532
24.935321322465768	2.1463091	1.4650288
24.953271678001478	2.249021	1.4996736
24.97122265572994	2.4580011	1.5678014
24.989174256156414	2.7533839	1.6593324
25.00712647978632	3.375464	1.8372436
25.02507932712521	4.4081125	2.0995505
25.043032798678798	5.9556003	2.44041
25.060986894952933	7.582861	2.7536995
25.078941616453637	9.123185	3.020461
25.096896963687055	10.032044	3.1673403
25.114852937159508	10.697704	3.2707345
25.132809537377444	10.5155115	3.242763
25.150766764847468	9.968886	3.1573544
25.168724620076347	8.619449	2.9358897
25.186683103570985	7.3257656	2.7066152
25.204642215838426	5.8431797	2.417267
25.222601957385894	4.6182613	2.149014
25.24056232872074	3.5597517	1.8867304
25.25852333035048	2.7852228	1.6688987
25.276484962782778	2.3729649	1.5404431
25.294447226525435	2.1858475	1.4784611
25.312410122086423	2.0703793	1.4388813
25.330373649973843	1.9912983	1.4111336
25.348337810695988	1.9604198	1.40015
25.366302604761245	1.9561758	1.3986336
25.384268032678207	1.9239374	1.3870608
25.40223409495558	1.856923	1.3626896
25.420200792102257	1.8403223	1.3565848
25.438168124627246	1.8352833	1.3547263
25.45613609303974	1.899925	1.3783777
25.474104697849057	1.965459	1.4019483
25.492073939564698	2.0004625	1.4143771
25.510043818696285	1.9686323	1.4030796
25.528014335753614	1.8893961	1.3745531
25.54598549124664	1.8416138	1.3570607
25.56395728568544	1.8426696	1.3574497
25.58192971958028	1.8561246	1.3623966
25.59990279344156	1.864018	1.3652904
25.617876507779833	1.8498966	1.360109
25.635850863105826	1.8475143	1.359233
25.653825859930386	1.842008	1.357206
25.671801498764548	1.8863263	1.373436
25.68977778011949	1.9078192	1.3812382
25.707754704506524	1.9027643	1.3794073
25.725732272437153	1.8475568	1.3592486
25.743710484423012	1.8109387	1.3457112
25.761689340975888	1.814819	1.3471521
25.77966884260774	1.8201076	1.3491136
25.797648989830662	1.861983	1.364545
25.815629783156922	1.8404965	1.356649
25.83361122309895	1.8153065	1.3473331
25.85159331016929	1.8162298	1.3476757
25.869576044880695	1.8323971	1.3536606
25.887559427746034	1.8157927	1.3475136
25.90554345927836	1.7938297	1.3393393
25.92352813999086	1.8358364	1.3549304
25.94151347039689	1.8960916	1.3769864
25.959499451009965	1.8613132	1.3642995
25.97748608234374	1.7972283	1.3406074
25.995473364912062	1.794514	1.3395947
26.013461299228904	1.7961519	1.3402059
26.03144988580839	1.8755735	1.3695158
26.04943912516483	1.9166462	1.3844299
26.067429017812675	1.8700484	1.3674971
26.085419564266537	1.8625852	1.3647656
26.103410765041186	1.8978614	1.3776289
26.12140262065155	1.8799106	1.3710983
26.139395131612723	1.861992	1.3645483
26.157388298439948	1.8667177	1.3662788
26.17538212164861	1.8781164	1.3704438
26.193376601754295	1.8877654	1.3739598
26.211371739272714	1.8747554	1.369217
26.229367534719746	1.8537534	1.3615261
26.247363988611433	1.8462878	1.3587817
26.26536110146397	1.857816	1.3630172
26.283358873793727	1.8567418	1.3626231
26.301357306117204	1.8532543	1.3613428
26.319356398951104	1.8200419	1.3490893
26.33735615281224	1.7859695	1.3364017
26.35535656821762	1.7862656	1.3365124
26.373357645684404	1.7929064	1.3389945
26.39135938572991	1.8046384	1.3433683
26.409361788871614	1.8341445	1.3543059
26.427364855627165	1.8548559	1.361931
26.445368586514352	1.8314942	1.353327
26.46337298205115	1.8084769	1.3447962
26.48137804275568	1.8295896	1.3526232
26.499383769146217	1.810516	1.3455541
26.517390161741215	1.765248	1.3286264
26.53539722105928	1.7669202	1.3292555
26.553404947619182	1.807763	1.3445308
26.571413341939856	1.7931197	1.3390741
26.589422404540397	1.7939345	1.3393784
26.60743213594006	1.7989314	1.3412424
26.62544253665827	1.7517139	1.3235233
26.64345360721459	1.7263095	1.3138909
26.66146534812879	1.7711614	1.3308499
26.679477759920758	1.8569089	1.3626845
26.69749084311057	1.83002	1.3527822
26.71550459821847	1.7979457	1.340875
26.733519025764842	1.8050274	1.343513
26.751534126270258	1.8269554	1.3516492
26.769549900255434	1.799541	1.3414698
26.787566348241267	1.7418526	1.3197926
26.80558347074881	1.7510855	1.3232859
26.823601268299267	1.7730192	1.3315476
26.841619741414036	1.7949014	1.3397393
26.85963889061465	1.7860738	1.3364407
26.877658716422832	1.7740039	1.3319174
26.89567921936045	1.7806445	1.3344079
26.913700399949544	1.8140936	1.3468829
26.93172225871233	1.7886112	1.3373897
26.949744796171174	1.8236467	1.3504246
26.967768012848605	1.8320109	1.353518
26.98579190926733	1.8706465	1.3677158
27.003816485950225	1.8351538	1.3546785
27.021841743420318	1.7735041	1.3317298
27.039867682200814	1.7549204	1.3247341
27.057894302815072	1.7753665	1.3324288
27.07592160578664	1.7884315	1.3373225
27.0939495916392	1.7784804	1.3335968
27.111978260896635	1.7982095	1.3409734
27.13000761408296	1.8036553	1.3430023
27.148037651722397	1.7725338	1.3313653
27.166068374339304	1.7484382	1.3222852
27.184099782458215	1.8282759	1.3521376
27.20213187660384	1.8593621	1.3635843
27.22016465730105	1.8485832	1.3596262
27.23819812507487	1.8342875	1.3543587
27.256232280450533	1.830679	1.3530259
27.274267123953383	1.8278471	1.351979
27.292302656108987	1.8039939	1.3431284
27.31033887744306	1.8029408	1.3427364
27.32837578848146	1.8195962	1.348924
27.34641338975026	1.8377085	1.3556211
27.364451681775673	1.8301694	1.3528376
27.382490665084074	1.8274806	1.3518434
27.400530340202046	1.8341033	1.3542907
27.41857070765629	1.8472843	1.3591484
27.436611767973726	1.8351723	1.3546853
27.454653521681404	1.836445	1.355155
27.472695969306564	1.8114377	1.3458966
27.490739111376627	1.8392137	1.3561761
27.508782948419153	1.8497021	1.3600376
27.526827480961902	1.8579357	1.3630612
27.54487270953279	1.8130721	1.3465036
27.562918634659898	1.8092501	1.3450837
27.580965256871508	1.8604823	1.363995
27.599012576696026	1.8851063	1.3729918
27.617060594662068	1.8613956	1.3643297
27.63510931129842	1.829703	1.3526652
27.65315872713401	1.8567269	1.3626176
27.67120884269797	1.8732563	1.3686695
27.68925965851958	1.8763323	1.3697928
27.707311175128307	1.8955451	1.376788
27.725363393053787	1.8688835	1.3670712
27.74341631282583	1.8646535	1.3655231
27.7614699349744	1.9455599	1.3948333
27.77952426002968	2.1572473	1.468757
27.797579288521973	2.2192166	1.4897035
27.815635020981784	2.5981522	1.6118785
27.83369145793979	2.6278367	1.6210604
27.85174859992682	2.4694688	1.5714544
27.869806447473923	2.3577995	1.5355128
27.887865001112267	2.0570529	1.434243
27.905924261373233	1.9596883	1.3998886
27.92398422878836	1.9560715	1.3985963
27.94204490388936	1.9204075	1.3857877
27.96010628720813	1.8919703	1.3754891
27.978168379276728	1.886607	1.3735381
27.9962311806274	1.8839386	1.3725665
28.014294691792568	1.9065356	1.3807735
28.0323589133048	1.8299105	1.3527418
28.050423845696887	1.7786804	1.3336718
28.068489489501758	1.7902567	1.3380047
28.086555845252523	1.848195	1.3594834
28.104622913482487	1.8575246	1.3629104
28.122690694725115	1.8540382	1.3616307
28.14075918951405	1.8206784	1.3493252
28.15882839838312	1.8392138	1.3561761
28.176898321866304	1.8684059	1.3668965
28.1949689604978	1.8698413	1.3674214
28.213040314811945	1.8710811	1.3678746
28.23111238534327	1.896266	1.3770497
28.249185172626493	1.912785	1.3830347
28.267258677196473	1.9178898	1.384879
28.285332899588294	1.9714357	1.4040782
28.303407840337172	2.0035925	1.4154831
28.321483499978545	1.9624574	1.4008774
28.33955987904799	1.9406395	1.3930684
28.357636978081285	1.9819118	1.4078039
28.37571479761439	2.0182738	1.4206597
28.393793338183425	1.9847187	1.4088005
28.41187260032469	1.9647332	1.4016894
28.429952584574686	1.981061	1.4075017
28.448033291470065	2.0089512	1.4173747
28.46611472154769	2.024864	1.4229771
28.484196875344566	2.0488617	1.4313846
28.502279753397914	2.0495734	1.4316331
28.52036335624511	2.0260038	1.4233776
28.538447684423716	2.0099714	1.4177346
28.556532738471482	2.0177345	1.4204699
28.574618518926325	2.0240138	1.4226784
28.59270502632635	2.0299022	1.4247464
28.61079226120985	2.0367243	1.4271386
28.628880224115274	2.033111	1.4258721
28.646968915581287	2.0605686	1.4354681
28.66505833614671	2.11511	1.4543418
28.68314848635055	2.0934188	1.4468652
28.701239366732004	2.0710692	1.439121
28.71933097783044	2.1377442	1.4621027
28.737423320185403	2.1152341	1.4543844
28.75551639433665	2.076624	1.4410496
28.773610200824074	2.097472	1.4482652
28.791704740187793	2.136144	1.4615554
28.80980001296809	2.1058962	1.4511707
28.827896019705413	2.0716715	1.4393302
28.845992760940433	2.103299	1.4502754
28.86409023721397	2.1165624	1.454841
28.88218844906704	2.1641536	1.4711063
28.900287397040845	2.1878874	1.4791509
28.918387081676755	2.2330515	1.4943398
28.936487503516343	2.2585099	1.502834
28.954588663101365	2.302114	1.5172719
28.97269056097374	2.2785823	1.5094974
28.990793197675597	2.2565713	1.5021888
29.00889657374923	2.2943482	1.5147107
29.027000689737125	2.379534	1.5425738
29.04510554618196	2.4877985	1.5772756
29.06321114362659	2.5054471	1.5828605
29.08131748261405	2.474787	1.5731456
29.099424563687567	2.4443185	1.5634316
29.11753238739057	2.471798	1.5721953
29.13564095426663	2.541405	1.5941784
29.15375026485954	2.6147985	1.6170338
29.171860319713275	2.5990624	1.6121608
29.18997111937199	2.6429365	1.6257111
29.20808266438002	2.7090516	1.6459197
29.226194955281898	2.7919142	1.6709023
29.244307992622335	2.8411136	1.6855603
29.26242177694624	2.894158	1.7012224
29.2805363087987	2.910216	1.7059356
29.29865158872498	2.9152498	1.7074102
29.316767617270557	2.8934805	1.7010233
29.334884394981064	2.9160292	1.7076385
29.353001922402367	3.0033844	1.7330275
29.37112020008047	3.1128695	1.7643327
29.389239228561596	3.127377	1.7684392
29.407359008392152	3.2182982	1.7939616
29.42547954011872	3.5385745	1.88111
29.44360082428809	4.111988	2.0278037
29.46172286144722	5.0967703	2.2576027
29.479845652143283	6.7752085	2.6029232
29.497969196923606	9.461823	3.0760076
29.516093496335728	13.220245	3.6359656
29.5342185509274	16.727074	4.0898747
29.55234436124651	20.054699	4.478247
29.570470927841175	21.662643	4.6543145
29.588598251259686	21.520817	4.6390533
29.60672633205055	19.687946	4.43711
29.624855170762405	16.469019	4.0582037
29.642984767944146	12.939157	3.5971038
29.66111512414481	9.608097	3.099693
29.67924623991366	7.1134567	2.6671064
29.697378115800138	5.2785563	2.2975109
29.71551075235387	4.3475413	2.0850759
29.733644150124675	3.8781657	1.9693059
29.751778309662576	3.6223667	1.9032516
29.769913231517766	3.4476774	1.8567922
29.78804891624066	3.3157325	1.8209153
29.806185364381818	3.296792	1.8157071
29.82432257649206	3.352522	1.8309894
29.842460553122333	3.3207147	1.8222828
29.86059929482382	3.2213986	1.7948256
29.878738802147872	3.2291932	1.7969956
29.896879075646048	3.3363605	1.8265706
29.915020115870114	3.3491359	1.8300644
29.933161923371976	3.2962654	1.815562
29.951304498703777	3.293378	1.8147666
29.969447842417857	3.263749	1.8065848
29.987591955066733	3.2512298	1.8031167
30.005736837203123	3.236987	1.7991629
30.023882489379943	3.2358577	1.798849
30.04202891215028	3.228116	1.7966958
30.060176106067455	3.2273116	1.796472
30.078324071684946	3.1915743	1.7864978
30.09647280955646	3.175572	1.7820134
30.114622320235863	3.2158003	1.7932652
30.132772604277257	3.1781895	1.7827477
30.1509236622349	3.139561	1.7718806
30.16907549466328	3.1009765	1.7609589
30.18722810211705	3.1274164	1.7684503
30.205381485151097	3.1531675	1.7757161
30.22353564432045	3.163884	1.778731
30.241690580180403	3.1476817	1.7741708
30.25984629328638	3.058098	1.7487419
30.278002784194037	2.9757938	1.7250489
30.296160053459246	3.0024135	1.7327474
30.314318101638033	3.0275986	1.7399997
30.332476929286646	3.0343246	1.7419313
30.35063653696153	3.010651	1.7351228
30.368796925219307	2.9872825	1.7283757
30.386958094616844	2.9674792	1.7226373
30.40512004571115	2.9058473	1.7046546
30.423282779059463	2.8724084	1.6948181
30.441446295219233	2.8914492	1.7004262
30.459610594748067	2.8908112	1.7002386
30.47777567820382	2.8838196	1.6981813
30.495941546144504	2.849437	1.6880275
30.51410819912835	2.8861814	1.6988765
30.532275637713795	2.8165808	1.6782672
30.55044386245946	2.7702959	1.6644206
30.56861287392416	2.778933	1.6670132
30.586782672666956	2.7834287	1.6683611
30.604953259247047	2.766804	1.6633713
30.623124634223885	2.7831476	1.6682768
30.641296798157075	2.846422	1.6871343
30.659469751606462	2.903934	1.7040933
30.677643495132074	2.908551	1.7054474
30.695818029294152	2.8800697	1.6970768
30.713993354653116	2.7900257	1.670337
30.73216947176962	2.6787262	1.6366814
30.75034638120448	2.665196	1.6325427
30.768524083518756	2.7020526	1.6437922
30.786702579273673	2.7617364	1.6618472
30.80488186903069	2.91034	1.7059718
30.82306195335144	3.055072	1.7478764
30.841242832797782	3.2456346	1.8015645
30.85942450793176	3.6311347	1.9055537
30.877606979315637	4.0981984	2.0244007
30.895790247511883	4.5670633	2.1370687
30.913974313083134	4.9196043	2.218018
30.932159176592283	5.305179	2.3032975
30.95034483860237	5.573241	2.3607714
30.968531299676698	5.598197	2.366051
30.98671856037873	5.25362	2.2920778
31.00490662127215	4.792647	2.1892114
31.023095482920848	4.2259116	2.0557022
31.04128514588892	3.6484177	1.9100832
31.059475610740662	3.1670208	1.7796125
31.07766687804056	2.8125515	1.6770663
31.09585894835335	2.6468349	1.6269096
31.11405182224393	2.5535457	1.5979818
31.132245500277417	2.5315893	1.5910969
31.15043998301914	2.494735	1.579473
31.168635271034628	2.5350752	1.5921919
31.18683136488964	2.5908673	1.6096171
31.20502826515008	2.4954305	1.5796932
31.223225972382135	2.419022	1.5553206
31.241424487152155	2.4534767	1.5663577
31.259623810026692	2.4493675	1.5650455
31.27782394157253	2.4207222	1.5558671
31.296024882356644	2.410091	1.5524467
31.314226632946237	2.4529498	1.5661895
31.332429193908684	2.4706416	1.5718275
31.350632565811598	2.4990985	1.5808537
31.368836749222787	2.4635913	1.5695832
31.387041744710295	2.4342954	1.5602229
31.40524755284232	2.5104249	1.584432
31.423454174187317	2.4786522	1.5743736
31.441661609313922	2.4260764	1.5575867
31.459869858791002	2.367077	1.5385308
31.478078923187628	2.3541145	1.5343124
31.496288803073064	2.3222601	1.5238963
31.514499499016807	2.3715641	1.5399884
31.532711011588546	2.4018006	1.5497744
31.550923341358178	2.3890157	1.545644
31.56913648889584	2.279605	1.5098361
31.587350454771844	2.2751763	1.5083687
31.605565239556732	2.3130612	1.5208751
31.62378084382127	2.3274739	1.525606
31.641997268136382	2.3134086	1.5209893
31.660214513073274	2.2950199	1.5149323
31.67843257920331	2.3326697	1.527308
31.6966514670981	2.3092651	1.5196266
31.71487117732944	2.2700267	1.5066608
31.733091710469346	2.2672665	1.5057445
31.751313067090052	2.2511554	1.500385
31.769535247764008	2.2764902	1.5088042
31.787758253063878	2.2505841	1.5001947
31.805982083562526	2.236691	1.4955571
31.824206739833024	2.2476532	1.4992175
31.84243222244869	2.2284796	1.4928093
31.860658531983013	2.1942427	1.4812976
31.878885669009737	2.1990511	1.4829198
31.897113634102784	2.34572	1.5315744
31.91534242783632	2.311209	1.520266
31.933572050784694	2.2230115	1.4909767
31.951802503522508	2.2132819	1.4877102
31.970033786624548	2.2533288	1.5011092
31.988265900665834	2.2332582	1.494409
32.006498846221575	2.1901698	1.4799222
32.02473262386724	2.20976	1.4865261
32.04296723417845	2.2397962	1.4965949
32.0612026777311	2.202811	1.484187
32.07943895510129	2.1432276	1.4639766
32.097676066865304	2.1413364	1.4633306
32.115914013599685	2.1631198	1.4707549
32.13415279588115	2.0936084	1.4469306
32.152392414286666	2.0631275	1.4363592
32.1706328693934	2.1310406	1.4598083
32.18887416177875	2.173462	1.4742665
32.20711629202032	2.0567183	1.4341264
32.225359260695924	1.9532492	1.397587
32.243603068383614	2.0765269	1.441016
32.26184771566166	2.2821453	1.5106771
32.28009320310852	2.3193486	1.5229408
32.2983395313029	2.228085	1.4926771
32.31658670082372	2.148258	1.4656937
32.33483471225012	2.1149745	1.4542952
32.35308356616143	2.102336	1.4499434
32.371333263137245	2.1528482	1.4672588
32.38958380375734	2.121212	1.4564381
32.407835188601744	2.0676532	1.4379337
32.42608741825067	2.0484712	1.4312482
32.444340493284585	2.0696979	1.4386444
32.46259441428416	2.0525556	1.4326743
32.48084918183028	2.1022391	1.44991
32.49910479650405	2.1410306	1.4632261
32.51736125888683	2.0941443	1.4471159
32.53561856956014	2.0886192	1.4452056
32.5538767291058	2.082519	1.4430935
32.572135738105764	2.0359921	1.4268819
32.59039559714228	2.0060706	1.4163582
32.608656306797776	2.0161316	1.4199055
32.62691786765491	2.0878093	1.4449254
32.645180280296586	2.091452	1.4461852
32.663443545305896	2.113567	1.4538113
32.68170766326619	2.0083745	1.4171712
32.69997263476099	1.963208	1.4011452
32.7182384603741	2.0301552	1.4248351
32.7365051406895	2.0536125	1.4330431
32.75477267629144	1.9939926	1.412088
32.77304106776434	2.0274892	1.4238993
32.79131031569289	2.070315	1.4388589
32.809580420661966	2.0116053	1.4183108
32.827851383256714	2.0059233	1.4163063
32.84612320406245	2.1034167	1.4503161
32.86439588366476	2.1034548	1.4503292
32.88266942264945	1.9614737	1.4005262
32.9009438216025	1.901557	1.3789696
32.9192190811102	1.8859212	1.3732885
32.937495201758985	1.9008596	1.3787166
32.95577218413556	1.9517652	1.3970559
32.974050028826866	2.0130496	1.4188198
32.992328736420035	2.1168644	1.4549448
33.010608307502444	2.029383	1.4245641
33.02888874266169	1.8798953	1.3710928
33.047170042485604	1.8195341	1.348901
33.06545220756225	1.8484153	1.3595643
33.083735238479896	2.0132296	1.4188832
33.10201913582707	2.0207684	1.4215373
33.12030390019248	1.9989924	1.4138573
33.138589532165135	2.080137	1.442268
33.15687603233419	2.035699	1.4267792
33.17516340128909	1.854309	1.3617301
33.19345163961947	1.9264997	1.387984
33.211740747915215	2.1033049	1.4502776
33.23003072676643	2.125171	1.4577966
33.248321576763466	2.0198615	1.4212183
33.266613298496885	2.0120766	1.4184768
33.28490589255747	1.9387009	1.3923724
33.30319935953626	1.9473608	1.3954787
33.32149370002451	1.9357125	1.3912989
33.339788914613706	1.9563823	1.3987074
33.358085003895575	2.003566	1.4154738
33.376381968462034	2.0367036	1.4271313
33.39467980890529	2.0468361	1.4306768
33.41297852581774	2.0389402	1.4279146
33.43127811979204	2.0628135	1.4362499
33.44957859142105	2.0199735	1.4212577
33.467879941297866	2.0037222	1.4155289
33.486182170015844	1.9358913	1.3913631
33.50448527816853	1.8040948	1.343166
33.522789266349754	1.810826	1.3456694
33.541094135153514	2.011571	1.4182986
33.55939988517411	2.0114179	1.4182446
33.57770651700602	1.9289759	1.3888758
33.59601403124398	1.9594527	1.3998046
33.61432242848296	2.027094	1.4237605
33.632631709318154	2.0454438	1.4301901
33.650941874344994	1.9807277	1.4073833
33.66925292415916	1.8741059	1.3689799
33.68756485935654	1.837213	1.3554384
33.70587768053328	1.8931292	1.3759103
33.724191388285746	1.8589021	1.3634156
33.74250598321054	1.8618524	1.3644972
33.760821465904506	1.9478147	1.3956413
33.77913783696474	1.916492	1.3843743
33.79745509698852	1.8029513	1.3427402
33.815773246573414	1.8224066	1.3499655
33.8340922863172	1.9448162	1.3945667
33.852412216817896	2.0357482	1.4267966
33.87073303867377	1.9901855	1.4107393
33.889054752483304	1.9682163	1.4029313
33.907377358845245	1.9755013	1.4055253
33.92570085835853	1.9737217	1.4048921
33.94402525162239	2.0463092	1.4304926
33.96235053923627	2.0003817	1.4143485
33.980676721799824	1.9235921	1.3869362
33.999003799912984	1.8661555	1.366073
34.01733177417592	1.900679	1.3786511
34.03566064518901	2.0012069	1.4146402
34.0539904135529	2.0354455	1.4266903
34.07232107986846	1.9108394	1.3823311
34.090652644736785	1.80308	1.3427881
34.108985108759235	1.774016	1.3319219
34.12731847253742	1.7561955	1.3252153
34.14565273667313	1.8991555	1.3780985
34.16398790176847	2.00219	1.4149877
34.18232396842574	1.966421	1.4022913
34.20066093724749	1.9299057	1.3892105
34.21899880883651	1.9172205	1.3846374
34.23733758379583	1.9297171	1.3891425
34.25567726272874	2.0707133	1.4389973
34.27401784623872	2.092234	1.4464556
34.29235933492957	1.9446068	1.3944916
34.31070172940526	1.9456983	1.3948829
34.32904503027003	2.0273843	1.4238625
34.347389238128386	1.938827	1.3924177
34.36573435358502	1.9354529	1.3912055
34.38408037724492	1.9200163	1.3856466
34.402427309713296	2.0866299	1.4445171
34.42077515159559	2.267945	1.5059698
34.43912390349752	2.3808372	1.5429962
34.45747356602499	2.0757358	1.4407414
34.47582413978423	1.7822421	1.3350064
34.49417562538163	1.696784	1.3026066
34.51252802342388	1.8808581	1.3714437
34.53088133451789	2.0240543	1.4226927
34.54923555927084	2.0614133	1.4357623
34.567590698290104	2.0821788	1.4429756
34.58594675218336	2.1109827	1.4529221
34.6043037215585	2.0315723	1.4253323
34.62266160702365	1.9113348	1.3825103
34.641020409187234	1.8966156	1.3771766
34.65938012865785	2.0302644	1.4248735
34.677740766044394	2.1052356	1.450943
34.69610232195598	2.0849936	1.4439507
34.714464797002016	2.0694823	1.4385695
34.73282819179208	2.0603714	1.4353994
34.751192506936064	2.0554636	1.4336888
34.76955774304408	2.0746891	1.4403781
34.7879239007265	2.1108162	1.4528649
34.80629098059391	1.9720784	1.4043071
34.824658983257194	1.8692901	1.3672198
34.843027909327446	2.0197463	1.4211777
34.86139775941603	2.1964328	1.4820367
34.879768534134534	2.1550658	1.4680142
34.89814023409483	1.8724854	1.3683879
34.91651285990901	1.6982995	1.3031882
34.93488641218944	1.7298093	1.3152221
34.95326089154871	2.013134	1.4188496
34.97163629859967	1.9410907	1.3932303
34.99001263395542	1.9670426	1.4025129
35.00838989822934	2.0560048	1.4338775
35.02676809203499	2.190827	1.4801443
35.04514721598624	2.1931698	1.4809355
35.063527270697215	2.2279894	1.4926451
35.081908256782256	2.2460399	1.4986794
35.10029017485597	2.1337786	1.4607459
35.11867302553321	1.8638319	1.3652223
35.137056809429104	1.8663788	1.3661548
35.155441527159006	1.9608635	1.4003084
35.173827179338524	1.9870982	1.4096447
35.19221376658354	1.9171331	1.3846058
35.21060128951017	1.9495658	1.3962685
35.2289897487348	2.3217669	1.5237345
35.24737914487405	2.185761	1.4784319
35.26576947854479	1.7057388	1.3060393
35.28416075036418	1.7526151	1.3238637
35.30255296094958	2.04822	1.4311603
35.32094611091867	1.982411	1.4079812
35.33934020088932	1.7144287	1.3093619
35.35773523147969	1.8317132	1.353408
35.3761312033082	1.8310548	1.3531648
35.394528116993506	1.8390468	1.3561146
35.41292597315452	1.9877889	1.4098897
35.431324772410434	2.087219	1.4447211
35.449724515380666	1.97703	1.406069
35.46812520268491	2.1985328	1.482745
35.486526834943106	2.2919815	1.5139291
35.504929412775454	2.1280532	1.4587848
35.52333293680242	2.1934476	1.4810293
35.54173740764471	1.8636158	1.3651432
35.560142825923286	1.7719152	1.331133
35.5785491922594	2.2472138	1.499071
35.59695650727454	3.187315	1.7853053
35.61536477159042	4.381846	2.093286
