0.008763373481513119	0.0	0.0
0.026290120649546365	0.14626539	0.3824466
0.043816868432600686	0.1255995	0.3544002
0.06134361724069026	0.08669658	0.29444283
0.07887036748382949	0.06793498	0.2606434
0.0963971195720331	0.053569306	0.23145044
0.11392387391531617	0.10875108	0.3297743
0.1314506309236943	0.1979581	0.44492483
0.1489773910071836	0.15845351	0.3980622
0.16650415457580078	0.15586466	0.39479697
0.18403092203956356	0.08248766	0.28720665
0.20155769380849	0.10745981	0.32781065
0.2190844702925996	0.11377239	0.33730164
0.2366112519019124	0.12403738	0.3521894
0.2541380390464497	0.09365928	0.30603805
0.27166483213623416	0.06270514	0.25040993
0.28919163158128947	0.058099214	0.24103779
0.3067184377916406	0.10389561	0.32232842
0.324245251177314	0.12871493	0.35876864
0.34177207214833777	0.19555822	0.44221964
0.3592989011147415	0.23095082	0.48057342
0.37682573848655654	0.25994202	0.5098451
0.39435258467381573	0.21457875	0.46322647
0.41187944008655414	0.17121509	0.41378143
0.42940630513480854	0.16681121	0.40842527
0.446933180228618	0.20742813	0.4554428
0.4644600657780234	0.19195068	0.43812177
0.48198696219306775	0.18227613	0.4269381
0.49951386988379676	0.16531785	0.40659297
0.5170407892602581	0.15654898	0.3956627
0.5345677207325025	0.19036056	0.4363033
0.5520946647105822	0.15549275	0.3943257
0.5696216216045534	0.13257204	0.36410445
0.5871485918244737	0.114802	0.33882445
0.6046755757804043	0.11669486	0.3416063
0.6222025738824094	0.13342011	0.3652672
0.6397295865405557	0.15269998	0.39076844
0.6572566141649129	0.16261306	0.4032531
0.6747836571655547	0.16872653	0.41076335
0.6923107159525568	0.20832631	0.45642778
0.7098377909359992	0.21358034	0.46214753
0.7273648825259653	0.24311335	0.49306527
0.7448919911325411	0.24583949	0.49582204
0.762419117165817	0.23116669	0.48079798
0.7799462610358868	0.206164	0.45405287
0.7974734231528482	0.21556649	0.4642914
0.8150006039268024	0.22760399	0.4770786
0.8325278037678551	0.21676782	0.4655833
0.8500550230861152	0.19605263	0.4427783
0.8675822622916969	0.16916914	0.41130176
0.8851095217947171	0.18233272	0.42700437
0.9026368020052984	0.17347634	0.41650492
0.9201641033335665	0.16648102	0.40802085
0.9376914261896523	0.15691306	0.39612252
0.9552187709836915	0.17588203	0.4193829
0.9727461381258234	0.2118559	0.46027806
0.990273528026193	0.22786212	0.47734904
1.0078009410949496	0.24422215	0.49418837
1.0253283777422473	0.24106157	0.4909802
1.0428558383782454	0.26300627	0.51284134
1.0603833234131086	0.27336136	0.5228397
1.0779108332570058	0.29985204	0.54758745
1.0954383683201119	0.3259341	0.5709064
1.112965929012607	0.3593252	0.5994374
1.1304935157446763	0.5125072	0.71589607
1.1480211289265108	0.5672574	0.75316495
1.1655487689683062	1.5446268	1.2428302
1.1830764362802655	1.832304	1.3536263
1.200604131272596	2.2364724	1.495484
1.2181318543555117	2.5134208	1.5853772
1.235659605939232	2.5211823	1.5878232
1.253187386433982	4.131127	2.0325174
1.270715196249994	6.4222956	2.5342247
1.2882430357975057	11.843453	3.441432
1.3057709054867608	16.693985	4.0858274
1.3232988057280106	22.336676	4.726169
1.3408267369315112	27.329075	5.2277217
1.358354699507526	30.49994	5.522675
1.3758826938663256	34.51676	5.875097
1.3934107204181858	36.42085	6.034969
1.410938779573391	37.076736	6.089067
1.4284668717422309	37.57651	6.129968
1.4459949973350033	36.707954	6.058709
1.4635231567620117	36.35601	6.0295944
1.4810513504335687	35.634556	5.9694686
1.4985795787599925	35.0401	5.919468
1.5161078421516088	34.943596	5.9113107
1.5336361410187505	34.108795	5.8402734
1.5511644757717598	34.146088	5.8434653
1.5686928468209842	34.76425	5.896122
1.58622125457678	35.666264	5.972124
1.6037496994495108	36.924397	6.076545
1.621278181849548	36.844166	6.0699396
1.6388067021872719	37.532043	6.12634
1.6563352608730693	37.10151	6.0911007
1.673863858317336	36.04692	6.0039086
1.6913924949304753	35.05471	5.920702
1.7089211711228998	34.17588	5.846014
1.7264498873050296	33.192776	5.7613173
1.7439786438872935	32.180367	5.6727743
1.7615074412801288	30.994112	5.5672355
1.779036279893981	30.390821	5.512787
1.796565160139305	29.330845	5.415796
1.814094082426564	28.748137	5.3617287
1.8316230471662298	28.122908	5.3031034
1.849152054768784	27.515955	5.2455654
1.8666811056447168	27.137516	5.209368
1.8842102002045273	26.554516	5.153107
1.901739338858724	25.824446	5.0817757
1.9192685220178245	25.464993	5.046285
1.9367977500923557	24.699553	4.9698644
1.9543270234928547	24.041681	4.9032316
1.971856342629867	23.497038	4.8473744
1.9893857079139496	23.043198	4.800333
2.006915119755667	22.640219	4.758174
2.0244445785655945	21.91361	4.6811976
2.0419740847543175	21.413933	4.627519
2.0595036387324317	20.795456	4.5602036
2.0770332409105414	20.376776	4.5140643
2.094562891699263	20.054537	4.478229
2.1120925915092217	19.746592	4.4437137
2.129622340751053	19.43835	4.4088945
2.1471521398354043	187.74124	13.70187
2.1646819891729323	444.06836	21.07293
2.182211889174303	440.39786	20.985659
2.1997418402501974	452.8193	21.27955
2.2172718428113023	432.81213	20.804138
2.234801897268317	320.55334	17.904003
2.2523320040319548	16.990337	4.1219335
2.269862163512935	16.483286	4.0599613
2.287392376121992	16.226103	4.028164
2.304922642269869	15.951494	3.9939322
2.322452962367322	15.607292	3.9506066
2.3399833368251164	15.307259	3.9124491
2.357513766054032	15.220673	3.9013681
2.3750442504648586	15.033364	3.8772883
2.3925747904683963	14.791189	3.8459315
2.410105386475459	14.5166025	3.810066
2.4276360388968707	14.164078	3.7635193
2.445166748143469	13.988661	3.7401419
2.4626975146261025	13.617108	3.6901367
2.4802283387556323	13.330197	3.6510544
2.4977592209429305	13.17038	3.6291018
2.5152901615988825	12.84773	3.584373
2.5328211611343865	12.627323	3.5534945
2.5503522199603523	12.327685	3.5110803
2.5678833384877024	12.174442	3.4891894
2.5854145171273712	11.943826	3.455984
2.6029457562903064	11.792724	3.4340534
2.620477056387469	11.77285	3.4311588
2.6380084178298326	11.668893	3.415976
2.655539841028383	11.516861	3.39365
2.673071326394119	11.34803	3.3686838
2.6906028743380523	11.143643	3.3382096
2.708134485271211	10.868694	3.2967703
2.7256661596046325	10.615689	3.2581728
2.743197897749369	10.203699	3.194323
2.760729700116486	10.245436	3.2008493
2.778261567117063	10.137526	3.183948
2.795793499162193	10.131299	3.18297
2.8133254966629817	9.875007	3.1424522
2.830857560030551	9.637089	3.104366
2.8483896896760337	9.4719515	3.0776536
2.865921886010578	9.42817	3.0705326
2.883454149445347	9.378345	3.0624082
2.9009864803915177	9.186924	3.030994
2.91851887926028	8.960336	2.993382
2.9360513464628384	8.809388	2.9680614
2.953583882410413	8.6038885	2.9332385
2.9711164875142373	8.539806	2.9222946
2.9886491621855606	8.412418	2.9004169
3.0061819068356455	8.302801	2.881458
3.023714721875769	8.279745	2.8774545
3.041247607717225	8.314415	2.8834727
3.0587805647713213	8.290075	2.879249
3.0763135934493806	8.201303	2.8637917
3.0938466941627407	8.0434	2.836089
3.1113798673227544	7.989673	2.826601
3.1289131133407904	7.811788	2.7949576
3.1464464326282315	7.76955	2.7873912
3.1639798255964786	7.5207143	2.742392
3.1815132926569443	7.398517	2.7200215
3.1990468342210603	7.3034296	2.7024858
3.216580450700272	7.1586504	2.6755655
3.2341141425060416	7.17345	2.6783297
3.251647910049847	7.0714574	2.6592212
3.2691817537431813	7.0726457	2.6594446
3.286715673997555	6.948154	2.635935
3.3042496712244938	6.82292	2.612072
3.32178374583554	6.7129993	2.5909457
3.339317898242251	6.68596	2.5857222
3.3568521288562034	6.653094	2.5793593
3.3743864380889876	6.5387754	2.557103
3.3919208263522127	6.3837476	2.526608
3.4094552940575023	6.180711	2.4861035
3.4269898416164972	6.183101	2.4865842
3.444524469440858	6.2024083	2.4904635
3.4620591779422587	6.3477592	2.519476
3.479593967532391	6.3219337	2.5143456
3.4971288386229658	6.210511	2.4920897
3.5146637916257086	6.1364446	2.4771848
3.5321988269523628	6.112462	2.4723394
3.5497339450146903	6.107913	2.4714193
3.5672691462244708	6.2147894	2.4929478
3.5848044309934988	6.1760497	2.4851658
3.60233979973359	6.1937995	2.4887345
3.619875252856575	6.3061576	2.5112064
3.6374107907743034	6.2752705	2.505049
3.6549464138986427	6.266211	2.50324
3.6724821226414788	6.218739	2.49374
3.690017917414714	6.219802	2.493953
3.7075537986302702	6.266417	2.5032814
3.7250897667000857	6.3398876	2.5179133
3.7426258220361235	6.484627	2.546493
3.7601619650503553	6.8673644	2.6205657
3.777698196154779	7.3119454	2.704061
3.7952345157614067	8.129738	2.8512695
3.8127709242822716	8.631191	2.9378889
3.830307422129425	10.486164	3.2382348
3.847844009714936	11.867068	3.4448612
3.8653806874508954	15.23387	3.903059
3.882917455749409	14.91086	3.8614583
3.900454315022606	15.03539	3.8775494
3.917991265682631	12.12188	3.481649
3.9355283081416506	10.391061	3.223517
3.9530654428118495	8.487941	2.913407
3.970602670105433	7.376137	2.7159045
3.9881399904346244	6.4806757	2.5457172
4.005677404211669	6.3423247	2.5183973
4.023214911848827	6.279514	2.5058959
4.0407525137583855	6.395873	2.5290062
4.058290210352644	6.42577	2.5349102
4.075828002043927	6.4042706	2.530666
4.0933658892445814	6.3062873	2.5112321
4.110903872366966	6.2285028	2.4956968
4.128441951823468	6.1236053	2.474592
4.145980128026488	6.0810623	2.465981
4.163518401388452	6.0200124	2.4535713
4.181056772321807	5.9132047	2.431708
4.1985952412390155	5.856293	2.419978
4.216133808552567	5.9648147	2.442297
4.233672474674966	6.042013	2.4580507
4.251211240018741	6.292919	2.5085692
4.268750104996445	6.510143	2.5514982
4.286289070020643	7.5779448	2.7528067
4.303828135503928	9.187513	3.0310912
4.3213673018589125	29.375008	5.4198713
4.3389065694982305	90.3969	9.507729
4.356445938834537	165.49564	12.864511
4.3739854102805085	171.46713	13.094546
4.391524984248844	172.42111	13.130922
4.409064661152262	136.78484	11.695505
4.426604441403504	97.171394	9.857555
4.444144325415337	75.720276	8.70174
4.461684313600543	21.42589	4.628811
4.47922440637193	21.421568	4.628344
4.496764604142329	19.773468	4.446737
4.5143049073245916	18.262503	4.273465
4.531845316331589	16.265375	4.0330353
4.5493858315762195	13.695618	3.7007592
4.566926453471405	11.368834	3.3717701
4.584467182430081	9.488501	3.080341
4.602008018865218	8.343992	2.888597
4.619548963189798	7.542059	2.746281
4.637090015816834	6.9551487	2.6372616
4.654631177159353	6.5810866	2.565363
4.672172447630417	6.309226	2.5118172
4.689713827643102	6.1015363	2.4701288
4.7072553176105085	5.909013	2.4308462
4.724796917945764	5.7068033	2.3888917
4.742338629062015	5.6307926	2.372929
4.759880451372434	5.641735	2.3752337
4.777422385290215	5.6863847	2.3846142
4.794964431228581	5.6490035	2.3767633
4.812506589600768	5.650682	2.3771162
4.830048860820047	5.694059	2.3862228
4.847591245299709	5.694543	2.3863242
4.8651337434530655	5.5936966	2.3650997
4.882676355693457	5.4543524	2.3354554
4.900219082434242	5.352396	2.3135245
4.917761924088813	5.3652325	2.316297
4.935304881070575	5.3722963	2.3178215
4.952847953792969	5.3151426	2.3054593
4.970391142669449	5.232026	2.2873623
4.9879344481135055	5.2654095	2.294648
5.005477870538642	5.2991815	2.301995
5.023021410358394	5.3170834	2.30588
5.040565067986324	5.3494806	2.3128943
5.05810884383601	5.365411	2.3163357
5.075652738321066	5.432387	2.330748
5.09319675185512	5.362686	2.3157475
5.110740884851836	5.354967	2.3140802
5.128285137724894	5.27038	2.2957308
5.145829510888007	5.2682757	2.2952726
5.163374004754908	5.2592993	2.2933161
5.1809186197393595	5.283914	2.2986765
5.198463356255145	5.3344145	2.3096352
5.216008214716077	5.286398	2.2992167
5.233553195535998	5.220471	2.284835
5.251098299128764	5.1298246	2.2649117
5.268643525908272	5.082751	2.2544956
5.286188876288432	5.1250334	2.2638535
5.3037343506831895	5.1570296	2.2709093
5.32127994950651	5.159478	2.2714484
5.3388256731723915	5.2069716	2.281879
5.356371522094851	5.181222	2.2762299
5.373917496687938	5.113664	2.2613413
5.391463597365729	5.027977	2.242315
5.40900982454232	4.9795203	2.231484
5.426556178631843	5.046033	2.2463377
5.444102660048449	5.148627	2.2690585
5.4616492692063225	5.127681	2.2644384
5.479196006519669	5.1091523	2.2603433
5.496742872402727	5.113749	2.26136
5.514289867269756	5.1528645	2.269992
5.531836991535049	5.1655407	2.2727826
5.549384245612924	5.1588	2.2712991
5.566931629917724	5.1169677	2.2620716
5.584479144863822	5.0880723	2.2556756
5.6020267908656205	5.0632944	2.2501764
5.619574568337545	5.062207	2.249935
5.637122477694054	5.0981083	2.257899
5.654670519349629	5.067197	2.2510436
5.672218693718784	5.076655	2.2531433
5.689767001216059	5.0462537	2.2463868
5.707315442256021	5.1245584	2.2637486
5.724864017253266	5.1401987	2.2672007
5.7424127266224225	5.212313	2.283049
5.75996157077814	5.158213	2.27117
5.777510550135105	5.1617007	2.2719376
5.795059665108022	5.0212827	2.2408218
5.812608916111639	5.0374184	2.2444193
5.830158303560715	5.1411567	2.267412
5.847707827870055	5.2754683	2.2968388
5.86525748945448	5.405025	2.324871
5.8828072887288485	5.504115	2.346085
5.900357226108044	5.5320387	2.3520286
5.917907302006979	5.5251684	2.3505676
5.9354575168406	5.945523	2.4383442
5.9530078710238765	6.4737234	2.5443513
5.970558364971812	7.0183268	2.6492124
5.988108999099438	7.376885	2.716042
6.005659773821818	7.8005342	2.7929437
6.023210689554039	7.545949	2.746989
6.040761746711227	7.9117904	2.8127904
6.058312945708531	7.4017086	2.7206082
6.075864286961132	6.973226	2.6406868
6.093415770884244	6.399795	2.5297816
6.1109673978931065	5.903927	2.4297998
6.128519168402993	5.4418216	2.3327713
6.146071082829204	5.271469	2.295968
6.163623141587075	5.081051	2.2541187
6.181175345091969	4.9684834	2.2290096
6.198727693759281	4.9808936	2.2317915
6.216280188004435	5.067931	2.2512066
6.233832828242885	5.141453	2.2674773
6.251385614890126	5.0873437	2.2555141
6.268938548361669	5.027541	2.242218
6.286491629073067	4.960488	2.2272153
6.304044857439898	5.0049686	2.2371788
6.321598233877777	4.948976	2.2246294
6.339151758802344	4.9158506	2.2171717
6.356705432629277	4.9277334	2.2198498
6.37425925577428	4.9187984	2.2178364
6.391813228653095	4.8855176	2.2103207
6.409367351681486	4.858969	2.204307
6.426921625275259	4.845346	2.2012146
6.44447604985025	4.877946	2.2086072
6.46203062582232	4.92518	2.2192748
6.47958535360737	4.968876	2.2290976
6.497140233621328	4.923188	2.2188258
6.514695266280161	4.893012	2.2120154
6.532250451999859	4.8920817	2.211805
6.549805791196454	4.976337	2.2307706
6.567361284286002	5.0028243	2.2366993
6.584916931684597	4.9685264	2.2290192
6.602472733808367	4.934263	2.2213202
6.6200286910734665	4.874167	2.2077515
6.637584803896092	4.836159	2.199127
6.655141072692462	4.8610916	2.2047884
6.672697497878842	4.863144	2.2052536
6.690254079871514	4.9478073	2.2243667
6.707810819086808	4.910641	2.2159967
6.725367715941078	4.8803596	2.2091537
6.742924770850719	4.795823	2.1899369
6.760481984232151	4.771175	2.1843019
6.778039356501836	4.8217316	2.1958442
6.795596888076266	4.838204	2.1995919
6.813154579371963	4.827204	2.19709
6.830712430805492	4.840031	2.200007
6.84827044279344	4.905939	2.2149355
6.865828615752445	4.9513335	2.2251592
6.883386950099159	4.911844	2.216268
6.900945446250287	4.917846	2.2176218
6.918504104622553	4.89584	2.2126546
6.936062925632727	4.9217153	2.218494
6.953621909697607	4.911064	2.216092
6.971181057234028	5.0118895	2.238725
6.988740368658859	5.0916243	2.2564628
7.006299844389007	5.1799564	2.2759519
7.023859484841407	5.2521787	2.2917633
7.041419290433036	5.3714676	2.3176427
7.058979261580902	5.5021305	2.345662
7.0765393987020495	5.6546283	2.3779461
7.094099702213559	5.9907193	2.4475946
7.111660172532549	6.361382	2.522178
7.129220810076164	6.7079353	2.5899682
7.146781615261595	7.433995	2.7265353
7.16434258850606	7.635235	2.763193
7.181903730226821	8.147679	2.854414
7.1994650408411704	8.060947	2.8391807
7.217026520766437	8.147327	2.8543525
7.234588170419983	8.319181	2.884299
7.252149990219215	8.311931	2.8830419
7.269711980581568	8.237249	2.870061
7.2872741419245175	8.095572	2.845272
7.304836474665574	7.6593666	2.767556
7.322398979222286	7.405308	2.7212696
7.339961656012233	7.0918827	2.663059
7.357524505453039	6.7142673	2.5911903
7.375087527962357	6.3106165	2.512094
7.392650723957886	6.0237317	2.4543293
7.410214093857353	5.753052	2.3985522
7.427777638078528	5.598651	2.3661468
7.445341357039213	5.5094337	2.3472183
7.4629052511572525	5.370223	2.3173742
7.480469320850524	5.27997	2.2978187
7.498033566536948	5.1306586	2.2650957
7.5155979886344735	5.000623	2.2362072
7.5331625875610975	4.9366856	2.2218654
7.550727363734844	5.003587	2.2368698
7.568292317573788	5.0470605	2.2465663
7.585857449496025	5.008462	2.2379594
7.603422759919705	5.0231295	2.2412338
7.620988249263007	5.112649	2.2611167
7.638553917944147	5.1721234	2.2742302
7.656119766381391	5.13924	2.2669892
7.673685794993023	5.1063776	2.2597296
7.691252004197388	5.139696	2.2670898
7.70881839441285	5.203142	2.2810397
7.726384966057826	5.26294	2.2941098
7.743951719550762	5.211689	2.2829125
7.761518655310149	5.2359314	2.2882159
7.779085773754511	5.2521234	2.2917511
7.796653075302419	5.2622175	2.2939525
7.814220560372475	5.277675	2.2973192
7.831788229383323	5.2659664	2.2947693
7.8493560827536495	5.262037	2.293913
7.866924120902174	5.187384	2.277583
7.884492344247663	5.213408	2.283289
7.9020607532089135	5.169288	2.2736068
7.919629348204771	5.229704	2.2868545
7.937198129654115	5.307904	2.3038888
7.954767097975865	5.3161373	2.305675
7.972336253588986	5.328134	2.3082752
7.989905596912472	5.2898855	2.2999752
8.007475128365371	5.2643995	2.2944279
8.025044848366756	5.248267	2.2909098
8.042614757335754	5.4154224	2.327106
8.060184855691523	5.5036955	2.3459957
8.07775514385327	5.7387323	2.395565
8.095325622240228	5.7903714	2.4063191
8.112896291271687	5.8481297	2.4182906
8.130467151366968	5.8623133	2.4212215
8.148038202945436	5.8626103	2.4212828
8.165609446426497	5.8900266	2.4269376
8.183180882229594	5.9522285	2.439719
8.200752510774217	5.950966	2.4394603
8.218324332479893	5.9805512	2.4455166
8.235896347766193	5.9812803	2.4456656
8.253468557052724	5.9990454	2.4492948
8.27104096075914	5.9447937	2.4381948
8.288613559305137	5.928794	2.4349115
8.306186353110448	5.963074	2.4419405
8.32375934259485	6.036761	2.4569821
8.341332528178162	6.11146	2.4721367
8.358905910280246	6.1742587	2.4848056
8.376479489321003	6.1537104	2.4806674
8.394053265720377	6.1700354	2.4839556
8.411627239898356	6.1436143	2.4786315
8.42920141227497	6.103078	2.4704409
8.44677578327029	6.075234	2.464799
8.464350353304427	6.0292783	2.4554589
8.48192512279754	6.027322	2.4550605
8.499500092169827	6.0606375	2.461836
8.51707526184153	6.0460286	2.4588673
8.534650632232934	6.0767226	2.465101
8.552226203764365	5.9922533	2.447908
8.569801976856192	5.9728136	2.443934
8.587377951928834	6.053986	2.460485
8.60495412940274	6.188794	2.4877286
8.622530509698416	6.2910547	2.5081975
8.6401070932364	6.3819923	2.5262606
8.657683880437283	6.3902054	2.5278854
8.675260871721695	6.505553	2.5505986
8.692838067510303	6.6728654	2.583189
8.710415468223834	6.8684216	2.6207674
8.727993074283043	6.976977	2.6413968
8.745570886108737	7.0151205	2.6486073
8.763148904121765	7.0312815	2.6516564
8.78072712874302	7.0780983	2.6604695
8.798305560393441	7.3140454	2.7044492
8.815884199494006	7.494731	2.7376506
8.833463046465745	7.6862803	2.7724142
8.851042101729728	7.86704	2.8048244
8.86862136570707	8.237405	2.8700879
8.886200838818924	8.385773	2.89582
8.903780521486505	8.375171	2.8939886
8.921360414131055	8.402011	2.8986223
8.938940517173874	8.504571	2.9162598
8.956520831036297	8.619958	2.9359765
8.97410135613971	8.900947	2.9834454
8.99168209290554	9.003261	3.0005434
9.009263041755265	9.338806	3.055946
9.026844203110405	9.506914	3.0833285
9.044425577392525	9.649357	3.1063414
9.062007165023239	9.692515	3.1132805
9.079588966424197	9.982826	3.1595612
9.097170982017108	10.125208	3.1820133
9.11475321222372	10.946379	3.3085313
9.132335657465825	11.718504	3.42323
9.149918318165264	11.66395	3.4152524
9.167501194743924	12.21366	3.4948049
9.18508428762374	12.007435	3.4651747
9.202667597226693	12.035814	3.4692671
9.220251123974803	11.693135	3.4195228
9.237834868290143	11.424564	3.3800242
9.255418830594836	11.219165	3.349502
9.273003011311046	10.778172	3.2830126
9.290587410860985	10.539209	3.246415
9.308172029666911	9.94663	3.1538277
9.32575686815113	9.70678	3.1155705
9.343341926735997	8.623671	2.9366088
9.360927205843916	8.427578	2.9030292
9.378512705897327	8.251728	2.8725822
9.396098427318728	8.025751	2.8329756
9.413684370530664	7.929148	2.8158743
9.431270535955722	7.760122	2.7856996
9.448856924016539	7.7374735	2.7816315
9.466443535135806	7.6125216	2.75908
9.484030369736251	7.6554055	2.7668405
9.501617428240658	7.6356773	2.763273
9.519204711071852	7.6801853	2.7713146
9.536792218652714	7.734798	2.7811506
9.55437995140617	7.7634444	2.786296
9.571967909755191	7.770721	2.7876012
9.589556094122802	7.7539587	2.784593
9.60714450493207	7.7928543	2.7915685
9.624733142606116	7.8248453	2.7972925
9.642322007568108	7.8162756	2.7957604
9.659911100241267	7.7873406	2.7905807
9.677500421048851	7.852879	2.8022988
9.695089970414175	7.970773	2.8232558
9.712679748760609	8.0554495	2.8382125
9.730269756511557	8.059459	2.8389187
9.747859994090492	8.06172	2.8393168
9.765450461920915	8.079497	2.8424456
9.78304116042639	8.115289	2.8487346
9.800632090030527	8.099783	2.8460119
9.81822325115699	8.127146	2.8508148
9.835814644229481	8.081817	2.8428535
9.853406269671762	8.116176	2.8488903
9.870998127907646	8.083894	2.8432188
9.888590219360985	8.1131525	2.8483596
9.906182544455698	8.153773	2.8554814
9.923775103615734	8.1596775	2.856515
9.941367897265108	8.166709	2.8577454
9.958960925827878	8.238195	2.8702257
9.97655418972816	8.2113085	2.8655381
9.994147689390106	8.251988	2.8726275
10.011741425237934	8.147399	2.8543649
10.029335397695904	8.123371	2.8501527
10.04692960718833	8.125415	2.8505113
10.06452405413958	8.189106	2.8616614
10.082118738974064	8.246319	2.8716404
10.099713662116246	8.24156	2.8708117
10.117308823990651	8.217965	2.8666995
10.134904225021844	8.135835	2.8523386
10.152499865634445	8.045578	2.8364727
10.170095746253125	8.00944	2.8300955
10.18769186730261	7.9774585	2.8244395
10.205288229207675	8.01693	2.8314183
10.222884832393145	8.008116	2.8298614
10.2404816772839	8.012631	2.8306592
10.258078764304868	7.954512	2.8203745
10.275676093881035	7.8906794	2.8090353
10.293273666437438	7.861293	2.8037996
10.310871482399158	7.859843	2.8035412
10.32846954219134	7.9279103	2.8156545
10.346067846239173	7.9681005	2.8227825
10.363666394967908	7.96765	2.8227026
10.38126518880283	8.010411	2.830267
10.398864228169298	8.071817	2.8410945
10.416463513492713	8.131196	2.8515253
10.434063045198531	8.14563	2.854055
10.451662823712262	8.118346	2.849271
10.469262849459467	8.072527	2.8412192
10.486863122865758	7.941935	2.8181438
10.504463644356806	7.926402	2.8153868
10.522064414358338	7.8254247	2.797396
10.539665433296118	7.81532	2.7955894
10.557266701595987	7.7303042	2.7803426
10.574868219683818	7.6603413	2.7677321
10.592469987985552	7.501631	2.7389104
10.610072006927185	7.3287783	2.7071717
10.627674276934751	7.2106376	2.685263
10.64527679843435	7.156659	2.6751933
10.662879571852143	7.104789	2.6654809
10.680482597614331	7.0096393	2.6475723
10.698085876147173	6.86699	2.6204941
10.715689407876988	6.7223926	2.5927577
10.733293193230146	6.6181545	2.5725775
10.750897232633072	6.552251	2.5597365
10.76850152651225	6.476754	2.544947
10.786106075294207	6.430036	2.5357516
10.803710879405534	6.3967338	2.5291765
10.821315939272877	6.3182564	2.5136142
10.83892125532294	6.2439866	2.498797
10.856526827982472	6.1720963	2.4843705
10.874132657678285	6.1657467	2.483092
10.891738744837243	6.1004367	2.469906
10.909345089886271	6.0068884	2.4508953
10.926951693252343	5.9855204	2.4465322
10.944558555362494	5.966637	2.44267
10.96216567664381	5.9307013	2.4353032
10.979773057523436	5.7773676	2.4036155
10.997380698428573	5.7000456	2.387477
11.014988599786477	5.683412	2.3839908
11.032596762024461	5.599798	2.3663893
11.050205185569892	5.540487	2.353824
11.067813870850198	5.48429	2.3418562
11.085422818292859	5.4503403	2.3345964
11.10303202832541	5.4279423	2.3297944
11.120641501375454	5.3319874	2.3091097
11.138251237870636	5.1822677	2.2764595
11.155861238238671	5.0753946	2.2528636
11.173471502907317	4.9758615	2.230664
11.191082032304402	4.904611	2.2146356
11.208692826857805	4.9515142	2.2252
11.226303886995465	4.936143	2.221743
11.243915213145371	4.907531	2.2152948
11.261526805735578	4.8293805	2.197585
11.279138665194196	4.7805195	2.18644
11.296750791949393	4.731831	2.1752772
11.314363186429393	4.656677	2.1579335
11.331975849062479	4.662169	2.1592057
11.34958878027699	4.6122437	2.1476135
11.36720198050133	4.554335	2.1340888
11.384815450163948	4.4457703	2.1084995
11.402429189693366	4.3570986	2.0873663
11.420043199518153	4.3078294	2.075531
11.437657480066942	63.277058	7.9546876
11.455272031768422	85.01679	9.220455
11.472886855051353	107.44162	10.365405
11.490501950344528	99.02644	9.951203
11.508117318076819	84.36561	9.185076
11.52573295867715	45.770588	6.7653966
11.543348872574514	4.078371	2.0194976
11.560965060197946	3.989006	1.9972496
11.57858152197655	3.920298	1.9799743
11.59619825833949	3.917866	1.97936
11.613815269715985	3.919663	1.9798138
11.631432556535323	38.433178	6.19945
11.649050119226837	82.989555	9.10986
11.666667958219929	93.35312	9.661942
11.68428607394406	107.58785	10.372457
11.701904466828756	82.39169	9.076987
11.719523137303586	65.26196	8.078487
11.737142085798196	4.5307727	2.1285613
11.754761312742286	3.642391	1.908505
11.772380818565619	3.599101	1.8971297
11.790000603698015	3.5864336	1.8937882
11.80762066856935	3.5155413	1.8749777
11.825241013609572	3.5011227	1.8711287
11.842861639248683	3.4559364	1.8590149
11.860482545916748	3.4349856	1.8533714
11.878103734043883	3.4478998	1.8568522
11.895725204060282	3.3982315	1.8434293
11.91334695639619	3.374017	1.8368497
11.930968991481919	3.367391	1.8350452
11.948591309747824	3.3731766	1.8366209
11.966213911624347	3.370925	1.8360078
11.98383679754198	3.312707	1.8200843
12.001459967931268	3.2342591	1.7984046
12.019083423222835	3.2122023	1.7922618
12.036707163847352	3.1930993	1.7869245
12.05433119023556	3.2229013	1.7952441
12.071955502818259	3.2207756	1.794652
12.089580102026313	3.17235	1.7811092
12.107204988290643	3.1011925	1.7610203
12.12483016204224	3.0490236	1.7461454
12.142455623712152	3.0456488	1.7451787
12.16008137373149	3.0617862	1.749796
12.177707412531431	3.0459447	1.7452635
12.19533374054321	3.0228171	1.738625
12.212960358198126	2.9901228	1.7291971
12.230587265927545	2.949701	1.7174693
12.248214464162889	2.9254415	1.7103922
12.265841953335649	2.9460695	1.7164118
12.283469733877375	2.955561	1.7191745
12.301097806219685	2.918907	1.7084808
12.31872617079425	2.9172652	1.7080003
12.336354828032825	2.9026496	1.7037164
12.353983778367205	2.9507716	1.717781
12.371613022229262	2.9331985	1.7126583
12.389242560050928	2.9020789	1.7035489
12.406872392264201	2.8186119	1.6788722
12.424502519301143	2.7686434	1.6639241
12.442132941593874	2.7678874	1.6636969
12.459763659574586	2.7880101	1.6697335
12.477394673675532	2.8103037	1.676396
12.49502598432903	2.808538	1.6758693
12.51265759196746	2.7908013	1.6705692
12.530289497023267	2.780792	1.6675707
12.547921699928967	2.728804	1.6519092
12.565554201117134	2.7230003	1.6501516
12.583187001020404	2.6953924	1.641765
12.600820100071486	2.7076378	1.6454902
12.618453498703152	2.7215927	1.6497251
12.636087197348235	2.7551222	1.6598561
12.65372119643964	2.753766	1.6594476
12.671355496410326	2.7692735	1.6641134
12.68899009769333	2.8093538	1.6761128
12.706625000721749	2.8406723	1.6854295
12.724260205928752	2.90021	1.7030003
12.741895713747551	2.872126	1.6947348
12.759531524611454	2.8674476	1.693354
12.777167638953818	2.866188	1.692982
12.794804057208072	2.919646	1.7086972
12.812440779807702	3.0088801	1.7346123
12.830077807186271	3.1756365	1.7820315
12.847715139777405	3.1901476	1.7860985
12.865352778014795	3.3673158	1.8350247
12.882990722332197	3.4193125	1.8491383
12.90062897316344	3.4830995	1.8663064
12.918267530942412	3.5570009	1.8860013
12.935906396103071	3.4631016	1.860941
12.953545569079449	3.600071	1.8973852
12.971185050305628	3.4119623	1.8471497
12.988824840215775	3.4155362	1.8481169
13.006464939244115	3.4223866	1.8499694
13.024105347824943	3.3042579	1.8177618
13.041746066392617	3.4190419	1.8490652
13.05938709538157	3.2500532	1.8027904
13.077028435226296	3.2776716	1.8104341
13.094670086361363	3.1900544	1.7860724
13.112312049221401	3.086807	1.7569312
13.129954324241112	3.019323	1.73762
13.147596911855258	2.837703	1.6845483
13.165239812498685	2.8001301	1.6733589
13.182883026606293	2.7261527	1.6511065
13.200526554613058	2.692867	1.6409957
13.218170396954017	2.6810682	1.6373968
13.235814554064284	2.6765501	1.6360166
13.253459026379034	2.670311	1.6341087
13.271103814333523	2.6539333	1.6290897
13.288748918363058	2.6632855	1.6319575
13.306394338903031	2.6310816	1.6220609
13.32404007638889	2.6313674	1.622149
13.341686131256164	2.6577466	1.6302596
13.359332503940449	2.6585205	1.630497
13.376979194877402	2.6528997	1.6287725
13.394626204502751	2.662486	1.6317127
13.412273533252307	2.6804626	1.6372118
13.429921181561937	2.6664448	1.6329253
13.447569149867581	2.6620002	1.6315637
13.465217438605247	2.6919541	1.6407176
13.482866048211022	2.6986716	1.6427634
13.500514979121052	2.6843212	1.6383898
13.518164231771568	2.6275067	1.6209586
13.535813806598844	2.6002383	1.6125255
13.553463704039254	2.5911863	1.6097162
13.571113924529229	2.608864	1.6151979
13.588764468505275	2.641194	1.6251751
13.606415336403956	2.6758018	1.6357878
13.624066528661917	2.6986682	1.6427624
13.641718045715882	2.7477543	1.6576352
13.659369888002635	2.7802925	1.6674209
13.67702205595903	2.8341336	1.6834885
13.694674550021993	2.8862824	1.6989063
13.712327370628532	2.9648	1.7218595
13.729980518215713	3.080534	1.755145
13.747633993220681	3.1814716	1.783668
13.765287796080647	3.1890588	1.7857935
13.7829419272329	3.2752361	1.8097614
13.800596387114801	3.276076	1.8099934
13.818251176163775	3.3065076	1.8183805
13.835906294817324	3.304806	1.8179126
13.853561743513023	3.30892	1.8190436
13.871217522688525	3.321337	1.8224536
13.888873632781538	3.357101	1.8322394
13.906530074229858	3.402051	1.8444649
13.92418684747135	3.4401143	1.8547544
13.941843952943948	3.4354107	1.8534861
13.959501391085665	3.431946	1.8525512
13.977159162334578	3.34683	1.8294343
13.994817267128846	3.2755325	1.8098432
14.012475705906693	3.1997805	1.788793
14.030134479106424	3.1438315	1.7730854
14.047793587166414	3.1170285	1.7655108
14.065453030525108	3.0626664	1.7500476
14.083112809621026	2.9878597	1.7285427
14.100772924892766	2.9082143	1.7053487
14.118433376778997	2.8108766	1.676567
14.136094165718458	2.7335331	1.65334
14.153755292149969	2.6348693	1.6232281
14.171416756512416	2.5934088	1.6104064
14.189078559244768	2.5563865	1.5988704
14.20674070078606	2.5285861	1.5901529
14.224403181575408	2.4635918	1.5695833
14.242066002051999	2.3934705	1.5470846
14.259729162655093	2.375704	1.5413319
14.277392663824022	2.3641622	1.5375832
14.295056505998208	2.3810048	1.5430505
14.312720689617128	2.3961866	1.5479621
14.330385215120348	2.3917327	1.5465227
14.348050082947497	2.3634508	1.5373518
14.3657152935383	2.3642893	1.5376246
14.383380847332528	2.3606668	1.5364461
14.401046744770051	2.3608546	1.5365072
14.418712986290798	2.3246174	1.5246696
14.436379572334793	2.296286	1.5153501
14.454046503342123	2.2804065	1.5101014
14.471713779752946	2.2716887	1.5072123
14.489381402007504	2.2670774	1.5056818
14.507049370546113	2.2423048	1.4974327
14.524717685809168	2.2960694	1.5152787
14.542386348237134	2.3186452	1.5227098
14.560055358270553	2.3421142	1.5303967
14.577724716350051	2.366477	1.5383358
14.595394422916325	2.372875	1.5404139
14.61306447841015	2.4213936	1.5560827
14.63073488327237	2.4391356	1.5617732
14.648405637943917	2.4754653	1.5733612
14.6660767428658	2.4464855	1.5641245
14.683748198479094	2.4563513	1.5672752
14.701420005224954	2.499258	1.5809041
14.719092163544628	2.5681183	1.602535
14.73676467387942	2.623086	1.6195943
14.754437536670727	2.6386166	1.6243819
14.772110752360014	2.6564493	1.6298617
14.78978432138882	2.6264195	1.6206232
14.807458244198777	2.6385162	1.624351
14.82513252123159	2.6319778	1.6223371
14.842807152929028	2.6389298	1.6244783
14.860482139732962	2.640087	1.6248344
14.87815748208531	2.6235905	1.6197501
14.8958331804281	2.5991297	1.6121817
14.91350923520342	2.5664	1.6019988
14.931185646853438	2.631883	1.6223079
14.948862415820408	2.635122	1.6233059
14.966539542546656	2.619407	1.6184582
14.98421702747459	2.6077883	1.6148648
15.001894871046696	2.6596327	1.630838
15.019573073705542	2.6911328	1.6404673
15.037251635893766	2.6800427	1.6370836
15.054930558054092	2.6773233	1.6362529
15.072609840629323	2.7277975	1.6516045
15.090289484062351	2.8457932	1.686948
15.107969488796124	3.142776	1.7727877
15.125649855273691	3.5920596	1.895273
15.14333058393817	4.0401	2.01
15.161011675232768	4.944836	2.2236989
15.17869312960076	6.3160615	2.5131776
15.196374947485506	8.215541	2.8662765
15.214057129330447	11.223402	3.3501346
15.231739675579114	15.565566	3.945322
15.249422586675102	20.017183	4.4740567
15.267105863062092	22.684755	4.7628517
15.284789505183847	22.781698	4.773018
15.302473513484218	20.704168	4.5501833
15.320157888407127	17.35313	4.165709
15.337842630396578	13.543348	3.6801288
15.355527739896656	10.563519	3.2501566
15.37321321735153	8.296617	2.8803847
15.39089906320545	6.1897755	2.487926
15.408585277902748	4.700856	2.168146
15.42627186188783	3.6599157	1.9130906
15.443958815605198	3.1955764	1.7876176
15.461646139499424	2.9624927	1.7211894
15.479333834015168	2.8449657	1.6867026
15.497021899597165	2.742099	1.6559285
15.514710336690234	2.6973593	1.6423639
15.53239914573928	2.6541455	1.6291548
15.550088327189297	2.6138759	1.6167486
15.567777881485336	2.5329869	1.591536
15.58546780907256	2.4764192	1.5736643
15.6031581103962	2.4425297	1.5628594
15.620848785901568	2.385686	1.5445666
15.638539836034063	2.3893473	1.5457513
15.656231261239173	2.3698285	1.5394248
15.673923061962451	2.357676	1.5354726
15.691615238649552	2.3652644	1.5379416
15.709307791746202	2.388564	1.545498
15.727000721698221	2.3649876	1.5378516
15.744694028951498	2.329827	1.5263771
15.76238771395202	2.2999034	1.5165433
15.780081777145844	2.3110998	1.5202302
15.797776218979125	2.3161175	1.5218796
15.815471039898094	2.2835538	1.5111432
15.833166240349064	2.249432	1.4998107
15.850861820778437	2.2554386	1.5018117
15.868557781632699	2.2941263	1.5146374
15.886254123358412	2.3149414	1.5214932
15.903950846402232	2.3117008	1.5204278
15.921647951210897	2.2684643	1.5061423
15.939345438231225	2.2828712	1.5109173
15.957043307910133	2.2844763	1.5114484
15.974741560694602	2.30159	1.5170991
15.992440197031714	2.2980084	1.5159184
16.01013921736862	2.3181126	1.522535
16.02783862215259	2.3055916	1.5184175
16.045538411830933	2.3101048	1.519903
16.06323858685107	2.3009472	1.5168873
16.080939147660512	2.28439	1.5114199
16.09864009470684	2.2891054	1.512979
16.11634142843774	2.312423	1.5206653
16.134043149300954	2.3327868	1.5273464
16.15174525774433	2.3433132	1.5307884
16.169447754215817	2.3381717	1.5291082
16.18715063916342	2.3982944	1.5486428
16.204853913035244	2.414022	1.5537124
16.222557576279478	2.403886	1.5504471
16.240261629344403	22.359528	4.728586
16.257966072678386	42.933353	6.552355
16.275670906729868	38.067368	6.1698756
16.293376131947387	2.48192	1.5754111
16.31108174877957	2.448461	1.5647559
16.328787757675133	2.437929	1.5613868
16.34649415908287	2.457566	1.5676626
16.364200953451657	2.5239236	1.5886861
16.38190814123048	2.5522203	1.597567
16.39961572286839	2.5705736	1.6033008
16.41732369881455	2.6331542	1.6226996
16.43503206951817	2.7223365	1.6499505
16.45274083542859	2.7776592	1.6666311
16.47044999699522	2.7764144	1.6662576
16.488159554667558	2.7541437	1.6595613
16.505869508895184	2.763712	1.6624416
16.523579860127786	2.8061602	1.6751598
16.541290608815117	2.865559	1.6927962
16.559001755407035	2.934434	1.713019
16.57671330035348	2.9829857	1.7271322
16.59442524410448	3.0166574	1.7368528
16.61213758711015	3.0707896	1.7523669
16.629850329820705	3.1562345	1.7765794
16.647563472686436	3.2681172	1.8077935
16.665277016157724	3.3356297	1.8263706
16.682990960685053	3.341236	1.8279048
16.70070530671898	3.3492184	1.830087
16.718420054710155	3.3492012	1.8300823
16.736135205109335	3.4231372	1.8501722
16.753850758367335	3.4991841	1.8706106
16.771566714935087	3.5539756	1.8851991
16.789283075263597	3.556462	1.8858584
16.80699983980398	3.5703225	1.8895297
16.82471700900741	3.694534	1.9221171
16.84243458332518	3.8078182	1.9513632
16.860152563208665	3.9320118	1.9829301
16.87787094910932	4.0013027	2.0003257
16.89558974147871	4.040319	2.0100543
16.913308940768466	4.063468	2.0158045
16.931028547430333	4.119611	2.0296824
16.94874856191613	4.1736593	2.0429535
16.966468984677785	4.252496	2.062158
16.98418981616729	4.263941	2.0649312
17.00191105683676	4.3103166	2.0761302
17.019632707138374	4.336153	2.082343
17.03735476752442	4.377036	2.0921366
17.05507723844728	4.4236674	2.1032517
17.072800120359403	4.460949	2.1120958
17.090523413713353	4.5110517	2.1239235
17.108247118961785	4.5203447	2.1261103
17.125971236557437	4.5164456	2.125193
17.143695766953133	4.4889402	2.118712
17.161420710601806	4.49726	2.1206744
17.179146067956477	4.526493	2.1275556
17.19687183947025	4.560185	2.135459
17.21459802559634	4.54518	2.1319427
17.232324626788028	4.5185723	2.1256933
17.25005164349871	4.4997396	2.121259
17.267779076181863	4.4742093	2.1152327
17.285506925291074	4.474233	2.1152384
17.30323519127999	4.452355	2.1100605
17.320963874602384	4.4478073	2.1089826
17.33869297571211	4.4567647	2.1111052
17.356422495063114	4.443041	2.1078522
17.37415243310944	4.4238133	2.1032863
17.391882790305218	4.393843	2.0961497
17.40961356710468	4.3817587	2.093265
17.42734476396215	4.4055004	2.0989285
17.445076381332044	4.406105	2.0990725
17.462808419668868	4.5053196	2.1225739
17.48054087942723	4.66385	2.1595948
17.498273761061835	5.0192633	2.2403712
17.51600706502747	5.557128	2.357356
17.533740791779024	6.278239	2.5056415
17.551474941771485	7.644699	2.764905
17.56920951545993	8.56987	2.927434
17.586944513299528	10.3369255	3.2151089
17.60467993574556	11.613928	3.4079213
17.622415783253373	13.01358	3.607434
17.64015205627843	14.290243	3.7802439
17.657888755276293	15.328847	3.9152071
17.675625880702604	15.837592	3.9796472
17.69336343301311	15.697713	3.962034
17.71110141266366	15.064528	3.881305
17.728839820110178	14.203781	3.7687905
17.746578655808705	13.548649	3.6808488
17.764317920215372	12.424858	3.5248911
17.7820576137864	11.23639	3.3520725
17.79979773697811	9.335129	3.0553443
17.81753829024692	7.5032706	2.73921
17.835279274049356	5.8041205	2.4091742
17.85302068884201	4.774977	2.185172
17.870762535081607	4.161007	2.0398545
17.888504813224934	3.877005	1.9690112
17.90624752372891	3.7007132	1.9237238
17.923990667050536	3.5215156	1.8765702
17.941734243646895	3.41853	1.8489267
17.959478253975185	3.3827398	1.8392226
17.9772226984927	3.3898382	1.8411514
17.994967577656833	3.3557775	1.8318782
18.01271289192506	3.2922795	1.814464
18.030458641754965	3.2958772	1.8154551
18.04820482760425	3.3259428	1.8237168
18.06595144993067	3.3174422	1.8213847
18.083698509192125	3.2349572	1.7985986
18.101446005846576	3.131366	1.7695667
18.119193940352105	3.106184	1.762437
18.136942313166887	3.1408272	1.7722379
18.1546911247492	3.1677406	1.7798147
18.1724403755574	3.134782	1.7705315
18.19019006604997	3.1151583	1.7649812
18.207940196685467	3.0948322	1.7592136
18.225690767922575	3.0252016	1.7393106
18.243441780220046	3.0001922	1.7321063
18.261193234036764	2.981735	1.7267702
18.278945129831676	3.0142875	1.7361703
18.29669746806386	3.004312	1.7332951
18.314450249192483	2.9868832	1.7282602
18.3322034736768	2.9980333	1.731483
18.349957141976184	2.9887323	1.728795
18.3677112545501	2.9901073	1.7291926
18.385465811858108	2.992104	1.72977
18.403220814359884	3.0202508	1.7378869
18.420976262515172	3.028145	1.7401567
18.43873215678387	3.0065424	1.7339385
18.456488497625923	3.0259743	1.7395328
18.474245285501407	3.1503778	1.7749304
18.492002520870486	3.2693906	1.8081456
18.50976020419343	3.3223894	1.8227422
18.527518335930615	3.5905004	1.8948616
18.545276916542516	4.1360106	2.0337183
18.563035946489688	4.3037314	2.0745437
18.580795426232832	4.7650504	2.1828995
18.598555356232698	4.760168	2.181781
18.616315736950185	5.1361814	2.2663145
18.63407656884626	4.7799587	2.1863117
18.65183785238201	4.945056	2.2237482
18.669599588018617	4.68666	2.1648695
18.68736177621737	4.694284	2.1666296
18.705124417439652	4.697342	2.1673353
18.72288751214696	4.5479	2.1325808
18.740651060800886	4.7546654	2.1805196
18.758415063863115	4.3983254	2.0972185
18.77617952179546	4.4952936	2.1202106
18.793944435059814	4.1884623	2.0465734
18.811709804118184	4.263292	2.064774
18.829475629432675	4.2078266	2.0512989
18.8472419114655	3.9773347	1.9943256
18.86500865067897	4.0426693	2.010639
18.88277584753551	3.7368107	1.9330832
18.90054350249763	3.7823203	1.9448189
18.918311616027957	3.4802012	1.8655298
18.936080188589226	3.3005989	1.816755
18.953849220644265	2.9389498	1.7143365
18.971618712656007	2.7800825	1.6673579
18.9893886650875	2.7858212	1.669078
19.007159078401887	7.9948173	2.8275108
19.024929953062408	32.877037	5.73385
19.042701289532435	32.7582	5.7234783
19.060473088275405	25.279793	5.0279016
19.07824534975489	2.5586777	1.5995867
19.096018074434568	2.5509806	1.5971789
19.113791262778197	2.555921	1.5987248
19.13156491524966	2.547875	1.5962064
19.149339032312945	2.525298	1.5891187
19.167113614432136	2.4795666	1.574664
19.184888662071433	2.4560373	1.5671749
19.202664175695123	2.4646733	1.5699278
19.220440155767623	2.495796	1.5798088
19.238216602753447	2.4953206	1.5796584
19.2559935171172	2.4441907	1.5633907
19.27377089932361	2.4398038	1.5619872
19.291548749837514	2.4582791	1.56789
19.309327069123835	2.4884634	1.5774864
19.32710585764763	2.4672909	1.5707612
19.344885115874032	2.428117	1.5582416
19.362664844268313	2.3778908	1.5420412
19.380445043295822	2.372267	1.5402166
19.39822571342203	2.359908	1.5361992
19.41600685511252	2.402268	1.5499251
19.43378846883297	2.4207182	1.5558658
19.451570555049173	2.4649246	1.5700078
19.469353114227037	2.4837828	1.5760021
19.48713614683254	2.495934	1.5798526
19.50491965333182	2.4709923	1.571939
19.52270363419109	2.4307077	1.5590727
19.540488089876686	2.4375076	1.561252
19.55827302085503	2.4759216	1.5735061
19.576058427592674	2.4707205	1.5718526
19.593844310556282	2.4374328	1.5612279
19.611630670212598	2.3964665	1.5480524
19.629417507028506	2.4064543	1.551275
19.64720482147098	2.407262	1.5515354
19.6649926140071	2.4117603	1.5529844
19.682780885104084	2.40839	1.5518988
19.70056963522921	2.4130032	1.5533844
19.718358864849908	2.430142	1.5588913
19.7361485744337	2.4610748	1.5687814
19.753938764448215	2.4585617	1.5679802
19.771729435361202	2.4742687	1.5729809
19.789520587640506	2.4650598	1.5700508
19.807312221754092	2.479904	1.574771
19.825104338170043	2.468297	1.5710815
19.842896937356517	2.4714653	1.5720894
19.860690019781824	2.488557	1.5775161
19.87848358591436	2.4733167	1.5726782
19.896277636222635	2.439626	1.5619302
19.914072171175278	2.4474497	1.5644327
19.931867191241015	2.4490867	1.5649558
19.94966269688869	2.4471052	1.5643226
19.967458688587264	2.4549842	1.5668389
19.985255166805807	2.4753265	1.573317
20.00305213201348	2.4340625	1.5601482
20.020849584679578	2.3773334	1.5418603
20.038647525273507	2.3579533	1.5355629
20.05644595426477	2.3707497	1.5397239
20.07424487212299	2.3528826	1.5339109
20.092044279317903	2.373902	1.5407473
20.109844176319353	2.4102182	1.5524877
20.127644563597304	2.4219635	1.5562658
20.145445441621817	2.3921053	1.5466433
20.16324681086307	2.3578122	1.5355169
20.181048671791373	2.349235	1.5327214
20.198851024877122	2.36089	1.5365188
20.216653870590836	2.378038	1.5420889
20.234457209403146	2.3773549	1.5418674
20.252261041784802	2.3728065	1.5403917
20.270065368206662	2.379659	1.5426143
20.287870189139685	2.362361	1.5369974
20.305675505054968	2.3125722	1.5207144
20.323481316423702	2.3097353	1.5197814
20.341287623717207	2.334554	1.5279248
20.359094427406884	2.3479824	1.5323128
20.376901727964288	2.2987268	1.5161552
20.39470952586107	2.2913747	1.5137287
20.41251782156899	2.2889845	1.5129391
20.430326615559935	2.3039515	1.5178773
20.448135908305886	2.2861416	1.5119992
20.465945700278965	2.2741253	1.5080203
20.483755991951384	2.2711177	1.5070227
20.50156678379548	2.2410207	1.4970039
20.519378076283708	2.2287717	1.4929072
20.537189869888635	2.2300403	1.4933319
20.55500216508294	2.2441726	1.4980563
20.572814962339415	2.2566507	1.5022153
20.59062826213098	2.229301	1.4930844
20.60844206493066	2.2412956	1.4970957
20.626256371211593	2.243361	1.4977853
20.644071181447032	2.2357583	1.4952452
20.66188649611036	2.1980116	1.4825692
20.67970231567506	2.2069116	1.4855678
20.697518640614742	2.2438128	1.4979361
20.715335471403122	2.2587824	1.5029246
20.73315280851404	2.2297378	1.4932307
20.750970652421447	2.2143395	1.4880657
20.768789003599412	2.2275467	1.4924968
20.786607862522136	2.2465088	1.4988358
20.8044272296639	2.2339008	1.494624
20.82224710549913	2.2130556	1.4876342
20.84006749050237	2.2247267	1.4915518
20.857888385148268	3.7804067	1.9443268
20.8757097899116	45.88467	6.7738223
20.893531705267254	64.69634	8.043404
20.911354131690224	83.6895	9.148196
20.92917706965566	68.94773	8.303477
20.94700051963877	50.030724	7.07324
20.96482448211493	29.305777	5.413481
20.982648957559622	4.109761	2.0272546
21.00047394644843	2.2312112	1.493724
21.01829944925707	2.234445	1.494806
21.036125466461375	2.1792061	1.4762135
21.053951998537297	2.1714914	1.4735981
21.071779045960906	2.1714463	1.4735829
21.089606609208378	2.186468	1.478671
21.10743468875603	2.1422484	1.4636421
21.12526328508028	2.1508214	1.4665679
21.143092398657675	2.1740847	1.4744778
21.16092202996488	2.1930513	1.4808954
21.17875217947867	2.1798818	1.4764423
21.19658284767596	2.1448796	1.4645407
21.21441403503377	2.1533904	1.4674435
21.232245742029225	2.1329877	1.4604752
21.2500779691396	2.123083	1.4570804
21.26791071684227	2.0889647	1.4453251
21.28574398561475	2.0536187	1.4330453
21.30357777593465	2.0787518	1.4417877
21.321412088279704	2.095825	1.4476964
21.339246923127792	2.118263	1.4554254
21.357082280956888	2.1457727	1.4648457
21.3749181622451	2.139956	1.4628588
21.392754567470647	2.1169865	1.4549868
21.41059149711187	2.080128	1.4422649
21.42842895164726	2.060909	1.4355867
21.446266931555378	2.0645335	1.4368484
21.464105437314945	2.0518699	1.4324349
21.481944469404798	2.0806022	1.4424293
21.49978402830388	2.1017723	1.449749
21.51762411449127	2.1035564	1.4503642
21.53546472844617	2.065198	1.4370797
21.553305870647876	2.0250123	1.4230293
21.571147541575865	2.0042384	1.4157113
21.58898974170967	2.0011864	1.4146329
21.60683247152899	2.0099025	1.4177103
21.62467573151363	2.0173736	1.4203428
21.642519522143523	2.0440156	1.4296907
21.660363843898722	2.01116	1.4181536
21.6782086972594	2.015698	1.4197528
21.696054082705864	2.0300472	1.4247973
21.713900000718535	2.0475862	1.430939
21.73174645177795	2.0183837	1.4206983
21.749593436364794	2.0151002	1.4195423
21.767440954959845	2.0219827	1.4219644
21.785289008044032	1.9938794	1.412048
21.803137596098388	1.9490049	1.3960676
21.820986719604086	1.9426502	1.3937899
21.838836379042412	1.9433825	1.3940525
21.85668657489478	1.9616528	1.4005902
21.87453730764273	1.9947165	1.4123443
21.892388577767914	2.0132525	1.4188913
21.91024038575213	2.0230403	1.4223362
21.928092732077285	2.0121021	1.4184859
21.945945617225426	1.9931449	1.4117879
21.963799041678694	1.9655854	1.4019934
21.981653005919398	31.279858	5.5928397
21.999507510429943	78.06359	8.835361
22.01736255569286	73.01285	8.544756
22.035218142190818	4.1118894	2.0277793
22.05307427040661	1.925215	1.3875211
22.07093094082315	1.9193498	1.385406
22.088788153923474	1.9341631	1.390742
22.106645910190746	1.9255348	1.3876364
22.12450421010827	1.9329915	1.3903207
22.142363054159464	1.9405218	1.3930261
22.16022244282787	1.9318526	1.389911
22.178082376597164	1.922371	1.386496
22.195942855951145	1.9196372	1.3855097
22.213803881373742	1.9207476	1.3859104
22.231665453349002	1.9351282	1.3910888
22.24952757236111	1.9646899	1.4016739
22.26739023889438	1.9508215	1.3967181
22.28525345343323	1.9337854	1.3906062
22.30311721646225	1.9150145	1.3838404
22.320981528466113	1.9222132	1.3864391
22.33884638992964	1.9388565	1.3924283
22.356711801337788	1.9171782	1.384622
22.37457776317561	1.922957	1.3867072
22.392444275928337	1.9370435	1.3917772
22.410311340081282	1.9344238	1.3908356
22.428178956119904	1.9218988	1.3863257
22.446047124529805	1.9237977	1.3870103
22.46391584579669	1.9352063	1.391117
22.481785120406414	1.9173628	1.3846887
22.49965494884496	1.9042134	1.3799324
22.51752533159841	1.8943313	1.3763471
22.53539626915302	1.8896966	1.3746624
22.553267761995137	1.8646477	1.3655211
22.571139810611264	1.8726827	1.3684599
22.589012415488025	1.8840207	1.3725964
22.60688557711216	1.9153978	1.383979
22.624759295970566	1.912825	1.3830491
22.642633572550263	1.9265908	1.3880168
22.660508407338362	1.9424334	1.393712
22.67838380082217	1.9077367	1.3812084
22.696259753489077	1.8820142	1.3718652
22.714136265826614	1.8836424	1.3724586
22.73201333832246	1.9168557	1.3845056
22.74989097146439	1.9473122	1.3954613
22.76776916574035	1.9593029	1.3997511
22.785647921638393	1.903933	1.3798308
22.803527239646712	1.8500688	1.3601724
22.82140712025363	1.855078	1.3620125
22.839287563947593	1.8594267	1.363608
22.85716857121719	1.8432509	1.3576638
22.875050142551135	1.8407052	1.3567259
22.892932278438277	1.8681924	1.3668183
22.910814979367604	1.8936906	1.3761142
22.928698245828222	1.926609	1.3880234
22.946582078309387	1.9086775	1.3815489
22.96446647730047	1.8539963	1.3616153
22.98235144329098	1.861128	1.3642316
23.000236976770562	1.8767415	1.3699422
23.018123078229	1.8529991	1.3612491
23.03600974815619	1.8531371	1.3612998
23.053896987042194	1.8817168	1.3717568
23.071784795377173	1.8868568	1.3736291
23.08967317365145	1.8884418	1.3742058
23.10756212235546	1.8714377	1.368005
23.125451641979787	1.8469644	1.3590307
23.143341733015134	1.8164524	1.3477583
23.161232395952357	1.8327537	1.3537923
23.179123631282426	1.8383753	1.355867
23.197015439496468	1.8592929	1.3635589
23.214907821085717	1.8676912	1.366635
23.23280077654157	1.8959887	1.3769491
23.250694306355538	1.9186327	1.3851472
23.268588411019277	1.9184484	1.3850807
23.28648309102458	1.903404	1.379639
23.304378346863356	1.907392	1.3810836
23.322274179027676	1.8986747	1.3779241
23.340170588009723	1.9044309	1.3800112
23.358067574301852	1.889351	1.3745366
23.37596513839651	1.8736235	1.3688036
23.39386328078629	1.9023983	1.3792746
23.411762001963947	1.8738027	1.3688691
23.429661302422353	1.88711	1.3737212
23.4475611826545	1.8597243	1.3637171
23.46546164315356	1.8768332	1.3699756
23.48336268441279	1.8768078	1.3699664
23.501264306925638	1.8692973	1.3672224
23.51916651118564	1.8764867	1.3698491
23.537069297686497	1.9379661	1.3921086
23.554972666922037	1.9477804	1.395629
23.57287661938623	1.8665078	1.366202
23.59078115557318	1.8234943	1.3503683
23.608686275977128	1.8451941	1.3583792
23.62659198109246	1.8736292	1.3688058
23.6444982714137	1.8687221	1.3670121
23.66240514743549	1.8751061	1.3693452
23.68031260965263	1.8500751	1.3601747
23.698220658560068	1.8429108	1.3575385
23.716129294652845	1.8087779	1.3449081
23.7340385184262	1.8348814	1.3545779
23.75194833037546	1.825625	1.351157
23.769858730996123	1.8207626	1.3493564
23.78776972078382	1.8263357	1.3514199
23.80568130023431	1.8213125	1.3495601
23.823593469843495	1.7806656	1.3344158
23.841506230107424	1.7718431	1.331106
23.859419581522275	1.833812	1.3541832
23.87733352458438	1.8682681	1.3668461
23.89524805979019	1.8453887	1.3584508
23.913163187636318	1.8402797	1.356569
23.931078908619508	1.8616962	1.3644398
23.948995223236633	1.8830074	1.3722272
23.966912131984735	1.9450191	1.3946394
23.98482963536096	1.9950488	1.412462
24.002747733862616	1.9922056	1.4114552
24.020666427987155	1.9718746	1.4042345
24.038585718232156	1.9675425	1.4026911
24.056505605095353	1.9651182	1.4018267
24.074426089074617	2.0337083	1.4260814
24.092347170667946	2.0429363	1.4293132
24.110268850373515	2.0287087	1.4243275
24.128191128689586	1.9918724	1.4113371
24.146114006114626	1.9980829	1.4135356
24.164037483147187	2.0143569	1.4192804
24.181961560286005	2.0383713	1.4277154
24.199886238029926	2.0274613	1.4238895
24.21781151687797	2.010138	1.4177934
24.235737397329274	2.0015485	1.414761
24.253663879883135	1.9668444	1.4024423
24.271590965038975	1.950281	1.3965247
24.289518653296376	1.9381294	1.3921672
24.30744694515505	1.9211868	1.3860688
24.32537584111486	1.8940612	1.376249
24.34330534167581	1.9100858	1.3820585
24.361235447338046	1.920298	1.3857481
24.379166158601876	1.974615	1.4052099
24.39709747596772	2.0064535	1.4164934
24.41502939993615	2.0080223	1.417047
24.432961931007917	1.9853858	1.4090372
24.450895069683856	1.9615362	1.4005486
24.468828816465	1.9562969	1.3986769
24.4867631718525	1.9226813	1.3866079
24.504698136347656	1.8893363	1.3745313
24.52263371045192	1.8698918	1.3674399
24.540569894666874	1.8977418	1.3775855
24.558506689494266	1.8979328	1.3776548
24.57644409543597	1.9176856	1.3848053
24.594382112994012	1.9377546	1.3920325
24.61232074267057	1.9460016	1.3949916
24.630259984967953	1.9237454	1.3869915
24.64819984038863	1.8883395	1.3741686
24.66614030943522	1.8619509	1.3645332
24.684081392610462	1.844621	1.3581682
24.702023090417274	1.878212	1.3704787
24.7199654033587	1.9586251	1.3995088
24.737908331937927	2.0107691	1.418016
24.755851876658305	2.0258136	1.4233108
24.773796038023324	2.029218	1.4245062
24.79174081653661	2.063661	1.4365449
24.809686212701962	2.080413	1.4423637
24.827632227023294	2.0832095	1.4433328
24.8455788600047	2.0658104	1.4372927
24.8635261121504	2.016636	1.420083
24.88147398396475	1.9783475	1.4065374
24.899422475952303	2.0243077	1.4227817
24.917371588617698	2.0825405	1.443101
24.935321322465768	2.1813412	1.4769365
24.953271678001478	2.274354	1.5080961
24.97122265572994	2.3914504	1.5464315
24.989174256156414	2.6613529	1.6313653
25.00712647978632	3.029572	1.7405666
25.02507932712521	3.5661535	1.8884262
25.043032798678798	4.0974784	2.0242229
25.060986894952933	4.7068977	2.1695385
25.078941616453637	5.3333817	2.3094115
25.096896963687055	6.083702	2.4665163
25.114852937159508	7.12485	2.6692414
25.132809537377444	7.5633388	2.7501526
25.150766764847468	7.6527195	2.7663548
25.168724620076347	7.151178	2.6741686
25.186683103570985	6.299167	2.5098143
25.204642215838426	5.2939067	2.3008492
25.222601957385894	4.0853643	2.0212283
25.24056232872074	3.1369147	1.7711338
25.25852333035048	2.556287	1.5988393
25.276484962782778	2.2444384	1.498145
25.294447226525435	2.0680947	1.4380872
25.312410122086423	2.0019603	1.4149065
25.330373649973843	1.9321147	1.3900054
25.348337810695988	1.8757975	1.3695976
25.366302604761245	1.8764868	1.3698492
25.384268032678207	1.8799659	1.3711184
25.40223409495558	1.8758421	1.3696139
25.420200792102257	1.8429853	1.3575659
25.438168124627246	1.8289347	1.3523811
25.45613609303974	1.8144109	1.3470007
25.474104697849057	1.834326	1.354373
25.492073939564698	1.8302362	1.3528622
25.510043818696285	1.8104308	1.3455225
25.528014335753614	1.8337458	1.3541588
25.54598549124664	1.8277211	1.3519324
25.56395728568544	1.8203802	1.3492147
25.58192971958028	1.8356729	1.3548701
25.59990279344156	1.7979282	1.3408685
25.617876507779833	1.8106421	1.3456011
25.635850863105826	1.8296643	1.3526509
25.653825859930386	1.8266404	1.3515326
25.671801498764548	1.786065	1.3364375
25.68977778011949	1.7584413	1.3260623
25.707754704506524	1.7622508	1.327498
25.725732272437153	1.761258	1.327124
25.743710484423012	1.7492614	1.3225964
25.761689340975888	1.7595809	1.326492
25.77966884260774	1.7636013	1.3280065
25.797648989830662	1.7604201	1.3268082
25.815629783156922	1.7686827	1.3299183
25.83361122309895	1.7983509	1.3410261
25.85159331016929	1.8331013	1.3539207
25.869576044880695	1.842014	1.3572081
25.887559427746034	1.819871	1.349026
25.90554345927836	1.7938442	1.3393447
25.92352813999086	1.815917	1.3475597
25.94151347039689	1.8291862	1.3524741
25.959499451009965	1.8663068	1.3661284
25.97748608234374	1.8298258	1.3527105
25.995473364912062	1.7625712	1.3276186
26.013461299228904	1.7436233	1.3204633
26.03144988580839	1.7274287	1.3143167
26.04943912516483	1.7435379	1.320431
26.067429017812675	1.7401569	1.3191501
26.085419564266537	1.7808496	1.3344848
26.103410765041186	1.8145068	1.3470362
26.12140262065155	1.8259166	1.3512648
26.139395131612723	1.7973602	1.3406566
26.157388298439948	1.7751404	1.3323439
26.17538212164861	1.8392513	1.35619
26.193376601754295	1.9282515	1.388615
26.211371739272714	1.9165105	1.3843809
26.229367534719746	1.8399771	1.3564576
26.247363988611433	1.7763792	1.3328087
26.26536110146397	1.7488067	1.3224245
26.283358873793727	1.74665	1.3216089
26.301357306117204	1.7451364	1.3210361
26.319356398951104	1.810817	1.345666
26.33735615281224	1.8489388	1.359757
26.35535656821762	1.8166717	1.3478396
26.373357645684404	1.7660341	1.3289222
26.39135938572991	1.7422783	1.3199539
26.409361788871614	1.7507199	1.3231478
26.427364855627165	1.7629	1.3277425
26.445368586514352	1.7742869	1.3320236
26.46337298205115	1.771585	1.331009
26.48137804275568	1.7988219	1.3412017
26.499383769146217	1.8179415	1.3483106
26.517390161741215	1.7647011	1.3284205
26.53539722105928	1.7000299	1.303852
26.553404947619182	1.7270589	1.3141761
26.571413341939856	1.7790116	1.3337959
26.589422404540397	1.8111112	1.3457754
26.60743213594006	1.7501291	1.3229245
26.62544253665827	1.7252971	1.3135056
26.64345360721459	1.7600839	1.3266815
26.66146534812879	1.7740147	1.3319215
26.679477759920758	1.7515199	1.32345
26.69749084311057	1.7680031	1.3296628
26.71550459821847	1.7588329	1.32621
26.733519025764842	1.7731491	1.3315965
26.751534126270258	1.7173631	1.310482
26.769549900255434	1.7234951	1.3128195
26.787566348241267	1.7432334	1.3203157
26.80558347074881	1.7618403	1.3273433
26.823601268299267	1.737103	1.317992
26.841619741414036	1.7079281	1.3068773
26.85963889061465	1.7131346	1.3088677
26.877658716422832	1.7174604	1.3105191
26.89567921936045	1.7133077	1.3089339
26.913700399949544	1.7215759	1.3120884
26.93172225871233	1.7804207	1.334324
26.949744796171174	1.7764016	1.3328172
26.967768012848605	1.7533339	1.3241352
26.98579190926733	1.750461	1.3230499
27.003816485950225	1.7582111	1.3259755
27.021841743420318	1.7965971	1.340372
27.039867682200814	1.836704	1.3552505
27.057894302815072	1.8437667	1.3578537
27.07592160578664	1.8195006	1.3488886
27.0939495916392	1.7734183	1.3316976
27.111978260896635	1.7094646	1.307465
27.13000761408296	1.6923918	1.3009195
27.148037651722397	1.7152493	1.3096752
27.166068374339304	1.7254107	1.3135489
27.184099782458215	1.7291267	1.3149626
27.20213187660384	1.7369832	1.3179466
27.22016465730105	1.7309384	1.3156513
27.23819812507487	1.7258	1.3136971
27.256232280450533	1.7193029	1.311222
27.274267123953383	1.7524686	1.3238083
27.292302656108987	1.7690488	1.330056
27.31033887744306	1.7901224	1.3379545
27.32837578848146	1.777263	1.3331403
27.34641338975026	1.7328176	1.3163654
27.364451681775673	1.7313639	1.3158131
27.382490665084074	1.7500699	1.3229021
27.400530340202046	1.7439618	1.3205914
27.41857070765629	1.7265022	1.3139642
27.436611767973726	1.7184491	1.3108963
27.454653521681404	1.6851261	1.2981241
27.472695969306564	1.7332726	1.3165381
27.490739111376627	1.776474	1.3328444
27.508782948419153	1.8188907	1.3486626
27.526827480961902	1.7997173	1.3415354
27.54487270953279	1.8303101	1.3528895
27.562918634659898	1.8724227	1.3683649
27.580965256871508	1.848824	1.3597146
27.599012576696026	1.8426002	1.3574241
27.617060594662068	1.7871678	1.3368499
27.63510931129842	1.7666489	1.3291534
27.65315872713401	1.7493356	1.3226246
27.67120884269797	1.7568586	1.3254654
27.68925965851958	1.8075942	1.344468
27.707311175128307	1.8232824	1.3502897
27.725363393053787	1.7943379	1.3395289
27.74341631282583	1.8261877	1.3513651
27.7614699349744	1.8422558	1.3572973
27.77952426002968	2.0381885	1.4276514
27.797579288521973	2.104363	1.4506422
27.815635020981784	2.5858047	1.6080438
27.83369145793979	2.6799457	1.637054
27.85174859992682	2.4991217	1.5808611
27.869806447473923	2.3576236	1.5354555
27.887865001112267	1.9828687	1.4081436
27.905924261373233	1.8512821	1.3606182
27.92398422878836	1.8179849	1.3483267
27.94204490388936	1.8102843	1.345468
27.96010628720813	1.8268007	1.351592
27.978168379276728	1.8693658	1.3672476
27.9962311806274	1.8210909	1.349478
28.014294691792568	1.8330756	1.3539113
28.0323589133048	1.8404213	1.3566213
28.050423845696887	1.8069552	1.3442303
28.068489489501758	1.7676842	1.3295429
28.086555845252523	1.8076224	1.3444785
28.104622913482487	1.855305	1.3620958
28.122690694725115	1.8809229	1.3714675
28.14075918951405	1.8456002	1.3585287
28.15882839838312	1.8172091	1.348039
28.176898321866304	1.8424479	1.357368
28.1949689604978	1.8810066	1.371498
28.213040314811945	1.9076574	1.3811797
28.23111238534327	1.8657727	1.365933
28.249185172626493	1.8340036	1.3542539
28.267258677196473	1.900201	1.3784778
28.285332899588294	1.9253428	1.3875673
28.303407840337172	1.9213626	1.3861322
28.321483499978545	1.8776876	1.3702874
28.33955987904799	1.8779589	1.3703864
28.357636978081285	1.8969618	1.3773024
28.37571479761439	1.9046015	1.380073
28.393793338183425	1.8586049	1.3633066
28.41187260032469	1.8281877	1.3521049
28.429952584574686	1.8483692	1.3595475
28.448033291470065	1.884311	1.3727021
28.46611472154769	1.9286287	1.3887508
28.484196875344566	1.9095869	1.381878
28.502279753397914	1.9207906	1.3859259
28.52036335624511	1.9327813	1.3902451
28.538447684423716	1.9558014	1.3984997
28.556532738471482	1.9033691	1.3796264
28.574618518926325	1.8780527	1.3704206
28.59270502632635	1.8699917	1.3674763
28.61079226120985	1.8975289	1.3775082
28.628880224115274	1.946678	1.395234
28.646968915581287	1.9588958	1.3996056
28.66505833614671	1.9989371	1.4138378
28.68314848635055	1.9890034	1.4103203
28.701239366732004	2.0035079	1.4154532
28.71933097783044	1.9760075	1.4057053
28.737423320185403	2.0085516	1.4172338
28.75551639433665	2.05523	1.4336073
28.773610200824074	2.0864701	1.4444618
28.791704740187793	2.144885	1.4645426
28.80980001296809	2.1325223	1.4603158
28.827896019705413	2.0583644	1.4347001
28.845992760940433	2.057178	1.4342866
28.86409023721397	2.1126137	1.4534833
28.88218844906704	2.1781163	1.4758443
28.900287397040845	2.171319	1.4735396
28.918387081676755	2.2044034	1.4847233
28.936487503516343	2.2204342	1.4901122
28.954588663101365	2.3036978	1.5177938
28.97269056097374	2.3347762	1.5279975
28.990793197675597	2.327193	1.525514
29.00889657374923	2.3471222	1.532032
29.027000689737125	2.3106515	1.5200827
29.04510554618196	2.325766	1.5250462
29.06321114362659	2.3740103	1.5407823
29.08131748261405	2.4614477	1.5689001
29.099424563687567	2.4230998	1.5566308
29.11753238739057	2.3782566	1.5421597
29.13564095426663	2.4337878	1.5600601
29.15375026485954	2.552386	1.5976188
29.171860319713275	2.6027007	1.6132888
29.18997111937199	2.5881205	1.6087637
29.20808266438002	2.608906	1.6152109
29.226194955281898	2.5973015	1.6116146
29.244307992622335	2.6677225	1.6333164
29.26242177694624	2.7486222	1.6578969
29.2805363087987	2.772004	1.6649336
29.29865158872498	2.751237	1.6586853
29.316767617270557	2.7879045	1.6697019
29.334884394981064	2.8122716	1.6769829
29.353001922402367	2.926451	1.7106873
29.37112020008047	2.9720948	1.7239765
29.389239228561596	3.047953	1.7458388
29.407359008392152	3.2096477	1.791549
29.42547954011872	3.5685434	1.8890588
29.44360082428809	4.2229166	2.0549736
29.46172286144722	5.2507024	2.2914412
29.479845652143283	6.625871	2.5740767
29.497969196923606	8.450217	2.9069257
29.516093496335728	10.684024	3.2686424
29.5342185509274	12.947744	3.5982974
29.55234436124651	14.875393	3.856863
29.570470927841175	15.933837	3.9917212
29.588598251259686	15.606464	3.9505017
29.60672633205055	14.505472	3.808605
29.624855170762405	12.567781	3.5451066
29.642984767944146	10.336353	3.21502
29.66111512414481	8.105658	2.8470438
29.67924623991366	6.2273564	2.4954672
29.697378115800138	4.973864	2.2302163
29.71551075235387	4.1233935	2.0306141
29.733644150124675	3.7178009	1.92816
29.751778309662576	3.5161316	1.8751351
29.769913231517766	3.3565052	1.8320768
29.78804891624066	3.2977254	1.8159641
29.806185364381818	3.3184884	1.8216718
29.82432257649206	3.3117545	1.8198227
29.842460553122333	3.2223341	1.7950861
29.86059929482382	3.210157	1.7916911
29.878738802147872	3.1535423	1.7758216
29.896879075646048	3.1458488	1.7736541
29.915020115870114	3.1662803	1.7794045
29.933161923371976	3.2251186	1.7958615
29.951304498703777	3.2313433	1.7975937
29.969447842417857	3.1225052	1.7670611
29.987591955066733	3.112364	1.7641894
30.005736837203123	3.146979	1.7739726
30.023882489379943	3.1802745	1.7833325
30.04202891215028	3.1359284	1.7708553
30.060176106067455	3.1425846	1.7727337
30.078324071684946	3.1608114	1.7778671
30.09647280955646	3.0893788	1.7576629
30.114622320235863	3.0833588	1.7559495
30.132772604277257	3.0946841	1.7591715
30.1509236622349	3.0766861	1.7540485
30.16907549466328	3.0193856	1.7376379
30.18722810211705	2.9474106	1.7168025
30.205381485151097	2.9063447	1.7048005
30.22353564432045	2.9047296	1.7043267
30.241690580180403	2.8873534	1.6992214
30.25984629328638	2.9352782	1.7132653
30.278002784194037	2.943524	1.7156701
30.296160053459246	2.920446	1.7089312
30.314318101638033	2.891205	1.7003543
30.332476929286646	2.9034739	1.7039583
30.35063653696153	2.939457	1.7144845
30.368796925219307	2.8128393	1.6771522
30.386958094616844	2.7159865	1.648025
30.40512004571115	2.7152367	1.6477975
30.423282779059463	2.7342494	1.6535566
30.441446295219233	2.8028507	1.6741717
30.459610594748067	2.869008	1.6938146
30.47777567820382	2.8569193	1.6902424
30.495941546144504	2.8220558	1.6798975
30.51410819912835	2.8004491	1.6734543
30.532275637713795	2.7800367	1.6673442
30.55044386245946	2.83483	1.6836953
30.56861287392416	2.8104568	1.6764417
30.586782672666956	2.802307	1.6740092
30.604953259247047	2.8058622	1.6750708
30.623124634223885	2.7341335	1.6535215
30.641296798157075	2.6618266	1.6315105
30.659469751606462	2.7101064	1.6462401
30.677643495132074	2.724563	1.650625
30.695818029294152	2.6595948	1.6308264
30.713993354653116	2.6536696	1.6290088
30.73216947176962	2.654672	1.6293164
30.75034638120448	2.6691763	1.6337614
30.768524083518756	2.68442	1.63842
30.786702579273673	2.6674504	1.6332331
30.80488186903069	2.6883738	1.6396261
30.82306195335144	2.7934825	1.6713715
30.841242832797782	2.950714	1.7177643
30.85942450793176	3.2241678	1.7955968
30.877606979315637	3.521285	1.8765087
30.895790247511883	3.797826	1.9488012
30.913974313083134	4.075163	2.0187032
30.932159176592283	4.368379	2.0900667
30.95034483860237	4.547677	2.1325283
30.968531299676698	4.445059	2.1083307
30.98671856037873	4.0845666	2.0210311
31.00490662127215	3.7330477	1.9321097
31.023095482920848	3.4213297	1.8496836
31.04128514588892	2.991023	1.7294575
31.059475610740662	2.6731055	1.6349634
31.07766687804056	2.4941256	1.5792801
31.09585894835335	2.4519176	1.56586
31.11405182224393	2.4296577	1.558736
31.132245500277417	2.3290584	1.5261253
31.15043998301914	2.258377	1.5027897
31.168635271034628	2.2927222	1.5141737
31.18683136488964	2.2949123	1.5148968
31.20502826515008	2.3316772	1.526983
31.223225972382135	2.3476977	1.5322199
31.241424487152155	2.3770587	1.5417713
31.259623810026692	2.4197087	1.5555413
31.27782394157253	2.4160767	1.5543734
31.296024882356644	2.3546586	1.5344896
31.314226632946237	2.3533576	1.5340657
31.332429193908684	2.3792956	1.5424966
31.350632565811598	2.3667781	1.5384337
31.368836749222787	2.3628116	1.537144
31.387041744710295	2.4808433	1.5750693
31.40524755284232	2.5404687	1.5938848
31.423454174187317	2.4666364	1.570553
31.441661609313922	2.4680839	1.5710137
31.459869858791002	2.4221778	1.5563347
31.478078923187628	2.3660173	1.5381864
31.496288803073064	2.349209	1.5327129
31.514499499016807	2.3709352	1.5397842
31.532711011588546	2.3931575	1.5469834
31.550923341358178	2.3416078	1.5302312
31.56913648889584	2.3207152	1.5233893
31.587350454771844	2.245212	1.4984032
31.605565239556732	2.2201848	1.4900285
31.62378084382127	2.1727965	1.4740409
31.641997268136382	2.2190688	1.489654
31.660214513073274	2.220283	1.4900614
31.67843257920331	2.2201457	1.4900154
31.6966514670981	2.2653093	1.5050944
31.71487117732944	2.2928839	1.5142272
31.733091710469346	2.2601922	1.5033935
31.751313067090052	2.1484492	1.4657589
31.769535247764008	2.1736352	1.4743253
31.787758253063878	2.2410176	1.4970028
31.805982083562526	2.2750282	1.5083196
31.824206739833024	2.2407217	1.496904
31.84243222244869	2.2712972	1.5070823
31.860658531983013	2.263811	1.5045967
31.878885669009737	2.272343	1.5074292
31.897113634102784	2.269305	1.5064212
31.91534242783632	2.2500632	1.5000211
31.933572050784694	2.1683967	1.4725477
31.951802503522508	2.0753748	1.4406161
31.970033786624548	2.0455227	1.4302177
31.988265900665834	2.1149487	1.4542863
32.006498846221575	2.1467378	1.465175
32.02473262386724	2.0786202	1.4417421
32.04296723417845	2.0796337	1.4420935
32.0612026777311	2.1285074	1.4589405
32.07943895510129	2.1569757	1.4686646
32.097676066865304	2.1037729	1.4504389
32.115914013599685	2.060623	1.435487
32.13415279588115	2.0652428	1.4370953
32.152392414286666	2.029127	1.4244742
32.1706328693934	2.0162075	1.4199322
32.18887416177875	2.0669863	1.4377017
32.20711629202032	2.1066945	1.4514457
32.225359260695924	2.0923507	1.446496
32.243603068383614	2.0547338	1.4334342
32.26184771566166	1.9666471	1.402372
32.28009320310852	1.9733431	1.4047574
32.2983395313029	2.0185502	1.4207569
32.31658670082372	2.0634148	1.4364591
32.33483471225012	2.0329187	1.4258046
32.35308356616143	2.0867712	1.4445661
32.371333263137245	2.065842	1.4373037
32.38958380375734	2.0143256	1.4192694
32.407835188601744	1.9998239	1.4141513
32.42608741825067	2.0375426	1.4274251
32.444340493284585	2.072012	1.4394485
32.46259441428416	2.0031066	1.4153115
32.48084918183028	1.9858304	1.409195
32.49910479650405	1.9731154	1.4046763
32.51736125888683	2.0190842	1.4209448
32.53561856956014	2.0359669	1.4268731
32.5538767291058	1.9999452	1.4141942
32.572135738105764	1.9269123	1.3881327
32.59039559714228	1.9541444	1.3979071
32.608656306797776	1.9182336	1.3850031
32.62691786765491	1.8607831	1.3641052
32.645180280296586	1.8500066	1.3601495
32.663443545305896	1.8771365	1.3700863
32.68170766326619	1.938839	1.392422
32.69997263476099	1.9136202	1.3833367
32.7182384603741	1.8794926	1.3709459
32.7365051406895	1.9160023	1.3841974
32.75477267629144	1.9373755	1.3918964
32.77304106776434	1.9925183	1.4115659
32.79131031569289	1.9474047	1.3954945
32.809580420661966	1.923038	1.3867365
32.827851383256714	1.9315498	1.3898021
32.84612320406245	1.9419476	1.3935378
32.86439588366476	1.9571773	1.3989915
32.88266942264945	1.9897212	1.4105748
32.9009438216025	1.9737338	1.4048964
32.9192190811102	1.8556124	1.3622086
32.937495201758985	1.7733117	1.3316575
32.95577218413556	1.7671599	1.3293457
32.974050028826866	1.8374301	1.3555183
32.992328736420035	1.9702853	1.4036685
33.010608307502444	1.9677558	1.4027672
33.02888874266169	1.813835	1.346787
33.047170042485604	1.8047017	1.3433919
33.06545220756225	1.9121017	1.3827877
33.083735238479896	1.85887	1.3634038
33.10201913582707	1.7584854	1.326079
33.12030390019248	1.8026525	1.342629
33.138589532165135	1.7894719	1.3377115
33.15687603233419	1.8675321	1.3665768
33.17516340128909	1.9394557	1.3926435
33.19345163961947	1.8815454	1.3716943
33.211740747915215	1.8067524	1.344155
33.23003072676643	1.7254701	1.3135715
33.248321576763466	1.7423974	1.319999
33.266613298496885	1.9038527	1.3798016
33.28490589255747	1.9620191	1.400721
33.30319935953626	1.9754882	1.4055206
33.32149370002451	1.9221114	1.3864024
33.339788914613706	1.8644973	1.365466
33.358085003895575	1.9305091	1.3894277
33.376381968462034	2.0042748	1.4157242
33.39467980890529	1.9372361	1.3918463
33.41297852581774	1.8898026	1.3747009
33.43127811979204	1.8251064	1.350965
33.44957859142105	1.836179	1.3550569
33.467879941297866	1.7701908	1.3304852
33.486182170015844	1.7632864	1.3278879
33.50448527816853	1.8056824	1.3437568
33.522789266349754	1.8304994	1.3529595
33.541094135153514	1.8841729	1.3726518
33.55939988517411	1.9287955	1.3888108
33.57770651700602	1.8976978	1.3775696
33.59601403124398	1.9646817	1.401671
33.61432242848296	1.9906007	1.4108865
33.632631709318154	1.8481287	1.3594589
33.650941874344994	1.7155037	1.3097724
33.66925292415916	1.7756904	1.3325504
33.68756485935654	1.8563814	1.3624909
33.70587768053328	1.8687805	1.3670335
33.724191388285746	1.7977554	1.340804
33.74250598321054	1.8328819	1.3538398
33.760821465904506	1.8896401	1.3746418
33.77913783696474	1.8997165	1.378302
33.79745509698852	1.9982839	1.4136066
33.815773246573414	1.9935204	1.4119208
33.8340922863172	1.9108433	1.3823326
33.852412216817896	1.8025539	1.3425922
33.87073303867377	1.7582994	1.3260088
33.889054752483304	1.7742631	1.3320147
33.907377358845245	1.8281783	1.3521014
33.92570085835853	1.9014425	1.3789281
33.94402525162239	1.8540095	1.3616202
33.96235053923627	1.7894899	1.3377181
33.980676721799824	1.81297	1.3464657
33.999003799912984	1.8700565	1.3675001
34.01733177417592	1.8561436	1.3624036
34.03566064518901	1.7970082	1.3405253
34.0539904135529	1.8150284	1.34723
34.07232107986846	1.8801023	1.3711683
34.090652644736785	1.9831665	1.4082494
34.108985108759235	1.9356707	1.3912839
34.12731847253742	1.7662342	1.3289974
34.14565273667313	1.827577	1.3518791
34.16398790176847	1.8938185	1.3761607
34.18232396842574	1.8817695	1.3717761
34.20066093724749	1.8600851	1.3638494
34.21899880883651	1.8641924	1.3653543
34.23733758379583	1.8927333	1.3757664
34.25567726272874	2.063961	1.4366492
34.27401784623872	2.0705585	1.4389435
34.29235933492957	1.9234327	1.3868787
34.31070172940526	1.8296524	1.3526465
34.32904503027003	1.8302878	1.3528813
34.347389238128386	1.8690585	1.3671352
34.36573435358502	1.9423217	1.393672
34.38408037724492	1.9048604	1.3801668
34.402427309713296	1.7626948	1.3276652
34.42077515159559	1.7184529	1.3108977
34.43912390349752	1.8935609	1.3760672
34.45747356602499	1.9356823	1.391288
34.47582413978423	1.858183	1.3631519
34.49417562538163	1.8262202	1.3513771
34.51252802342388	1.8359236	1.3549626
34.53088133451789	1.807013	1.3442519
34.54923555927084	1.9939829	1.4120846
34.567590698290104	1.9671074	1.402536
34.58594675218336	1.8744094	1.3690907
34.6043037215585	1.7865162	1.3366063
34.62266160702365	1.7934787	1.3392082
34.641020409187234	1.8015109	1.3422037
34.65938012865785	1.7976595	1.3407682
34.677740766044394	1.8184191	1.3484877
34.69610232195598	1.9066974	1.3808322
34.714464797002016	1.8815601	1.3716997
34.73282819179208	1.987649	1.4098401
34.751192506936064	2.01082	1.4180338
34.76955774304408	1.8987039	1.3779347
34.7879239007265	1.8845633	1.372794
34.80629098059391	1.8232934	1.3502939
34.824658983257194	1.7646565	1.3284037
34.843027909327446	1.8373176	1.3554769
34.86139775941603	1.8102262	1.3454465
34.879768534134534	1.6666467	1.2909868
34.89814023409483	1.7050449	1.3057736
34.91651285990901	1.7151904	1.3096528
34.93488641218944	1.7407548	1.3193767
34.95326089154871	1.8068725	1.3441995
34.97163629859967	2.0117269	1.4183536
34.99001263395542	2.0979857	1.4484426
35.00838989822934	1.9746841	1.4052346
35.02676809203499	2.0208123	1.4215528
35.04514721598624	2.0241537	1.4227276
35.063527270697215	1.9155263	1.3840253
35.081908256782256	1.7797768	1.3340827
35.10029017485597	1.8143454	1.3469764
35.11867302553321	1.8797783	1.37105
35.137056809429104	2.0508876	1.4320921
35.155441527159006	1.9723138	1.4043909
35.173827179338524	1.8667161	1.3662782
35.19221376658354	1.9923257	1.4114977
35.21060128951017	2.2122538	1.4873648
35.2289897487348	2.223144	1.4910212
35.24737914487405	1.9361172	1.3914443
35.26576947854479	1.8264508	1.3514625
35.28416075036418	2.019272	1.421011
35.30255296094958	2.203745	1.4845016
35.32094611091867	2.2880318	1.5126241
35.33934020088932	2.2728496	1.5075973
35.35773523147969	2.122262	1.4567986
35.3761312033082	1.9286191	1.3887473
35.394528116993506	1.9571766	1.3989912
35.41292597315452	1.9727505	1.4045464
35.431324772410434	1.9617957	1.4006412
35.449724515380666	2.0965993	1.4479638
35.46812520268491	2.113638	1.4538356
35.486526834943106	1.8393589	1.3562297
35.504929412775454	1.9903256	1.410789
35.52333293680242	2.01908	1.4209434
35.54173740764471	1.9376862	1.392008
35.560142825923286	1.8198814	1.3490298
35.5785491922594	2.0210648	1.4216416
35.59695650727454	1.7003945	1.3039918
35.61536477159042	1.8569168	1.3626873
