0.008763373481513119	0.0	0.0
0.026290120649546365	0.0	0.0
0.043816868432600686	0.0	0.0
0.06134361724069026	0.0	0.0
0.07887036748382949	0.0	0.0
0.0963971195720331	0.0	0.0
0.11392387391531617	0.0	0.0
0.1314506309236943	0.0	0.0
0.1489773910071836	0.04282091	0.20693214
0.16650415457580078	0.0861113	0.29344726
0.18403092203956356	0.172491	0.41532037
0.20155769380849	0.20697583	0.45494598
0.2190844702925996	0.31744424	0.5634219
0.2366112519019124	0.28341478	0.53236717
0.2541380390464497	0.2814754	0.53054255
0.27166483213623416	0.19355488	0.4399487
0.28919163158128947	0.16100402	0.40125307
0.3067184377916406	0.14443743	0.38004926
0.324245251177314	0.13910158	0.37296325
0.34177207214833777	0.16591929	0.4073319
0.3592989011147415	0.16379215	0.40471244
0.37682573848655654	0.19582109	0.44251677
0.39435258467381573	0.1824564	0.42714915
0.41187944008655414	0.16080372	0.4010034
0.42940630513480854	0.16518511	0.4064297
0.446933180228618	0.14833489	0.38514268
0.4644600657780234	0.18842544	0.43407997
0.48198696219306775	0.17048049	0.41289282
0.49951386988379676	0.14221859	0.3771188
0.5170407892602581	0.11250926	0.335424
0.5345677207325025	0.10827773	0.32905582
0.5520946647105822	0.15285589	0.39096788
0.5696216216045534	0.20267203	0.4501911
0.5871485918244737	0.19186987	0.43802953
0.6046755757804043	0.18700029	0.4324353
0.6222025738824094	0.15986945	0.39983678
0.6397295865405557	0.15566616	0.3945455
0.6572566141649129	0.14196585	0.37678355
0.6747836571655547	0.13501659	0.36744604
0.6923107159525568	0.16488971	0.40606615
0.7098377909359992	0.18693021	0.43235427
0.7273648825259653	0.1755026	0.4189303
0.7448919911325411	0.16360043	0.4044755
0.762419117165817	0.17068185	0.4131366
0.7799462610358868	0.193647	0.4400534
0.7974734231528482	0.21369165	0.46226794
0.8150006039268024	0.1881243	0.433733
0.8325278037678551	0.19510342	0.44170514
0.8500550230861152	0.15828937	0.39785597
0.8675822622916969	0.14799327	0.38469893
0.8851095217947171	0.14151514	0.37618497
0.9026368020052984	0.16758539	0.40937194
0.9201641033335665	0.20128278	0.4486455
0.9376914261896523	0.19739135	0.44428745
0.9552187709836915	0.21031326	0.45859924
0.9727461381258234	0.2265116	0.47593236
0.990273528026193	0.27391195	0.523366
1.0078009410949496	0.25768158	0.50762343
1.0253283777422473	0.24201465	0.49194986
1.0428558383782454	0.2367383	0.4865576
1.0603833234131086	0.2608783	0.51076245
1.0779108332570058	0.30823568	0.5551898
1.0954383683201119	0.36515793	0.604283
1.112965929012607	0.4330018	0.6580287
1.1304935157446763	0.4879428	0.69852906
1.1480211289265108	0.49081835	0.7005843
1.1655487689683062	1.2121707	1.1009862
1.1830764362802655	1.4904857	1.2208545
1.200604131272596	1.9249138	1.3874127
1.2181318543555117	2.3702214	1.5395523
1.235659605939232	2.401433	1.5496558
1.253187386433982	4.018231	2.0045526
1.270715196249994	6.43804	2.5373292
1.2882430357975057	11.907505	3.4507253
1.3057709054867608	16.76302	4.094267
1.3232988057280106	22.155441	4.706957
1.3408267369315112	26.899849	5.1865063
1.358354699507526	30.230715	5.4982467
1.3758826938663256	34.427105	5.8674617
1.3934107204181858	36.167667	6.013956
1.410938779573391	36.323547	6.026902
1.4284668717422309	36.620045	6.05145
1.4459949973350033	36.080032	6.0066657
1.4635231567620117	36.280083	6.023295
1.4810513504335687	35.569855	5.964047
1.4985795787599925	34.797264	5.8989205
1.5161078421516088	34.77601	5.8971186
1.5336361410187505	34.0075	5.831595
1.5511644757717598	34.070637	5.8370056
1.5686928468209842	34.30315	5.8568892
1.58622125457678	34.804485	5.899533
1.6037496994495108	35.9036	5.991961
1.621278181849548	36.01343	6.001119
1.6388067021872719	36.591328	6.0490766
1.6563352608730693	36.15981	6.013303
1.673863858317336	35.15117	5.928842
1.6913924949304753	34.255657	5.8528333
1.7089211711228998	33.25083	5.7663536
1.7264498873050296	32.8448	5.731038
1.7439786438872935	32.18935	5.673566
1.7615074412801288	31.3671	5.600634
1.779036279893981	30.615396	5.5331182
1.796565160139305	29.469452	5.4285774
1.814094082426564	28.843801	5.3706427
1.8316230471662298	27.827177	5.275147
1.849152054768784	27.157528	5.2112885
1.8666811056447168	26.762672	5.173265
1.8842102002045273	26.018833	5.100866
1.901739338858724	25.663132	5.0658793
1.9192685220178245	25.115294	5.011516
1.9367977500923557	24.549492	4.9547443
1.9543270234928547	24.014128	4.900421
1.971856342629867	23.348291	4.832007
1.9893857079139496	22.602108	4.7541676
2.006915119755667	22.01809	4.6923437
2.0244445785655945	21.429964	4.629251
2.0419740847543175	20.99022	4.581508
2.0595036387324317	20.596436	4.5383296
2.0770332409105414	19.981455	4.4700623
2.094562891699263	19.665218	4.4345484
2.1120925915092217	19.416924	4.4064636
2.129622340751053	19.22196	4.3842854
2.1471521398354043	187.49211	13.692776
2.1646819891729323	443.89563	21.06883
2.182211889174303	440.07425	20.977947
2.1997418402501974	452.3369	21.268213
2.2172718428113023	432.33273	20.792612
2.234801897268317	320.34283	17.898125
2.2523320040319548	16.896599	4.110547
2.269862163512935	16.579754	4.0718246
2.287392376121992	16.274511	4.034168
2.304922642269869	15.901259	3.9876382
2.322452962367322	15.711055	3.9637172
2.3399833368251164	15.263466	3.9068487
2.357513766054032	15.119029	3.8883195
2.3750442504648586	14.589484	3.8196182
2.3925747904683963	14.598501	3.8207984
2.410105386475459	14.193811	3.7674675
2.4276360388968707	13.870765	3.7243476
2.445166748143469	13.355905	3.6545732
2.4626975146261025	13.057214	3.6134768
2.4802283387556323	12.838994	3.5831542
2.4977592209429305	12.677578	3.5605586
2.5152901615988825	12.487975	3.533833
2.5328211611343865	12.408667	3.5225937
2.5503522199603523	12.338635	3.5126393
2.5678833384877024	12.0542345	3.471921
2.5854145171273712	11.823901	3.43859
2.6029457562903064	11.744511	3.4270265
2.620477056387469	11.48281	3.3886294
2.6380084178298326	11.333594	3.3665404
2.655539841028383	11.155361	3.3399642
2.673071326394119	11.020129	3.319658
2.6906028743380523	10.883444	3.2990065
2.708134485271211	10.689342	3.269456
2.7256661596046325	10.598076	3.2554686
2.743197897749369	10.370164	3.220274
2.760729700116486	10.328834	3.2138503
2.778261567117063	10.164498	3.188181
2.795793499162193	10.132711	3.183192
2.8133254966629817	9.962858	3.1563995
2.830857560030551	9.712158	3.1164336
2.8483896896760337	9.431188	3.071024
2.865921886010578	9.249077	3.0412295
2.883454149445347	9.236345	3.0391357
2.9009864803915177	9.250311	3.0414324
2.91851887926028	9.143732	3.0238605
2.9360513464628384	8.918035	2.9863079
2.953583882410413	8.694222	2.9485967
2.9711164875142373	8.633363	2.9382584
2.9886491621855606	8.564775	2.9265637
3.0061819068356455	8.5608425	2.9258916
3.023714721875769	8.40705	2.8994913
3.041247607717225	8.201349	2.8637998
3.0587805647713213	8.10231	2.8464558
3.0763135934493806	7.9420056	2.8181565
3.0938466941627407	7.8281713	2.7978868
3.1113798673227544	7.7927103	2.7915425
3.1289131133407904	7.8399334	2.799988
3.1464464326282315	7.7874207	2.790595
3.1639798255964786	7.497339	2.7381268
3.1815132926569443	7.3112226	2.7039273
3.1990468342210603	7.2327657	2.6893802
3.216580450700272	7.1923294	2.6818519
3.2341141425060416	7.216808	2.6864116
3.251647910049847	7.067572	2.6584907
3.2691817537431813	6.8815417	2.6232693
3.286715673997555	6.7669845	2.601343
3.3042496712244938	6.7420216	2.5965402
3.32178374583554	6.756956	2.5994146
3.339317898242251	6.7780037	2.6034598
3.3568521288562034	6.656896	2.5800962
3.3743864380889876	6.5652905	2.5622823
3.3919208263522127	6.531349	2.5556505
3.4094552940575023	6.462565	2.5421576
3.4269898416164972	6.450696	2.539822
3.444524469440858	6.481034	2.5457876
3.4620591779422587	6.3236723	2.5146914
3.479593967532391	6.2765193	2.5052981
3.4971288386229658	6.1862135	2.48721
3.5146637916257086	6.2469664	2.4993932
3.5321988269523628	6.3167257	2.5133097
3.5497339450146903	6.2971354	2.5094094
3.5672691462244708	6.269813	2.5039594
3.5848044309934988	6.2254925	2.4950936
3.60233979973359	6.258231	2.5016458
3.619875252856575	6.2013874	2.4902585
3.6374107907743034	6.1370354	2.477304
3.6549464138986427	6.139598	2.477821
3.6724821226414788	6.1245556	2.474784
3.690017917414714	6.1425686	2.4784205
3.7075537986302702	6.160735	2.4820828
3.7250897667000857	6.293667	2.5087183
3.7426258220361235	6.506982	2.5508785
3.7601619650503553	6.723521	2.5929754
3.777698196154779	7.163085	2.676394
3.7952345157614067	7.9850445	2.825782
3.8127709242822716	8.696774	2.9490292
3.830307422129425	10.67584	3.2673905
3.847844009714936	12.062186	3.4730659
3.8653806874508954	15.295249	3.9109142
3.882917455749409	15.027791	3.8765695
3.900454315022606	15.054074	3.879958
3.917991265682631	12.195861	3.4922574
3.9355283081416506	10.346387	3.21658
3.9530654428118495	8.321582	2.8847153
3.970602670105433	7.0985003	2.6643012
3.9881399904346244	6.442667	2.538241
4.005677404211669	6.352049	2.520327
4.023214911848827	6.3713765	2.5241585
4.0407525137583855	6.326471	2.5152476
4.058290210352644	6.2337575	2.4967494
4.075828002043927	6.1626964	2.482478
4.0933658892445814	6.0547423	2.4606385
4.110903872366966	6.098819	2.4695787
4.128441951823468	6.057138	2.4611254
4.145980128026488	6.092979	2.468396
4.163518401388452	6.1592083	2.4817753
4.181056772321807	6.139317	2.4777646
4.1985952412390155	6.1117387	2.472193
4.216133808552567	6.084457	2.466669
4.233672474674966	6.1677003	2.4834855
4.251211240018741	6.3911853	2.5280793
4.268750104996445	6.602214	2.5694773
4.286289070020643	7.6300535	2.7622552
4.303828135503928	9.328193	3.054209
4.3213673018589125	29.572136	5.438027
4.3389065694982305	90.652596	9.521166
4.356445938834537	165.54578	12.866459
4.3739854102805085	171.43022	13.093137
4.391524984248844	172.3612	13.128641
4.409064661152262	136.47935	11.682438
4.426604441403504	96.82585	9.840013
4.444144325415337	75.568985	8.693043
4.461684313600543	21.54991	4.642188
4.47922440637193	21.616907	4.649399
4.496764604142329	19.891632	4.4600034
4.5143049073245916	18.17392	4.263088
4.531845316331589	16.180014	4.022439
4.5493858315762195	13.549314	3.6809392
4.566926453471405	11.259032	3.3554482
4.584467182430081	9.251411	3.0416133
4.602008018865218	8.143379	2.8536606
4.619548963189798	7.3477783	2.7106786
4.637090015816834	6.828129	2.6130688
4.654631177159353	6.5663295	2.562485
4.672172447630417	6.393716	2.5285797
4.689713827643102	6.2381287	2.4976246
4.7072553176105085	6.0050497	2.4505203
4.724796917945764	5.8477583	2.4182138
4.742338629062015	5.7353997	2.3948696
4.759880451372434	5.618246	2.370284
4.777422385290215	5.4671507	2.338194
4.794964431228581	5.4562483	2.3358614
4.812506589600768	5.505777	2.3464391
4.830048860820047	5.5308404	2.351774
4.847591245299709	5.5296283	2.3515162
4.8651337434530655	5.5587335	2.3576965
4.882676355693457	5.517006	2.3488307
4.900219082434242	5.449673	2.3344536
4.917761924088813	5.3651185	2.3162725
4.935304881070575	5.392172	2.322105
4.952847953792969	5.440152	2.3324134
4.970391142669449	5.530953	2.3517978
4.9879344481135055	5.5553527	2.3569796
5.005477870538642	5.463454	2.3374033
5.023021410358394	5.4616146	2.3370097
5.040565067986324	5.3820686	2.3199286
5.05810884383601	5.3478155	2.3125343
5.075652738321066	5.293255	2.3007076
5.09319675185512	5.2364254	2.2883236
5.110740884851836	5.20469	2.281379
5.128285137724894	5.2283983	2.286569
5.145829510888007	5.2582245	2.2930818
5.163374004754908	5.246236	2.2904663
5.1809186197393595	5.2097507	2.2824879
5.198463356255145	5.068571	2.2513487
5.216008214716077	5.0541544	2.2481446
5.233553195535998	5.053647	2.2480319
5.251098299128764	5.1202164	2.2627895
5.268643525908272	5.142637	2.2677383
5.286188876288432	5.126166	2.2641037
5.3037343506831895	5.168026	2.2733293
5.32127994950651	5.197348	2.2797694
5.3388256731723915	5.1812263	2.2762308
5.356371522094851	5.172794	2.2743776
5.373917496687938	5.1299434	2.2649379
5.391463597365729	5.165634	2.272803
5.40900982454232	5.0919485	2.2565346
5.426556178631843	5.062874	2.250083
5.444102660048449	5.0221553	2.2410166
5.4616492692063225	5.0084453	2.2379556
5.479196006519669	5.0100727	2.2383192
5.496742872402727	5.068164	2.2512584
5.514289867269756	5.0680842	2.2512405
5.531836991535049	5.0046115	2.237099
5.549384245612924	4.9273734	2.2197688
5.566931629917724	4.8772693	2.2084541
5.584479144863822	4.9649796	2.2282233
5.6020267908656205	5.057503	2.2488894
5.619574568337545	5.046333	2.2464044
5.637122477694054	4.9686	2.2290356
5.654670519349629	4.9411097	2.2228606
5.672218693718784	4.9392676	2.2224462
5.689767001216059	5.009145	2.238112
5.707315442256021	5.0322266	2.2432625
5.724864017253266	5.048174	2.2468143
5.7424127266224225	5.0487924	2.2469518
5.75996157077814	4.9768634	2.2308884
5.777510550135105	4.982958	2.232254
5.795059665108022	5.013589	2.2391045
5.812608916111639	5.1156335	2.2617767
5.830158303560715	5.267878	2.2951858
5.847707827870055	5.2076154	2.28202
5.86525748945448	5.2556825	2.2925274
5.8828072887288485	5.3440394	2.3117177
5.900357226108044	5.400691	2.3239386
5.917907302006979	5.463387	2.337389
5.9354575168406	5.942272	2.4376776
5.9530078710238765	6.435657	2.5368598
5.970558364971812	6.952658	2.6367893
5.988108999099438	7.24343	2.6913621
6.005659773821818	7.749227	2.7837434
6.023210689554039	7.4988513	2.738403
6.040761746711227	7.8788733	2.8069332
6.058312945708531	7.277293	2.697646
6.075864286961132	6.951778	2.6366224
6.093415770884244	6.408427	2.531487
6.1109673978931065	5.975776	2.44454
6.128519168402993	5.516491	2.348721
6.146071082829204	5.3962426	2.3229814
6.163623141587075	5.2229915	2.2853866
6.181175345091969	5.1005783	2.258446
6.198727693759281	4.994415	2.2348187
6.216280188004435	4.9316525	2.2207325
6.233832828242885	4.970502	2.2294621
6.251385614890126	5.0563474	2.2486324
6.268938548361669	5.0328603	2.2434037
6.286491629073067	4.9248548	2.2192013
6.304044857439898	4.8739734	2.2077076
6.321598233877777	4.909806	2.2158082
6.339151758802344	4.9071717	2.2152138
6.356705432629277	4.949048	2.2246456
6.37425925577428	4.8530154	2.202956
6.391813228653095	4.8423023	2.2005231
6.409367351681486	4.8059726	2.1922529
6.426921625275259	4.7989335	2.190647
6.44447604985025	4.830598	2.1978621
6.46203062582232	4.910452	2.2159538
6.47958535360737	4.930618	2.2204995
6.497140233621328	4.8983564	2.213223
6.514695266280161	4.9177814	2.217607
6.532250451999859	4.9699554	2.2293396
6.549805791196454	5.070458	2.2517676
6.567361284286002	5.0895605	2.2560055
6.584916931684597	5.0195937	2.240445
6.602472733808367	4.9573436	2.2265093
6.6200286910734665	4.8860836	2.2104487
6.637584803896092	4.8952274	2.212516
6.655141072692462	4.82301	2.1961353
6.672697497878842	4.7932396	2.1893468
6.690254079871514	4.748582	2.179124
6.707810819086808	4.8222976	2.195973
6.725367715941078	4.8808866	2.2092729
6.742924770850719	4.897669	2.2130678
6.760481984232151	4.831302	2.1980224
6.778039356501836	4.7937346	2.1894598
6.795596888076266	4.7124944	2.170828
6.813154579371963	4.723001	2.1732466
6.830712430805492	4.75729	2.1811213
6.84827044279344	4.833755	2.1985803
6.865828615752445	4.90024	2.2136486
6.883386950099159	4.9000845	2.2136135
6.900945446250287	4.9146805	2.216908
6.918504104622553	4.9038324	2.21446
6.936062925632727	4.8944187	2.2123332
6.953621909697607	4.899411	2.2134614
6.971181057234028	4.9770203	2.2309237
6.988740368658859	5.0396085	2.2449071
7.006299844389007	5.0902762	2.256164
7.023859484841407	5.1834617	2.2767217
7.041419290433036	5.28961	2.2999153
7.058979261580902	5.445024	2.3334575
7.0765393987020495	5.628871	2.3725243
7.094099702213559	5.9477077	2.4387922
7.111660172532549	6.214854	2.492961
7.129220810076164	6.5760055	2.5643723
7.146781615261595	7.3847046	2.7174814
7.16434258850606	7.6583476	2.767372
7.181903730226821	8.1566925	2.8559923
7.1994650408411704	8.103733	2.8467057
7.217026520766437	8.210742	2.8654392
7.234588170419983	8.457401	2.9081612
7.252149990219215	8.4377775	2.9047854
7.269711980581568	8.257789	2.8736367
7.2872741419245175	7.980462	2.8249712
7.304836474665574	7.4993763	2.738499
7.322398979222286	7.239676	2.6906645
7.339961656012233	6.955185	2.6372685
7.357524505453039	6.6806073	2.584687
7.375087527962357	6.504674	2.5504262
7.392650723957886	6.2353554	2.4970694
7.410214093857353	5.886022	2.4261127
7.427777638078528	5.639548	2.3747733
7.445341357039213	5.4497232	2.3344643
7.4629052511572525	5.277331	2.2972443
7.480469320850524	5.1183743	2.2623825
7.498033566536948	5.0296907	2.2426972
7.5155979886344735	4.9799438	2.2315788
7.5331625875610975	4.978679	2.2312953
7.550727363734844	5.0147767	2.2393696
7.568292317573788	4.980463	2.2316952
7.585857449496025	4.9772224	2.230969
7.603422759919705	4.9470954	2.2242067
7.620988249263007	5.0200667	2.2405505
7.638553917944147	5.0322533	2.2432685
7.656119766381391	5.0641985	2.2503774
7.673685794993023	5.027321	2.242169
7.691252004197388	5.08364	2.2546928
7.70881839441285	5.0884314	2.2557552
7.726384966057826	5.101514	2.2586532
7.743951719550762	5.120565	2.2628665
7.761518655310149	5.138853	2.2669039
7.779085773754511	5.178173	2.27556
7.796653075302419	5.1594	2.2714312
7.814220560372475	5.1619287	2.271988
7.831788229383323	5.1504235	2.2694545
7.8493560827536495	5.1273775	2.2643714
7.866924120902174	5.1413603	2.2674568
7.884492344247663	5.136965	2.2664874
7.9020607532089135	5.1862607	2.2773364
7.919629348204771	5.211525	2.2828765
7.937198129654115	5.1729994	2.274423
7.954767097975865	5.182704	2.2765553
7.972336253588986	5.159551	2.2714646
7.989905596912472	5.1935644	2.2789392
8.007475128365371	5.219431	2.2846074
8.025044848366756	5.272948	2.29629
8.042614757335754	5.449485	2.334413
8.060184855691523	5.5291286	2.35141
8.07775514385327	5.7383623	2.395488
8.095325622240228	5.8097625	2.4103448
8.112896291271687	5.830602	2.414664
8.130467151366968	5.8510075	2.4188855
8.148038202945436	5.870875	2.422989
8.165609446426497	5.890225	2.4269786
8.183180882229594	5.954242	2.4401317
8.200752510774217	5.8878336	2.4264858
8.218324332479893	5.885738	2.426054
8.235896347766193	5.837747	2.416143
8.253468557052724	5.852029	2.4190967
8.27104096075914	5.886753	2.426263
8.288613559305137	5.9823613	2.4458866
8.306186353110448	6.0179296	2.453147
8.32375934259485	6.0418987	2.4580274
8.341332528178162	5.992554	2.4479694
8.358905910280246	6.0611033	2.4619308
8.376479489321003	6.0676165	2.4632533
8.394053265720377	6.161192	2.4821749
8.411627239898356	6.197154	2.4894083
8.42920141227497	6.1815476	2.4862719
8.44677578327029	6.21513	2.4930162
8.464350353304427	6.0931377	2.4684281
8.48192512279754	6.087067	2.4671981
8.499500092169827	5.98923	2.4472904
8.51707526184153	5.987745	2.446987
8.534650632232934	5.952866	2.4398496
8.552226203764365	5.971082	2.44358
8.569801976856192	5.9924693	2.447952
8.587377951928834	6.036986	2.457028
8.60495412940274	6.1023984	2.4703033
8.622530509698416	6.194533	2.4888818
8.6401070932364	6.3697267	2.5238318
8.657683880437283	6.5095487	2.5513818
8.675260871721695	6.6218343	2.5732925
8.692838067510303	6.692403	2.586968
8.710415468223834	6.7451196	2.5971367
8.727993074283043	6.8458676	2.6164608
8.745570886108737	6.826762	2.6128073
8.763148904121765	6.9376836	2.6339483
8.78072712874302	7.001547	2.6460435
8.798305560393441	7.23955	2.6906412
8.815884199494006	7.3833585	2.7172337
8.833463046465745	7.563096	2.7501085
8.851042101729728	7.708737	2.7764611
8.86862136570707	7.93633	2.8171492
8.886200838818924	8.118509	2.8493
8.903780521486505	8.094744	2.8451264
8.921360414131055	8.236196	2.8698773
8.938940517173874	8.392996	2.8970668
8.956520831036297	8.574871	2.928288
8.97410135613971	8.860969	2.976738
8.99168209290554	8.938034	2.9896545
9.009263041755265	9.188449	3.0312455
9.026844203110405	9.387997	3.0639837
9.044425577392525	9.570948	3.093695
9.062007165023239	9.675034	3.1104715
9.079588966424197	9.958358	3.1556866
9.097170982017108	10.050034	3.170179
9.11475321222372	10.984661	3.3143115
9.132335657465825	11.813476	3.4370737
9.149918318165264	11.769238	3.4306324
9.167501194743924	12.141466	3.4844606
9.18508428762374	11.891139	3.448353
9.202667597226693	11.913776	3.451634
9.220251123974803	11.590533	3.4044871
9.237834868290143	11.351003	3.369125
9.255418830594836	11.202758	3.347052
9.273003011311046	10.760451	3.2803128
9.290587410860985	10.55538	3.2489045
9.308172029666911	9.911173	3.1482015
9.32575686815113	9.651378	3.1066666
9.343341926735997	8.419786	2.901687
9.360927205843916	8.2276325	2.868385
9.378512705897327	8.040868	2.8356423
9.396098427318728	7.912609	2.812936
9.413684370530664	7.850092	2.8018014
9.431270535955722	7.7858334	2.7903106
9.448856924016539	7.6914334	2.7733433
9.466443535135806	7.5854516	2.75417
9.484030369736251	7.521272	2.7424939
9.501617428240658	7.474666	2.7339835
9.519204711071852	7.487315	2.736296
9.536792218652714	7.4410396	2.7278268
9.55437995140617	7.5002995	2.7386675
9.571967909755191	7.553729	2.7484047
9.589556094122802	7.603527	2.7574494
9.60714450493207	7.7184763	2.7782147
9.624733142606116	7.8098755	2.7946155
9.642322007568108	7.8408356	2.8001492
9.659911100241267	7.8502636	2.8018322
9.677500421048851	7.8382864	2.799694
9.695089970414175	7.811731	2.7949474
9.712679748760609	7.8593187	2.8034477
9.730269756511557	7.824438	2.7972198
9.747859994090492	7.8972483	2.8102043
9.765450461920915	7.93826	2.8174918
9.78304116042639	8.040364	2.8355536
9.800632090030527	8.107525	2.8473716
9.81822325115699	8.075265	2.841701
9.835814644229481	7.9933825	2.8272572
9.853406269671762	7.9658556	2.8223848
9.870998127907646	8.019447	2.831863
9.888590219360985	8.01536	2.831141
9.906182544455698	8.0486965	2.8370225
9.923775103615734	8.074851	2.8416283
9.941367897265108	8.033205	2.834291
9.958960925827878	8.014789	2.8310401
9.97655418972816	8.050704	2.8373764
9.994147689390106	8.126006	2.850615
10.011741425237934	8.0807705	2.8426697
10.029335397695904	8.063821	2.8396866
10.04692960718833	7.9943814	2.8274338
10.06452405413958	8.012698	2.830671
10.082118738974064	8.061026	2.8391945
10.099713662116246	8.096463	2.8454285
10.117308823990651	8.113791	2.8484719
10.134904225021844	8.092218	2.8446825
10.152499865634445	7.9837027	2.8255446
10.170095746253125	7.967328	2.8226457
10.18769186730261	7.9578476	2.8209658
10.205288229207675	8.039926	2.8354762
10.222884832393145	8.06975	2.8407304
10.2404816772839	7.9491005	2.8194149
10.258078764304868	7.8318257	2.7985399
10.275676093881035	7.7177725	2.7780879
10.293273666437438	7.732488	2.7807353
10.310871482399158	7.8184977	2.7961576
10.32846954219134	7.869551	2.805272
10.346067846239173	7.8680015	2.8049958
10.363666394967908	7.8277535	2.7978122
10.38126518880283	7.8375497	2.7995625
10.398864228169298	7.847984	2.8014252
10.416463513492713	7.918882	2.814051
10.434063045198531	7.945067	2.8186996
10.451662823712262	8.005839	2.8294592
10.469262849459467	8.004392	2.8292034
10.486863122865758	7.9012065	2.8109086
10.504463644356806	7.8468494	2.8012228
10.522064414358338	7.779125	2.7891083
10.539665433296118	7.778174	2.7889378
10.557266701595987	7.7515655	2.7841632
10.574868219683818	7.6419234	2.7644029
10.592469987985552	7.4934344	2.737414
10.610072006927185	7.3829007	2.7171493
10.627674276934751	7.294493	2.700832
10.64527679843435	7.2188163	2.6867855
10.662879571852143	7.0898595	2.662679
10.680482597614331	7.0087814	2.6474104
10.698085876147173	6.9069247	2.6281028
10.715689407876988	6.8794484	2.6228702
10.733293193230146	6.772952	2.6024897
10.750897232633072	6.653205	2.5793808
10.76850152651225	6.525263	2.5544593
10.786106075294207	6.3628407	2.5224671
10.803710879405534	6.2779546	2.5055847
10.821315939272877	6.1949406	2.4889638
10.83892125532294	6.121519	2.4741704
10.856526827982472	6.0803	2.4658265
10.874132657678285	6.1387157	2.4776433
10.891738744837243	6.098702	2.469555
10.909345089886271	5.9928555	2.448031
10.926951693252343	5.8532476	2.4193487
10.944558555362494	5.8121395	2.410838
10.96216567664381	5.7837453	2.4049418
10.979773057523436	5.743644	2.3965902
10.997380698428573	5.6564612	2.3783317
11.014988599786477	5.639064	2.3746712
11.032596762024461	5.5950823	2.3653927
11.050205185569892	5.556624	2.3572493
11.067813870850198	5.482201	2.3414102
11.085422818292859	5.3927526	2.32223
11.10303202832541	5.308484	2.3040147
11.120641501375454	5.248444	2.2909484
11.138251237870636	5.2209034	2.2849295
11.155861238238671	5.187595	2.2776291
11.173471502907317	5.09899	2.2580943
11.191082032304402	5.0521665	2.2477026
11.208692826857805	4.9844475	2.2325876
11.226303886995465	4.923795	2.2189627
11.243915213145371	4.865811	2.2058582
11.261526805735578	4.7967367	2.1901453
11.279138665194196	4.8006706	2.1910434
11.296750791949393	4.795004	2.1897497
11.314363186429393	4.734612	2.1759164
11.331975849062479	4.6190586	2.1491995
11.34958878027699	4.570768	2.1379354
11.36720198050133	4.5811048	2.1403515
11.384815450163948	4.551565	2.1334398
11.402429189693366	4.486521	2.118141
11.420043199518153	4.392768	2.0958931
11.437657480066942	63.352135	7.9594054
11.455272031768422	85.07051	9.223368
11.472886855051353	107.48052	10.367281
11.490501950344528	99.08391	9.95409
11.508117318076819	84.425514	9.188335
11.52573295867715	45.841103	6.7706056
11.543348872574514	4.1041055	2.025859
11.560965060197946	4.0435443	2.0108566
11.57858152197655	4.020181	2.005039
11.59619825833949	3.972387	1.9930848
11.613815269715985	3.9476676	1.9868739
11.631432556535323	38.42595	6.198867
11.649050119226837	82.96715	9.10863
11.666667958219929	93.39551	9.664135
11.68428607394406	107.64277	10.375103
11.701904466828756	82.45655	9.080559
11.719523137303586	65.243004	8.077314
11.737142085798196	4.4827332	2.1172466
11.754761312742286	3.6053154	1.8987669
11.772380818565619	3.6041822	1.8984684
11.790000603698015	3.5619369	1.8873094
11.80762066856935	3.4807587	1.8656791
11.825241013609572	3.470243	1.8628588
11.842861639248683	3.4316318	1.8524665
11.860482545916748	3.41765	1.8486887
11.878103734043883	3.4025743	1.8446068
11.895725204060282	3.3916206	1.8416353
11.91334695639619	3.3925972	1.8419005
11.930968991481919	3.344595	1.8288233
11.948591309747824	3.2810988	1.8113804
11.966213911624347	3.2239573	1.7955382
11.98383679754198	3.1712518	1.7808009
12.001459967931268	3.1374054	1.7712723
12.019083423222835	3.1167908	1.7654436
12.036707163847352	3.1351602	1.7706383
12.05433119023556	3.1285615	1.768774
12.071955502818259	3.1337426	1.770238
12.089580102026313	3.141911	1.7725437
12.107204988290643	3.1262927	1.7681326
12.12483016204224	3.1053658	1.7622048
12.142455623712152	3.1043632	1.7619203
12.16008137373149	3.0913002	1.7582093
12.177707412531431	3.0886624	1.757459
12.19533374054321	3.041985	1.7441287
12.212960358198126	3.0703747	1.7522485
12.230587265927545	3.0526004	1.7471693
12.248214464162889	2.9693928	1.7231926
12.265841953335649	2.9109552	1.7061522
12.283469733877375	2.8596961	1.6910636
12.301097806219685	2.8579695	1.6905531
12.31872617079425	2.8548303	1.6896243
12.336354828032825	2.8795366	1.6969198
12.353983778367205	2.8985953	1.7025262
12.371613022229262	2.895458	1.7016045
12.389242560050928	2.8901713	1.7000504
12.406872392264201	2.880676	1.6972555
12.424502519301143	2.8531938	1.68914
12.442132941593874	2.794338	1.6716274
12.459763659574586	2.7794812	1.6671776
12.477394673675532	2.7693336	1.6641315
12.49502598432903	2.743463	1.6563402
12.51265759196746	2.744453	1.6566391
12.530289497023267	2.7361302	1.6541252
12.547921699928967	2.7221642	1.6498982
12.565554201117134	2.7089293	1.6458825
12.583187001020404	2.7155817	1.6479023
12.600820100071486	2.6812086	1.6374396
12.618453498703152	2.6714818	1.6344669
12.636087197348235	2.675647	1.6357405
12.65372119643964	2.7229517	1.6501368
12.671355496410326	2.7539907	1.6595151
12.68899009769333	2.7801569	1.6673802
12.706625000721749	2.7737992	1.6654726
12.724260205928752	2.8055055	1.6749643
12.741895713747551	2.843513	1.6862719
12.759531524611454	2.9175613	1.7080871
12.777167638953818	2.9287045	1.7113458
12.794804057208072	2.9248683	1.7102246
12.812440779807702	2.938205	1.7141193
12.830077807186271	3.0764391	1.7539781
12.847715139777405	3.1364236	1.7709951
12.865352778014795	3.3340569	1.82594
12.882990722332197	3.4397297	1.8546509
12.90062897316344	3.5173843	1.8754691
12.918267530942412	3.5920703	1.8952758
12.935906396103071	3.4794772	1.8653357
12.953545569079449	3.6524749	1.911145
12.971185050305628	3.4875984	1.8675113
12.988824840215775	3.4753869	1.864239
13.006464939244115	3.4537084	1.8584156
13.024105347824943	3.2962537	1.8155588
13.041746066392617	3.3500664	1.8303187
13.05938709538157	3.1444216	1.7732517
13.077028435226296	3.1858819	1.7849039
13.094670086361363	3.1417685	1.7725035
13.112312049221401	3.0926545	1.7585945
13.129954324241112	3.0066602	1.7339724
13.147596911855258	2.8240695	1.6804968
13.165239812498685	2.7831132	1.6682665
13.182883026606293	2.6976213	1.6424437
13.200526554613058	2.6437418	1.6259588
13.218170396954017	2.6350465	1.6232827
13.235814554064284	2.6468441	1.6269125
13.253459026379034	2.6535532	1.628973
13.271103814333523	2.6432211	1.6257986
13.288748918363058	2.5856907	1.6080083
13.306394338903031	2.5565677	1.598927
13.32404007638889	2.5456967	1.595524
13.341686131256164	2.5902424	1.609423
13.359332503940449	2.6030097	1.6133846
13.376979194877402	2.6099	1.6155185
13.394626204502751	2.6530342	1.6288137
13.412273533252307	2.6721308	1.6346654
13.429921181561937	2.6354058	1.6233933
13.447569149867581	2.602016	1.6130766
13.465217438605247	2.612271	1.6162522
13.482866048211022	2.6468565	1.6269163
13.500514979121052	2.6598182	1.6308949
13.518164231771568	2.64446	1.6261796
13.535813806598844	2.592329	1.6100712
13.553463704039254	2.5570166	1.5990674
13.571113924529229	2.569975	1.6031141
13.588764468505275	2.592406	1.610095
13.606415336403956	2.6344342	1.6230941
13.624066528661917	2.67485	1.6354969
13.641718045715882	2.7376273	1.6545776
13.659369888002635	2.8049355	1.6747942
13.67702205595903	2.8738918	1.6952556
13.694674550021993	2.9644606	1.7217609
13.712327370628532	3.0272546	1.7399007
13.729980518215713	3.0910401	1.7581354
13.747633993220681	3.1435843	1.7730156
13.765287796080647	3.1636262	1.7786585
13.7829419272329	3.2118447	1.7921621
13.800596387114801	3.2383227	1.7995341
13.818251176163775	3.2318428	1.7977327
13.835906294817324	3.2585862	1.8051554
13.853561743513023	3.324179	1.8232331
13.871217522688525	3.4017787	1.8443911
13.888873632781538	3.4030037	1.8447232
13.906530074229858	3.4098647	1.8465819
13.92418684747135	3.4222722	1.8499384
13.941843952943948	3.4428422	1.8554897
13.959501391085665	3.3885622	1.8408048
13.977159162334578	3.2992096	1.8163726
13.994817267128846	3.2519498	1.8033164
14.012475705906693	3.1894004	1.7858893
14.030134479106424	3.1401763	1.7720543
14.047793587166414	3.0341954	1.7418942
14.065453030525108	2.9603288	1.7205607
14.083112809621026	2.900923	1.7032096
14.100772924892766	2.860112	1.6911865
14.118433376778997	2.8756037	1.6957605
14.136094165718458	2.838911	1.6849068
14.153755292149969	2.7899325	1.6703091
14.171416756512416	2.6900613	1.6401407
14.189078559244768	2.5929163	1.6102535
14.20674070078606	2.5179863	1.5868164
14.224403181575408	2.49023	1.5780463
14.242066002051999	2.4335063	1.5599699
14.259729162655093	2.3828635	1.5436527
14.277392663824022	2.3719776	1.5401226
14.295056505998208	2.3726015	1.5403252
14.312720689617128	2.3926795	1.5468289
14.330385215120348	2.4122443	1.5531402
14.348050082947497	2.3976183	1.5484245
14.3657152935383	2.3641946	1.5375937
14.383380847332528	2.3525546	1.5338039
14.401046744770051	2.3631878	1.5372664
14.418712986290798	2.3600435	1.5362433
14.436379572334793	2.356072	1.5349501
14.454046503342123	2.3559864	1.5349222
14.471713779752946	2.3779871	1.5420723
14.489381402007504	2.3852184	1.5444152
14.507049370546113	2.4120858	1.5530891
14.524717685809168	2.352344	1.5337353
14.542386348237134	2.354176	1.5343324
14.560055358270553	2.334788	1.5280013
14.577724716350051	2.3732271	1.5405282
14.595394422916325	2.3712099	1.5398734
14.61306447841015	2.4203832	1.5557581
14.63073488327237	2.4409404	1.5623509
14.648405637943917	2.4567716	1.5674092
14.6660767428658	2.4352863	1.5605404
14.683748198479094	2.4513466	1.5656776
14.701420005224954	2.4546263	1.5667247
14.719092163544628	2.5082674	1.5837511
14.73676467387942	2.6036372	1.613579
14.754437536670727	2.651172	1.628242
14.772110752360014	2.657825	1.6302837
14.78978432138882	2.5949404	1.6108819
14.807458244198777	2.5822089	1.6069252
14.82513252123159	2.577617	1.6054958
14.842807152929028	2.623829	1.6198237
14.860482139732962	2.641417	1.6252437
14.87815748208531	2.6077926	1.6148661
14.8958331804281	2.624181	1.6199324
14.91350923520342	2.5979705	1.6118221
14.931185646853438	2.6189604	1.6183202
14.948862415820408	2.5751498	1.6047273
14.966539542546656	2.5943093	1.610686
14.98421702747459	2.5951557	1.6109487
15.001894871046696	2.6142662	1.6168692
15.019573073705542	2.6144283	1.6169194
15.037251635893766	2.6263576	1.620604
15.054930558054092	2.6596367	1.6308392
15.072609840629323	2.6821108	1.6377151
15.090289484062351	2.7902536	1.6704053
15.107969488796124	2.955682	1.7192097
15.125649855273691	3.193073	1.7869172
15.14333058393817	3.6065817	1.8991002
15.161011675232768	4.1913853	2.0472872
15.17869312960076	4.8452373	2.20119
15.196374947485506	5.488749	2.342808
15.214057129330447	6.8409305	2.6155171
15.231739675579114	8.958578	2.9930885
15.249422586675102	13.362257	3.655442
15.267105863062092	17.488342	4.1819067
15.284789505183847	24.014944	4.9005046
15.302473513484218	28.166647	5.3072257
15.320157888407127	31.847382	5.643348
15.337842630396578	30.799492	5.549729
15.355527739896656	28.190674	5.3094893
15.37321321735153	21.976288	4.687887
15.39089906320545	15.123635	3.8889117
15.408585277902748	9.926375	3.150615
15.42627186188783	6.3041463	2.5108058
15.443958815605198	4.6247373	2.1505203
15.461646139499424	3.8291242	1.9568148
15.479333834015168	3.4246607	1.8505839
15.497021899597165	3.118617	1.7659607
15.514710336690234	2.89289	1.7008498
15.53239914573928	2.6950386	1.6416572
15.550088327189297	2.5646064	1.6014389
15.567777881485336	2.4613726	1.5688763
15.58546780907256	2.4072766	1.5515401
15.6031581103962	2.388146	1.5453627
15.620848785901568	2.428143	1.55825
15.638539836034063	2.4269905	1.5578802
15.656231261239173	2.442324	1.5627936
15.673923061962451	2.426797	1.557818
15.691615238649552	2.4149427	1.5540086
15.709307791746202	2.3906171	1.546162
15.727000721698221	2.3891785	1.5456967
15.744694028951498	2.3598359	1.5361757
15.76238771395202	2.3456924	1.5315653
15.780081777145844	2.3868637	1.5449477
15.797776218979125	2.3741395	1.5408243
15.815471039898094	2.3717554	1.5400504
15.833166240349064	2.3683991	1.5389605
15.850861820778437	2.3645453	1.5377078
15.868557781632699	2.3852046	1.5444107
15.886254123358412	2.3802526	1.5428067
15.903950846402232	2.3904274	1.5461007
15.921647951210897	2.3830202	1.5437034
15.939345438231225	2.3798285	1.5426693
15.957043307910133	2.3947132	1.5474861
15.974741560694602	2.4385748	1.5615937
15.992440197031714	2.4206843	1.5558549
16.01013921736862	2.410644	1.552625
16.02783862215259	2.3898711	1.5459208
16.045538411830933	2.4085839	1.5519613
16.06323858685107	2.4015	1.5496774
16.080939147660512	2.360365	1.5363479
16.09864009470684	2.3861175	1.5447062
16.11634142843774	2.3955624	1.5477605
16.134043149300954	2.3753862	1.5412288
16.15174525774433	2.3514209	1.5334344
16.169447754215817	2.3540373	1.5342872
16.18715063916342	2.355916	1.5348994
16.204853913035244	2.360964	1.5365429
16.222557576279478	2.3712442	1.5398844
16.240261629344403	22.35374	4.7279744
16.257966072678386	42.943527	6.553131
16.275670906729868	38.063873	6.169593
16.293376131947387	2.520508	1.5876108
16.31108174877957	2.54949	1.5967122
16.328787757675133	2.5954764	1.6110482
16.34649415908287	2.5627658	1.600864
16.364200953451657	2.5458603	1.5955752
16.38190814123048	2.5102577	1.5843793
16.39961572286839	2.5410786	1.594076
16.41732369881455	2.5936108	1.6104691
16.43503206951817	2.6432512	1.6258079
16.45274083542859	2.6649082	1.6324546
16.47044999699522	2.7175283	1.6484927
16.488159554667558	2.791162	1.6706771
16.505869508895184	2.8245869	1.6806507
16.523579860127786	2.862158	1.6917914
16.541290608815117	2.894643	1.7013651
16.559001755407035	2.9841022	1.7274554
16.57671330035348	3.1298602	1.7691411
16.59442524410448	3.2553062	1.8042468
16.61213758711015	3.4200666	1.8493422
16.629850329820705	3.4116433	1.8470634
16.647563472686436	3.414553	1.8478509
16.665277016157724	3.399568	1.8437917
16.682990960685053	3.4152737	1.848046
16.70070530671898	3.4145343	1.8478459
16.718420054710155	3.4530725	1.8582445
16.736135205109335	3.4781694	1.8649851
16.753850758367335	3.4967585	1.8699621
16.771566714935087	3.5428846	1.8822552
16.789283075263597	3.5769885	1.8912928
16.80699983980398	3.6742427	1.9168314
16.82471700900741	3.6901367	1.9209728
16.84243458332518	3.7448876	1.9351712
16.860152563208665	3.8270044	1.9562731
16.87787094910932	3.8963325	1.973913
16.89558974147871	3.985319	1.9963263
16.913308940768466	4.0346	2.0086312
16.931028547430333	4.094202	2.0234134
16.94874856191613	4.1773095	2.0438468
16.966468984677785	4.2373686	2.058487
16.98418981616729	4.2588286	2.063693
17.00191105683676	4.2859597	2.070256
17.019632707138374	4.3280864	2.0804052
17.03735476752442	4.375465	2.091761
17.05507723844728	4.414845	2.1011531
17.072800120359403	4.4364314	2.106284
17.090523413713353	4.483539	2.117437
17.108247118961785	4.512146	2.1241813
17.125971236557437	4.5808945	2.1403024
17.143695766953133	4.577696	2.139555
17.161420710601806	4.5816426	2.1404772
17.179146067956477	4.5556827	2.1344044
17.19687183947025	4.5458274	2.1320946
17.21459802559634	4.549962	2.133064
17.232324626788028	4.5499935	2.1330714
17.25005164349871	4.548087	2.1326244
17.267779076181863	4.545255	2.1319604
17.285506925291074	4.499579	2.121221
17.30323519127999	4.482189	2.1171181
17.320963874602384	4.4492784	2.1093314
17.33869297571211	4.4419937	2.1076038
17.356422495063114	4.3996706	2.0975392
17.37415243310944	4.3689737	2.090209
17.391882790305218	4.3363547	2.0823915
17.40961356710468	4.3524847	2.086261
17.42734476396215	4.4226623	2.1030126
17.445076381332044	4.4493933	2.1093585
17.462808419668868	4.5512757	2.1333718
17.48054087942723	4.649831	2.1563466
17.498273761061835	4.787169	2.18796
17.51600706502747	5.117607	2.262213
17.533740791779024	5.719207	2.3914864
17.551474941771485	6.6336384	2.5755851
17.56920951545993	8.519263	2.9187777
17.586944513299528	9.729427	3.119203
17.60467993574556	12.365074	3.5164008
17.622415783253373	14.771154	3.8433259
17.64015205627843	17.325176	4.162352
17.657888755276293	19.35556	4.3994956
17.675625880702604	20.559967	4.53431
17.69336343301311	19.169855	4.3783393
17.71110141266366	17.23173	4.1511116
17.728839820110178	14.7986	3.846895
17.746578655808705	11.810777	3.436681
17.764317920215372	9.723455	3.1182456
17.7820576137864	8.075847	2.8418033
17.79979773697811	6.794804	2.6066844
17.81753829024692	5.656748	2.3783917
17.835279274049356	4.9902234	2.2338808
17.85302068884201	4.3985305	2.0972674
17.870762535081607	4.0668545	2.0166445
17.888504813224934	3.8457139	1.9610492
17.90624752372891	3.6873543	1.9202485
17.923990667050536	3.5984452	1.8969568
17.941734243646895	3.5080578	1.872981
17.959478253975185	3.4300914	1.8520505
17.9772226984927	3.3734114	1.836685
17.994967577656833	3.37739	1.8377676
18.01271289192506	3.379215	1.8382641
18.030458641754965	3.3431647	1.8284323
18.04820482760425	3.294873	1.8151785
18.06595144993067	3.2966192	1.8156594
18.083698509192125	3.2403016	1.8000838
18.101446005846576	3.206368	1.7906334
18.119193940352105	3.1728227	1.7812419
18.136942313166887	3.1665199	1.7794718
18.1546911247492	3.135047	1.7706064
18.1724403755574	3.1496172	1.7747161
18.19019006604997	3.1238728	1.7674481
18.207940196685467	3.0557783	1.7480785
18.225690767922575	2.9958577	1.7308546
18.243441780220046	2.9884477	1.7287127
18.261193234036764	3.0051565	1.7335387
18.278945129831676	3.0247493	1.7391807
18.29669746806386	2.9842713	1.7275044
18.314450249192483	2.9405196	1.7147943
18.3322034736768	2.9214375	1.7092214
18.349957141976184	2.9432752	1.7155976
18.3677112545501	2.9661176	1.722242
18.385465811858108	2.9690397	1.7230902
18.403220814359884	2.978932	1.7259582
18.420976262515172	2.986768	1.7282268
18.43873215678387	3.0229454	1.738662
18.456488497625923	3.0745723	1.7534459
18.474245285501407	3.2003105	1.7889411
18.492002520870486	3.2554355	1.8042825
18.50976020419343	3.3259919	1.8237302
18.527518335930615	3.597408	1.8966835
18.545276916542516	4.173367	2.042882
18.563035946489688	4.3136	2.0769207
18.580795426232832	4.7139916	2.1711729
18.598555356232698	4.5900455	2.1424391
18.616315736950185	4.9032817	2.2143354
18.63407656884626	4.574386	2.1387815
18.65183785238201	4.7516813	2.179835
18.669599588018617	4.54521	2.13195
18.68736177621737	4.5352154	2.1296046
18.705124417439652	4.555496	2.1343608
18.72288751214696	4.381327	2.093162
18.740651060800886	4.5000763	2.1213384
18.758415063863115	4.2487845	2.061258
18.77617952179546	4.4313054	2.1050665
18.793944435059814	4.182081	2.0450137
18.811709804118184	4.1189194	2.0295122
18.829475629432675	4.0435543	2.010859
18.8472419114655	3.8717296	1.9676712
18.86500865067897	3.959049	1.989736
18.88277584753551	3.6356509	1.9067383
18.90054350249763	3.677801	1.9177593
18.918311616027957	3.4457376	1.8562698
18.936080188589226	3.3562818	1.8320158
18.953849220644265	3.0283372	1.7402118
18.971618712656007	2.8358996	1.6840129
18.9893886650875	2.7906437	1.670522
19.007159078401887	7.9669385	2.8225765
19.024929953062408	32.813496	5.7283063
19.042701289532435	32.72422	5.7205086
19.060473088275405	25.273357	5.0272613
19.07824534975489	2.5445917	1.5951777
19.096018074434568	2.5230534	1.5884123
19.113791262778197	2.509966	1.5842872
19.13156491524966	2.5320969	1.5912564
19.149339032312945	2.5340238	1.5918617
19.167113614432136	2.5458105	1.5955596
19.184888662071433	2.5505414	1.5970415
19.202664175695123	2.552603	1.5976868
19.220440155767623	2.514405	1.5856875
19.238216602753447	2.518517	1.5869837
19.2559935171172	2.5212948	1.5878586
19.27377089932361	2.5189533	1.5871211
19.291548749837514	2.4795685	1.5746646
19.309327069123835	2.4335036	1.5599691
19.32710585764763	2.432918	1.5597814
19.344885115874032	2.442374	1.5628097
19.362664844268313	2.4891865	1.5777156
19.380445043295822	2.4784276	1.5743023
19.39822571342203	2.458176	1.5678571
19.41600685511252	2.4280403	1.558217
19.43378846883297	2.4383688	1.5615277
19.451570555049173	2.4723473	1.5723699
19.469353114227037	2.4945676	1.5794201
19.48713614683254	2.5076926	1.5835695
19.50491965333182	2.4925902	1.5787939
19.52270363419109	2.496719	1.5801009
19.540488089876686	2.4680595	1.571006
19.55827302085503	2.4446878	1.5635498
19.576058427592674	2.413926	1.5536814
19.593844310556282	2.3849614	1.544332
19.611630670212598	2.3750875	1.5411319
19.629417507028506	2.3724582	1.5402787
19.64720482147098	2.4166799	1.5545675
19.6649926140071	2.4005795	1.5493803
19.682780885104084	2.4068396	1.5513992
19.70056963522921	2.3909075	1.546256
19.718358864849908	2.3739417	1.54076
19.7361485744337	2.3798423	1.5426737
19.753938764448215	2.400204	1.5492592
19.771729435361202	2.4365008	1.5609294
19.789520587640506	2.4351199	1.560487
19.807312221754092	2.4483647	1.5647252
19.825104338170043	2.445725	1.5638814
19.842896937356517	2.434347	1.5602394
19.860690019781824	2.401628	1.5497187
19.87848358591436	2.383287	1.5437897
19.896277636222635	2.4096923	1.5523183
19.914072171175278	2.4684508	1.5711304
19.931867191241015	2.4921954	1.5786688
19.94966269688869	2.5149224	1.5858507
19.967458688587264	2.496978	1.5801829
19.985255166805807	2.45623	1.5672364
20.00305213201348	2.4367588	1.5610121
20.020849584679578	2.4243627	1.5570365
20.038647525273507	2.4186018	1.5551854
20.05644595426477	2.4122794	1.5531515
20.07424487212299	2.4492385	1.5650043
20.092044279317903	2.4727788	1.5725071
20.109844176319353	2.470219	1.5716931
20.127644563597304	2.4249675	1.5572307
20.145445441621817	2.4307806	1.5590961
20.16324681086307	2.4456215	1.5638483
20.181048671791373	2.4389951	1.5617282
20.198851024877122	2.4132993	1.5534798
20.216653870590836	2.4098387	1.5523655
20.234457209403146	2.3857396	1.5445839
20.252261041784802	2.365828	1.5381248
20.270065368206662	2.3255734	1.524983
20.287870189139685	2.3073225	1.5189873
20.305675505054968	2.2866843	1.5121787
20.323481316423702	2.2784414	1.5094507
20.341287623717207	2.244222	1.4980727
20.359094427406884	2.2475557	1.499185
20.376901727964288	2.2601147	1.5033678
20.39470952586107	2.3098605	1.5198225
20.41251782156899	2.3211937	1.5235465
20.430326615559935	2.315954	1.5218259
20.448135908305886	2.3102796	1.5199604
20.465945700278965	2.3301556	1.5264847
20.483755991951384	2.3266802	1.5253459
20.50156678379548	2.2978816	1.5158765
20.519378076283708	2.2326798	1.4942155
20.537189869888635	2.235913	1.495297
20.55500216508294	2.2878654	1.5125692
20.572814962339415	2.3215318	1.5236573
20.59062826213098	2.3186698	1.522718
20.60844206493066	2.2941687	1.5146513
20.626256371211593	2.251961	1.5006535
20.644071181447032	2.2687516	1.5062376
20.66188649611036	2.2650046	1.5049932
20.67970231567506	2.2822862	1.5107237
20.697518640614742	2.2563686	1.5021213
20.715335471403122	2.2203333	1.4900783
20.73315280851404	2.209036	1.4862827
20.750970652421447	2.2040396	1.4846008
20.768789003599412	2.2187521	1.4895476
20.786607862522136	2.2382061	1.4960636
20.8044272296639	2.2147114	1.4881907
20.82224710549913	2.2009544	1.4835614
20.84006749050237	2.2098613	1.4865602
20.857888385148268	3.806292	1.9509721
20.8757097899116	45.912323	6.775863
20.893531705267254	64.74755	8.046586
20.911354131690224	83.74403	9.151176
20.92917706965566	68.98418	8.305672
20.94700051963877	50.05054	7.0746408
20.96482448211493	29.32753	5.4154897
20.982648957559622	4.0963387	2.0239413
21.00047394644843	2.2445703	1.498189
21.01829944925707	2.2478704	1.49929
21.036125466461375	2.2289162	1.4929556
21.053951998537297	2.1458294	1.464865
21.071779045960906	2.1478887	1.4655677
21.089606609208378	2.1502898	1.4663867
21.10743468875603	2.1405232	1.4630527
21.12526328508028	2.1387553	1.4624484
21.143092398657675	2.14246	1.4637145
21.16092202996488	2.156464	1.4684904
21.17875217947867	2.1518555	1.4669204
21.19658284767596	2.1589806	1.469347
21.21441403503377	2.1364233	1.4616508
21.232245742029225	2.1216388	1.4565846
21.2500779691396	2.1319485	1.4601194
21.26791071684227	2.1271672	1.4584812
21.28574398561475	2.0981581	1.4485021
21.30357777593465	2.078273	1.4416217
21.321412088279704	2.0717385	1.4393535
21.339246923127792	2.081084	1.4425963
21.357082280956888	2.0975547	1.4482937
21.3749181622451	2.0939581	1.4470515
21.392754567470647	2.0568533	1.4341733
21.41059149711187	2.0112944	1.4182011
21.42842895164726	2.0153928	1.4196453
21.446266931555378	2.0472896	1.4308352
21.464105437314945	2.0574677	1.4343876
21.481944469404798	2.0540645	1.4332008
21.49978402830388	2.0352142	1.4266093
21.51762411449127	2.0336475	1.4260602
21.53546472844617	2.081862	1.4428658
21.553305870647876	2.1131356	1.4536629
21.571147541575865	2.080017	1.4422264
21.58898974170967	2.0582426	1.4346577
21.60683247152899	2.0521407	1.4325294
21.62467573151363	2.0607586	1.4355342
21.642519522143523	2.06684	1.4376508
21.660363843898722	2.0327702	1.4257525
21.6782086972594	2.0067554	1.4165999
21.696054082705864	1.9982202	1.4135841
21.713900000718535	1.9873054	1.4097182
21.73174645177795	2.013531	1.4189894
21.749593436364794	2.0425775	1.4291877
21.767440954959845	2.0597007	1.4351658
21.785289008044032	2.0179236	1.4205364
21.803137596098388	2.015785	1.4197835
21.820986719604086	2.0068564	1.4166356
21.838836379042412	1.9879824	1.4099582
21.85668657489478	1.9853387	1.4090204
21.87453730764273	1.9964699	1.4129649
21.892388577767914	2.0146127	1.4193705
21.91024038575213	2.0071971	1.4167558
21.928092732077285	1.9924843	1.4115539
21.945945617225426	1.9398934	1.3928006
21.963799041678694	1.9358228	1.3913385
21.981653005919398	31.28176	5.59301
21.999507510429943	78.10484	8.837694
22.01736255569286	73.06781	8.547971
22.035218142190818	4.1399975	2.0346985
22.05307427040661	1.948051	1.395726
22.07093094082315	1.9130751	1.3831396
22.088788153923474	1.8942664	1.3763235
22.106645910190746	1.8640591	1.3653055
22.12450421010827	1.8748999	1.3692698
22.142363054159464	1.9046043	1.380074
22.16022244282787	1.9559046	1.3985366
22.178082376597164	1.9957325	1.412704
22.195942855951145	2.0010316	1.4145782
22.213803881373742	1.9752346	1.4054304
22.231665453349002	1.9228191	1.3866576
22.24952757236111	1.9031318	1.3795404
22.26739023889438	1.9170973	1.3845929
22.28525345343323	1.910846	1.3823335
22.30311721646225	1.8822346	1.3719455
22.320981528466113	1.8883445	1.3741705
22.33884638992964	1.8847216	1.3728516
22.356711801337788	1.8778609	1.3703506
22.37457776317561	1.9019806	1.3791231
22.392444275928337	1.9248352	1.3873843
22.410311340081282	1.9628317	1.401011
22.428178956119904	1.9347293	1.3909454
22.446047124529805	1.8748386	1.3692474
22.46391584579669	1.86485	1.3655951
22.481785120406414	1.8872463	1.3737708
22.49965494884496	1.9237514	1.3869936
22.51752533159841	1.9185159	1.385105
22.53539626915302	1.8777367	1.3703053
22.553267761995137	1.8473344	1.3591667
22.571139810611264	1.8676292	1.3666123
22.589012415488025	1.9130095	1.3831159
22.60688557711216	1.9442787	1.3943739
22.624759295970566	1.9083441	1.3814282
22.642633572550263	1.894055	1.3762467
22.660508407338362	1.8970115	1.3773204
22.67838380082217	1.9876617	1.4098445
22.696259753489077	1.9933466	1.4118593
22.714136265826614	1.9738077	1.4049227
22.73201333832246	1.9021096	1.37917
22.74989097146439	1.8642194	1.3653642
22.76776916574035	1.8582747	1.3631855
22.785647921638393	1.8959448	1.3769331
22.803527239646712	1.898574	1.3778875
22.82140712025363	1.8540392	1.361631
22.839287563947593	1.795448	1.3399433
22.85716857121719	1.8067178	1.344142
22.875050142551135	1.8571647	1.3627783
22.892932278438277	1.8761346	1.3697207
22.910814979367604	1.8657237	1.365915
22.928698245828222	1.8655983	1.365869
22.946582078309387	1.8794452	1.3709286
22.96446647730047	1.8802767	1.3712318
22.98235144329098	1.8515673	1.360723
23.000236976770562	1.8268638	1.3516152
23.018123078229	1.7805882	1.3343868
23.03600974815619	1.7874612	1.3369597
23.053896987042194	1.8127799	1.3463951
23.071784795377173	1.8699521	1.3674619
23.08967317365145	1.9034944	1.3796718
23.10756212235546	1.9070345	1.3809541
23.125451641979787	1.8686149	1.3669729
23.143341733015134	1.8671712	1.3664447
23.161232395952357	1.8704323	1.3676375
23.179123631282426	1.9076644	1.3811823
23.197015439496468	1.8994565	1.3782077
23.214907821085717	1.9430625	1.3939378
23.23280077654157	1.9392893	1.3925837
23.250694306355538	1.9010941	1.3788017
23.268588411019277	1.8471098	1.3590841
23.28648309102458	1.8559201	1.3623216
23.304378346863356	1.8991948	1.3781128
23.322274179027676	1.9126897	1.3830003
23.340170588009723	1.8866929	1.3735694
23.358067574301852	1.8646622	1.3655263
23.37596513839651	1.8551239	1.3620293
23.39386328078629	1.8558977	1.3623134
23.411762001963947	1.8619996	1.3645511
23.429661302422353	1.8984913	1.3778574
23.4475611826545	1.902718	1.3793905
23.46546164315356	1.9046919	1.3801057
23.48336268441279	1.8820671	1.3718845
23.501264306925638	1.9015267	1.3789586
23.51916651118564	1.8898911	1.3747331
23.537069297686497	1.9363018	1.3915106
23.554972666922037	1.9139905	1.3834704
23.57287661938623	1.8733402	1.3687001
23.59078115557318	1.828293	1.3521439
23.608686275977128	1.8015842	1.342231
23.62659198109246	1.8144773	1.3470254
23.6444982714137	1.8315138	1.3533343
23.66240514743549	1.8836004	1.3724432
23.68031260965263	1.8927248	1.3757633
23.698220658560068	1.8823802	1.3719987
23.716129294652845	1.8774449	1.3701988
23.7340385184262	1.8666664	1.36626
23.75194833037546	1.8533411	1.3613747
23.769858730996123	1.8804231	1.3712852
23.78776972078382	1.8827865	1.3721467
23.80568130023431	1.8772769	1.3701376
23.823593469843495	1.8858199	1.3732516
23.841506230107424	1.9330835	1.3903538
23.859419581522275	1.928379	1.3886609
23.87733352458438	1.8831683	1.3722858
23.89524805979019	1.8713397	1.3679692
23.913163187636318	1.9257603	1.3877176
23.931078908619508	1.9700027	1.4035678
23.948995223236633	1.9751275	1.4053923
23.966912131984735	1.9501653	1.3964832
23.98482963536096	1.9583476	1.3994098
24.002747733862616	1.9413073	1.393308
24.020666427987155	1.9307826	1.389526
24.038585718232156	1.920103	1.3856778
24.056505605095353	1.9027908	1.3794168
24.074426089074617	1.9915686	1.4112295
24.092347170667946	2.0417979	1.4289149
24.110268850373515	2.031941	1.4254616
24.128191128689586	2.0084376	1.4171935
24.146114006114626	2.0032065	1.4153467
24.164037483147187	2.0677228	1.4379579
24.181961560286005	2.0669909	1.4377034
24.199886238029926	2.052709	1.4327278
24.21781151687797	2.0070674	1.41671
24.235737397329274	1.9544348	1.398011
24.253663879883135	1.9399312	1.3928142
24.271590965038975	1.9362725	1.3915001
24.289518653296376	1.9203252	1.3857579
24.30744694515505	1.941423	1.3933495
24.32537584111486	1.9455308	1.3948228
24.34330534167581	1.9560523	1.3985894
24.361235447338046	2.0163372	1.4199779
24.379166158601876	2.0125258	1.4186351
24.39709747596772	1.9708854	1.4038823
24.41502939993615	1.9438286	1.3942125
24.432961931007917	1.9507694	1.3966994
24.450895069683856	1.9703119	1.4036779
24.468828816465	1.9574264	1.3990805
24.4867631718525	1.9354495	1.3912044
24.504698136347656	1.9505545	1.3966225
24.52263371045192	1.9780862	1.4064445
24.540569894666874	2.0028958	1.4152371
24.558506689494266	1.9925071	1.411562
24.57644409543597	1.9537146	1.3977534
24.594382112994012	1.9315464	1.3898009
24.61232074267057	1.919721	1.38554
24.630259984967953	1.9291759	1.3889477
24.64819984038863	1.9165599	1.3843988
24.66614030943522	1.9269316	1.3881396
24.684081392610462	1.9420971	1.3935914
24.702023090417274	1.9692955	1.4033159
24.7199654033587	1.9701896	1.4036344
24.737908331937927	1.9425417	1.3937509
24.755851876658305	1.9622684	1.4008099
24.773796038023324	1.9932305	1.4118181
24.79174081653661	2.0188262	1.4208541
24.809686212701962	2.0615392	1.4358062
24.827632227023294	2.0978446	1.4483938
24.8455788600047	2.1147542	1.4542195
24.8635261121504	2.1578987	1.4689788
24.88147398396475	2.1296751	1.4593407
24.899422475952303	2.0942452	1.4471507
24.917371588617698	2.1060302	1.4512168
24.935321322465768	2.1456847	1.4648156
24.953271678001478	2.2307053	1.4935546
24.97122265572994	2.3852324	1.5444198
24.989174256156414	2.7345045	1.6536337
25.00712647978632	3.3471663	1.8295263
25.02507932712521	4.3256407	2.0798175
25.043032798678798	5.750382	2.3979955
25.060986894952933	7.2969065	2.7012787
25.078941616453637	8.8165865	2.9692738
25.096896963687055	9.652805	3.1068964
25.114852937159508	10.252725	3.2019875
25.132809537377444	10.000006	3.1622787
25.150766764847468	9.4123	3.0679471
25.168724620076347	8.118746	2.8493414
25.186683103570985	6.9821644	2.6423786
25.204642215838426	5.6679926	2.3807547
25.222601957385894	4.5684237	2.137387
25.24056232872074	3.5151725	1.8748794
25.25852333035048	2.8637056	1.6922487
25.276484962782778	2.409663	1.5523089
25.294447226525435	2.1454177	1.4647244
25.312410122086423	1.945879	1.3949476
25.330373649973843	1.8896414	1.3746423
25.348337810695988	1.9321687	1.3900247
25.366302604761245	1.9559098	1.3985385
25.384268032678207	1.9326286	1.3901901
25.40223409495558	1.8936565	1.376102
25.420200792102257	1.8665533	1.3662186
25.438168124627246	1.8230759	1.3502133
25.45613609303974	1.7983295	1.3410181
25.474104697849057	1.8139694	1.3468368
25.492073939564698	1.809378	1.3451313
25.510043818696285	1.8416052	1.3570576
25.528014335753614	1.8348137	1.354553
25.54598549124664	1.8277117	1.3519288
25.56395728568544	1.8249885	1.3509214
25.58192971958028	1.8376296	1.355592
25.59990279344156	1.8291178	1.3524488
25.617876507779833	1.8823407	1.3719842
25.635850863105826	1.8716841	1.368095
25.653825859930386	1.8746731	1.369187
25.671801498764548	1.8554982	1.3621668
25.68977778011949	1.8211089	1.3494847
25.707754704506524	1.7844496	1.335833
25.725732272437153	1.7863117	1.3365297
25.743710484423012	1.7831763	1.3353562
25.761689340975888	1.7437918	1.3205271
25.77966884260774	1.7372258	1.3180386
25.797648989830662	1.7339826	1.3168077
25.815629783156922	1.763472	1.3279579
25.83361122309895	1.7402359	1.31918
25.85159331016929	1.7393569	1.3188468
25.869576044880695	1.7836604	1.3355376
25.887559427746034	1.8445187	1.3581306
25.90554345927836	1.8502947	1.3602554
25.92352813999086	1.8067783	1.3441645
25.94151347039689	1.8162868	1.3476969
25.959499451009965	1.8192647	1.3488011
25.97748608234374	1.7834983	1.3354768
25.995473364912062	1.7929219	1.3390003
26.013461299228904	1.7648151	1.3284634
26.03144988580839	1.7622771	1.3275079
26.04943912516483	1.7751354	1.332342
26.067429017812675	1.7741566	1.3319747
26.085419564266537	1.7867371	1.3366889
26.103410765041186	1.7840976	1.3357011
26.12140262065155	1.8214989	1.3496292
26.139395131612723	1.8122426	1.3461956
26.157388298439948	1.7846256	1.3358989
26.17538212164861	1.7603765	1.3267918
26.193376601754295	1.7678561	1.3296075
26.211371739272714	1.765705	1.3287983
26.229367534719746	1.7809236	1.3345125
26.247363988611433	1.7985175	1.3410882
26.26536110146397	1.8236532	1.350427
26.283358873793727	1.828409	1.3521867
26.301357306117204	1.8529524	1.3612319
26.319356398951104	1.8811816	1.3715618
26.33735615281224	1.8124832	1.346285
26.35535656821762	1.7492827	1.3226045
26.373357645684404	1.7540699	1.3244131
26.39135938572991	1.7706237	1.3306478
26.409361788871614	1.7827481	1.3351959
26.427364855627165	1.7809697	1.3345298
26.445368586514352	1.7983059	1.3410093
26.46337298205115	1.7884625	1.3373342
26.48137804275568	1.7636702	1.3280325
26.499383769146217	1.7988966	1.3412294
26.517390161741215	1.8764367	1.3698308
26.53539722105928	1.8735216	1.3687664
26.553404947619182	1.8437971	1.3578649
26.571413341939856	1.817063	1.3479848
26.589422404540397	1.760936	1.3270026
26.60743213594006	1.717963	1.3107109
26.62544253665827	1.7549167	1.3247327
26.64345360721459	1.7486894	1.3223802
26.66146534812879	1.7613635	1.3271637
26.679477759920758	1.7966892	1.3404063
26.69749084311057	1.795816	1.3400806
26.71550459821847	1.7489188	1.322467
26.733519025764842	1.7554244	1.3249243
26.751534126270258	1.8091362	1.3450413
26.769549900255434	1.862546	1.3647512
26.787566348241267	1.8628764	1.3648723
26.80558347074881	1.8129218	1.3464478
26.823601268299267	1.7694584	1.33021
26.841619741414036	1.7813991	1.3346907
26.85963889061465	1.8112361	1.3458217
26.877658716422832	1.796752	1.3404298
26.89567921936045	1.7537833	1.3243048
26.913700399949544	1.7848816	1.3359946
26.93172225871233	1.8318695	1.3534657
26.949744796171174	1.8494413	1.3599416
26.967768012848605	1.7768748	1.3329947
26.98579190926733	1.7188892	1.3110641
27.003816485950225	1.7562377	1.3252312
27.021841743420318	1.7712742	1.3308922
27.039867682200814	1.7763678	1.3328044
27.057894302815072	1.7561805	1.3252096
27.07592160578664	1.7841213	1.33571
27.0939495916392	1.8403635	1.3565999
27.111978260896635	1.8284078	1.3521863
27.13000761408296	1.7649754	1.3285238
27.148037651722397	1.7542382	1.3244766
27.166068374339304	1.7656974	1.3287954
27.184099782458215	1.7561901	1.3252132
27.20213187660384	1.7736814	1.3317963
27.22016465730105	1.8067874	1.344168
27.23819812507487	1.8132503	1.3465698
27.256232280450533	1.7934884	1.3392118
27.274267123953383	1.7102425	1.3077624
27.292302656108987	1.6663753	1.2908816
27.31033887744306	1.7161231	1.3100088
27.32837578848146	1.8179661	1.3483198
27.34641338975026	1.8095589	1.3451984
27.364451681775673	1.7525226	1.3238288
27.382490665084074	1.7371691	1.3180171
27.400530340202046	1.758152	1.3259532
27.41857070765629	1.7467998	1.3216655
27.436611767973726	1.761648	1.3272709
27.454653521681404	1.7650496	1.3285517
27.472695969306564	1.7446147	1.3208387
27.490739111376627	1.7728457	1.3314825
27.508782948419153	1.7926424	1.3388959
27.526827480961902	1.8110913	1.345768
27.54487270953279	1.7887169	1.3374292
27.562918634659898	1.7565192	1.3253374
27.580965256871508	1.7382675	1.3184338
27.599012576696026	1.7109103	1.3080177
27.617060594662068	1.7941114	1.3394444
27.63510931129842	1.8409224	1.3568059
27.65315872713401	1.8554384	1.3621447
27.67120884269797	1.8534282	1.3614067
27.68925965851958	1.8266556	1.3515383
27.707311175128307	1.839919	1.3564361
27.725363393053787	1.8905013	1.374955
27.74341631282583	1.8883479	1.3741717
27.7614699349744	1.9020462	1.3791469
27.77952426002968	2.0996308	1.4490103
27.797579288521973	2.1592884	1.4694518
27.815635020981784	2.7115479	1.6466779
27.83369145793979	2.7913897	1.6707453
27.85174859992682	2.5396423	1.5936255
27.869806447473923	2.348956	1.5326304
27.887865001112267	2.0213795	1.4217522
27.905924261373233	1.8870462	1.373698
27.92398422878836	1.9127405	1.3830186
27.94204490388936	1.8819581	1.3718448
27.96010628720813	1.8418437	1.3571454
27.978168379276728	1.8004093	1.3417933
27.9962311806274	1.7643163	1.3282757
28.014294691792568	1.7568169	1.3254497
28.0323589133048	1.8245742	1.350768
28.050423845696887	1.8420931	1.3572373
28.068489489501758	1.8271567	1.3517236
28.086555845252523	1.8079048	1.3445835
28.104622913482487	1.7929064	1.3389945
28.122690694725115	1.8147849	1.3471395
28.14075918951405	1.8670058	1.3663843
28.15882839838312	1.8177179	1.3482277
28.176898321866304	1.7986281	1.3411294
28.1949689604978	1.8449568	1.3582919
28.213040314811945	1.8674364	1.3665417
28.23111238534327	1.8866626	1.3735584
28.249185172626493	1.8876597	1.3739213
28.267258677196473	1.8909847	1.3751308
28.285332899588294	1.874175	1.3690051
28.303407840337172	1.8927044	1.3757559
28.321483499978545	1.9037937	1.3797803
28.33955987904799	1.9089546	1.3816493
28.357636978081285	1.9518034	1.3970696
28.37571479761439	1.9742671	1.4050862
28.393793338183425	1.9709802	1.403916
28.41187260032469	1.9961619	1.412856
28.429952584574686	1.9864814	1.409426
28.448033291470065	1.9762362	1.4057866
28.46611472154769	1.935451	1.3912048
28.484196875344566	1.9558822	1.3985286
28.502279753397914	2.0117784	1.4183717
28.52036335624511	2.04631	1.4304929
28.538447684423716	2.0238733	1.422629
28.556532738471482	1.9711565	1.4039788
28.574618518926325	1.9740008	1.4049914
28.59270502632635	1.9612777	1.4004563
28.61079226120985	1.9632767	1.4011698
28.628880224115274	2.0031066	1.4153115
28.646968915581287	2.0118682	1.4184034
28.66505833614671	1.9747658	1.4052635
28.68314848635055	1.9515864	1.3969918
28.701239366732004	1.9877269	1.4098676
28.71933097783044	2.013723	1.419057
28.737423320185403	1.9496672	1.3963048
28.75551639433665	1.9951802	1.4125085
28.773610200824074	2.0805614	1.4424151
28.791704740187793	2.1418502	1.4635061
28.80980001296809	2.0888677	1.4452915
28.827896019705413	2.0812848	1.4426658
28.845992760940433	2.0924773	1.4465398
28.86409023721397	2.1554263	1.468137
28.88218844906704	2.1890657	1.4795492
28.900287397040845	2.1891723	1.4795852
28.918387081676755	2.2057571	1.4851792
28.936487503516343	2.1956093	1.4817588
28.954588663101365	2.2071912	1.4856619
28.97269056097374	2.2730765	1.5076725
28.990793197675597	2.3395014	1.5295429
29.00889657374923	2.3067145	1.5187871
29.027000689737125	2.343172	1.5307423
29.04510554618196	2.40554	1.5509803
29.06321114362659	2.4300685	1.5588677
29.08131748261405	2.4452958	1.5637442
29.099424563687567	2.414455	1.5538516
29.11753238739057	2.4179533	1.5549769
29.13564095426663	2.430577	1.5590308
29.15375026485954	2.485592	1.576576
29.171860319713275	2.6018713	1.6130317
29.18997111937199	2.6816175	1.6375645
29.20808266438002	2.7129009	1.6470886
29.226194955281898	2.7238185	1.6503996
29.244307992622335	2.7310076	1.6525761
29.26242177694624	2.7299473	1.6522552
29.2805363087987	2.7890325	1.6700397
29.29865158872498	2.8472483	1.6873791
29.316767617270557	2.8902462	1.7000724
29.334884394981064	2.8878145	1.699357
29.353001922402367	2.9084337	1.7054131
29.37112020008047	2.9388187	1.7142984
29.389239228561596	3.0644581	1.7505593
29.407359008392152	3.2718039	1.8088129
29.42547954011872	3.5381024	1.8809844
29.44360082428809	4.0105224	2.0026288
29.46172286144722	4.9998164	2.236027
29.479845652143283	6.69345	2.5871704
29.497969196923606	9.25385	3.0420141
29.516093496335728	13.049604	3.6124237
29.5342185509274	16.952246	4.1173105
29.55234436124651	20.170269	4.4911323
29.570470927841175	21.331093	4.61856
29.588598251259686	21.194878	4.6037893
29.60672633205055	19.282757	4.3912134
29.624855170762405	15.991023	3.9988778
29.642984767944146	12.587562	3.5478954
29.66111512414481	9.389714	3.064264
29.67924623991366	6.875738	2.6221628
29.697378115800138	5.191658	2.278521
29.71551075235387	4.285181	2.070068
29.733644150124675	3.8396165	1.959494
29.751778309662576	3.5739973	1.8905019
29.769913231517766	3.3565094	1.8320779
29.78804891624066	3.321357	1.8224591
29.806185364381818	3.31722	1.8213236
29.82432257649206	3.2946393	1.8151141
29.842460553122333	3.2307093	1.7974174
29.86059929482382	3.1755126	1.7819968
29.878738802147872	3.2084355	1.7912107
29.896879075646048	3.2136033	1.7926526
29.915020115870114	3.2164042	1.7934337
29.933161923371976	3.1228473	1.767158
29.951304498703777	3.113629	1.7645478
29.969447842417857	3.167646	1.7797881
29.987591955066733	3.267069	1.8075036
30.005736837203123	3.33419	1.8259764
30.023882489379943	3.2500162	1.8027802
30.04202891215028	3.1076667	1.7628576
30.060176106067455	3.116596	1.7653884
30.078324071684946	3.1360457	1.7708884
30.09647280955646	3.0742216	1.7533458
30.114622320235863	3.0089989	1.7346466
30.132772604277257	3.0025897	1.7327982
30.1509236622349	3.0130002	1.7357996
30.16907549466328	3.012962	1.7357886
30.18722810211705	3.0005882	1.7322206
30.205381485151097	3.0671277	1.7513217
30.22353564432045	3.0986598	1.760301
30.241690580180403	3.0531278	1.7473202
30.25984629328638	2.978526	1.7258407
30.278002784194037	2.8975194	1.7022102
30.296160053459246	2.912856	1.7067091
30.314318101638033	3.0035121	1.7330644
30.332476929286646	2.969866	1.7233299
30.35063653696153	2.901044	1.7032452
30.368796925219307	2.9027088	1.7037338
30.386958094616844	2.9712481	1.7237309
30.40512004571115	2.9263139	1.7106472
30.423282779059463	2.8675745	1.6933914
30.441446295219233	2.8621554	1.6917906
30.459610594748067	2.8222067	1.6799425
30.47777567820382	2.8180504	1.678705
30.495941546144504	2.8087425	1.6759304
30.51410819912835	2.8154926	1.677943
30.532275637713795	2.7930076	1.6712294
30.55044386245946	2.8203018	1.6793754
30.56861287392416	2.780863	1.667592
30.586782672666956	2.711112	1.6465455
30.604953259247047	2.7098417	1.6461596
30.623124634223885	2.794624	1.6717129
30.641296798157075	2.76703	1.6634392
30.659469751606462	2.7320142	1.6528805
30.677643495132074	2.7068624	1.6452545
30.695818029294152	2.6931787	1.6410906
30.713993354653116	2.7081728	1.6456527
30.73216947176962	2.6976383	1.6424489
30.75034638120448	2.6980093	1.6425618
30.768524083518756	2.741726	1.6558158
30.786702579273673	2.7622705	1.6620079
30.80488186903069	2.8163033	1.6781845
30.82306195335144	2.9209068	1.709066
30.841242832797782	3.2652893	1.8070111
30.85942450793176	3.6415765	1.9082916
30.877606979315637	4.0396194	2.0098805
30.895790247511883	4.4569106	2.1111395
30.913974313083134	4.8810563	2.2093112
30.932159176592283	5.1528363	2.269986
30.95034483860237	5.4437537	2.3331854
30.968531299676698	5.609353	2.3684072
30.98671856037873	5.429772	2.330187
31.00490662127215	4.9191175	2.2179084
31.023095482920848	4.3899603	2.0952232
31.04128514588892	3.8416853	1.9600217
31.059475610740662	3.298736	1.8162423
31.07766687804056	2.8104432	1.6764376
31.09585894835335	2.585698	1.6080105
31.11405182224393	2.5105648	1.5844762
31.132245500277417	2.510533	1.5844662
31.15043998301914	2.4882908	1.5774317
31.168635271034628	2.4099133	1.5523895
31.18683136488964	2.3894498	1.5457846
31.20502826515008	2.473979	1.5728887
31.223225972382135	2.4934542	1.5790675
31.241424487152155	2.4726973	1.5724813
31.259623810026692	2.3793921	1.5425278
31.27782394157253	2.3866365	1.5448743
31.296024882356644	2.381684	1.5432706
31.314226632946237	2.3455608	1.5315224
31.332429193908684	2.3323143	1.5271916
31.350632565811598	2.398909	1.5488412
31.368836749222787	2.4719057	1.5722295
31.387041744710295	2.4995804	1.5810062
31.40524755284232	2.4863102	1.5768038
31.423454174187317	2.4714563	1.5720866
31.441661609313922	2.474972	1.5732044
31.459869858791002	2.473654	1.5727855
31.478078923187628	2.432279	1.5595766
31.496288803073064	2.2992396	1.5163244
31.514499499016807	2.2102218	1.4866815
31.532711011588546	2.2345905	1.4948547
31.550923341358178	2.24573	1.4985759
31.56913648889584	2.2766871	1.5088695
31.587350454771844	2.31297	1.5208452
31.605565239556732	2.319174	1.5228834
31.62378084382127	2.270892	1.5069479
31.641997268136382	2.310698	1.5200981
31.660214513073274	2.32375	1.5243851
31.67843257920331	2.2637131	1.504564
31.6966514670981	2.2530518	1.5010169
31.71487117732944	2.2272253	1.4923891
31.733091710469346	2.1675928	1.4722747
31.751313067090052	2.2097652	1.4865279
31.769535247764008	2.2581205	1.5027044
31.787758253063878	2.310789	1.520128
31.805982083562526	2.2806118	1.5101694
31.824206739833024	2.3031106	1.5176003
31.84243222244869	2.277165	1.5090278
31.860658531983013	2.2346966	1.4948902
31.878885669009737	2.3422072	1.5304271
31.897113634102784	2.332051	1.5271055
31.91534242783632	2.244575	1.4981906
31.933572050784694	2.1880984	1.4792223
31.951802503522508	2.1845317	1.4780161
31.970033786624548	2.2406313	1.4968739
31.988265900665834	2.2631414	1.5043741
32.006498846221575	2.233331	1.4944333
32.02473262386724	2.1970437	1.4822428
32.04296723417845	2.2404735	1.4968212
32.0612026777311	2.2591891	1.5030599
32.07943895510129	2.2242875	1.4914045
32.097676066865304	2.1221514	1.4567605
32.115914013599685	2.1270473	1.4584401
32.13415279588115	2.1432989	1.4640009
32.152392414286666	2.1810267	1.47683
32.1706328693934	2.118216	1.4554093
32.18887416177875	2.064521	1.4368441
32.20711629202032	2.1423671	1.4636828
32.225359260695924	2.2365057	1.4954952
32.243603068383614	2.2242644	1.4913968
32.26184771566166	2.1697843	1.4730188
32.28009320310852	2.1998572	1.4831916
32.2983395313029	2.1477928	1.465535
32.31658670082372	2.051392	1.4322681
32.33483471225012	2.0805912	1.4424255
32.35308356616143	2.0889003	1.4453028
32.371333263137245	2.1314769	1.4599578
32.38958380375734	2.1160364	1.4546603
32.407835188601744	2.1367478	1.461762
32.42608741825067	2.1843927	1.4779692
32.444340493284585	2.2279513	1.4926324
32.46259441428416	2.1741087	1.4744859
32.48084918183028	2.0306077	1.4249939
32.49910479650405	1.9896888	1.4105632
32.51736125888683	2.003798	1.4155557
32.53561856956014	1.9766636	1.4059387
32.5538767291058	1.9104747	1.3821992
32.572135738105764	1.9158739	1.384151
32.59039559714228	1.9319628	1.3899506
32.608656306797776	1.9426359	1.3937848
32.62691786765491	1.9742429	1.4050776
32.645180280296586	2.041099	1.4286704
32.663443545305896	2.0533147	1.4329392
32.68170766326619	1.9552048	1.3982863
32.69997263476099	1.9744611	1.4051552
32.7182384603741	2.0341585	1.4262393
32.7365051406895	1.9722667	1.4043741
32.75477267629144	1.9253488	1.3875694
32.77304106776434	1.9622831	1.4008151
32.79131031569289	1.9897932	1.4106003
32.809580420661966	1.9597625	1.3999152
32.827851383256714	1.9867698	1.4095283
32.84612320406245	2.0519087	1.4324485
32.86439588366476	2.0698764	1.4387065
32.88266942264945	1.9976921	1.4133973
32.9009438216025	2.0019019	1.4148858
32.9192190811102	2.0317373	1.4253902
32.937495201758985	1.9838811	1.4085032
32.95577218413556	1.9281092	1.3885638
32.974050028826866	1.893955	1.3762103
32.992328736420035	1.9237279	1.3869852
33.010608307502444	1.9492955	1.3961717
33.02888874266169	1.9727947	1.4045621
33.047170042485604	1.9888642	1.4102709
33.06545220756225	1.9443423	1.3943968
33.083735238479896	1.8414304	1.3569932
33.10201913582707	1.8138481	1.3467917
33.12030390019248	1.9464324	1.395146
33.138589532165135	1.9804711	1.4072921
33.15687603233419	1.8863298	1.3734372
33.17516340128909	1.835851	1.3549358
33.19345163961947	1.9381276	1.3921665
33.211740747915215	1.9975363	1.4133422
33.23003072676643	1.9579878	1.3992811
33.248321576763466	1.8951926	1.37666
33.266613298496885	1.8315133	1.3533342
33.28490589255747	1.7978265	1.3408306
33.30319935953626	1.8413917	1.3569789
33.32149370002451	1.9129012	1.3830767
33.339788914613706	1.8711257	1.367891
33.358085003895575	1.92093	1.3859762
33.376381968462034	1.9460013	1.3949915
33.39467980890529	2.0035534	1.4154693
33.41297852581774	1.9468778	1.3953056
33.43127811979204	1.8865727	1.3735256
33.44957859142105	1.8961655	1.3770132
33.467879941297866	1.8509201	1.3604852
33.486182170015844	1.8562826	1.3624547
33.50448527816853	1.8129073	1.3464425
33.522789266349754	1.7608536	1.3269717
33.541094135153514	1.7582891	1.326005
33.55939988517411	1.8632618	1.3650135
33.57770651700602	1.9264836	1.3879782
33.59601403124398	2.0070868	1.4167169
33.61432242848296	2.0099065	1.4177117
33.632631709318154	2.0670347	1.4377186
33.650941874344994	2.0919306	1.4463508
33.66925292415916	2.0309157	1.425102
33.68756485935654	1.9318163	1.389898
33.70587768053328	1.8694998	1.3672966
33.724191388285746	1.8265862	1.3515126
33.74250598321054	1.8351009	1.354659
33.760821465904506	1.8763682	1.3698059
33.77913783696474	2.0160441	1.4198747
33.79745509698852	2.1059666	1.4511949
33.815773246573414	1.9835476	1.4083847
33.8340922863172	1.8533479	1.3613772
33.852412216817896	1.886843	1.373624
33.87073303867377	1.9058406	1.3805219
33.889054752483304	1.933072	1.3903496
33.907377358845245	1.9880689	1.409989
33.92570085835853	1.8961126	1.376994
33.94402525162239	1.9015187	1.3789556
33.96235053923627	1.8668315	1.3663205
33.980676721799824	1.797852	1.3408401
33.999003799912984	1.8576616	1.3629606
34.01733177417592	1.9218016	1.3862906
34.03566064518901	1.9497182	1.3963231
34.0539904135529	1.9504011	1.3965676
34.07232107986846	1.9149059	1.3838012
34.090652644736785	1.9198143	1.3855736
34.108985108759235	1.8339689	1.354241
34.12731847253742	1.8408614	1.3567835
34.14565273667313	1.9315275	1.389794
34.16398790176847	2.0074139	1.4168323
34.18232396842574	1.878309	1.3705142
34.20066093724749	1.8290998	1.3524421
34.21899880883651	1.8488573	1.3597269
34.23733758379583	1.80242	1.3425424
34.25567726272874	1.8458401	1.358617
34.27401784623872	1.9204241	1.3857937
34.29235933492957	1.8915397	1.3753326
34.31070172940526	1.8838731	1.3725426
34.32904503027003	1.9121145	1.3827922
34.347389238128386	1.9802833	1.4072254
34.36573435358502	2.0416658	1.4288687
34.38408037724492	2.097152	1.4481547
34.402427309713296	2.0213537	1.4217432
34.42077515159559	1.9207768	1.3859209
34.43912390349752	1.9710953	1.403957
34.45747356602499	2.0174186	1.4203587
34.47582413978423	2.0086126	1.4172553
34.49417562538163	1.8930912	1.3758965
34.51252802342388	1.8585225	1.3632764
34.53088133451789	1.9495445	1.396261
34.54923555927084	2.0812974	1.4426702
34.567590698290104	1.959396	1.3997843
34.58594675218336	1.7871033	1.3368258
34.6043037215585	1.7825481	1.335121
34.62266160702365	1.8100238	1.3453712
34.641020409187234	1.8056356	1.3437394
34.65938012865785	1.7922746	1.3387586
34.677740766044394	1.788446	1.337328
34.69610232195598	1.8433559	1.3577024
34.714464797002016	1.94068	1.393083
34.73282819179208	1.9198861	1.3855995
34.751192506936064	1.9723651	1.4044092
34.76955774304408	2.1144087	1.4541006
34.7879239007265	2.1850762	1.4782003
34.80629098059391	2.1891167	1.4795663
34.824658983257194	2.048473	1.4312487
34.843027909327446	1.8832002	1.3722974
34.86139775941603	1.8232267	1.3502691
34.879768534134534	2.0073035	1.4167933
34.89814023409483	2.2240324	1.4913191
34.91651285990901	2.1267395	1.4583344
34.93488641218944	2.099854	1.4490873
34.95326089154871	2.0983238	1.4485592
34.97163629859967	2.1337779	1.4607457
34.99001263395542	2.135273	1.4612573
35.00838989822934	2.024007	1.4226761
35.02676809203499	1.8138812	1.346804
35.04514721598624	1.8330152	1.3538889
35.063527270697215	1.9315481	1.3898015
35.081908256782256	1.9578958	1.3992482
35.10029017485597	1.8257164	1.3511907
35.11867302553321	1.8301514	1.3528309
35.137056809429104	2.0387347	1.4278426
35.155441527159006	1.9176134	1.3847792
35.173827179338524	1.6315756	1.2773315
35.19221376658354	1.7304057	1.3154489
35.21060128951017	1.7916592	1.3385288
35.2289897487348	1.514785	1.230766
35.24737914487405	1.4279872	1.1949842
35.26576947854479	1.6665539	1.2909508
35.28416075036418	2.012987	1.4187977
35.30255296094958	2.1404479	1.463027
35.32094611091867	2.509063	1.5840023
35.33934020088932	2.5177479	1.5867413
35.35773523147969	1.900981	1.3787607
35.3761312033082	1.8518101	1.3608123
35.394528116993506	2.0913398	1.4461465
35.41292597315452	2.2105556	1.4867938
35.431324772410434	2.180012	1.4764863
35.449724515380666	1.9481212	1.3957511
35.46812520268491	1.6917626	1.3006778
35.486526834943106	1.8662914	1.3661227
35.504929412775454	2.165623	1.4716055
35.52333293680242	2.4568791	1.5674435
35.54173740764471	2.3004348	1.5167184
35.560142825923286	1.9035926	1.3797075
35.5785491922594	1.7548724	1.324716
35.59695650727454	1.6451237	1.2826238
35.61536477159042	1.2419951	1.1144483
