0.008763373481513119	0.0	0.0
0.026290120649546365	0.0	0.0
0.043816868432600686	0.1864516	0.43180043
0.06134361724069026	0.19972984	0.44691145
0.07887036748382949	0.15602471	0.39499962
0.0963971195720331	0.039803695	0.19950864
0.11392387391531617	0.054115385	0.23262714
0.1314506309236943	0.1500638	0.3873807
0.1489773910071836	0.19731863	0.4442056
0.16650415457580078	0.22391689	0.47319856
0.18403092203956356	0.18641075	0.43175313
0.20155769380849	0.1638134	0.40473866
0.2190844702925996	0.14847448	0.38532388
0.2366112519019124	0.1156708	0.3401041
0.2541380390464497	0.124632984	0.35303396
0.27166483213623416	0.15750918	0.39687425
0.28919163158128947	0.15863097	0.39828503
0.3067184377916406	0.13888936	0.37267864
0.324245251177314	0.13702479	0.3701686
0.34177207214833777	0.119181536	0.3452268
0.3592989011147415	0.13372792	0.3656883
0.37682573848655654	0.15554315	0.3943896
0.39435258467381573	0.1434565	0.37875652
0.41187944008655414	0.12288199	0.3505453
0.42940630513480854	0.102755085	0.32055435
0.446933180228618	0.122699246	0.35028452
0.4644600657780234	0.13314351	0.36488837
0.48198696219306775	0.12682082	0.3561191
0.49951386988379676	0.08222594	0.28675067
0.5170407892602581	0.09214041	0.30354637
0.5345677207325025	0.11858833	0.34436655
0.5520946647105822	0.15556277	0.39441445
0.5696216216045534	0.19891083	0.4459942
0.5871485918244737	0.20488419	0.45264134
0.6046755757804043	0.22593181	0.47532284
0.6222025738824094	0.19364358	0.44004953
0.6397295865405557	0.13784373	0.37127313
0.6572566141649129	0.14202614	0.37686357
0.6747836571655547	0.15137768	0.38907284
0.6923107159525568	0.15528905	0.39406732
0.7098377909359992	0.13628495	0.36916792
0.7273648825259653	0.124210246	0.35243475
0.7448919911325411	0.10190863	0.3192313
0.762419117165817	0.14382295	0.37923998
0.7799462610358868	0.1600444	0.4000555
0.7974734231528482	0.17694291	0.42064583
0.8150006039268024	0.15333638	0.3915819
0.8325278037678551	0.1601203	0.40015033
0.8500550230861152	0.18723892	0.43271112
0.8675822622916969	0.20217259	0.44963607
0.8851095217947171	0.2053535	0.45315945
0.9026368020052984	0.20926775	0.45745793
0.9201641033335665	0.2456053	0.49558583
0.9376914261896523	0.28242987	0.53144133
0.9552187709836915	0.27642995	0.5257661
0.9727461381258234	0.21041861	0.4587141
0.990273528026193	0.19748172	0.44438916
1.0078009410949496	0.24284984	0.49279797
1.0253283777422473	0.30425692	0.5515949
1.0428558383782454	0.32013866	0.565808
1.0603833234131086	0.3226412	0.56801516
1.0779108332570058	0.32087788	0.56646085
1.0954383683201119	0.3065316	0.55365294
1.112965929012607	0.32300988	0.5683396
1.1304935157446763	0.43010548	0.65582424
1.1480211289265108	0.51191217	0.7154804
1.1655487689683062	1.3684309	1.1697994
1.1830764362802655	1.6331179	1.277935
1.200604131272596	2.0442984	1.4297897
1.2181318543555117	2.400277	1.5492827
1.235659605939232	2.5042577	1.5824846
1.253187386433982	4.0927763	2.023061
1.270715196249994	6.408185	2.5314393
1.2882430357975057	11.815505	3.4373689
1.3057709054867608	16.754938	4.09328
1.3232988057280106	22.661873	4.760449
1.3408267369315112	27.726553	5.2656007
1.358354699507526	31.62975	5.624033
1.3758826938663256	35.98106	5.9984217
1.3934107204181858	38.129456	6.1749053
1.410938779573391	38.019974	6.1660337
1.4284668717422309	38.31827	6.1901755
1.4459949973350033	37.667088	6.137352
1.4635231567620117	38.140415	6.1757927
1.4810513504335687	37.46444	6.12082
1.4985795787599925	36.946316	6.078348
1.5161078421516088	36.199047	6.0165644
1.5336361410187505	35.290436	5.9405756
1.5511644757717598	35.22301	5.934898
1.5686928468209842	35.992855	5.9994044
1.58622125457678	36.610756	6.050682
1.6037496994495108	37.951595	6.1604867
1.621278181849548	37.745926	6.143771
1.6388067021872719	38.283653	6.1873784
1.6563352608730693	37.634483	6.134695
1.673863858317336	36.752644	6.062396
1.6913924949304753	35.925293	5.993771
1.7089211711228998	34.91408	5.908814
1.7264498873050296	34.03686	5.8341117
1.7439786438872935	33.13376	5.756193
1.7615074412801288	32.19648	5.6741943
1.779036279893981	31.531286	5.6152725
1.796565160139305	30.638042	5.5351644
1.814094082426564	30.05174	5.481947
1.8316230471662298	29.085089	5.3930593
1.849152054768784	28.439398	5.33286
1.8666811056447168	28.054905	5.296688
1.8842102002045273	27.334911	5.22828
1.901739338858724	26.961555	5.192452
1.9192685220178245	26.223175	5.120857
1.9367977500923557	25.309881	5.030893
1.9543270234928547	24.980112	4.9980106
1.971856342629867	24.348953	4.934466
1.9893857079139496	23.945526	4.8934164
2.006915119755667	23.286533	4.825612
2.0244445785655945	22.704819	4.7649574
2.0419740847543175	22.449543	4.738095
2.0595036387324317	21.894728	4.67918
2.0770332409105414	21.336994	4.6191983
2.094562891699263	20.949638	4.5770774
2.1120925915092217	20.598314	4.5385365
2.129622340751053	20.22294	4.4969926
2.1471521398354043	188.2561	13.720645
2.1646819891729323	444.44226	21.081799
2.182211889174303	440.65466	20.991776
2.1997418402501974	453.2909	21.290628
2.2172718428113023	433.37662	20.8177
2.234801897268317	321.2274	17.922817
2.2523320040319548	17.484234	4.181415
2.269862163512935	17.08652	4.1335845
2.287392376121992	16.79376	4.098019
2.304922642269869	16.468742	4.05817
2.322452962367322	16.169996	4.0211935
2.3399833368251164	15.859054	3.9823427
2.357513766054032	15.775008	3.9717765
2.3750442504648586	15.345045	3.9172752
2.3925747904683963	14.961323	3.867987
2.410105386475459	14.714394	3.8359344
2.4276360388968707	14.392761	3.7937794
2.445166748143469	14.157183	3.7626033
2.4626975146261025	13.711718	3.7029335
2.4802283387556323	13.490142	3.6728928
2.4977592209429305	13.239414	3.6386006
2.5152901615988825	13.049841	3.6124563
2.5328211611343865	13.12478	3.6228137
2.5503522199603523	12.997779	3.6052432
2.5678833384877024	12.790295	3.5763521
2.5854145171273712	12.5972185	3.549256
2.6029457562903064	12.32197	3.5102663
2.620477056387469	11.8543215	3.4430106
2.6380084178298326	11.701285	3.4207141
2.655539841028383	11.635888	3.4111419
2.673071326394119	11.618521	3.408595
2.6906028743380523	11.449895	3.3837693
2.708134485271211	11.236547	3.352096
2.7256661596046325	10.924455	3.3052163
2.743197897749369	10.678169	3.267747
2.760729700116486	10.492033	3.2391407
2.778261567117063	10.558148	3.2493305
2.795793499162193	10.567696	3.2507992
2.8133254966629817	10.428547	3.229326
2.830857560030551	10.190943	3.1923256
2.8483896896760337	10.05111	3.1703486
2.865921886010578	9.996566	3.1617346
2.883454149445347	9.719997	3.117691
2.9009864803915177	9.668146	3.1093643
2.91851887926028	9.532944	3.0875466
2.9360513464628384	9.456277	3.075106
2.953583882410413	9.36547	3.0603056
2.9711164875142373	9.08077	3.0134315
2.9886491621855606	9.006545	3.0010908
3.0061819068356455	8.779943	2.9630969
3.023714721875769	8.677873	2.945823
3.041247607717225	8.514606	2.91798
3.0587805647713213	8.47037	2.9103901
3.0763135934493806	8.308619	2.8824675
3.0938466941627407	8.138799	2.852858
3.1113798673227544	8.163825	2.857241
3.1289131133407904	8.064968	2.8398888
3.1464464326282315	8.112693	2.848279
3.1639798255964786	7.9951468	2.827569
3.1815132926569443	7.8595824	2.8034947
3.1990468342210603	7.738059	2.7817366
3.216580450700272	7.6362615	2.7633786
3.2341141425060416	7.505184	2.7395592
3.251647910049847	7.4283643	2.7255025
3.2691817537431813	7.293927	2.7007272
3.286715673997555	7.179111	2.6793864
3.3042496712244938	7.140728	2.672214
3.32178374583554	6.9581704	2.6378343
3.339317898242251	6.899577	2.6267047
3.3568521288562034	6.8157396	2.6106973
3.3743864380889876	6.7798657	2.6038175
3.3919208263522127	6.7816772	2.6041653
3.4094552940575023	6.664162	2.5815039
3.4269898416164972	6.596967	2.5684562
3.444524469440858	6.541895	2.5577128
3.4620591779422587	6.5118165	2.551826
3.479593967532391	6.521012	2.5536273
3.4971288386229658	6.446178	2.5389326
3.5146637916257086	6.4925594	2.5480502
3.5321988269523628	6.471576	2.5439293
3.5497339450146903	6.473399	2.5442874
3.5672691462244708	6.4544973	2.5405703
3.5848044309934988	6.415123	2.5328093
3.60233979973359	6.382859	2.526432
3.619875252856575	6.326423	2.5152383
3.6374107907743034	6.2592273	2.501845
3.6549464138986427	6.216285	2.493248
3.6724821226414788	6.234993	2.4969969
3.690017917414714	6.413798	2.5325477
3.7075537986302702	6.551326	2.5595558
3.7250897667000857	6.682693	2.5850906
3.7426258220361235	6.818849	2.6112926
3.7601619650503553	7.100817	2.6647358
3.777698196154779	7.6087255	2.7583919
3.7952345157614067	8.553949	2.9247136
3.8127709242822716	9.323575	3.053453
3.830307422129425	11.537323	3.3966634
3.847844009714936	30.219933	5.497266
3.8653806874508954	97.743515	9.886532
3.882917455749409	97.04519	9.851151
3.900454315022606	96.9014	9.843851
3.917991265682631	41.501297	6.44215
3.9355283081416506	11.245076	3.3533678
3.9530654428118495	9.046207	3.0076914
3.970602670105433	7.7753463	2.7884307
3.9881399904346244	6.7029047	2.588997
4.005677404211669	6.5575185	2.5607653
4.023214911848827	6.494818	2.5484934
4.0407525137583855	6.4941835	2.5483687
4.058290210352644	6.4892087	2.5473926
4.075828002043927	6.4246807	2.5346954
4.0933658892445814	6.2917504	2.5083363
4.110903872366966	6.21225	2.4924386
4.128441951823468	6.18022	2.4860048
4.145980128026488	6.2662745	2.5032527
4.163518401388452	6.2976327	2.5095084
4.181056772321807	6.2474756	2.499495
4.1985952412390155	6.252414	2.5004828
4.216133808552567	6.224188	2.4948323
4.233672474674966	6.3050947	2.5109947
4.251211240018741	6.453435	2.5403612
4.268750104996445	6.691979	2.586886
4.286289070020643	7.71109	2.776885
4.303828135503928	9.298017	3.049265
4.3213673018589125	29.575909	5.4383736
4.3389065694982305	90.7596	9.526783
4.356445938834537	166.07199	12.886892
4.3739854102805085	171.93686	13.11247
4.391524984248844	172.91283	13.149632
4.409064661152262	136.93661	11.701992
4.426604441403504	97.14501	9.856217
4.444144325415337	76.1993	8.729221
4.461684313600543	22.205334	4.7122536
4.47922440637193	22.624624	4.756535
4.496764604142329	21.030817	4.585937
4.5143049073245916	19.129967	4.3737817
4.531845316331589	17.10113	4.135351
4.5493858315762195	14.163068	3.763385
4.566926453471405	11.70669	3.421504
4.584467182430081	9.542902	3.0891588
4.602008018865218	8.352614	2.890089
4.619548963189798	7.6085033	2.7583516
4.637090015816834	7.07367	2.6596372
4.654631177159353	6.7750287	2.6028886
4.672172447630417	6.571394	2.563473
4.689713827643102	6.339391	2.5178149
4.7072553176105085	6.0790043	2.4655638
4.724796917945764	5.9232016	2.4337628
4.742338629062015	5.89157	2.4272556
4.759880451372434	5.8925138	2.42745
4.777422385290215	5.7708745	2.4022644
4.794964431228581	5.722516	2.392178
4.812506589600768	5.7016063	2.3878036
4.830048860820047	5.778712	2.4038951
4.847591245299709	5.8137836	2.4111788
4.8651337434530655	5.7734265	2.4027956
4.882676355693457	5.6977205	2.3869898
4.900219082434242	5.661478	2.379386
4.917761924088813	5.573553	2.3608375
4.935304881070575	5.563989	2.358811
4.952847953792969	5.470677	2.3389478
4.970391142669449	5.418164	2.327695
4.9879344481135055	5.483908	2.3417745
5.005477870538642	5.5447674	2.354733
5.023021410358394	5.5515685	2.3561766
5.040565067986324	5.5349264	2.3526425
5.05810884383601	5.4857826	2.3421748
5.075652738321066	5.5285306	2.3512828
5.09319675185512	5.431781	2.3306181
5.110740884851836	5.3085175	2.304022
5.128285137724894	5.306622	2.3036106
5.145829510888007	5.3144565	2.3053105
5.163374004754908	5.357156	2.314553
5.1809186197393595	5.4024405	2.324315
5.198463356255145	5.442111	2.3328333
5.216008214716077	5.4522095	2.3349967
5.233553195535998	5.4441023	2.33326
5.251098299128764	5.453577	2.3352895
5.268643525908272	5.4085145	2.3256214
5.286188876288432	5.3731604	2.318008
5.3037343506831895	5.318848	2.3062627
5.32127994950651	5.296098	2.3013253
5.3388256731723915	5.2326407	2.2874966
5.356371522094851	5.190722	2.2783155
5.373917496687938	5.1835895	2.2767498
5.391463597365729	5.2024875	2.2808962
5.40900982454232	5.2373457	2.2885249
5.426556178631843	5.293198	2.3006952
5.444102660048449	5.279363	2.2976866
5.4616492692063225	5.2451334	2.2902255
5.479196006519669	5.209021	2.282328
5.496742872402727	5.191226	2.2784262
5.514289867269756	5.182166	2.276437
5.531836991535049	5.1745157	2.2747562
5.549384245612924	5.175308	2.2749305
5.566931629917724	5.2280207	2.2864866
5.584479144863822	5.1405535	2.267279
5.6020267908656205	5.1601706	2.271601
5.619574568337545	5.1583138	2.271192
5.637122477694054	5.2065697	2.281791
5.654670519349629	5.22816	2.286517
5.672218693718784	5.1870694	2.277514
5.689767001216059	5.172023	2.274208
5.707315442256021	5.2420373	2.2895496
5.724864017253266	5.251668	2.2916517
5.7424127266224225	5.2367907	2.2884035
5.75996157077814	5.1770988	2.2753239
5.777510550135105	5.168818	2.2735035
5.795059665108022	5.2355623	2.288135
5.812608916111639	5.2590857	2.2932696
5.830158303560715	5.3999133	2.3237712
5.847707827870055	5.457308	2.3360882
5.86525748945448	5.4778447	2.3404796
5.8828072887288485	5.5785766	2.361901
5.900357226108044	5.6632605	2.3797605
5.917907302006979	5.681101	2.383506
5.9354575168406	6.325165	2.514988
5.9530078710238765	6.8514323	2.6175241
5.970558364971812	7.456926	2.7307372
5.988108999099438	7.8076434	2.7942162
6.005659773821818	8.32737	2.8857183
6.023210689554039	8.046034	2.836553
6.040761746711227	8.400606	2.8983798
6.058312945708531	7.8753524	2.806306
6.075864286961132	7.4671965	2.7326171
6.093415770884244	6.8735347	2.6217427
6.1109673978931065	6.216685	2.493328
6.128519168402993	5.5862994	2.3635354
6.146071082829204	5.4492483	2.3343625
6.163623141587075	5.3680243	2.3168998
6.181175345091969	5.3211837	2.3067691
6.198727693759281	5.2219796	2.285165
6.216280188004435	5.159218	2.2713912
6.233832828242885	5.157825	2.2710845
6.251385614890126	5.243571	2.2898846
6.268938548361669	5.350238	2.3130581
6.286491629073067	5.261891	2.2938812
6.304044857439898	5.2827177	2.2984164
6.321598233877777	5.161903	2.2719822
6.339151758802344	5.098436	2.2579715
6.356705432629277	5.074113	2.2525792
6.37425925577428	5.035598	2.2440138
6.391813228653095	5.07857	2.2535682
6.409367351681486	5.050739	2.2473848
6.426921625275259	4.986145	2.2329679
6.44447604985025	4.927615	2.2198231
6.46203062582232	4.935001	2.221486
6.47958535360737	5.011092	2.2385468
6.497140233621328	5.0837774	2.2547233
6.514695266280161	5.121077	2.2629797
6.532250451999859	5.187099	2.2775204
6.549805791196454	5.1677303	2.2732642
6.567361284286002	5.123882	2.2635994
6.584916931684597	5.0473185	2.2466238
6.602472733808367	4.9794536	2.231469
6.6200286910734665	4.986386	2.2330217
6.637584803896092	4.9833245	2.232336
6.655141072692462	5.0223327	2.2410562
6.672697497878842	5.028294	2.2423859
6.690254079871514	5.000452	2.236169
6.707810819086808	4.955398	2.2260723
6.725367715941078	4.962532	2.2276742
6.742924770850719	4.9952154	2.2349977
6.760481984232151	4.9799085	2.231571
6.778039356501836	4.9341455	2.2212937
6.795596888076266	4.9255576	2.2193596
6.813154579371963	4.8780217	2.2086244
6.830712430805492	4.9545283	2.225877
6.84827044279344	4.9937325	2.234666
6.865828615752445	5.026404	2.2419643
6.883386950099159	5.046637	2.2464721
6.900945446250287	5.042005	2.245441
6.918504104622553	5.085747	2.25516
6.936062925632727	5.1127853	2.261147
6.953621909697607	5.088797	2.2558362
6.971181057234028	5.091864	2.256516
6.988740368658859	5.1444197	2.2681313
7.006299844389007	5.211859	2.2829497
7.023859484841407	5.302304	2.302673
7.041419290433036	5.3516717	2.313368
7.058979261580902	5.5572453	2.357381
7.0765393987020495	5.77807	2.4037616
7.094099702213559	6.1548223	2.4808915
7.111660172532549	6.4935145	2.5482376
7.129220810076164	6.818746	2.6112728
7.146781615261595	7.390979	2.7186356
7.16434258850606	7.6781864	2.7709541
7.181903730226821	8.093214	2.8448575
7.1994650408411704	8.207623	2.8648949
7.217026520766437	8.344893	2.888753
7.234588170419983	8.5924835	2.9312937
7.252149990219215	8.639683	2.9393337
7.269711980581568	8.504203	2.9161966
7.2872741419245175	8.315284	2.8836234
7.304836474665574	7.912694	2.812951
7.322398979222286	7.576676	2.752576
7.339961656012233	7.2566953	2.6938255
7.357524505453039	6.9126616	2.629194
7.375087527962357	6.658356	2.580379
7.392650723957886	6.413409	2.532471
7.410214093857353	6.117863	2.4734313
7.427777638078528	5.849779	2.4186316
7.445341357039213	5.6796484	2.3832014
7.4629052511572525	5.5014176	2.34551
7.480469320850524	5.4047318	2.324808
7.498033566536948	5.3458633	2.3121123
7.5155979886344735	5.20529	2.2815104
7.5331625875610975	5.169302	2.2736099
7.550727363734844	5.117863	2.2622695
7.568292317573788	5.1415234	2.2674928
7.585857449496025	5.142659	2.267743
7.603422759919705	5.198804	2.2800887
7.620988249263007	5.289628	2.2999191
7.638553917944147	5.3135486	2.3051136
7.656119766381391	5.2101636	2.2825782
7.673685794993023	5.214451	2.2835171
7.691252004197388	5.1509676	2.2695744
7.70881839441285	5.2134166	2.2832906
7.726384966057826	5.275628	2.2968736
7.743951719550762	5.292007	2.3004363
7.761518655310149	5.3824496	2.3200107
7.779085773754511	5.419918	2.3280718
7.796653075302419	5.457587	2.3361478
7.814220560372475	5.4093394	2.3257987
7.831788229383323	5.3401017	2.310866
7.8493560827536495	5.2690926	2.2954504
7.866924120902174	5.3201637	2.306548
7.884492344247663	5.360224	2.3152158
7.9020607532089135	5.4436855	2.3331707
7.919629348204771	5.391968	2.322061
7.937198129654115	5.3661904	2.316504
7.954767097975865	5.3599195	2.31515
7.972336253588986	5.3933816	2.3223655
7.989905596912472	5.4800267	2.3409457
8.007475128365371	5.515689	2.3485503
8.025044848366756	5.539729	2.353663
8.042614757335754	5.645943	2.3761194
8.060184855691523	5.631696	2.3731196
8.07775514385327	5.83459	2.4154897
8.095325622240228	5.8428116	2.4171908
8.112896291271687	5.9355927	2.4363072
8.130467151366968	5.9034743	2.4297066
8.148038202945436	5.937137	2.436624
8.165609446426497	5.9579306	2.4408872
8.183180882229594	5.98358	2.4461358
8.200752510774217	5.936533	2.4365
8.218324332479893	5.9471273	2.4386733
8.235896347766193	5.911884	2.4314365
8.253468557052724	5.973761	2.4441278
8.27104096075914	6.0592666	2.4615579
8.288613559305137	6.210301	2.4920475
8.306186353110448	6.245395	2.4990788
8.32375934259485	6.2686076	2.5037189
8.341332528178162	6.2256722	2.4951298
8.358905910280246	6.3035374	2.5106847
8.376479489321003	6.300855	2.5101504
8.394053265720377	6.386211	2.5270953
8.411627239898356	6.381825	2.5262275
8.42920141227497	6.340921	2.5181186
8.44677578327029	6.322533	2.5144649
8.464350353304427	6.2676497	2.5035274
8.48192512279754	6.281656	2.506323
8.499500092169827	6.244491	2.498898
8.51707526184153	6.189763	2.4879234
8.534650632232934	6.197702	2.4895184
8.552226203764365	6.200313	2.4900427
8.569801976856192	6.191358	2.488244
8.587377951928834	6.214104	2.4928105
8.60495412940274	6.2808037	2.506153
8.622530509698416	6.3229117	2.51454
8.6401070932364	6.4741516	2.5444355
8.657683880437283	6.5932503	2.5677326
8.675260871721695	6.7018766	2.5887983
8.692838067510303	6.8667936	2.6204567
8.710415468223834	7.0566998	2.656445
8.727993074283043	7.228451	2.688578
8.745570886108737	7.28072	2.698281
8.763148904121765	7.350049	2.7110975
8.78072712874302	7.3666863	2.714164
8.798305560393441	7.5305324	2.7441816
8.815884199494006	7.6128683	2.7591426
8.833463046465745	7.8050184	2.7937462
8.851042101729728	7.980519	2.8249812
8.86862136570707	8.339792	2.8878698
8.886200838818924	8.426466	2.9028375
8.903780521486505	8.361485	2.8916233
8.921360414131055	8.465896	2.9096212
8.938940517173874	8.6572075	2.9423132
8.956520831036297	8.833444	2.972111
8.97410135613971	9.092547	3.0153852
8.99168209290554	9.236575	3.0391734
9.009263041755265	9.5143	3.084526
9.026844203110405	9.746008	3.1218598
9.044425577392525	9.970531	3.157615
9.062007165023239	10.032232	3.1673698
9.079588966424197	10.323762	3.213061
9.097170982017108	10.443158	3.2315876
9.11475321222372	11.378723	3.3732364
9.132335657465825	12.111854	3.4802089
9.149918318165264	12.163152	3.487571
9.167501194743924	12.956666	3.599537
9.18508428762374	12.74687	3.570276
9.202667597226693	12.852396	3.5850239
9.220251123974803	12.51033	3.5369945
9.237834868290143	12.221623	3.4959438
9.255418830594836	11.974141	3.4603672
9.273003011311046	11.40221	3.376716
9.290587410860985	11.237327	3.3522122
9.308172029666911	10.583948	3.253298
9.32575686815113	10.243531	3.2005517
9.343341926735997	8.812579	2.9685988
9.360927205843916	8.5229645	2.9194117
9.378512705897327	8.316905	2.8839045
9.396098427318728	8.109208	2.8476672
9.413684370530664	8.041904	2.8358252
9.431270535955722	7.964079	2.82207
9.448856924016539	7.9159837	2.8135357
9.466443535135806	7.8622155	2.8039641
9.484030369736251	7.9038687	2.811382
9.501617428240658	7.9315615	2.8163028
9.519204711071852	7.8650885	2.8044765
9.536792218652714	7.8861585	2.8082304
9.55437995140617	7.8547206	2.8026276
9.571967909755191	7.8522005	2.802178
9.589556094122802	7.9121876	2.8128612
9.60714450493207	7.937682	2.8173892
9.624733142606116	8.116235	2.8489006
9.642322007568108	8.204288	2.8643126
9.659911100241267	8.246909	2.8717432
9.677500421048851	8.229767	2.868757
9.695089970414175	8.226052	2.8681095
9.712679748760609	8.25987	2.8739989
9.730269756511557	8.355304	2.8905542
9.747859994090492	8.380131	2.8948455
9.765450461920915	8.380707	2.8949451
9.78304116042639	8.38971	2.8964996
9.800632090030527	8.408902	2.8998108
9.81822325115699	8.426127	2.9027793
9.835814644229481	8.384928	2.895674
9.853406269671762	8.358952	2.891185
9.870998127907646	8.315613	2.8836803
9.888590219360985	8.3731165	2.8936338
9.906182544455698	8.388131	2.8962271
9.923775103615734	8.373707	2.893736
9.941367897265108	8.342083	2.8882663
9.958960925827878	8.390812	2.89669
9.97655418972816	8.432774	2.9039237
9.994147689390106	8.449082	2.9067304
10.011741425237934	8.394928	2.8974001
10.029335397695904	8.402109	2.8986392
10.04692960718833	8.412441	2.900421
10.06452405413958	8.505539	2.9164257
10.082118738974064	8.430244	2.9034884
10.099713662116246	8.356361	2.890737
10.117308823990651	8.319419	2.8843403
10.134904225021844	8.357175	2.890878
10.152499865634445	8.382074	2.8951812
10.170095746253125	8.329153	2.886027
10.18769186730261	8.250748	2.8724115
10.205288229207675	8.283386	2.8780873
10.222884832393145	8.258574	2.8737733
10.2404816772839	8.232179	2.8691773
10.258078764304868	8.128101	2.8509824
10.275676093881035	8.079714	2.8424838
10.293273666437438	8.086966	2.843759
10.310871482399158	8.203226	2.8641274
10.32846954219134	8.215588	2.8662846
10.346067846239173	8.249128	2.8721297
10.363666394967908	8.227663	2.8683903
10.38126518880283	8.218114	2.8667252
10.398864228169298	8.352597	2.890086
10.416463513492713	8.406184	2.899342
10.434063045198531	8.359761	2.8913252
10.451662823712262	8.332201	2.8865552
10.469262849459467	8.346748	2.8890738
10.486863122865758	8.3376045	2.887491
10.504463644356806	8.3611765	2.8915699
10.522064414358338	8.268972	2.875582
10.539665433296118	8.153024	2.85535
10.557266701595987	8.02135	2.8321989
10.574868219683818	7.8669953	2.8048165
10.592469987985552	7.7552476	2.7848246
10.610072006927185	7.6958675	2.7741427
10.627674276934751	7.6080165	2.7582633
10.64527679843435	7.485931	2.736043
10.662879571852143	7.3569937	2.7123778
10.680482597614331	7.271937	2.696653
10.698085876147173	7.099898	2.6645634
10.715689407876988	7.042533	2.6537771
10.733293193230146	6.9188643	2.6303735
10.750897232633072	6.861509	2.6194482
10.76850152651225	6.8322687	2.6138608
10.786106075294207	6.7349043	2.5951693
10.803710879405534	6.6426454	2.577333
10.821315939272877	6.53303	2.5559793
10.83892125532294	6.4464397	2.538984
10.856526827982472	6.416597	2.5331004
10.874132657678285	6.364242	2.522745
10.891738744837243	6.316683	2.5133011
10.909345089886271	6.2509985	2.5001998
10.926951693252343	6.215251	2.4930406
10.944558555362494	6.117716	2.4734018
10.96216567664381	6.0416512	2.457977
10.979773057523436	5.9824276	2.4459002
10.997380698428573	5.9343886	2.43606
11.014988599786477	5.865429	2.4218647
11.032596762024461	5.795063	2.4072938
11.050205185569892	5.724284	2.3925476
11.067813870850198	5.6247497	2.3716555
11.085422818292859	5.5608315	2.3581417
11.10303202832541	5.521922	2.349877
11.120641501375454	5.5352736	2.3527162
11.138251237870636	5.4732804	2.3395042
11.155861238238671	5.406185	2.3251204
11.173471502907317	5.3314824	2.3090003
11.191082032304402	5.259361	2.2933297
11.208692826857805	5.140709	2.2673132
11.226303886995465	5.0819454	2.254317
11.243915213145371	5.0201726	2.2405741
11.261526805735578	5.0309544	2.2429788
11.279138665194196	4.934066	2.2212758
11.296750791949393	4.8270903	2.197064
11.314363186429393	4.786967	2.187914
11.331975849062479	4.760442	2.1818438
11.34958878027699	4.750837	2.1796415
11.36720198050133	4.7143025	2.1712444
11.384815450163948	4.6507583	2.1565616
11.402429189693366	4.6336417	2.1525896
11.420043199518153	4.559566	2.135314
11.437657480066942	63.530186	7.9705825
11.455272031768422	85.229744	9.231996
11.472886855051353	107.611824	10.373611
11.490501950344528	99.19357	9.959597
11.508117318076819	84.554375	9.195345
11.52573295867715	45.894375	6.7745385
11.543348872574514	4.1593437	2.0394468
11.560965060197946	4.0605755	2.015087
11.57858152197655	4.017414	2.0043488
11.59619825833949	3.97273	1.9931709
11.613815269715985	3.9655871	1.9913782
11.631432556535323	38.460354	6.201641
11.649050119226837	82.98243	9.109469
11.666667958219929	93.39047	9.663875
11.68428607394406	107.72647	10.379136
11.701904466828756	82.64016	9.090663
11.719523137303586	65.54166	8.09578
11.737142085798196	4.755895	2.1808014
11.754761312742286	3.814665	1.9531168
11.772380818565619	3.739728	1.9338377
11.790000603698015	3.7329633	1.9320878
11.80762066856935	3.699711	1.9234633
11.825241013609572	3.682664	1.9190269
11.842861639248683	3.616647	1.9017484
11.860482545916748	3.5969017	1.8965499
11.878103734043883	3.5650866	1.8881437
11.895725204060282	3.4979873	1.8702906
11.91334695639619	3.4617174	1.8605691
11.930968991481919	3.4481912	1.8569306
11.948591309747824	3.3919191	1.8417164
11.966213911624347	3.3516247	1.8307443
11.98383679754198	3.338415	1.8271329
12.001459967931268	3.3728294	1.8365265
12.019083423222835	3.3479133	1.8297304
12.036707163847352	3.3211105	1.8223914
12.05433119023556	3.2813435	1.8114479
12.071955502818259	3.2765164	1.810115
12.089580102026313	3.226153	1.7961495
12.107204988290643	3.2023368	1.7895074
12.12483016204224	3.1849058	1.7846304
12.142455623712152	3.186184	1.7849885
12.16008137373149	3.1942863	1.7872566
12.177707412531431	3.1914966	1.786476
12.19533374054321	3.153588	1.7758344
12.212960358198126	3.0980644	1.760132
12.230587265927545	3.048905	1.7461114
12.248214464162889	3.0243459	1.7390647
12.265841953335649	3.0504491	1.7465535
12.283469733877375	3.0505512	1.7465827
12.301097806219685	3.0407197	1.743766
12.31872617079425	3.0578403	1.7486682
12.336354828032825	3.0393336	1.7433685
12.353983778367205	3.0296333	1.7405841
12.371613022229262	2.98569	1.7279149
12.389242560050928	2.9596841	1.7203733
12.406872392264201	2.9229348	1.7096592
12.424502519301143	2.9141903	1.7070999
12.442132941593874	2.9209814	1.7090878
12.459763659574586	2.9403431	1.7147429
12.477394673675532	2.9292374	1.7115015
12.49502598432903	2.9032793	1.7039012
12.51265759196746	2.853497	1.6892297
12.530289497023267	2.8626795	1.6919454
12.547921699928967	2.8415236	1.6856819
12.565554201117134	2.851267	1.6885695
12.583187001020404	2.8796668	1.6969581
12.600820100071486	2.89961	1.7028241
12.618453498703152	2.911419	1.7062881
12.636087197348235	2.9069707	1.7049841
12.65372119643964	2.90531	1.704497
12.671355496410326	2.8552556	1.6897502
12.68899009769333	2.8112729	1.6766851
12.706625000721749	2.8199458	1.6792694
12.724260205928752	2.9171524	1.7079673
12.741895713747551	2.9880764	1.7286054
12.759531524611454	3.049301	1.7462248
12.777167638953818	3.0116339	1.7354059
12.794804057208072	3.0416348	1.7440283
12.812440779807702	3.059111	1.7490314
12.830077807186271	3.2180305	1.793887
12.847715139777405	3.2379086	1.7994189
12.865352778014795	3.4676986	1.8621758
12.882990722332197	3.5928955	1.8954935
12.90062897316344	3.6569493	1.9123151
12.918267530942412	3.716018	1.9276975
12.935906396103071	3.5640626	1.8878725
12.953545569079449	3.7251484	1.9300643
12.971185050305628	3.581326	1.8924391
12.988824840215775	3.6433194	1.9087481
13.006464939244115	3.6836586	1.919286
13.024105347824943	3.5150332	1.8748422
13.041746066392617	3.5892491	1.8945314
13.05938709538157	3.381947	1.8390071
13.077028435226296	3.401332	1.84427
13.094670086361363	3.2827196	1.8118277
13.112312049221401	3.1789448	1.7829596
13.129954324241112	3.0864918	1.7568414
13.147596911855258	2.909323	1.7056738
13.165239812498685	2.897371	1.7021666
13.182883026606293	2.823376	1.6802905
13.200526554613058	2.7458603	1.6570637
13.218170396954017	2.7025661	1.6439483
13.235814554064284	2.706063	1.6450115
13.253459026379034	2.7453763	1.6569177
13.271103814333523	2.7445517	1.6566689
13.288748918363058	2.7187428	1.648861
13.306394338903031	2.7507188	1.6585292
13.32404007638889	2.719186	1.6489955
13.341686131256164	2.7143085	1.6475159
13.359332503940449	2.6414125	1.6252422
13.376979194877402	2.68912	1.6398537
13.394626204502751	2.774368	1.6656435
13.412273533252307	2.839051	1.6849483
13.429921181561937	2.80144	1.6737503
13.447569149867581	2.767908	1.6637031
13.465217438605247	2.752919	1.6591922
13.482866048211022	2.726329	1.6511599
13.500514979121052	2.699006	1.6428652
13.518164231771568	2.68045	1.637208
13.535813806598844	2.743681	1.656406
13.553463704039254	2.781504	1.6677841
13.571113924529229	2.797839	1.6726742
13.588764468505275	2.776413	1.6662571
13.606415336403956	2.772443	1.6650655
13.624066528661917	2.766603	1.6633109
13.641718045715882	2.8319433	1.6828378
13.659369888002635	2.8735213	1.6951464
13.67702205595903	2.9413378	1.7150329
13.694674550021993	2.9935327	1.7301829
13.712327370628532	3.0374658	1.7428327
13.729980518215713	3.0738626	1.7532434
13.747633993220681	3.1606095	1.7778103
13.765287796080647	3.2439864	1.8011069
13.7829419272329	3.3003247	1.8166796
13.800596387114801	3.2893767	1.8136638
13.818251176163775	3.2782557	1.8105954
13.835906294817324	3.3468578	1.8294419
13.853561743513023	3.4194562	1.8491771
13.871217522688525	3.4861352	1.8671196
13.888873632781538	3.4812796	1.8658187
13.906530074229858	3.471552	1.8632101
13.92418684747135	3.4823225	1.8660982
13.941843952943948	3.4942927	1.8693027
13.959501391085665	3.5114036	1.873874
13.977159162334578	3.4689186	1.8625033
13.994817267128846	3.4255006	1.8508108
14.012475705906693	3.342228	1.8281761
14.030134479106424	3.235503	1.7987504
14.047793587166414	3.1953785	1.7875621
14.065453030525108	3.1392477	1.7717922
14.083112809621026	3.0869198	1.7569633
14.100772924892766	3.022255	1.7384634
14.118433376778997	2.9710872	1.7236842
14.136094165718458	2.871629	1.6945882
14.153755292149969	2.7776132	1.6666173
14.171416756512416	2.7195706	1.6491121
14.189078559244768	2.7015264	1.643632
14.20674070078606	2.6720152	1.63463
14.224403181575408	2.5894678	1.6091824
14.242066002051999	2.5051184	1.5827565
14.259729162655093	2.4309406	1.5591474
14.277392663824022	2.4271014	1.5579157
14.295056505998208	2.41902	1.5553199
14.312720689617128	2.4178908	1.5549568
14.330385215120348	2.404708	1.5507121
14.348050082947497	2.3915582	1.5464664
14.3657152935383	2.4064195	1.5512638
14.383380847332528	2.409236	1.5521713
14.401046744770051	2.4173777	1.5547918
14.418712986290798	2.4023757	1.5499599
14.436379572334793	2.3817537	1.5432931
14.454046503342123	2.3537226	1.5341847
14.471713779752946	2.3505924	1.5331641
14.489381402007504	2.3943174	1.5473582
14.507049370546113	2.4319391	1.5594676
14.524717685809168	2.4637058	1.5696197
14.542386348237134	2.455842	1.5671127
14.560055358270553	2.4549246	1.5668199
14.577724716350051	2.4538581	1.5664796
14.595394422916325	2.4535992	1.5663968
14.61306447841015	2.5088313	1.5839291
14.63073488327237	2.5054014	1.5828459
14.648405637943917	2.513203	1.5853084
14.6660767428658	2.4705722	1.5718054
14.683748198479094	2.5245433	1.5888811
14.701420005224954	2.585125	1.6078324
14.719092163544628	2.6795964	1.6369473
14.73676467387942	2.7035203	1.6442385
14.754437536670727	2.71083	1.6464598
14.772110752360014	2.688362	1.6396224
14.78978432138882	2.6701458	1.6340581
14.807458244198777	2.680666	1.6372739
14.82513252123159	2.6736338	1.635125
14.842807152929028	2.701396	1.6435924
14.860482139732962	2.6930091	1.641039
14.87815748208531	2.7030292	1.6440891
14.8958331804281	2.687756	1.6394377
14.91350923520342	2.66006	1.630969
14.931185646853438	2.6703975	1.6341351
14.948862415820408	2.6821706	1.6377333
14.966539542546656	2.6652913	1.6325719
14.98421702747459	2.6518898	1.6284624
15.001894871046696	2.6646688	1.6323813
15.019573073705542	2.690356	1.6402304
15.037251635893766	2.6900244	1.6401293
15.054930558054092	2.697264	1.6423349
15.072609840629323	2.7715487	1.664797
15.090289484062351	2.9030752	1.7038413
15.107969488796124	3.2168791	1.793566
15.125649855273691	3.6197953	1.902576
15.14333058393817	4.1293154	2.0320716
15.161011675232768	5.068976	2.2514386
15.17869312960076	6.416338	2.533049
15.196374947485506	8.247194	2.8717928
15.214057129330447	11.319114	3.364389
15.231739675579114	16.069641	4.0086956
15.249422586675102	21.254322	4.610241
15.267105863062092	24.463686	4.946078
15.284789505183847	24.766428	4.976588
15.302473513484218	22.569683	4.7507563
15.320157888407127	18.919674	4.349675
15.337842630396578	14.678624	3.8312693
15.355527739896656	11.354077	3.3695812
15.37321321735153	8.820018	2.9698515
15.39089906320545	6.4599533	2.5416439
15.408585277902748	4.914705	2.2169135
15.42627186188783	3.7659173	1.9405972
15.443958815605198	3.2276952	1.7965788
15.461646139499424	2.9331002	1.7126297
15.479333834015168	2.8431814	1.6861736
15.497021899597165	2.7999783	1.6733135
15.514710336690234	2.74083	1.6555452
15.53239914573928	2.6650271	1.6324911
15.550088327189297	2.5925963	1.6101542
15.567777881485336	2.5456247	1.5955014
15.58546780907256	2.5266182	1.5895339
15.6031581103962	2.5197885	1.5873842
15.620848785901568	2.5163145	1.5862895
15.638539836034063	2.4962094	1.5799397
15.656231261239173	2.4815493	1.5752934
15.673923061962451	2.4461794	1.5640267
15.691615238649552	2.4374108	1.5612209
15.709307791746202	2.406165	1.5511818
15.727000721698221	2.3915663	1.546469
15.744694028951498	2.4185696	1.5551751
15.76238771395202	2.4077652	1.5516975
15.780081777145844	2.400053	1.5492104
15.797776218979125	2.3629546	1.5371904
15.815471039898094	2.3517506	1.5335418
15.833166240349064	2.3528254	1.5338923
15.850861820778437	2.393888	1.5472194
15.868557781632699	2.3968525	1.5481771
15.886254123358412	2.3906748	1.5461807
15.903950846402232	2.3929827	1.5469269
15.921647951210897	2.404279	1.5505737
15.939345438231225	2.4257298	1.5574754
15.957043307910133	2.4347708	1.5603752
15.974741560694602	2.475611	1.5734074
15.992440197031714	2.4598293	1.5683843
16.01013921736862	2.4264743	1.5577145
16.02783862215259	2.404403	1.5506138
16.045538411830933	2.4060297	1.5511382
16.06323858685107	2.4315932	1.5593567
16.080939147660512	2.4362922	1.5608627
16.09864009470684	2.4285686	1.5583866
16.11634142843774	2.4047093	1.5507126
16.134043149300954	2.4241672	1.5569737
16.15174525774433	2.4428823	1.5629723
16.169447754215817	2.432207	1.5595535
16.18715063916342	2.4246166	1.557118
16.204853913035244	2.4602067	1.5685046
16.222557576279478	2.4727304	1.5724918
16.240261629344403	22.482847	4.741608
16.257966072678386	43.024	6.559268
16.275670906729868	38.123123	6.1743927
16.293376131947387	2.5502973	1.5969651
16.31108174877957	2.5669904	1.602183
16.328787757675133	2.5933185	1.6103784
16.34649415908287	2.5875254	1.6085787
16.364200953451657	2.604535	1.6138573
16.38190814123048	2.6288116	1.621361
16.39961572286839	2.6808467	1.6373291
16.41732369881455	2.7050464	1.6447026
16.43503206951817	2.7461038	1.6571373
16.45274083542859	2.7634559	1.6623645
16.47044999699522	2.824396	1.680594
16.488159554667558	2.8574743	1.6904066
16.505869508895184	2.9303353	1.7118222
16.523579860127786	3.009072	1.7346677
16.541290608815117	3.1151347	1.7649745
16.559001755407035	3.1487043	1.7744589
16.57671330035348	3.1646461	1.7789452
16.59442524410448	3.1631799	1.7785331
16.61213758711015	3.1917996	1.7865609
16.629850329820705	3.2272713	1.7964607
16.647563472686436	3.3295856	1.8247153
16.665277016157724	3.389841	1.8411521
16.682990960685053	3.469264	1.862596
16.70070530671898	3.5224288	1.8768134
16.718420054710155	3.5167387	1.875297
16.736135205109335	3.4942336	1.8692869
16.753850758367335	3.5600946	1.8868213
16.771566714935087	3.6949434	1.9222236
16.789283075263597	3.8193915	1.9543264
16.80699983980398	3.843026	1.9603637
16.82471700900741	3.8568978	1.9638987
16.84243458332518	3.8640528	1.9657195
16.860152563208665	3.9663978	1.9915817
16.87787094910932	4.088664	2.0220444
16.89558974147871	4.1731563	2.0428305
16.913308940768466	4.176586	2.0436697
16.931028547430333	4.2448196	2.060296
16.94874856191613	4.331922	2.081327
16.966468984677785	4.3911085	2.0954971
16.98418981616729	4.4052744	2.0988746
17.00191105683676	4.4691553	2.1140378
17.019632707138374	4.5431423	2.1314647
17.03735476752442	4.5403557	2.130811
17.05507723844728	4.5787807	2.1398087
17.072800120359403	4.6338363	2.1526346
17.090523413713353	4.6849217	2.164468
17.108247118961785	4.728945	2.1746137
17.125971236557437	4.7235155	2.173365
17.143695766953133	4.6888876	2.165384
17.161420710601806	4.685393	2.1645768
17.179146067956477	4.734613	2.1759167
17.19687183947025	4.7032394	2.1686954
17.21459802559634	4.6636906	2.159558
17.232324626788028	4.6679673	2.160548
17.25005164349871	4.6832232	2.1640756
17.267779076181863	4.698057	2.1675003
17.285506925291074	4.669661	2.16094
17.30323519127999	4.645911	2.1554377
17.320963874602384	4.603964	2.145685
17.33869297571211	4.5803056	2.1401649
17.356422495063114	4.543415	2.1315289
17.37415243310944	4.5128393	2.1243443
17.391882790305218	4.5052686	2.1225617
17.40961356710468	4.4852486	2.1178405
17.42734476396215	4.5202117	2.1260788
17.445076381332044	4.5887365	2.1421337
17.462808419668868	4.634865	2.1528735
17.48054087942723	4.772552	2.184617
17.498273761061835	5.0319443	2.2431996
17.51600706502747	5.5084085	2.347
17.533740791779024	6.218627	2.4937174
17.551474941771485	7.6176014	2.7600002
17.56920951545993	8.701883	2.9498954
17.586944513299528	10.91143	3.3032455
17.60467993574556	12.598475	3.5494332
17.622415783253373	14.333044	3.7859006
17.64015205627843	15.7248335	3.965455
17.657888755276293	16.83501	4.103049
17.675625880702604	17.296732	4.158934
17.69336343301311	17.1303	4.138877
17.71110141266366	16.360468	4.0448074
17.728839820110178	15.413298	3.9259772
17.746578655808705	14.56622	3.8165717
17.764317920215372	13.079245	3.6165237
17.7820576137864	11.514446	3.3932943
17.79979773697811	9.462116	3.0760553
17.81753829024692	7.572462	2.7518108
17.835279274049356	5.9405727	2.437329
17.85302068884201	4.8744364	2.2078125
17.870762535081607	4.224405	2.0553358
17.888504813224934	3.977696	1.9944162
17.90624752372891	3.7947338	1.9480076
17.923990667050536	3.6927896	1.9216633
17.941734243646895	3.5674474	1.8887688
17.959478253975185	3.5382848	1.881033
17.9772226984927	3.4969451	1.870012
17.994967577656833	3.4539843	1.8584898
18.01271289192506	3.4193711	1.8491541
18.030458641754965	3.3779333	1.8379154
18.04820482760425	3.318499	1.8216748
18.06595144993067	3.2856116	1.8126256
18.083698509192125	3.2665024	1.8073468
18.101446005846576	3.2519896	1.8033273
18.119193940352105	3.2592545	1.8053405
18.136942313166887	3.2571304	1.8047521
18.1546911247492	3.2672064	1.8075415
18.1724403755574	3.2408292	1.8002304
18.19019006604997	3.2314622	1.7976269
18.207940196685467	3.2157524	1.7932519
18.225690767922575	3.1901982	1.7861125
18.243441780220046	3.1653333	1.7791383
18.261193234036764	3.1250782	1.7677891
18.278945129831676	3.10145	1.7610934
18.29669746806386	3.1048741	1.7620653
18.314450249192483	3.1391346	1.7717603
18.3322034736768	3.1042898	1.7618995
18.349957141976184	3.0894966	1.7576964
18.3677112545501	3.0866017	1.7568728
18.385465811858108	3.1060011	1.7623851
18.403220814359884	3.1102464	1.763589
18.420976262515172	3.0862503	1.7567726
18.43873215678387	3.1363728	1.7709807
18.456488497625923	3.2158313	1.7932739
18.474245285501407	3.2937849	1.8148787
18.492002520870486	3.3425446	1.8282627
18.50976020419343	3.394897	1.8425246
18.527518335930615	3.7222717	1.929319
18.545276916542516	4.2905736	2.07137
18.563035946489688	4.448835	2.1092262
18.580795426232832	4.865785	2.2058525
18.598555356232698	4.777903	2.1858416
18.616315736950185	5.122023	2.2631886
18.63407656884626	4.752827	2.180098
18.65183785238201	4.9460106	2.2239628
18.669599588018617	4.700397	2.1680398
18.68736177621737	4.708086	2.1698124
18.705124417439652	4.638296	2.1536703
18.72288751214696	4.436034	2.1061895
18.740651060800886	4.6190457	2.1491966
18.758415063863115	4.384661	2.0939584
18.77617952179546	4.541924	2.131179
18.793944435059814	4.2341924	2.0577154
18.811709804118184	4.228522	2.0563369
18.829475629432675	4.2177024	2.0537045
18.8472419114655	4.0575957	2.0143476
18.86500865067897	4.1660795	2.0410976
18.88277584753551	3.881401	1.9701272
18.90054350249763	3.8998399	1.9748012
18.918311616027957	3.523215	1.877023
18.936080188589226	3.4021704	1.8444973
18.953849220644265	3.0796752	1.7549003
18.971618712656007	2.8812296	1.6974186
18.9893886650875	2.8478754	1.687565
19.007159078401887	8.010863	2.8303468
19.024929953062408	32.894455	5.7353687
19.042701289532435	32.82935	5.72969
19.060473088275405	25.414236	5.0412536
19.07824534975489	2.697407	1.6423784
19.096018074434568	2.6664762	1.6329348
19.113791262778197	2.6508784	1.6281519
19.13156491524966	2.5887568	1.6089615
19.149339032312945	2.5821443	1.6069052
19.167113614432136	2.571808	1.6036857
19.184888662071433	2.571928	1.6037232
19.202664175695123	2.5481384	1.5962889
19.220440155767623	2.545763	1.5955447
19.238216602753447	2.5616825	1.6005257
19.2559935171172	2.5920358	1.6099801
19.27377089932361	2.5983236	1.6119317
19.291548749837514	2.5995324	1.6123066
19.309327069123835	2.5933952	1.6104022
19.32710585764763	2.5599477	1.5999837
19.344885115874032	2.5136807	1.5854591
19.362664844268313	2.4888108	1.5775965
19.380445043295822	2.4878466	1.5772909
19.39822571342203	2.5013273	1.5815585
19.41600685511252	2.4958775	1.5798347
19.43378846883297	2.4964328	1.5800104
19.451570555049173	2.5071542	1.5833995
19.469353114227037	2.504244	1.5824803
19.48713614683254	2.5026972	1.5819916
19.50491965333182	2.5444577	1.5951356
19.52270363419109	2.5588272	1.5996335
19.540488089876686	2.5289702	1.5902736
19.55827302085503	2.5008938	1.5814215
19.576058427592674	2.543971	1.5949831
19.593844310556282	2.5433035	1.5947738
19.611630670212598	2.5144355	1.5856972
19.629417507028506	2.472128	1.5723002
19.64720482147098	2.4870627	1.5770423
19.6649926140071	2.5171542	1.5865542
19.682780885104084	2.5599823	1.5999944
19.70056963522921	2.552926	1.5977879
19.718358864849908	2.5653853	1.6016821
19.7361485744337	2.5510929	1.5972141
19.753938764448215	2.5991364	1.6121837
19.771729435361202	2.594101	1.6106213
19.789520587640506	2.5867019	1.6083227
19.807312221754092	2.571023	1.603441
19.825104338170043	2.572234	1.6038185
19.842896937356517	2.554607	1.5983138
19.860690019781824	2.5215187	1.587929
19.87848358591436	2.5424316	1.5945004
19.896277636222635	2.57137	1.6035491
19.914072171175278	2.5991135	1.6121767
19.931867191241015	2.5572958	1.5991547
19.94966269688869	2.5417483	1.5942861
19.967458688587264	2.527683	1.5898689
19.985255166805807	2.524913	1.5889975
20.00305213201348	2.4932327	1.5789974
20.020849584679578	2.5017207	1.5816828
20.038647525273507	2.529819	1.5905405
20.05644595426477	2.5565934	1.5989351
20.07424487212299	2.5569935	1.5990602
20.092044279317903	2.4992068	1.5808879
20.109844176319353	2.4934015	1.5790508
20.127644563597304	2.4799843	1.5747966
20.145445441621817	2.484354	1.5761833
20.16324681086307	2.4471447	1.5643352
20.181048671791373	2.4067554	1.5513722
20.198851024877122	2.395552	1.547757
20.216653870590836	2.3901606	1.5460144
20.234457209403146	2.372004	1.5401312
20.252261041784802	2.3412042	1.5300994
20.270065368206662	2.360476	1.5363841
20.287870189139685	2.3495023	1.5328087
20.305675505054968	2.3933673	1.5470512
20.323481316423702	2.4095266	1.5522649
20.341287623717207	2.4390056	1.5617316
20.359094427406884	2.4450083	1.5636523
20.376901727964288	2.442941	1.562991
20.39470952586107	2.4172275	1.5547435
20.41251782156899	2.4043062	1.5505825
20.430326615559935	2.3806212	1.5429262
20.448135908305886	2.3329794	1.5274094
20.465945700278965	2.313038	1.5208676
20.483755991951384	2.297625	1.5157919
20.50156678379548	2.347716	1.5322258
20.519378076283708	2.3806818	1.5429459
20.537189869888635	2.376051	1.5414444
20.55500216508294	2.329582	1.5262969
20.572814962339415	2.325013	1.5247993
20.59062826213098	2.3558173	1.5348672
20.60844206493066	2.367707	1.5387355
20.626256371211593	2.3683934	1.5389585
20.644071181447032	2.3096054	1.5197386
20.66188649611036	2.3138528	1.5211353
20.67970231567506	2.3148637	1.5214676
20.697518640614742	2.3439739	1.5310042
20.715335471403122	2.34103	1.5300424
20.73315280851404	2.3506167	1.5331721
20.750970652421447	2.3409905	1.5300295
20.768789003599412	2.3343265	1.5278503
20.786607862522136	2.3519862	1.5336187
20.8044272296639	2.3338127	1.5276822
20.82224710549913	2.3302286	1.5265086
20.84006749050237	2.34481	1.5312773
20.857888385148268	3.8596582	1.9646013
20.8757097899116	45.964714	6.779728
20.893531705267254	64.80281	8.050019
20.911354131690224	83.8587	9.15744
20.92917706965566	69.12356	8.314058
20.94700051963877	50.211674	7.0860195
20.96482448211493	29.450478	5.4268293
20.982648957559622	4.16025	2.039669
21.00047394644843	2.2615454	1.5038435
21.01829944925707	2.2566283	1.5022078
21.036125466461375	2.295835	1.5152013
21.053951998537297	2.3070052	1.5188829
21.071779045960906	2.3177516	1.5224164
21.089606609208378	2.2646506	1.5048757
21.10743468875603	2.2449088	1.498302
21.12526328508028	2.2743618	1.5080987
21.143092398657675	2.2975392	1.5157636
21.16092202996488	2.2578433	1.5026121
21.17875217947867	2.231839	1.493934
21.19658284767596	2.2226777	1.4908648
21.21441403503377	2.23388	1.494617
21.232245742029225	2.2381325	1.4960389
21.2500779691396	2.2458177	1.4986053
21.26791071684227	2.2288938	1.492948
21.28574398561475	2.1952984	1.4816539
21.30357777593465	2.1203032	1.4561261
21.321412088279704	2.1246896	1.4576315
21.339246923127792	2.1532235	1.4673866
21.357082280956888	2.1871667	1.4789072
21.3749181622451	2.153741	1.4675629
21.392754567470647	2.1285913	1.4589692
21.41059149711187	2.1103344	1.452699
21.42842895164726	2.1529863	1.4673058
21.446266931555378	2.1653883	1.4715259
21.464105437314945	2.1744382	1.4745977
21.481944469404798	2.1369011	1.4618143
21.49978402830388	2.1237395	1.4573056
21.51762411449127	2.1161447	1.4546975
21.53546472844617	2.118421	1.4554796
21.553305870647876	2.0853112	1.4440607
21.571147541575865	2.08858	1.445192
21.58898974170967	2.0862358	1.4443808
21.60683247152899	2.0623724	1.4360963
21.62467573151363	2.0669484	1.4376886
21.642519522143523	2.093608	1.4469305
21.660363843898722	2.1206565	1.4562474
21.6782086972594	2.1134508	1.4537712
21.696054082705864	2.127569	1.4586189
21.713900000718535	2.1086779	1.4521288
21.73174645177795	2.0797596	1.4421371
21.749593436364794	2.0423713	1.4291155
21.767440954959845	2.0056221	1.4161999
21.785289008044032	2.0045383	1.4158171
21.803137596098388	2.012687	1.418692
21.820986719604086	2.0104537	1.4179047
21.838836379042412	2.0157669	1.419777
21.85668657489478	2.0287435	1.4243397
21.87453730764273	2.0128636	1.4187542
21.892388577767914	2.0056117	1.4161962
21.91024038575213	1.9726018	1.4044935
21.928092732077285	1.9891692	1.4103792
21.945945617225426	1.9957271	1.4127021
21.963799041678694	1.996336	1.4129175
21.981653005919398	31.29867	5.5945215
21.999507510429943	78.0765	8.836091
22.01736255569286	73.05959	8.54749
22.035218142190818	4.2012234	2.0496886
22.05307427040661	2.0226352	1.4221938
22.07093094082315	1.9864229	1.4094051
22.088788153923474	1.9757621	1.4056181
22.106645910190746	2.0220997	1.4220055
22.12450421010827	2.055698	1.4337705
22.142363054159464	2.037911	1.4275541
22.16022244282787	1.9722493	1.4043679
22.178082376597164	1.9503813	1.3965605
22.195942855951145	1.9761364	1.4057512
22.213803881373742	2.000884	1.4145261
22.231665453349002	1.9865897	1.4094644
22.24952757236111	1.9739852	1.4049858
22.26739023889438	1.9689393	1.403189
22.28525345343323	1.9922593	1.4114741
22.30311721646225	2.0047867	1.4159049
22.320981528466113	2.0106244	1.4179649
22.33884638992964	1.9968264	1.4130911
22.356711801337788	1.9916792	1.4112686
22.37457776317561	1.9851266	1.4089452
22.392444275928337	2.0054078	1.4161242
22.410311340081282	2.0138853	1.4191142
22.428178956119904	2.0041237	1.4156708
22.446047124529805	1.97114	1.403973
22.46391584579669	1.9550351	1.3982257
22.481785120406414	1.9703115	1.4036778
22.49965494884496	1.9793347	1.4068884
22.51752533159841	2.0001786	1.4142767
22.53539626915302	1.9887934	1.4102459
22.553267761995137	1.9340963	1.3907179
22.571139810611264	1.9307555	1.3895162
22.589012415488025	1.9739691	1.4049801
22.60688557711216	2.0282593	1.4241697
22.624759295970566	2.0149477	1.4194885
22.642633572550263	2.0163255	1.4199737
22.660508407338362	1.9887687	1.4102371
22.67838380082217	1.9676093	1.402715
22.696259753489077	1.9486946	1.3959565
22.714136265826614	1.9578927	1.3992472
22.73201333832246	1.9592245	1.399723
22.74989097146439	1.9400072	1.3928415
22.76776916574035	1.9207813	1.3859226
22.785647921638393	1.9208788	1.3859577
22.803527239646712	1.948098	1.3957428
22.82140712025363	1.9462132	1.3950675
22.839287563947593	1.9555198	1.398399
22.85716857121719	1.9341531	1.3907384
22.875050142551135	1.9162062	1.384271
22.892932278438277	1.8985486	1.3778783
22.910814979367604	1.8957964	1.3768792
22.928698245828222	1.8915766	1.3753461
22.946582078309387	1.9206759	1.3858845
22.96446647730047	1.9386169	1.3923422
22.98235144329098	1.9550558	1.398233
23.000236976770562	1.9576666	1.3991665
23.018123078229	1.9848112	1.4088333
23.03600974815619	1.9747653	1.4052634
23.053896987042194	1.9466254	1.3952152
23.071784795377173	1.8932685	1.375961
23.08967317365145	1.8926917	1.3757514
23.10756212235546	1.9466267	1.3952156
23.125451641979787	1.9945965	1.4123018
23.143341733015134	1.9698333	1.4035075
23.161232395952357	1.8846434	1.3728231
23.179123631282426	1.8531724	1.3613127
23.197015439496468	1.8815383	1.3716917
23.214907821085717	1.9292141	1.3889616
23.23280077654157	1.9347553	1.3909549
23.250694306355538	1.8639404	1.365262
23.268588411019277	1.8248969	1.3508874
23.28648309102458	1.8421453	1.3572565
23.304378346863356	1.943156	1.3939713
23.322274179027676	1.9855616	1.4090996
23.340170588009723	1.9745761	1.4051961
23.358067574301852	1.9897317	1.4105785
23.37596513839651	1.9820838	1.4078649
23.39386328078629	1.9347539	1.3909543
23.411762001963947	1.8923633	1.3756319
23.429661302422353	1.9407303	1.393101
23.4475611826545	1.9537686	1.3977728
23.46546164315356	1.950404	1.3965687
23.48336268441279	1.9456654	1.3948711
23.501264306925638	1.8890002	1.3744091
23.51916651118564	1.9045838	1.3800666
23.537069297686497	1.8892704	1.3745073
23.554972666922037	1.9471337	1.3953973
23.57287661938623	1.951776	1.3970598
23.59078115557318	1.9223435	1.386486
23.608686275977128	1.8806335	1.3713619
23.62659198109246	1.8742104	1.3690181
23.6444982714137	1.9018362	1.3790708
23.66240514743549	1.8998781	1.3783606
23.68031260965263	1.9188554	1.3852276
23.698220658560068	1.8990911	1.3780751
23.716129294652845	1.9006841	1.378653
23.7340385184262	1.9119483	1.3827322
23.75194833037546	1.921456	1.386166
23.769858730996123	1.8898447	1.3747162
23.78776972078382	1.8843106	1.3727019
23.80568130023431	1.9004731	1.3785765
23.823593469843495	1.9266746	1.3880471
23.841506230107424	1.9421341	1.3936048
23.859419581522275	1.9232578	1.3868157
23.87733352458438	1.8791027	1.3708037
23.89524805979019	1.8387094	1.3559902
23.913163187636318	1.8548031	1.3619115
23.931078908619508	1.9207242	1.3859019
23.948995223236633	2.019784	1.4211911
23.966912131984735	2.0545888	1.4333837
23.98482963536096	2.0939617	1.4470527
24.002747733862616	2.087814	1.444927
24.020666427987155	2.141237	1.4632967
24.038585718232156	2.1234677	1.4572123
24.056505605095353	2.0954454	1.4475653
24.074426089074617	2.0445194	1.4298669
24.092347170667946	2.0425417	1.4291751
24.110268850373515	2.027923	1.4240516
24.128191128689586	2.0504081	1.4319246
24.146114006114626	2.0665264	1.4375418
24.164037483147187	2.0594628	1.4350828
24.181961560286005	2.0413258	1.4287497
24.199886238029926	2.0096974	1.417638
24.21781151687797	2.0340106	1.4261874
24.235737397329274	2.0631673	1.436373
24.253663879883135	2.0669165	1.4376775
24.271590965038975	2.0392983	1.42804
24.289518653296376	2.0140622	1.4191766
24.30744694515505	2.0033383	1.4153934
24.32537584111486	2.009247	1.4174792
24.34330534167581	2.0029247	1.4152472
24.361235447338046	2.0008535	1.4145153
24.379166158601876	1.9995288	1.414047
24.39709747596772	1.9782976	1.4065197
24.41502939993615	1.9795696	1.4069718
24.432961931007917	1.9849747	1.4088913
24.450895069683856	2.0343144	1.426294
24.468828816465	2.0245461	1.4228655
24.4867631718525	2.0114267	1.4182477
24.504698136347656	1.986867	1.4095627
24.52263371045192	1.955979	1.3985631
24.540569894666874	1.9471554	1.395405
24.558506689494266	1.9373175	1.3918755
24.57644409543597	1.9548539	1.3981609
24.594382112994012	1.9485295	1.3958974
24.61232074267057	1.9642717	1.4015248
24.630259984967953	2.0003548	1.414339
24.64819984038863	2.0184984	1.4207387
24.66614030943522	1.9751393	1.4053965
24.684081392610462	1.918562	1.3851217
24.702023090417274	1.9843624	1.408674
24.7199654033587	2.0698779	1.438707
24.737908331937927	2.0753863	1.4406201
24.755851876658305	2.0913453	1.4461484
24.773796038023324	2.133892	1.4607848
24.79174081653661	2.1711504	1.4734824
24.809686212701962	2.1530619	1.4673315
24.827632227023294	2.126127	1.4581245
24.8455788600047	2.0839713	1.4435966
24.8635261121504	2.0672312	1.4377869
24.88147398396475	2.0919776	1.446367
24.899422475952303	2.158659	1.4692376
24.917371588617698	2.1485314	1.4657869
24.935321322465768	2.1850708	1.4781985
24.953271678001478	2.287089	1.5123125
24.97122265572994	2.5576618	1.5992692
24.989174256156414	2.890275	1.7000809
25.00712647978632	3.274518	1.8095629
25.02507932712521	3.7745914	1.9428308
25.043032798678798	4.322357	2.079028
25.060986894952933	4.95406	2.225772
25.078941616453637	5.70749	2.3890355
25.096896963687055	6.649202	2.5786047
25.114852937159508	7.7904587	2.7911394
25.132809537377444	8.257061	2.8735101
25.150766764847468	8.255584	2.873253
25.168724620076347	7.648633	2.7656162
25.186683103570985	6.6903763	2.5865762
25.204642215838426	5.6053476	2.3675616
25.222601957385894	4.316665	2.0776587
25.24056232872074	3.3064287	1.8183588
25.25852333035048	2.6758626	1.6358064
25.276484962782778	2.3120205	1.520533
25.294447226525435	2.071019	1.4391035
25.312410122086423	1.9796045	1.4069842
25.330373649973843	1.9569163	1.3988982
25.348337810695988	1.9605286	1.4001888
25.366302604761245	1.9835955	1.4084017
25.384268032678207	2.0033429	1.4153949
25.40223409495558	1.997042	1.4131674
25.420200792102257	1.9704008	1.4037097
25.438168124627246	1.937266	1.391857
25.45613609303974	1.88697	1.3736703
25.474104697849057	1.9056396	1.380449
25.492073939564698	1.9398696	1.392792
25.510043818696285	1.93282	1.3902589
25.528014335753614	1.9158171	1.3841305
25.54598549124664	1.9123861	1.3828905
25.56395728568544	1.8956432	1.3768235
25.58192971958028	1.8511347	1.3605641
25.59990279344156	1.876909	1.3700033
25.617876507779833	1.8864918	1.3734962
25.635850863105826	1.9086007	1.3815211
25.653825859930386	1.9088871	1.3816248
25.671801498764548	1.8722126	1.3682882
25.68977778011949	1.8420229	1.3572115
25.707754704506524	1.8619391	1.3645289
25.725732272437153	1.8912529	1.3752283
25.743710484423012	1.9195943	1.3854942
25.761689340975888	1.8770173	1.3700428
25.77966884260774	1.8121378	1.3461567
25.797648989830662	1.7728152	1.3314711
25.815629783156922	1.8414093	1.3569853
25.83361122309895	1.9001298	1.378452
25.85159331016929	1.9318635	1.389915
25.869576044880695	1.9202251	1.3857219
25.887559427746034	1.9114906	1.3825667
25.90554345927836	1.873764	1.368855
25.92352813999086	1.8229357	1.3501613
25.94151347039689	1.7802052	1.3342433
25.959499451009965	1.8084135	1.3447727
25.97748608234374	1.8779614	1.3703873
25.995473364912062	1.9060498	1.3805976
26.013461299228904	1.8756123	1.36953
26.03144988580839	1.8274118	1.351818
26.04943912516483	1.7972293	1.3406078
26.067429017812675	1.8138026	1.3467749
26.085419564266537	1.8196927	1.3489599
26.103410765041186	1.8340994	1.3542893
26.12140262065155	1.8369354	1.355336
26.139395131612723	1.8208314	1.3493819
26.157388298439948	1.8286829	1.352288
26.17538212164861	1.8548924	1.3619443
26.193376601754295	1.8510948	1.3605494
26.211371739272714	1.7841154	1.3357078
26.229367534719746	1.7613555	1.3271607
26.247363988611433	1.781249	1.3346344
26.26536110146397	1.8287787	1.3523234
26.283358873793727	1.8400316	1.3564776
26.301357306117204	1.8335067	1.3540704
26.319356398951104	1.8096694	1.3452395
26.33735615281224	1.8291805	1.352472
26.35535656821762	1.8409148	1.3568032
26.373357645684404	1.8690548	1.3671337
26.39135938572991	1.8545393	1.3618147
26.409361788871614	1.822939	1.3501626
26.427364855627165	1.8021042	1.3424248
26.445368586514352	1.821547	1.349647
26.46337298205115	1.855846	1.3622944
26.48137804275568	1.8536555	1.3614901
26.499383769146217	1.8520567	1.3609029
26.517390161741215	1.8214169	1.3495988
26.53539722105928	1.8041852	1.3431996
26.553404947619182	1.833745	1.3541584
26.571413341939856	1.8392421	1.3561866
26.589422404540397	1.8051776	1.3435689
26.60743213594006	1.8269118	1.3516331
26.62544253665827	1.8610685	1.3642099
26.64345360721459	1.8654941	1.3658309
26.66146534812879	1.8045774	1.3433455
26.679477759920758	1.8190951	1.3487383
26.69749084311057	1.8274118	1.351818
26.71550459821847	1.783233	1.3353775
26.733519025764842	1.7377253	1.3182281
26.751534126270258	1.7204235	1.3116491
26.769549900255434	1.7469568	1.3217249
26.787566348241267	1.8239517	1.3505375
26.80558347074881	1.8890896	1.3744415
26.823601268299267	1.8981481	1.377733
26.841619741414036	1.8704991	1.367662
26.85963889061465	1.8405603	1.3566725
26.877658716422832	1.776424	1.3328255
26.89567921936045	1.7175728	1.310562
26.913700399949544	1.7214634	1.3120456
26.93172225871233	1.7427887	1.3201472
26.949744796171174	1.7675288	1.3294843
26.967768012848605	1.7960321	1.3401612
26.98579190926733	1.8196565	1.3489465
27.003816485950225	1.8061802	1.343942
27.021841743420318	1.7968566	1.3404688
27.039867682200814	1.8144199	1.347004
27.057894302815072	1.8728303	1.368514
27.07592160578664	1.8808944	1.3714571
27.0939495916392	1.8422483	1.3572944
27.111978260896635	1.7854015	1.3361892
27.13000761408296	1.7847434	1.3359429
27.148037651722397	1.7990854	1.3412999
27.166068374339304	1.8133886	1.3466212
27.184099782458215	1.8080547	1.3446392
27.20213187660384	1.826701	1.351555
27.22016465730105	1.8694106	1.3672639
27.23819812507487	1.884168	1.37265
27.256232280450533	1.8609354	1.3641611
27.274267123953383	1.852985	1.361244
27.292302656108987	1.8556604	1.3622262
27.31033887744306	1.8607156	1.3640805
27.32837578848146	1.8599819	1.3638115
27.34641338975026	1.843907	1.3579054
27.364451681775673	1.8476411	1.3592796
27.382490665084074	1.8844999	1.3727709
27.400530340202046	1.930397	1.3893872
27.41857070765629	1.9209572	1.385986
27.436611767973726	1.8592207	1.3635324
27.454653521681404	1.791475	1.33846
27.472695969306564	1.7993412	1.3413953
27.490739111376627	1.822617	1.3500433
27.508782948419153	1.8030279	1.3427688
27.526827480961902	1.7818006	1.334841
27.54487270953279	1.7933764	1.3391701
27.562918634659898	1.7815573	1.3347499
27.580965256871508	1.7621571	1.3274627
27.599012576696026	1.7818937	1.334876
27.617060594662068	1.8242621	1.3506525
27.63510931129842	1.8171806	1.3480284
27.65315872713401	1.791701	1.3385444
27.67120884269797	1.7979869	1.3408903
27.68925965851958	1.8057945	1.3437985
27.707311175128307	1.8412241	1.3569171
27.725363393053787	1.8648485	1.3655945
27.74341631282583	1.871006	1.3678472
27.7614699349744	1.9136966	1.3833642
27.77952426002968	2.0718818	1.4394033
27.797579288521973	2.1830325	1.4775089
27.815635020981784	2.5906088	1.6095369
27.83369145793979	2.676185	1.6359049
27.85174859992682	2.4894757	1.5778073
27.869806447473923	2.3396487	1.5295911
27.887865001112267	2.0564978	1.4340495
27.905924261373233	1.9856516	1.4091315
27.92398422878836	1.9615178	1.400542
27.94204490388936	1.9471315	1.3953966
27.96010628720813	1.9831086	1.4082289
27.978168379276728	1.9920499	1.4114
27.9962311806274	1.9077948	1.3812295
28.014294691792568	1.8774817	1.3702123
28.0323589133048	1.8449887	1.3583037
28.050423845696887	1.8288118	1.3523357
28.068489489501758	1.8007439	1.341918
28.086555845252523	1.8118201	1.3460387
28.104622913482487	1.8839349	1.372565
28.122690694725115	1.8759489	1.3696529
28.14075918951405	1.8734221	1.3687301
28.15882839838312	1.9004008	1.3785503
28.176898321866304	1.8584318	1.3632431
28.1949689604978	1.8332218	1.3539652
28.213040314811945	1.9066448	1.3808131
28.23111238534327	1.9353161	1.3911564
28.249185172626493	1.9062389	1.3806661
28.267258677196473	1.874788	1.369229
28.285332899588294	1.8702277	1.3675627
28.303407840337172	1.865729	1.3659168
28.321483499978545	1.9154674	1.3840041
28.33955987904799	1.933354	1.390451
28.357636978081285	1.9330004	1.3903239
28.37571479761439	1.9537693	1.397773
28.393793338183425	1.9755722	1.4055505
28.41187260032469	1.9648324	1.4017248
28.429952584574686	1.9495348	1.3962574
28.448033291470065	1.992024	1.4113908
28.46611472154769	2.0055017	1.4161574
28.484196875344566	2.0275464	1.4239194
28.502279753397914	1.9997699	1.4141322
28.52036335624511	1.9895028	1.4104973
28.538447684423716	1.9996234	1.4140804
28.556532738471482	2.0322375	1.4255657
28.574618518926325	2.051724	1.432384
28.59270502632635	2.0543664	1.4333061
28.61079226120985	2.043524	1.4295188
28.628880224115274	2.0474105	1.4308776
28.646968915581287	2.0400875	1.4283164
28.66505833614671	1.995882	1.4127569
28.68314848635055	1.984245	1.4086323
28.701239366732004	2.0797453	1.4421322
28.71933097783044	2.1508162	1.4665661
28.737423320185403	2.1683245	1.4725232
28.75551639433665	2.1693118	1.4728583
28.773610200824074	2.1775792	1.4756622
28.791704740187793	2.1837537	1.4777529
28.80980001296809	2.229133	1.493028
28.827896019705413	2.2344873	1.4948201
28.845992760940433	2.2307856	1.4935814
28.86409023721397	2.2205582	1.4901538
28.88218844906704	2.2137015	1.4878513
28.900287397040845	2.2551765	1.5017245
28.918387081676755	2.248915	1.4996383
28.936487503516343	2.2435453	1.4978468
28.954588663101365	2.2503276	1.5001092
28.97269056097374	2.2772312	1.5090498
28.990793197675597	2.3116229	1.5204022
29.00889657374923	2.357438	1.5353951
29.027000689737125	2.3391504	1.5294281
29.04510554618196	2.3529246	1.5339246
29.06321114362659	2.4192827	1.5554043
29.08131748261405	2.483157	1.5758036
29.099424563687567	2.5195649	1.5873138
29.11753238739057	2.537757	1.5930339
29.13564095426663	2.5182436	1.5868975
29.15375026485954	2.506183	1.5830928
29.171860319713275	2.5986924	1.612046
29.18997111937199	2.707167	1.645347
29.20808266438002	2.7284238	1.6517941
29.226194955281898	2.784191	1.6685895
29.244307992622335	2.852933	1.6890627
29.26242177694624	2.8670294	1.6932305
29.2805363087987	2.8345428	1.6836101
29.29865158872498	2.88323	1.6980077
29.316767617270557	2.951922	1.7181158
29.334884394981064	2.9652467	1.7219892
29.353001922402367	3.0341437	1.7418793
29.37112020008047	3.0714617	1.7525586
29.389239228561596	3.136177	1.7709255
29.407359008392152	3.3083582	1.8188893
29.42547954011872	3.6869977	1.9201556
29.44360082428809	4.2960534	2.0726924
29.46172286144722	5.2625856	2.2940326
29.479845652143283	6.9372287	2.633862
29.497969196923606	9.078358	3.0130312
29.516093496335728	11.550125	3.3985474
29.5342185509274	14.3484	3.787928
29.55234436124651	16.766241	4.0946603
29.570470927841175	18.256823	4.2728004
29.588598251259686	17.999662	4.242601
29.60672633205055	16.585558	4.072537
29.624855170762405	14.418694	3.7971954
29.642984767944146	11.7017765	3.420786
29.66111512414481	9.001883	3.0003138
29.67924623991366	6.705251	2.58945
29.697378115800138	5.1959915	2.2794719
29.71551075235387	4.2091236	2.0516148
29.733644150124675	3.7147212	1.9273612
29.751778309662576	3.4401648	1.8547682
29.769913231517766	3.3720284	1.8363084
29.78804891624066	3.3706794	1.835941
29.806185364381818	3.2922795	1.814464
29.82432257649206	3.2792645	1.810874
29.842460553122333	3.2965693	1.8156457
29.86059929482382	3.3353927	1.8263057
29.878738802147872	3.3243868	1.8232901
29.896879075646048	3.2958689	1.8154528
29.915020115870114	3.3044393	1.8178117
29.933161923371976	3.401962	1.8444408
29.951304498703777	3.4506674	1.8575972
29.969447842417857	3.4009693	1.8441716
29.987591955066733	3.393206	1.8420657
30.005736837203123	3.3621645	1.8336205
30.023882489379943	3.325086	1.8234819
30.04202891215028	3.2440054	1.8011123
30.060176106067455	3.1539698	1.775942
30.078324071684946	3.1092257	1.7632997
30.09647280955646	3.2003417	1.7889498
30.114622320235863	3.1772623	1.7824876
30.132772604277257	3.075581	1.7537335
30.1509236622349	3.0590432	1.7490121
30.16907549466328	3.133876	1.7702757
30.18722810211705	3.1214218	1.7667546
30.205381485151097	3.0870469	1.7569994
30.22353564432045	3.1199682	1.7663431
30.241690580180403	3.0758588	1.7538127
30.25984629328638	2.9751625	1.7248659
30.278002784194037	2.9961529	1.7309399
30.296160053459246	3.050162	1.7464713
30.314318101638033	3.0323834	1.741374
30.332476929286646	2.9940581	1.7303346
30.35063653696153	2.9662123	1.7222695
30.368796925219307	2.8981488	1.702395
30.386958094616844	2.9619253	1.7210245
30.40512004571115	2.9838254	1.7273753
30.423282779059463	2.9440148	1.7158132
30.441446295219233	2.870878	1.6943666
30.459610594748067	2.863501	1.6921883
30.47777567820382	2.8518786	1.6887506
30.495941546144504	2.880729	1.697271
30.51410819912835	2.9018803	1.7034906
30.532275637713795	2.86247	1.6918836
30.55044386245946	2.8896706	1.6999031
30.56861287392416	2.8647969	1.692571
30.586782672666956	2.8899512	1.6999856
30.604953259247047	2.8719532	1.6946838
30.623124634223885	2.795654	1.6720209
30.641296798157075	2.76114	1.6616678
30.659469751606462	2.8136144	1.6773832
30.677643495132074	2.8808377	1.697303
30.695818029294152	2.8412666	1.6856058
30.713993354653116	2.7801566	1.6673802
30.73216947176962	2.7242823	1.65054
30.75034638120448	2.6565366	1.6298885
30.768524083518756	2.678381	1.6365759
30.786702579273673	2.7837052	1.6684439
30.80488186903069	2.8341255	1.6834861
30.82306195335144	2.981523	1.7267088
30.841242832797782	3.1388874	1.7716906
30.85942450793176	3.4288237	1.8517083
30.877606979315637	3.8091779	1.9517115
30.895790247511883	4.1721554	2.0425854
30.913974313083134	4.502383	2.121882
30.932159176592283	4.791727	2.1890013
30.95034483860237	4.925365	2.2193162
30.968531299676698	4.778873	2.1860633
30.98671856037873	4.359951	2.0880497
31.00490662127215	3.9807994	1.9951941
31.023095482920848	3.586477	1.8937997
31.04128514588892	3.128103	1.7686445
31.059475610740662	2.7811747	1.6676854
31.07766687804056	2.5837238	1.6073966
31.09585894835335	2.4903984	1.5780996
31.11405182224393	2.380436	1.5428661
31.132245500277417	2.4021776	1.549896
31.15043998301914	2.4311755	1.5592227
31.168635271034628	2.490171	1.5780276
31.18683136488964	2.524067	1.5887313
31.20502826515008	2.4811337	1.5751615
31.223225972382135	2.4451778	1.5637064
31.241424487152155	2.4390795	1.5617553
31.259623810026692	2.4340813	1.5601543
31.27782394157253	2.4197083	1.5555412
31.296024882356644	2.443422	1.5631449
31.314226632946237	2.4555378	1.5670155
31.332429193908684	2.4691582	1.5713555
31.350632565811598	2.551646	1.5973872
31.368836749222787	2.5457602	1.5955439
31.387041744710295	2.53964	1.5936248
31.40524755284232	2.5525331	1.597665
31.423454174187317	2.5862896	1.6081945
31.441661609313922	2.645743	1.6265739
31.459869858791002	2.575375	1.6047975
31.478078923187628	2.4595034	1.5682805
31.496288803073064	2.4170358	1.5546819
31.514499499016807	2.3972192	1.5482956
31.532711011588546	2.3564072	1.5350593
31.550923341358178	2.383128	1.5437382
31.56913648889584	2.3893683	1.5457581
31.587350454771844	2.3352354	1.5281477
31.605565239556732	2.3190491	1.5228424
31.62378084382127	2.385947	1.544651
31.641997268136382	2.397694	1.5484489
31.660214513073274	2.356508	1.5350922
31.67843257920331	2.256207	1.5020676
31.6966514670981	2.1954079	1.4816909
31.71487117732944	2.2636547	1.5045447
31.733091710469346	2.3427732	1.530612
31.751313067090052	2.3499649	1.5329595
31.769535247764008	2.3252363	1.5248725
31.787758253063878	2.3284206	1.5259163
31.805982083562526	2.2949045	1.5148942
31.824206739833024	2.259472	1.503154
31.84243222244869	2.2030482	1.4842669
31.860658531983013	2.16079	1.4699626
31.878885669009737	2.1477396	1.4655168
31.897113634102784	2.25882	1.5029372
31.91534242783632	2.3712568	1.5398886
31.933572050784694	2.3587546	1.5358238
31.951802503522508	2.3111067	1.5202324
31.970033786624548	2.3329134	1.5273877
31.988265900665834	2.3564534	1.5350744
32.006498846221575	2.3504198	1.5331079
32.02473262386724	2.2412274	1.4970729
32.04296723417845	2.202932	1.4842277
32.0612026777311	2.2216914	1.490534
32.07943895510129	2.2408354	1.496942
32.097676066865304	2.233883	1.4946179
32.115914013599685	2.2367444	1.495575
32.13415279588115	2.1920006	1.4805406
32.152392414286666	2.1606283	1.4699076
32.1706328693934	2.1315799	1.4599931
32.18887416177875	2.2229214	1.4909464
32.20711629202032	2.173418	1.4742517
32.225359260695924	2.1522384	1.4670509
32.243603068383614	2.2297857	1.4932467
32.26184771566166	2.294478	1.5147535
32.28009320310852	2.2390943	1.4963603
32.2983395313029	2.213228	1.4876921
32.31658670082372	2.1986065	1.4827698
32.33483471225012	2.0717285	1.43935
32.35308356616143	2.0708225	1.4390353
32.371333263137245	2.0714703	1.4392604
32.38958380375734	2.0919611	1.4463613
32.407835188601744	2.0966096	1.4479674
32.42608741825067	2.1154675	1.4544647
32.444340493284585	2.056532	1.4340613
32.46259441428416	1.9907302	1.4109324
32.48084918183028	1.9649416	1.4017638
32.49910479650405	1.9761393	1.4057522
32.51736125888683	2.0424662	1.4291488
32.53561856956014	2.156804	1.4686061
32.5538767291058	2.1882126	1.4792608
32.572135738105764	2.06816	1.4381099
32.59039559714228	1.9623849	1.4008515
32.608656306797776	1.939614	1.3927003
32.62691786765491	2.0455596	1.4302306
32.645180280296586	2.1341426	1.4608705
32.663443545305896	2.1833065	1.4776016
32.68170766326619	2.0610943	1.4356512
32.69997263476099	2.0400138	1.4282905
32.7182384603741	2.1040902	1.4505483
32.7365051406895	2.1221902	1.4567739
32.75477267629144	2.1376064	1.4620556
32.77304106776434	2.0850294	1.443963
32.79131031569289	1.9934442	1.4118938
32.809580420661966	1.8589585	1.3634362
32.827851383256714	1.8755682	1.3695139
32.84612320406245	1.9610488	1.4003745
32.86439588366476	1.9646562	1.401662
32.88266942264945	2.0127456	1.4187126
32.9009438216025	2.093249	1.4468066
32.9192190811102	2.0788536	1.441823
32.937495201758985	2.0106494	1.4179738
32.95577218413556	1.9331111	1.3903637
32.974050028826866	1.8677942	1.3666726
32.992328736420035	1.8625675	1.3647592
33.010608307502444	1.8831022	1.3722616
33.02888874266169	1.9380286	1.392131
33.047170042485604	1.9588835	1.3996012
33.06545220756225	2.0031412	1.4153237
33.083735238479896	2.0390213	1.427943
33.10201913582707	2.0545945	1.4333857
33.12030390019248	2.0534475	1.4329855
33.138589532165135	2.0116348	1.4183211
33.15687603233419	1.9373026	1.3918701
33.17516340128909	1.9482613	1.3958013
33.19345163961947	1.9124749	1.3829225
33.211740747915215	1.9282701	1.3886217
33.23003072676643	1.944073	1.3943002
33.248321576763466	1.9473693	1.3954817
33.266613298496885	1.9339316	1.3906587
33.28490589255747	1.9703511	1.403692
33.30319935953626	2.0215905	1.4218265
33.32149370002451	1.9713964	1.4040643
33.339788914613706	1.9881806	1.4100286
33.358085003895575	2.0744786	1.440305
33.376381968462034	2.0962687	1.4478496
33.39467980890529	1.9737152	1.4048897
33.41297852581774	1.9191302	1.3853267
33.43127811979204	1.9295228	1.3890727
33.44957859142105	1.9804753	1.4072936
33.467879941297866	1.9676245	1.4027205
33.486182170015844	1.9564897	1.3987458
33.50448527816853	1.979296	1.4068745
33.522789266349754	1.8548055	1.3619125
33.541094135153514	1.8863667	1.3734506
33.55939988517411	1.993973	1.4120811
33.57770651700602	1.9461932	1.3950603
33.59601403124398	1.8802321	1.3712156
33.61432242848296	1.9393446	1.3926035
33.632631709318154	1.9966949	1.4130446
33.650941874344994	2.0005963	1.4144244
33.66925292415916	2.0140276	1.4191644
33.68756485935654	2.0933683	1.4468477
33.70587768053328	2.057558	1.434419
33.724191388285746	2.0791342	1.4419203
33.74250598321054	2.209273	1.4863623
33.760821465904506	2.0997741	1.4490597
33.77913783696474	2.0062096	1.4164073
33.79745509698852	1.9783225	1.4065285
33.815773246573414	1.9853934	1.4090399
33.8340922863172	1.9488987	1.3960296
33.852412216817896	2.0056815	1.4162209
33.87073303867377	2.0631626	1.4363713
33.889054752483304	2.0028899	1.4152349
33.907377358845245	1.9503555	1.3965513
33.92570085835853	2.0004606	1.4143764
33.94402525162239	2.0542986	1.4332825
33.96235053923627	1.949573	1.3962711
33.980676721799824	1.8759761	1.3696628
33.999003799912984	1.8710301	1.367856
34.01733177417592	1.944547	1.3944702
34.03566064518901	1.9862922	1.4093589
34.0539904135529	1.9813242	1.4075952
34.07232107986846	2.0255063	1.4232029
34.090652644736785	2.0618045	1.4358985
34.108985108759235	1.9474074	1.3954954
34.12731847253742	1.8427277	1.3574711
34.14565273667313	1.7939594	1.3393877
34.16398790176847	1.840879	1.35679
34.18232396842574	1.8402963	1.3565753
34.20066093724749	1.8921492	1.3755542
34.21899880883651	1.9775518	1.4062545
34.23733758379583	2.0033405	1.4153941
34.25567726272874	1.979536	1.4069599
34.27401784623872	1.8925562	1.375702
34.29235933492957	1.8468845	1.3590013
34.31070172940526	1.9381502	1.3921746
34.32904503027003	2.0403316	1.4284017
34.347389238128386	2.2279801	1.492642
34.36573435358502	2.2217736	1.4905615
34.38408037724492	2.0497205	1.4316845
34.402427309713296	1.9785619	1.4066136
34.42077515159559	2.005949	1.4163153
34.43912390349752	1.934986	1.3910377
34.45747356602499	1.9030046	1.3794943
34.47582413978423	1.9805287	1.4073126
34.49417562538163	2.0263731	1.4235073
34.51252802342388	2.0328345	1.425775
34.53088133451789	2.0375478	1.427427
34.54923555927084	2.0356371	1.4267576
34.567590698290104	1.9954659	1.4126096
34.58594675218336	2.0488975	1.4313971
34.6043037215585	2.0807633	1.4424851
34.62266160702365	1.95359	1.3977089
34.641020409187234	1.7619343	1.3273787
34.65938012865785	1.8256491	1.3511659
34.677740766044394	1.8178028	1.3482592
34.69610232195598	1.786951	1.3367689
34.714464797002016	1.7352481	1.3172882
34.73282819179208	1.9273205	1.3882797
34.751192506936064	2.1109083	1.4528965
34.76955774304408	2.1332688	1.4605714
34.7879239007265	2.119988	1.4560179
34.80629098059391	2.1022444	1.4499118
34.824658983257194	1.9869585	1.4095951
34.843027909327446	1.9091836	1.3817321
34.86139775941603	1.9800907	1.407157
34.879768534134534	2.029083	1.4244589
34.89814023409483	2.0682135	1.4381285
34.91651285990901	1.9529105	1.3974657
34.93488641218944	2.0086656	1.417274
34.95326089154871	2.0843017	1.443711
34.97163629859967	1.9500314	1.3964353
34.99001263395542	1.9338253	1.3906205
35.00838989822934	1.972896	1.4045981
35.02676809203499	1.9140457	1.3834904
35.04514721598624	1.7737792	1.331833
35.063527270697215	1.8208561	1.349391
35.081908256782256	1.8303689	1.3529112
35.10029017485597	1.8869907	1.3736777
35.11867302553321	1.8942591	1.3763208
35.137056809429104	1.7780111	1.3334209
35.155441527159006	1.8499007	1.3601105
35.173827179338524	1.9752655	1.4054414
35.19221376658354	1.746817	1.3216721
35.21060128951017	1.8682816	1.366851
35.2289897487348	2.085458	1.4441115
35.24737914487405	1.9919177	1.4113531
35.26576947854479	1.9394267	1.392633
35.28416075036418	1.9927351	1.4116427
35.30255296094958	2.0220153	1.4219759
35.32094611091867	1.8197819	1.348993
35.33934020088932	1.9190218	1.3852876
35.35773523147969	2.2168145	1.4888971
35.3761312033082	2.375975	1.5414197
35.394528116993506	2.321141	1.5235292
35.41292597315452	2.4407752	1.562298
35.431324772410434	2.5250614	1.5890442
35.449724515380666	2.3292518	1.5261886
35.46812520268491	2.0745285	1.4403224
35.486526834943106	1.7481004	1.3221575
35.504929412775454	1.6211101	1.2732282
35.52333293680242	1.9593914	1.3997827
35.54173740764471	2.2911017	1.5136386
35.560142825923286	1.7402917	1.3192011
35.5785491922594	1.3201406	1.1489737
35.59695650727454	1.4540043	1.205821
35.61536477159042	2.1756063	1.4749936
