0.008763373481513119	0.051685803	0.22734512
0.026290120649546365	0.18429624	0.4292974
0.043816868432600686	0.12367553	0.35167533
0.06134361724069026	0.08536854	0.29217896
0.07887036748382949	0.09605831	0.30993274
0.0963971195720331	0.17440528	0.41761857
0.11392387391531617	0.16678838	0.40839735
0.1314506309236943	0.1835247	0.42839783
0.1489773910071836	0.10970751	0.33122125
0.16650415457580078	0.12884404	0.35894853
0.18403092203956356	0.0764409	0.27647948
0.20155769380849	0.06096081	0.24690244
0.2190844702925996	0.09713466	0.31166434
0.2366112519019124	0.22025008	0.46930808
0.2541380390464497	0.2580232	0.50795984
0.27166483213623416	0.2089869	0.45715085
0.28919163158128947	0.16291285	0.40362462
0.3067184377916406	0.19483143	0.44139713
0.324245251177314	0.20949173	0.45770267
0.34177207214833777	0.15969355	0.39961675
0.3592989011147415	0.17699906	0.42071256
0.37682573848655654	0.2061385	0.4540248
0.39435258467381573	0.2698972	0.5195163
0.41187944008655414	0.25211674	0.50211227
0.42940630513480854	0.19331995	0.43968165
0.446933180228618	0.16488434	0.40605953
0.4644600657780234	0.16748577	0.40925026
0.48198696219306775	0.16792797	0.40979016
0.49951386988379676	0.14868146	0.38559234
0.5170407892602581	0.11606016	0.34067604
0.5345677207325025	0.11409912	0.3377856
0.5520946647105822	0.119449735	0.345615
0.5696216216045534	0.14841011	0.38524032
0.5871485918244737	0.13946211	0.37344626
0.6046755757804043	0.16084187	0.40105096
0.6222025738824094	0.17412134	0.4172785
0.6397295865405557	0.1829294	0.42770246
0.6572566141649129	0.16944978	0.4116428
0.6747836571655547	0.1544392	0.39298752
0.6923107159525568	0.14226945	0.3771862
0.7098377909359992	0.15807176	0.39758238
0.7273648825259653	0.16841769	0.41038725
0.7448919911325411	0.22046775	0.46953994
0.762419117165817	0.23564386	0.4854316
0.7799462610358868	0.21588606	0.4646354
0.7974734231528482	0.18173908	0.42630866
0.8150006039268024	0.19784704	0.4448
0.8325278037678551	0.21476607	0.46342862
0.8500550230861152	0.22074123	0.46983105
0.8675822622916969	0.20872527	0.45686463
0.8851095217947171	0.21977346	0.4688
0.9026368020052984	0.21450093	0.46314245
0.9201641033335665	0.20697749	0.45494777
0.9376914261896523	0.2244622	0.4737744
0.9552187709836915	0.248187	0.4981837
0.9727461381258234	0.28022635	0.5293641
0.990273528026193	0.2771311	0.52643245
1.0078009410949496	0.24648099	0.4964685
1.0253283777422473	0.23252092	0.48220423
1.0428558383782454	0.25650743	0.5064656
1.0603833234131086	0.27855882	0.52778673
1.0779108332570058	0.34855816	0.5903881
1.0954383683201119	0.3685118	0.60705173
1.112965929012607	0.42097887	0.64882886
1.1304935157446763	0.53004384	0.7280411
1.1480211289265108	0.55582154	0.7455344
1.1655487689683062	1.427911	1.1949524
1.1830764362802655	1.7329755	1.3164253
1.200604131272596	2.1330612	1.4605004
1.2181318543555117	2.4118507	1.5530134
1.235659605939232	2.519735	1.5873673
1.253187386433982	4.1645737	2.0407288
1.270715196249994	6.729491	2.5941262
1.2882430357975057	12.371354	3.5172937
1.3057709054867608	17.392282	4.1704054
1.3232988057280106	23.31472	4.8285317
1.3408267369315112	27.886257	5.280744
1.358354699507526	31.429615	5.606212
1.3758826938663256	35.29476	5.9409394
1.3934107204181858	37.53734	6.1267724
1.410938779573391	38.204777	6.181001
1.4284668717422309	38.95147	6.2411113
1.4459949973350033	38.691998	6.220289
1.4635231567620117	38.53786	6.207887
1.4810513504335687	37.50226	6.1239085
1.4985795787599925	36.64353	6.05339
1.5161078421516088	36.09272	6.007722
1.5336361410187505	35.26335	5.9382954
1.5511644757717598	35.062794	5.9213843
1.5686928468209842	35.514843	5.959433
1.58622125457678	36.264797	6.022026
1.6037496994495108	37.570843	6.129506
1.621278181849548	37.444313	6.119176
1.6388067021872719	38.087776	6.1715293
1.6563352608730693	37.49856	6.123607
1.673863858317336	36.76905	6.063749
1.6913924949304753	36.030308	6.0025253
1.7089211711228998	34.853176	5.903658
1.7264498873050296	33.810493	5.814679
1.7439786438872935	33.12913	5.755791
1.7615074412801288	31.919115	5.6497006
1.779036279893981	31.228928	5.588285
1.796565160139305	30.097988	5.486163
1.814094082426564	29.601763	5.44075
1.8316230471662298	29.084608	5.393015
1.849152054768784	28.401379	5.329294
1.8666811056447168	27.921635	5.2840924
1.8842102002045273	26.899426	5.1864657
1.901739338858724	26.512728	5.149051
1.9192685220178245	25.795595	5.0789366
1.9367977500923557	25.135557	5.0135374
1.9543270234928547	24.48658	4.9483914
1.971856342629867	23.983625	4.897308
1.9893857079139496	23.542751	4.8520875
2.006915119755667	23.068298	4.802947
2.0244445785655945	22.50376	4.7438126
2.0419740847543175	22.068262	4.6976867
2.0595036387324317	21.58277	4.6457257
2.0770332409105414	21.293215	4.614457
2.094562891699263	20.776321	4.558105
2.1120925915092217	20.30074	4.5056343
2.129622340751053	19.867071	4.457249
2.1471521398354043	187.93611	13.70898
2.1646819891729323	444.11505	21.074038
2.182211889174303	440.36978	20.98499
2.1997418402501974	452.94745	21.282562
2.2172718428113023	432.82968	20.80456
2.234801897268317	320.71652	17.90856
2.2523320040319548	17.15331	4.1416554
2.269862163512935	16.924967	4.1139965
2.287392376121992	16.558027	4.0691557
2.304922642269869	16.217695	4.02712
2.322452962367322	16.057163	4.007139
2.3399833368251164	15.696417	3.9618704
2.357513766054032	15.643558	3.9551938
2.3750442504648586	15.20894	3.899864
2.3925747904683963	14.931361	3.864112
2.410105386475459	14.6248665	3.8242471
2.4276360388968707	14.339223	3.7867167
2.445166748143469	14.054103	3.7488801
2.4626975146261025	13.876697	3.725144
2.4802283387556323	13.785681	3.7129073
2.4977592209429305	13.829863	3.7188523
2.5152901615988825	13.613098	3.6895933
2.5328211611343865	13.187568	3.631469
2.5503522199603523	12.83734	3.5829234
2.5678833384877024	12.622763	3.5528529
2.5854145171273712	12.42071	3.5243027
2.6029457562903064	12.261446	3.5016348
2.620477056387469	12.176641	3.4895046
2.6380084178298326	11.874499	3.4459395
2.655539841028383	11.660021	3.4146774
2.673071326394119	11.409486	3.377793
2.6906028743380523	11.066455	3.3266282
2.708134485271211	11.026756	3.320656
2.7256661596046325	10.869299	3.296862
2.743197897749369	10.818955	3.289218
2.760729700116486	10.730583	3.2757568
2.778261567117063	10.520722	3.2435663
2.795793499162193	10.314802	3.2116666
2.8133254966629817	10.209669	3.1952572
2.830857560030551	10.122167	3.1815352
2.8483896896760337	9.957707	3.1555836
2.865921886010578	9.699206	3.1143548
2.883454149445347	9.57658	3.094605
2.9009864803915177	9.455522	3.0749831
2.91851887926028	9.390515	3.0643947
2.9360513464628384	9.254318	3.0420911
2.953583882410413	9.224288	3.0371513
2.9711164875142373	9.137134	3.0227692
2.9886491621855606	8.919549	2.9865613
3.0061819068356455	8.655969	2.9421027
3.023714721875769	8.517177	2.9184203
3.041247607717225	8.512346	2.9175925
3.0587805647713213	8.503397	2.9160585
3.0763135934493806	8.418243	2.9014208
3.0938466941627407	8.318862	2.8842437
3.1113798673227544	8.127097	2.8508065
3.1289131133407904	7.963183	2.8219113
3.1464464326282315	7.7277	2.779874
3.1639798255964786	7.6491985	2.7657185
3.1815132926569443	7.5307746	2.7442257
3.1990468342210603	7.5217266	2.7425766
3.216580450700272	7.460387	2.731371
3.2341141425060416	7.493606	2.737445
3.251647910049847	7.382237	2.7170272
3.2691817537431813	7.3166933	2.7049387
3.286715673997555	7.1534133	2.6745865
3.3042496712244938	7.103907	2.6653156
3.32178374583554	6.990794	2.644011
3.339317898242251	6.944444	2.6352313
3.3568521288562034	6.8714237	2.62134
3.3743864380889876	6.8460565	2.616497
3.3919208263522127	6.8305163	2.6135256
3.4094552940575023	6.818851	2.611293
3.4269898416164972	6.588805	2.5668669
3.444524469440858	6.533537	2.5560784
3.4620591779422587	6.5255733	2.5545201
3.479593967532391	6.5120077	2.5518637
3.4971288386229658	6.544585	2.5582387
3.5146637916257086	6.4840884	2.5463874
3.5321988269523628	6.475073	2.5446165
3.5497339450146903	6.496559	2.5488348
3.5672691462244708	6.4254794	2.534853
3.5848044309934988	6.3596096	2.5218267
3.60233979973359	6.3018975	2.510358
3.619875252856575	6.224694	2.4949336
3.6374107907743034	6.2362247	2.4972434
3.6549464138986427	6.2502723	2.5000544
3.6724821226414788	6.235517	2.4971018
3.690017917414714	6.209395	2.4918656
3.7075537986302702	6.2682576	2.5036488
3.7250897667000857	6.3579445	2.5214965
3.7426258220361235	6.5616508	2.5615718
3.7601619650503553	6.870989	2.621257
3.777698196154779	7.3365836	2.708613
3.7952345157614067	8.260441	2.8740983
3.8127709242822716	9.00538	3.0008965
3.830307422129425	11.031788	3.3214135
3.847844009714936	29.79176	5.458183
3.8653806874508954	97.25094	9.861589
3.882917455749409	96.62741	9.829925
3.900454315022606	96.6147	9.829278
3.917991265682631	41.287483	6.425534
3.9355283081416506	11.052211	3.3244865
3.9530654428118495	8.925155	2.9874997
3.970602670105433	7.664795	2.7685366
3.9881399904346244	6.636418	2.5761247
4.005677404211669	6.50774	2.5510273
4.023214911848827	6.4283643	2.5354218
4.0407525137583855	6.5082483	2.551127
4.058290210352644	6.5009136	2.5496888
4.075828002043927	6.352544	2.5204253
4.0933658892445814	6.2885633	2.5077007
4.110903872366966	6.2123737	2.4924634
4.128441951823468	6.2110453	2.4921968
4.145980128026488	6.2034483	2.4906723
4.163518401388452	6.196775	2.4893322
4.181056772321807	6.1556525	2.4810588
4.1985952412390155	6.1514635	2.4802144
4.216133808552567	6.1231465	2.4744992
4.233672474674966	6.1411724	2.478139
4.251211240018741	6.305042	2.5109842
4.268750104996445	6.6501813	2.5787945
4.286289070020643	7.671241	2.7697005
4.303828135503928	9.476986	3.0784714
4.3213673018589125	29.85593	5.464058
4.3389065694982305	91.10855	9.54508
4.356445938834537	166.15634	12.890164
4.3739854102805085	172.09172	13.118374
4.391524984248844	173.01099	13.153364
4.409064661152262	137.06517	11.707483
4.426604441403504	97.118	9.854846
4.444144325415337	75.69962	8.700553
4.461684313600543	21.73829	4.662434
4.47922440637193	21.995115	4.689895
4.496764604142329	20.430984	4.520065
4.5143049073245916	18.683666	4.3224607
4.531845316331589	16.579632	4.0718093
4.5493858315762195	13.866066	3.7237167
4.566926453471405	11.481383	3.388419
4.584467182430081	9.527203	3.0866168
4.602008018865218	8.364582	2.8921587
4.619548963189798	7.6040344	2.7575414
4.637090015816834	7.009494	2.6475449
4.654631177159353	6.7796535	2.6037767
4.672172447630417	6.5544934	2.5601745
4.689713827643102	6.4034967	2.530513
4.7072553176105085	6.1874824	2.4874651
4.724796917945764	5.99357	2.4481769
4.742338629062015	5.8867574	2.426264
4.759880451372434	5.8618045	2.4211164
4.777422385290215	5.792934	2.4068515
4.794964431228581	5.7332635	2.3944235
4.812506589600768	5.692522	2.3859007
4.830048860820047	5.6636934	2.3798516
4.847591245299709	5.66118	2.3793235
4.8651337434530655	5.6487336	2.3767064
4.882676355693457	5.606995	2.3679094
4.900219082434242	5.5538034	2.3566508
4.917761924088813	5.542616	2.3542762
4.935304881070575	5.5242343	2.350369
4.952847953792969	5.530869	2.35178
4.970391142669449	5.452949	2.335155
4.9879344481135055	5.483398	2.3416657
5.005477870538642	5.495276	2.3442006
5.023021410358394	5.4508286	2.334701
5.040565067986324	5.4441895	2.3332787
5.05810884383601	5.4269733	2.3295865
5.075652738321066	5.446071	2.3336818
5.09319675185512	5.4917483	2.343448
5.110740884851836	5.509225	2.3471737
5.128285137724894	5.4773445	2.3403728
5.145829510888007	5.4673805	2.338243
5.163374004754908	5.390004	2.3216383
5.1809186197393595	5.372905	2.3179526
5.198463356255145	5.383658	2.320271
5.216008214716077	5.385242	2.3206124
5.233553195535998	5.367493	2.316785
5.251098299128764	5.352351	2.313515
5.268643525908272	5.359485	2.315056
5.286188876288432	5.4256577	2.3293042
5.3037343506831895	5.436461	2.331622
5.32127994950651	5.3647213	2.316187
5.3388256731723915	5.3095994	2.304257
5.356371522094851	5.2614317	2.293781
5.373917496687938	5.3106756	2.3044903
5.391463597365729	5.3704505	2.3174233
5.40900982454232	5.3667836	2.316632
5.426556178631843	5.350172	2.3130438
5.444102660048449	5.250164	2.2913237
5.4616492692063225	5.3058996	2.303454
5.479196006519669	5.263834	2.2943046
5.496742872402727	5.2741017	2.2965412
5.514289867269756	5.212695	2.2831328
5.531836991535049	5.219682	2.2846625
5.549384245612924	5.2787766	2.2975588
5.566931629917724	5.2866926	2.299281
5.584479144863822	5.2991557	2.3019896
5.6020267908656205	5.2428837	2.2897344
5.619574568337545	5.1955147	2.2793672
5.637122477694054	5.194013	2.2790377
5.654670519349629	5.2114086	2.282851
5.672218693718784	5.2348046	2.2879696
5.689767001216059	5.278097	2.297411
5.707315442256021	5.3002563	2.3022285
5.724864017253266	5.266548	2.2948961
5.7424127266224225	5.2215366	2.2850683
5.75996157077814	5.241137	2.289353
5.777510550135105	5.163886	2.2724185
5.795059665108022	5.087643	2.2555804
5.812608916111639	5.1417046	2.2675326
5.830158303560715	5.246926	2.290617
5.847707827870055	5.3165174	2.3057575
5.86525748945448	5.425881	2.3293521
5.8828072887288485	5.5546436	2.3568292
5.900357226108044	5.6221757	2.3711128
5.917907302006979	5.5698056	2.3600435
5.9354575168406	6.029073	2.4554172
5.9530078710238765	6.599351	2.5689201
5.970558364971812	7.2218475	2.6873496
5.988108999099438	7.610302	2.7586775
6.005659773821818	8.095514	2.8452618
6.023210689554039	7.7517476	2.7841961
6.040761746711227	8.022865	2.8324664
6.058312945708531	7.401367	2.7205453
6.075864286961132	7.11092	2.6666307
6.093415770884244	6.5667534	2.5625677
6.1109673978931065	6.1473756	2.4793901
6.128519168402993	5.6382103	2.3744917
6.146071082829204	5.4815373	2.3412683
6.163623141587075	5.3316364	2.3090336
6.181175345091969	5.3023896	2.302692
6.198727693759281	5.1912975	2.278442
6.216280188004435	5.1349373	2.26604
6.233832828242885	5.000823	2.236252
6.251385614890126	5.0254936	2.2417612
6.268938548361669	5.039713	2.2449305
6.286491629073067	5.0556283	2.2484725
6.304044857439898	5.031812	2.24317
6.321598233877777	5.0071177	2.237659
6.339151758802344	4.9916677	2.234204
6.356705432629277	4.991041	2.2340639
6.37425925577428	5.0206	2.2406695
6.391813228653095	4.9549317	2.2259676
6.409367351681486	4.9732327	2.2300746
6.426921625275259	4.931529	2.2207046
6.44447604985025	4.9256964	2.219391
6.46203062582232	4.942478	2.2231686
6.47958535360737	5.007861	2.2378252
6.497140233621328	5.067308	2.251068
6.514695266280161	5.114625	2.2615538
6.532250451999859	5.1653485	2.2727404
6.549805791196454	5.1223946	2.2632709
6.567361284286002	5.0888615	2.2558506
6.584916931684597	5.076961	2.2532113
6.602472733808367	5.026954	2.2420871
6.6200286910734665	4.996699	2.2353296
6.637584803896092	5.003348	2.2368164
6.655141072692462	4.9631643	2.227816
6.672697497878842	4.9670715	2.2286928
6.690254079871514	4.83308	2.1984267
6.707810819086808	4.830909	2.197933
6.725367715941078	4.889959	2.2113252
6.742924770850719	4.9342084	2.2213078
6.760481984232151	4.99755	2.2355201
6.778039356501836	5.002631	2.2366562
6.795596888076266	4.996446	2.2352731
6.813154579371963	4.985935	2.232921
6.830712430805492	5.0414867	2.2453256
6.84827044279344	5.098539	2.2579944
6.865828615752445	5.11825	2.2623549
6.883386950099159	5.0989738	2.2580907
6.900945446250287	5.0353484	2.2439582
6.918504104622553	4.988924	2.23359
6.936062925632727	4.949381	2.2247205
6.953621909697607	4.9790583	2.2313805
6.971181057234028	5.0493636	2.247079
6.988740368658859	5.0634556	2.2502124
7.006299844389007	5.1884756	2.2778225
7.023859484841407	5.211133	2.2827907
7.041419290433036	5.278187	2.2974305
7.058979261580902	5.4371333	2.3317661
7.0765393987020495	5.7298017	2.3937004
7.094099702213559	6.1222124	2.4743104
7.111660172532549	6.4645452	2.542547
7.129220810076164	6.8191504	2.6113503
7.146781615261595	7.522444	2.7427075
7.16434258850606	7.808841	2.7944305
7.181903730226821	8.283639	2.8781312
7.1994650408411704	8.288361	2.8789513
7.217026520766437	8.34137	2.8881428
7.234588170419983	8.595783	2.9318566
7.252149990219215	8.600936	2.9327352
7.269711980581568	8.508723	2.9169717
7.2872741419245175	8.2418995	2.8708708
7.304836474665574	7.8071146	2.7941215
7.322398979222286	7.504027	2.739348
7.339961656012233	7.25647	2.6937835
7.357524505453039	6.931918	2.6328535
7.375087527962357	6.6418023	2.5771694
7.392650723957886	6.3619046	2.5222816
7.410214093857353	6.0501146	2.459698
7.427777638078528	5.8260975	2.413731
7.445341357039213	5.636536	2.374139
7.4629052511572525	5.5219193	2.3498764
7.480469320850524	5.503954	2.3460507
7.498033566536948	5.404832	2.3248293
7.5155979886344735	5.283958	2.298686
7.5331625875610975	5.185849	2.277246
7.550727363734844	5.1920633	2.27861
7.568292317573788	5.2068934	2.2818618
7.585857449496025	5.230851	2.2871053
7.603422759919705	5.152993	2.2700205
7.620988249263007	5.1092935	2.2603745
7.638553917944147	5.096391	2.2575188
7.656119766381391	5.1086373	2.2602296
7.673685794993023	5.136802	2.2664514
7.691252004197388	5.1875587	2.2776213
7.70881839441285	5.249485	2.2911754
7.726384966057826	5.306317	2.3035445
7.743951719550762	5.374233	2.3182392
7.761518655310149	5.3619757	2.315594
7.779085773754511	5.3327537	2.3092756
7.796653075302419	5.3225465	2.3070645
7.814220560372475	5.3499174	2.3129888
7.831788229383323	5.3821125	2.319938
7.8493560827536495	5.326246	2.307866
7.866924120902174	5.3132095	2.3050401
7.884492344247663	5.331078	2.3089128
7.9020607532089135	5.3160114	2.3056476
7.919629348204771	5.3982015	2.323403
7.937198129654115	5.379886	2.3194582
7.954767097975865	5.323062	2.307176
7.972336253588986	5.2694697	2.2955325
7.989905596912472	5.258111	2.2930572
8.007475128365371	5.383735	2.3202877
8.025044848366756	5.4951067	2.3441644
8.042614757335754	5.676575	2.3825564
8.060184855691523	5.704154	2.3883371
8.07775514385327	5.7983127	2.4079685
8.095325622240228	5.8134384	2.4111073
8.112896291271687	5.8109145	2.410584
8.130467151366968	5.9098067	2.4310093
8.148038202945436	5.8984165	2.4286656
8.165609446426497	5.9597697	2.441264
8.183180882229594	5.9515843	2.4395869
8.200752510774217	5.8860636	2.426121
8.218324332479893	5.892799	2.4275088
8.235896347766193	5.933114	2.4357984
8.253468557052724	6.0369143	2.4570134
8.27104096075914	6.085475	2.4668756
8.288613559305137	6.1329937	2.476488
8.306186353110448	6.152702	2.480464
8.32375934259485	6.2370014	2.4973989
8.341332528178162	6.2377467	2.497548
8.358905910280246	6.320374	2.5140355
8.376479489321003	6.276933	2.5053809
8.394053265720377	6.322589	2.5144758
8.411627239898356	6.2995453	2.5098896
8.42920141227497	6.2523804	2.5004761
8.44677578327029	6.2307696	2.496151
8.464350353304427	6.1629653	2.482532
8.48192512279754	6.1674733	2.48344
8.499500092169827	6.119679	2.4737985
8.51707526184153	6.135485	2.4769912
8.534650632232934	6.2383776	2.4976745
8.552226203764365	6.2793026	2.5058537
8.569801976856192	6.377075	2.5252872
8.587377951928834	6.394913	2.5288165
8.60495412940274	6.4000087	2.5298238
8.622530509698416	6.3939176	2.5286198
8.6401070932364	6.4918	2.5479012
8.657683880437283	6.5558043	2.5604305
8.675260871721695	6.771842	2.6022763
8.692838067510303	6.903555	2.6274617
8.710415468223834	7.02339	2.650168
8.727993074283043	7.0978255	2.6641746
8.745570886108737	7.0857697	2.661911
8.763148904121765	7.2033634	2.6839082
8.78072712874302	7.217246	2.6864932
8.798305560393441	7.4572845	2.730803
8.815884199494006	7.6296306	2.7621787
8.833463046465745	7.85442	2.802574
8.851042101729728	7.9694204	2.8230162
8.86862136570707	8.291589	2.8795118
8.886200838818924	8.3984785	2.8980129
8.903780521486505	8.426941	2.9029193
8.921360414131055	8.521362	2.9191372
8.938940517173874	8.627677	2.9372907
8.956520831036297	8.777611	2.9627032
8.97410135613971	9.037475	3.0062392
8.99168209290554	9.202794	3.0336108
9.009263041755265	9.49462	3.081334
9.026844203110405	9.746102	3.1218748
9.044425577392525	9.93268	3.1516154
9.062007165023239	10.040876	3.1687343
9.079588966424197	10.283607	3.2068062
9.097170982017108	10.357874	3.2183652
9.11475321222372	11.192517	3.345522
9.132335657465825	12.09348	3.4775681
9.149918318165264	12.132341	3.483151
9.167501194743924	12.788045	3.5760376
9.18508428762374	12.42298	3.5246248
9.202667597226693	12.380614	3.5186098
9.220251123974803	12.077474	3.475266
9.237834868290143	11.754569	3.4284937
9.255418830594836	11.49881	3.3909895
9.273003011311046	10.965732	3.3114545
9.290587410860985	10.757125	3.2798057
9.308172029666911	10.168659	3.1888335
9.32575686815113	9.934043	3.1518316
9.343341926735997	8.747051	2.9575415
9.360927205843916	8.53479	2.9214363
9.378512705897327	8.385019	2.8956897
9.396098427318728	8.216702	2.8664792
9.413684370530664	8.18587	2.861096
9.431270535955722	8.05402	2.8379605
9.448856924016539	7.9688797	2.8229203
9.466443535135806	7.793317	2.7916512
9.484030369736251	7.7458253	2.7831323
9.501617428240658	7.703338	2.7754889
9.519204711071852	7.730803	2.7804322
9.536792218652714	7.7424526	2.7825263
9.55437995140617	7.7757154	2.788497
9.571967909755191	7.8209114	2.7965891
9.589556094122802	7.8202553	2.7964718
9.60714450493207	7.965422	2.822308
9.624733142606116	8.006576	2.8295894
9.642322007568108	8.029029	2.833554
9.659911100241267	7.985561	2.8258734
9.677500421048851	8.013726	2.8308525
9.695089970414175	8.164095	2.8572881
9.712679748760609	8.196211	2.8629026
9.730269756511557	8.12944	2.8512173
9.747859994090492	8.061216	2.8392282
9.765450461920915	8.025395	2.832913
9.78304116042639	7.9847193	2.8257246
9.800632090030527	8.054106	2.8379757
9.81822325115699	8.096337	2.8454063
9.835814644229481	8.1723995	2.8587408
9.853406269671762	8.235976	2.869839
9.870998127907646	8.34404	2.888605
9.888590219360985	8.38279	2.8953047
9.906182544455698	8.365883	2.8923836
9.923775103615734	8.399483	2.8981862
9.941367897265108	8.395695	2.8975325
9.958960925827878	8.379423	2.8947234
9.97655418972816	8.26765	2.8753521
9.994147689390106	8.246117	2.8716052
10.011741425237934	8.207483	2.8648705
10.029335397695904	8.24532	2.8714666
10.04692960718833	8.254019	2.8729808
10.06452405413958	8.262761	2.874502
10.082118738974064	8.313414	2.883299
10.099713662116246	8.29979	2.8809357
10.117308823990651	8.350142	2.889661
10.134904225021844	8.345173	2.8888013
10.152499865634445	8.366572	2.8925028
10.170095746253125	8.354266	2.8903747
10.18769186730261	8.292132	2.8796062
10.205288229207675	8.300067	2.8809836
10.222884832393145	8.234923	2.8696556
10.2404816772839	8.212416	2.8657312
10.258078764304868	8.123117	2.8501084
10.275676093881035	8.0839	2.84322
10.293273666437438	8.06837	2.8404877
10.310871482399158	8.081994	2.8428848
10.32846954219134	8.040043	2.835497
10.346067846239173	8.085507	2.8435028
10.363666394967908	8.110763	2.84794
10.38126518880283	8.288216	2.878926
10.398864228169298	8.330572	2.8862731
10.416463513492713	8.296649	2.8803904
10.434063045198531	8.285451	2.8784459
10.451662823712262	8.246222	2.8716235
10.469262849459467	8.260575	2.8741217
10.486863122865758	8.164832	2.857417
10.504463644356806	8.051852	2.8375785
10.522064414358338	7.9406524	2.8179164
10.539665433296118	7.9581356	2.8210168
10.557266701595987	7.9457803	2.818826
10.574868219683818	7.916252	2.8135836
10.592469987985552	7.7863536	2.7904038
10.610072006927185	7.634008	2.762971
10.627674276934751	7.5237412	2.742944
10.64527679843435	7.3601594	2.7129614
10.662879571852143	7.2571597	2.6939116
10.680482597614331	7.186857	2.6808314
10.698085876147173	7.059667	2.6570034
10.715689407876988	6.9464717	2.635616
10.733293193230146	6.7646246	2.6008892
10.750897232633072	6.712064	2.590765
10.76850152651225	6.668882	2.5824177
10.786106075294207	6.6075125	2.5705082
10.803710879405534	6.491798	2.5479007
10.821315939272877	6.342258	2.518384
10.83892125532294	6.305877	2.5111506
10.856526827982472	6.3224654	2.5144513
10.874132657678285	6.3438087	2.5186918
10.891738744837243	6.2804794	2.5060885
10.909345089886271	6.152178	2.4803584
10.926951693252343	6.0640464	2.4625285
10.944558555362494	6.048298	2.4593287
10.96216567664381	6.041846	2.4580166
10.979773057523436	5.9822626	2.4458663
10.997380698428573	5.9066215	2.430354
11.014988599786477	5.8453526	2.4177165
11.032596762024461	5.8823943	2.4253647
11.050205185569892	5.820739	2.4126208
11.067813870850198	5.747284	2.3973494
11.085422818292859	5.629012	2.3725538
11.10303202832541	5.501595	2.345548
11.120641501375454	5.4682064	2.3384197
11.138251237870636	5.3746605	2.3183315
11.155861238238671	5.2698646	2.2956185
11.173471502907317	5.1712694	2.2740426
11.191082032304402	5.169556	2.273666
11.208692826857805	5.1370525	2.2665067
11.226303886995465	5.0381002	2.2445712
11.243915213145371	4.968777	2.2290754
11.261526805735578	4.879496	2.2089581
11.279138665194196	4.822548	2.1960301
11.296750791949393	4.7888217	2.1883376
11.314363186429393	4.8265233	2.196935
11.331975849062479	4.804495	2.1919158
11.34958878027699	4.7135916	2.1710808
11.36720198050133	4.616443	2.148591
11.384815450163948	4.6233215	2.150191
11.402429189693366	4.596932	2.1440456
11.420043199518153	4.5632935	2.1361866
11.437657480066942	63.538006	7.971073
11.455272031768422	85.229195	9.231966
11.472886855051353	107.58501	10.372319
11.490501950344528	99.119545	9.95588
11.508117318076819	84.44096	9.189177
11.52573295867715	45.814316	6.768627
11.543348872574514	4.1768975	2.043746
11.560965060197946	4.1101565	2.027352
11.57858152197655	4.060906	2.015169
11.59619825833949	4.037355	2.009317
11.613815269715985	4.0491257	2.012244
11.631432556535323	38.620605	6.214548
11.649050119226837	83.163795	9.119418
11.666667958219929	93.525116	9.670838
11.68428607394406	107.75943	10.380724
11.701904466828756	82.55669	9.086071
11.719523137303586	65.39237	8.0865555
11.737142085798196	4.645908	2.1554368
11.754761312742286	3.7408812	1.9341358
11.772380818565619	3.6644714	1.9142809
11.790000603698015	3.5760968	1.891057
11.80762066856935	3.5412538	1.881822
11.825241013609572	3.577148	1.891335
11.842861639248683	3.5753908	1.8908703
11.860482545916748	3.5512736	1.8844823
11.878103734043883	3.4993167	1.8706461
11.895725204060282	3.4556568	1.8589396
11.91334695639619	3.4325855	1.8527238
11.930968991481919	3.3881273	1.8406867
11.948591309747824	3.3723285	1.8363901
11.966213911624347	3.374633	1.8370174
11.98383679754198	3.376015	1.8373935
12.001459967931268	3.3868144	1.84033
12.019083423222835	3.3408272	1.827793
12.036707163847352	3.2760618	1.8099895
12.05433119023556	3.2040582	1.7899883
12.071955502818259	3.1605628	1.7777972
12.089580102026313	3.1557095	1.7764317
12.107204988290643	3.1186116	1.7659591
12.12483016204224	3.1186821	1.765979
12.142455623712152	3.1082613	1.7630262
12.16008137373149	3.1229157	1.7671773
12.177707412531431	3.1203141	1.7664411
12.19533374054321	3.1293821	1.769006
12.212960358198126	3.1143825	1.7647613
12.230587265927545	3.1372945	1.771241
12.248214464162889	3.1003287	1.760775
12.265841953335649	3.080514	1.7551394
12.283469733877375	3.0347035	1.74204
12.301097806219685	3.0642412	1.7504975
12.31872617079425	3.0303898	1.7408015
12.336354828032825	2.9988055	1.7317059
12.353983778367205	2.9572802	1.7196745
12.371613022229262	2.9125142	1.706609
12.389242560050928	2.8910954	1.7003222
12.406872392264201	2.8273416	1.68147
12.424502519301143	2.825858	1.6810288
12.442132941593874	2.8459055	1.6869812
12.459763659574586	2.8564463	1.6901025
12.477394673675532	2.8648434	1.6925849
12.49502598432903	2.8411157	1.685561
12.51265759196746	2.8409843	1.685522
12.530289497023267	2.8504157	1.6883174
12.547921699928967	2.8593423	1.690959
12.565554201117134	2.8344555	1.6835841
12.583187001020404	2.8343697	1.6835586
12.600820100071486	2.8172731	1.6784735
12.618453498703152	2.7948198	1.6717714
12.636087197348235	2.7977438	1.6726458
12.65372119643964	2.7755587	1.6660008
12.671355496410326	2.7660463	1.6631435
12.68899009769333	2.808565	1.6758773
12.706625000721749	2.8479664	1.6875919
12.724260205928752	2.95304	1.7184411
12.741895713747551	2.9751232	1.7248546
12.759531524611454	3.0293288	1.7404968
12.777167638953818	2.9978192	1.7314211
12.794804057208072	2.9818654	1.7268078
12.812440779807702	3.010197	1.7349919
12.830077807186271	3.1891756	1.7858263
12.847715139777405	3.2254393	1.7959508
12.865352778014795	3.3893135	1.8410088
12.882990722332197	3.4752233	1.8641951
12.90062897316344	3.600319	1.8974507
12.918267530942412	3.761598	1.939484
12.935906396103071	3.6395257	1.9077541
12.953545569079449	3.780422	1.9443307
12.971185050305628	3.5881772	1.8942485
12.988824840215775	3.639793	1.9078242
13.006464939244115	3.6658602	1.9146436
13.024105347824943	3.512311	1.8741161
13.041746066392617	3.5819533	1.892605
13.05938709538157	3.3736172	1.8367409
13.077028435226296	3.3633046	1.8339314
13.094670086361363	3.248775	1.8024359
13.112312049221401	3.1694448	1.7802935
13.129954324241112	3.1053998	1.7622144
13.147596911855258	2.9036772	1.704018
13.165239812498685	2.898107	1.7023828
13.182883026606293	2.822901	1.6801491
13.200526554613058	2.7812543	1.6677094
13.218170396954017	2.7215195	1.6497028
13.235814554064284	2.72146	1.6496849
13.253459026379034	2.7533338	1.6593173
13.271103814333523	2.715557	1.6478947
13.288748918363058	2.695415	1.6417719
13.306394338903031	2.6993206	1.6429609
13.32404007638889	2.6884115	1.6396376
13.341686131256164	2.6967192	1.642169
13.359332503940449	2.6282406	1.621185
13.376979194877402	2.6028628	1.6133391
13.394626204502751	2.6077867	1.6148642
13.412273533252307	2.6470997	1.626991
13.429921181561937	2.6660008	1.6327893
13.447569149867581	2.724448	1.6505902
13.465217438605247	2.7871866	1.6694869
13.482866048211022	2.7671945	1.6634886
13.500514979121052	2.7359138	1.6540598
13.518164231771568	2.654645	1.6293081
13.535813806598844	2.6265635	1.6206676
13.553463704039254	2.606619	1.6145027
13.571113924529229	2.658445	1.6304739
13.588764468505275	2.685674	1.6388026
13.606415336403956	2.6957474	1.6418731
13.624066528661917	2.7085192	1.6457579
13.641718045715882	2.7646666	1.6627287
13.659369888002635	2.820701	1.6794943
13.67702205595903	2.8895638	1.6998717
13.694674550021993	2.974904	1.724791
13.712327370628532	3.0536873	1.7474803
13.729980518215713	3.1118195	1.764035
13.747633993220681	3.1632738	1.7785594
13.765287796080647	3.1839728	1.784369
13.7829419272329	3.2333896	1.7981628
13.800596387114801	3.3009024	1.8168386
13.818251176163775	3.312616	1.8200594
13.835906294817324	3.3444831	1.8287928
13.853561743513023	3.311576	1.8197736
13.871217522688525	3.3834898	1.8394265
13.888873632781538	3.4322615	1.8526363
13.906530074229858	3.4957561	1.8696941
13.92418684747135	3.4764092	1.8645132
13.941843952943948	3.4700158	1.8627979
13.959501391085665	3.4378824	1.8541528
13.977159162334578	3.3857641	1.8400446
13.994817267128846	3.3289104	1.8245301
14.012475705906693	3.2214088	1.7948284
14.030134479106424	3.1811306	1.7835724
14.047793587166414	3.126715	1.7682519
14.065453030525108	3.0765605	1.7540127
14.083112809621026	2.9766197	1.7252883
14.100772924892766	2.9371305	1.7138058
14.118433376778997	2.9218616	1.7093453
14.136094165718458	2.8956358	1.7016568
14.153755292149969	2.8382761	1.6847184
14.171416756512416	2.7262256	1.6511285
14.189078559244768	2.6359415	1.6235583
14.20674070078606	2.5693052	1.6029053
14.224403181575408	2.5360467	1.592497
14.242066002051999	2.495272	1.579643
14.259729162655093	2.4524894	1.5660425
14.277392663824022	2.4153075	1.554126
14.295056505998208	2.4239936	1.556918
14.312720689617128	2.4312649	1.5592514
14.330385215120348	2.4281	1.5582362
14.348050082947497	2.4372423	1.561167
14.3657152935383	2.4192123	1.5553818
14.383380847332528	2.3750737	1.5411274
14.401046744770051	2.358862	1.5358588
14.418712986290798	2.3528004	1.533884
14.436379572334793	2.3621085	1.5369153
14.454046503342123	2.3433006	1.5307842
14.471713779752946	2.3734777	1.5406095
14.489381402007504	2.3717155	1.5400375
14.507049370546113	2.4226043	1.5564717
14.524717685809168	2.4465413	1.5641423
14.542386348237134	2.4572802	1.5675714
14.560055358270553	2.440851	1.5623223
14.577724716350051	2.4461973	1.5640323
14.595394422916325	2.4340124	1.5601321
14.61306447841015	2.4877162	1.5772495
14.63073488327237	2.4949863	1.5795525
14.648405637943917	2.5095427	1.5841537
14.6660767428658	2.449841	1.5651968
14.683748198479094	2.503127	1.5821275
14.701420005224954	2.5504892	1.5970252
14.719092163544628	2.6588197	1.6305888
14.73676467387942	2.6859286	1.6388803
14.754437536670727	2.7047122	1.6446009
14.772110752360014	2.6831036	1.6380181
14.78978432138882	2.6500845	1.627908
14.807458244198777	2.6606429	1.6311477
14.82513252123159	2.6812367	1.6374482
14.842807152929028	2.7300408	1.6522835
14.860482139732962	2.729577	1.6521431
14.87815748208531	2.7190015	1.6489395
14.8958331804281	2.7185974	1.648817
14.91350923520342	2.7115211	1.6466697
14.931185646853438	2.6989698	1.6428542
14.948862415820408	2.6476836	1.6271704
14.966539542546656	2.677136	1.6361955
14.98421702747459	2.668425	1.6335315
15.001894871046696	2.6794734	1.6369097
15.019573073705542	2.651897	1.6284646
15.037251635893766	2.629335	1.6215224
15.054930558054092	2.6678302	1.6333494
15.072609840629323	2.7460194	1.6571118
15.090289484062351	2.9327176	1.7125179
15.107969488796124	3.2450087	1.8013908
15.125649855273691	3.6472871	1.9097872
15.14333058393817	4.1311646	2.0325267
15.161011675232768	5.140254	2.2672129
15.17869312960076	6.4561687	2.5408993
15.196374947485506	8.277384	2.8770442
15.214057129330447	11.342607	3.3678787
15.231739675579114	15.969762	3.9962184
15.249422586675102	20.75648	4.5559278
15.267105863062092	23.617046	4.8597374
15.284789505183847	23.577394	4.855656
15.302473513484218	21.29489	4.614639
15.320157888407127	17.728907	4.210571
15.337842630396578	13.877625	3.7252686
15.355527739896656	10.922342	3.3048968
15.37321321735153	8.637489	2.9389606
15.39089906320545	6.3971734	2.5292635
15.408585277902748	4.9093347	2.2157018
15.42627186188783	3.7998042	1.9493086
15.443958815605198	3.243514	1.8009759
15.461646139499424	2.9524586	1.718272
15.479333834015168	2.8444076	1.6865371
15.497021899597165	2.8221579	1.679928
15.514710336690234	2.8186398	1.6788805
15.53239914573928	2.7698934	1.6642997
15.550088327189297	2.6717243	1.634541
15.567777881485336	2.5842063	1.6075467
15.58546780907256	2.5251205	1.5890628
15.6031581103962	2.5198967	1.5874183
15.620848785901568	2.4666178	1.570547
15.638539836034063	2.4496498	1.5651357
15.656231261239173	2.4253504	1.5573536
15.673923061962451	2.4143963	1.5538328
15.691615238649552	2.4056177	1.5510054
15.709307791746202	2.4110937	1.5527697
15.727000721698221	2.4064744	1.5512816
15.744694028951498	2.4002037	1.5492591
15.76238771395202	2.4003246	1.549298
15.780081777145844	2.4159403	1.5543295
15.797776218979125	2.4183626	1.5551085
15.815471039898094	2.4070675	1.5514727
15.833166240349064	2.387194	1.5450547
15.850861820778437	2.3841112	1.5440568
15.868557781632699	2.3821197	1.5434117
15.886254123358412	2.405525	1.5509754
15.903950846402232	2.3894427	1.5457822
15.921647951210897	2.3847485	1.5442631
15.939345438231225	2.3547301	1.534513
15.957043307910133	2.3514113	1.5334312
15.974741560694602	2.3587966	1.5358374
15.992440197031714	2.3700745	1.5395046
16.01013921736862	2.3963184	1.5480046
16.02783862215259	2.4113352	1.5528475
16.045538411830933	2.4224746	1.5564301
16.06323858685107	2.4032555	1.5502437
16.080939147660512	2.4051657	1.5508597
16.09864009470684	2.4136703	1.5535991
16.11634142843774	2.4381642	1.5614622
16.134043149300954	2.425663	1.557454
16.15174525774433	2.3926697	1.5468256
16.169447754215817	2.3823915	1.5434997
16.18715063916342	2.4090812	1.5521215
16.204853913035244	2.4455864	1.563837
16.222557576279478	2.4661303	1.5703918
16.240261629344403	22.46402	4.739622
16.257966072678386	43.022808	6.5591774
16.275670906729868	38.108395	6.1731997
16.293376131947387	2.5029082	1.5820582
16.31108174877957	2.507698	1.5835713
16.328787757675133	2.524872	1.5889846
16.34649415908287	2.5294998	1.5904402
16.364200953451657	2.569687	1.6030242
16.38190814123048	2.590253	1.6094264
16.39961572286839	2.653591	1.6289846
16.41732369881455	2.7003975	1.6432886
16.43503206951817	2.7463777	1.6572199
16.45274083542859	2.7778208	1.6666796
16.47044999699522	2.8318906	1.6828222
16.488159554667558	2.8872306	1.6991853
16.505869508895184	2.9001994	1.7029972
16.523579860127786	2.9140184	1.7070496
16.541290608815117	2.949153	1.7173098
16.559001755407035	3.033743	1.7417643
16.57671330035348	3.064758	1.750645
16.59442524410448	3.0850298	1.7564253
16.61213758711015	3.155339	1.7763274
16.629850329820705	3.2097607	1.7915804
16.647563472686436	3.2539396	1.8038679
16.665277016157724	3.3109205	1.8195935
16.682990960685053	3.3760407	1.8374006
16.70070530671898	3.4800835	1.8654982
16.718420054710155	3.5210636	1.8764497
16.736135205109335	3.5789318	1.8918065
16.753850758367335	3.6559894	1.9120642
16.771566714935087	3.7016704	1.9239726
16.789283075263597	3.7339423	1.9323411
16.80699983980398	3.7496476	1.9364007
16.82471700900741	3.8246665	1.9556755
16.84243458332518	3.8935668	1.9732124
16.860152563208665	3.9375875	1.9843355
16.87787094910932	4.0190043	2.0047455
16.89558974147871	4.0956287	2.023766
16.913308940768466	4.1446266	2.0358355
16.931028547430333	4.1918187	2.047393
16.94874856191613	4.2716317	2.0667927
16.966468984677785	4.335748	2.082246
16.98418981616729	4.3502984	2.085737
17.00191105683676	4.395297	2.0964963
17.019632707138374	4.439808	2.1070852
17.03735476752442	4.474452	2.1152902
17.05507723844728	4.508148	2.12324
17.072800120359403	4.5840592	2.1410415
17.090523413713353	4.6305237	2.1518652
17.108247118961785	4.634497	2.1527882
17.125971236557437	4.6481285	2.155952
17.143695766953133	4.665934	2.1600773
17.161420710601806	4.7324853	2.1754277
17.179146067956477	4.713075	2.1709619
17.19687183947025	4.6694446	2.1608899
17.21459802559634	4.650443	2.1564887
17.232324626788028	4.672657	2.161633
17.25005164349871	4.6520405	2.156859
17.267779076181863	4.6061754	2.1462002
17.285506925291074	4.572181	2.1382658
17.30323519127999	4.5499315	2.1330569
17.320963874602384	4.5466533	2.1322882
17.33869297571211	4.53761	2.1301668
17.356422495063114	4.525794	2.1273913
17.37415243310944	4.512461	2.1242554
17.391882790305218	4.5262566	2.1275
17.40961356710468	4.5354238	2.1296535
17.42734476396215	4.5629835	2.1361141
17.445076381332044	4.548992	2.1328366
17.462808419668868	4.594623	2.1435072
17.48054087942723	4.687186	2.164991
17.498273761061835	4.9924593	2.2343812
17.51600706502747	5.5017357	2.345578
17.533740791779024	6.2551327	2.5010264
17.551474941771485	7.6087093	2.758389
17.56920951545993	8.612064	2.9346318
17.586944513299528	10.60105	3.2559254
17.60467993574556	12.133807	3.4833615
17.622415783253373	13.757258	3.7090778
17.64015205627843	15.071633	3.8822203
17.657888755276293	15.998597	3.9998245
17.675625880702604	16.46149	4.0572762
17.69336343301311	16.264208	4.032891
17.71110141266366	15.546394	3.9428916
17.728839820110178	14.682221	3.8317387
17.746578655808705	14.002347	3.741971
17.764317920215372	12.8121	3.5793993
17.7820576137864	11.474126	3.387348
17.79979773697811	9.470667	3.0774448
17.81753829024692	7.620377	2.760503
17.835279274049356	5.966941	2.4427323
17.85302068884201	4.9276175	2.2198238
17.870762535081607	4.207456	2.0512085
17.888504813224934	3.912032	1.9778857
17.90624752372891	3.7593184	1.9388962
17.923990667050536	3.6562128	1.9121226
17.941734243646895	3.5605536	1.8869429
17.959478253975185	3.5424254	1.8821332
17.9772226984927	3.4963908	1.8698639
17.994967577656833	3.4658391	1.8616765
18.01271289192506	3.3788044	1.8381524
18.030458641754965	3.3574514	1.832335
18.04820482760425	3.3213298	1.8224516
18.06595144993067	3.3394184	1.8274076
18.083698509192125	3.303516	1.8175577
18.101446005846576	3.2536683	1.8037927
18.119193940352105	3.214769	1.7929777
18.136942313166887	3.23264	1.7979544
18.1546911247492	3.2420778	1.800577
18.1724403755574	3.2303994	1.7973312
18.19019006604997	3.2105484	1.7918004
18.207940196685467	3.1984231	1.7884135
18.225690767922575	3.1491914	1.7745961
18.243441780220046	3.0939019	1.758949
18.261193234036764	3.064857	1.7506733
18.278945129831676	3.0189066	1.7375001
18.29669746806386	3.0188224	1.7374759
18.314450249192483	3.0225425	1.7385461
18.3322034736768	3.0400178	1.7435647
18.349957141976184	3.034958	1.742113
18.3677112545501	3.0370538	1.7427145
18.385465811858108	3.0569055	1.7484008
18.403220814359884	3.0461833	1.7453319
18.420976262515172	3.0443492	1.7448063
18.43873215678387	3.0486648	1.7460426
18.456488497625923	3.0991826	1.7604495
18.474245285501407	3.1842666	1.7844514
18.492002520870486	3.2746031	1.8095864
18.50976020419343	3.365944	1.8346509
18.527518335930615	3.6763258	1.9173747
18.545276916542516	4.21174	2.0522525
18.563035946489688	4.381712	2.0932539
18.580795426232832	4.854489	2.2032905
18.598555356232698	4.826602	2.1969528
18.616315736950185	5.173757	2.2745895
18.63407656884626	4.8525333	2.2028465
18.65183785238201	5.0741916	2.2525966
18.669599588018617	4.827873	2.1972423
18.68736177621737	4.801689	2.1912756
18.705124417439652	4.7850165	2.187468
18.72288751214696	4.5451245	2.1319299
18.740651060800886	4.6519966	2.1568487
18.758415063863115	4.35019	2.085711
18.77617952179546	4.506903	2.1229467
18.793944435059814	4.2546177	2.0626724
18.811709804118184	4.26263	2.0646138
18.829475629432675	4.2316923	2.0571077
18.8472419114655	4.066023	2.0164382
18.86500865067897	4.1728997	2.0427678
18.88277584753551	3.8079133	1.9513875
18.90054350249763	3.7516172	1.9369092
18.918311616027957	3.4440284	1.8558093
18.936080188589226	3.3682427	1.8352773
18.953849220644265	3.070464	1.7522739
18.971618712656007	2.8772798	1.6962546
18.9893886650875	2.8315494	1.6827208
19.007159078401887	8.011181	2.8304029
19.024929953062408	32.876476	5.7338014
19.042701289532435	32.82655	5.729446
19.060473088275405	25.405607	5.0403976
19.07824534975489	2.6726258	1.6348168
19.096018074434568	2.635506	1.6234242
19.113791262778197	2.601356	1.612872
19.13156491524966	2.5992315	1.6122133
19.149339032312945	2.6218712	1.6192193
19.167113614432136	2.6294303	1.6215519
19.184888662071433	2.6045873	1.6138734
19.202664175695123	2.549863	1.596829
19.220440155767623	2.5070884	1.5833788
19.238216602753447	2.5093687	1.5840987
19.2559935171172	2.4964178	1.5800056
19.27377089932361	2.5299976	1.5905966
19.291548749837514	2.5059328	1.5830139
19.309327069123835	2.4879386	1.5773201
19.32710585764763	2.4951446	1.5796027
19.344885115874032	2.5325046	1.5913845
19.362664844268313	2.555908	1.5987207
19.380445043295822	2.5310116	1.5909153
19.39822571342203	2.4534554	1.566351
19.41600685511252	2.4427075	1.5629164
19.43378846883297	2.469208	1.5713713
19.451570555049173	2.547711	1.596155
19.469353114227037	2.5337098	1.5917631
19.48713614683254	2.5235698	1.5885748
19.50491965333182	2.4728994	1.5725455
19.52270363419109	2.4505668	1.5654286
19.540488089876686	2.4618661	1.5690335
19.55827302085503	2.4702194	1.5716932
19.576058427592674	2.4731166	1.5726146
19.593844310556282	2.4928114	1.578864
19.611630670212598	2.5111327	1.5846554
19.629417507028506	2.4990726	1.5808455
19.64720482147098	2.4878247	1.577284
19.6649926140071	2.475978	1.573524
19.682780885104084	2.48954	1.5778277
19.70056963522921	2.4654722	1.5701822
19.718358864849908	2.4584577	1.567947
19.7361485744337	2.4461951	1.5640317
19.753938764448215	2.4408092	1.5623089
19.771729435361202	2.4827335	1.5756692
19.789520587640506	2.5302398	1.5906727
19.807312221754092	2.5465357	1.5957868
19.825104338170043	2.5211709	1.5878196
19.842896937356517	2.505951	1.5830196
19.860690019781824	2.5306792	1.5908109
19.87848358591436	2.569374	1.6029267
19.896277636222635	2.5150266	1.5858835
19.914072171175278	2.4753766	1.5733329
19.931867191241015	2.472843	1.5725275
19.94966269688869	2.5048523	1.5826725
19.967458688587264	2.508024	1.5836742
19.985255166805807	2.487069	1.5770444
20.00305213201348	2.4580433	1.5678148
20.020849584679578	2.4341927	1.56019
20.038647525273507	2.4716892	1.5721607
20.05644595426477	2.5040905	1.5824318
20.07424487212299	2.5267458	1.5895741
20.092044279317903	2.4934576	1.5790685
20.109844176319353	2.4647622	1.5699561
20.127644563597304	2.41109	1.5527685
20.145445441621817	2.389646	1.545848
20.16324681086307	2.3759925	1.5414255
20.181048671791373	2.3997364	1.5491083
20.198851024877122	2.3954809	1.5477341
20.216653870590836	2.3764644	1.5415785
20.234457209403146	2.3803825	1.5428488
20.252261041784802	2.40689	1.5514154
20.270065368206662	2.3848226	1.5442871
20.287870189139685	2.3520527	1.5336404
20.305675505054968	2.3562677	1.5350139
20.323481316423702	2.3762808	1.5415189
20.341287623717207	2.3614457	1.5366997
20.359094427406884	2.3663414	1.5382917
20.376901727964288	2.3647068	1.5377603
20.39470952586107	2.3622446	1.5369595
20.41251782156899	2.3201556	1.5232058
20.430326615559935	2.3028934	1.5175288
20.448135908305886	2.3125303	1.5207006
20.465945700278965	2.3727953	1.5403881
20.483755991951384	2.3802419	1.5428033
20.50156678379548	2.3548	1.5345358
20.519378076283708	2.3428473	1.5306363
20.537189869888635	2.3681865	1.5388913
20.55500216508294	2.3662102	1.5382491
20.572814962339415	2.3426857	1.5305835
20.59062826213098	2.3255095	1.5249622
20.60844206493066	2.344733	1.5312521
20.626256371211593	2.3233037	1.5242387
20.644071181447032	2.3188124	1.5227647
20.66188649611036	2.3125463	1.5207058
20.67970231567506	2.3314567	1.5269108
20.697518640614742	2.3202052	1.523222
20.715335471403122	2.2674725	1.5058129
20.73315280851404	2.2561414	1.5020458
20.750970652421447	2.303808	1.51783
20.768789003599412	2.349186	1.5327054
20.786607862522136	2.3135667	1.5210413
20.8044272296639	2.2861962	1.5120173
20.82224710549913	2.2631721	1.5043843
20.84006749050237	2.2786171	1.509509
20.857888385148268	3.8187053	1.9541508
20.8757097899116	45.9261	6.77688
20.893531705267254	64.78837	8.049122
20.911354131690224	83.79971	9.154219
20.92917706965566	69.052536	8.309786
20.94700051963877	50.149696	7.081645
20.96482448211493	29.432617	5.425184
20.982648957559622	4.1747513	2.0432208
21.00047394644843	2.2757237	1.5085502
21.01829944925707	2.270594	1.506849
21.036125466461375	2.2410045	1.4969984
21.053951998537297	2.2527797	1.5009263
21.071779045960906	2.2337146	1.4945617
21.089606609208378	2.219601	1.4898325
21.10743468875603	2.200785	1.4835043
21.12526328508028	2.2335246	1.4944981
21.143092398657675	2.255126	1.5017077
21.16092202996488	2.2421694	1.4973875
21.17875217947867	2.2278233	1.4925895
21.19658284767596	2.2143762	1.488078
21.21441403503377	2.2017868	1.4838419
21.232245742029225	2.1948707	1.4815096
21.2500779691396	2.167093	1.472105
21.26791071684227	2.1748912	1.4747512
21.28574398561475	2.1804674	1.4766406
21.30357777593465	2.1696825	1.4729842
21.321412088279704	2.1584063	1.4691515
21.339246923127792	2.1478012	1.4655378
21.357082280956888	2.1624286	1.4705199
21.3749181622451	2.156673	1.4685615
21.392754567470647	2.1605859	1.4698931
21.41059149711187	2.1658864	1.4716951
21.42842895164726	2.1425953	1.4637606
21.446266931555378	2.1228192	1.4569898
21.464105437314945	2.0879257	1.4449656
21.481944469404798	2.0773757	1.4413104
21.49978402830388	2.0895994	1.4455447
21.51762411449127	2.0980031	1.4484485
21.53546472844617	2.1026373	1.4500474
21.553305870647876	2.136887	1.4618095
21.571147541575865	2.1410365	1.4632281
21.58898974170967	2.1010995	1.449517
21.60683247152899	2.0654695	1.4371741
21.62467573151363	2.0576942	1.4344665
21.642519522143523	2.0712302	1.4391769
21.660363843898722	2.0714421	1.4392506
21.6782086972594	2.0599341	1.4352471
21.696054082705864	2.0466175	1.4306004
21.713900000718535	2.0398133	1.4282203
21.73174645177795	2.0495906	1.4316391
21.749593436364794	2.0915124	1.4462062
21.767440954959845	2.0618296	1.4359072
21.785289008044032	2.012128	1.418495
21.803137596098388	1.9938962	1.412054
21.820986719604086	2.0051553	1.416035
21.838836379042412	2.0588937	1.4348845
21.85668657489478	2.0531933	1.4328969
21.87453730764273	2.0091705	1.4174521
21.892388577767914	1.9666647	1.4023782
21.91024038575213	1.9894326	1.4104725
21.928092732077285	1.9672701	1.4025941
21.945945617225426	1.9619915	1.400711
21.963799041678694	1.9676445	1.4027275
21.981653005919398	31.30139	5.5947647
21.999507510429943	78.11924	8.838509
22.01736255569286	73.080864	8.548735
22.035218142190818	4.1609135	2.0398316
22.05307427040661	1.9844362	1.4087001
22.07093094082315	1.9944588	1.4122531
22.088788153923474	1.9840493	1.4085629
22.106645910190746	1.9554919	1.398389
22.12450421010827	1.981241	1.4075656
22.142363054159464	2.022124	1.4220141
22.16022244282787	2.01963	1.4211369
22.178082376597164	2.0036623	1.4155078
22.195942855951145	1.9952246	1.4125242
22.213803881373742	2.012709	1.4186997
22.231665453349002	1.992695	1.4116285
22.24952757236111	1.9894693	1.4104855
22.26739023889438	1.9696862	1.403455
22.28525345343323	1.968529	1.4030428
22.30311721646225	1.939143	1.3925312
22.320981528466113	1.9204206	1.3857924
22.33884638992964	1.9257042	1.3876975
22.356711801337788	1.9759983	1.4057021
22.37457776317561	1.9708921	1.4038846
22.392444275928337	1.9507172	1.3966808
22.410311340081282	1.913906	1.3834399
22.428178956119904	1.9323143	1.3900771
22.446047124529805	1.9663386	1.402262
22.46391584579669	1.9696404	1.4034388
22.481785120406414	1.956514	1.3987545
22.49965494884496	1.9369551	1.3917453
22.51752533159841	1.9556092	1.398431
22.53539626915302	1.9760233	1.4057109
22.553267761995137	1.9711647	1.4039817
22.571139810611264	1.9834877	1.4083635
22.589012415488025	1.9814372	1.4076353
22.60688557711216	2.0004878	1.414386
22.624759295970566	1.9892578	1.4104105
22.642633572550263	1.9638243	1.4013652
22.660508407338362	1.9659407	1.4021201
22.67838380082217	1.9495206	1.3962524
22.696259753489077	1.9710767	1.4039505
22.714136265826614	1.9554517	1.3983747
22.73201333832246	1.9438151	1.3942077
22.74989097146439	1.9083658	1.3814361
22.76776916574035	1.9432143	1.3939922
22.785647921638393	1.9113393	1.382512
22.803527239646712	1.9134593	1.3832785
22.82140712025363	1.8907294	1.375038
22.839287563947593	1.8695819	1.3673266
22.85716857121719	1.8613638	1.364318
22.875050142551135	1.874931	1.3692812
22.892932278438277	1.8832929	1.3723311
22.910814979367604	1.9133618	1.3832432
22.928698245828222	1.9551454	1.3982651
22.946582078309387	1.9711641	1.4039816
22.96446647730047	1.9443088	1.3943847
22.98235144329098	1.8929797	1.375856
23.000236976770562	1.8690702	1.3671395
23.018123078229	1.8724395	1.3683711
23.03600974815619	1.8838367	1.3725293
23.053896987042194	1.8982223	1.3777599
23.071784795377173	1.9131503	1.3831668
23.08967317365145	1.9332267	1.3904052
23.10756212235546	1.9420385	1.3935704
23.125451641979787	1.9254444	1.3876039
23.143341733015134	1.9066122	1.3808013
23.161232395952357	1.8771131	1.3700777
23.179123631282426	1.8675939	1.3665994
23.197015439496468	1.8978549	1.3776265
23.214907821085717	1.9449172	1.3946029
23.23280077654157	1.9987162	1.4137596
23.250694306355538	1.9947227	1.4123465
23.268588411019277	1.9331	1.3903596
23.28648309102458	1.8966675	1.3771955
23.304378346863356	1.9396727	1.3927213
23.322274179027676	1.9757454	1.4056121
23.340170588009723	1.9805334	1.4073142
23.358067574301852	1.9614351	1.4005125
23.37596513839651	1.9323908	1.3901047
23.39386328078629	1.9396039	1.3926966
23.411762001963947	1.9574953	1.3991052
23.429661302422353	1.9227087	1.3866178
23.4475611826545	1.9181085	1.3849579
23.46546164315356	1.9414188	1.3933481
23.48336268441279	1.9821161	1.4078765
23.501264306925638	1.9550005	1.3982134
23.51916651118564	1.9387256	1.3923813
23.537069297686497	1.954516	1.39804
23.554972666922037	2.00083	1.4145069
23.57287661938623	2.0157862	1.4197838
23.59078115557318	1.9958245	1.4127365
23.608686275977128	1.9580942	1.3993192
23.62659198109246	1.908109	1.3813431
23.6444982714137	1.877908	1.3703679
23.66240514743549	1.8379644	1.3557155
23.68031260965263	1.8413552	1.3569654
23.698220658560068	1.844957	1.358292
23.716129294652845	1.8673061	1.366494
23.7340385184262	1.8754916	1.3694859
23.75194833037546	1.8666922	1.3662695
23.769858730996123	1.8761265	1.3697177
23.78776972078382	1.8575895	1.3629341
23.80568130023431	1.8703015	1.3675897
23.823593469843495	1.9101161	1.3820695
23.841506230107424	1.8924263	1.3756548
23.859419581522275	1.8863896	1.373459
23.87733352458438	1.9078568	1.3812519
23.89524805979019	1.9461914	1.3950597
23.913163187636318	1.9138663	1.3834256
23.931078908619508	1.9401127	1.3928792
23.948995223236633	1.9979633	1.4134933
23.966912131984735	2.0621614	1.4360228
23.98482963536096	2.0942056	1.447137
24.002747733862616	2.0622985	1.4360706
24.020666427987155	1.9948434	1.4123893
24.038585718232156	1.9803833	1.4072609
24.056505605095353	1.9895307	1.4105072
24.074426089074617	2.05922	1.4349983
24.092347170667946	2.0590966	1.4349552
24.110268850373515	2.0625348	1.4361528
24.128191128689586	2.025854	1.4233251
24.146114006114626	2.0161448	1.4199101
24.164037483147187	2.0420623	1.4290074
24.181961560286005	2.0784366	1.4416784
24.199886238029926	2.0286074	1.4242918
24.21781151687797	2.0102415	1.4178299
24.235737397329274	1.9979575	1.4134912
24.253663879883135	2.0003958	1.4143535
24.271590965038975	1.9922054	1.411455
24.289518653296376	2.0092618	1.4174843
24.30744694515505	2.03357	1.426033
24.32537584111486	2.0195858	1.4211214
24.34330534167581	1.986524	1.409441
24.361235447338046	1.9770354	1.406071
24.379166158601876	2.007551	1.4168807
24.39709747596772	1.9976504	1.4133826
24.41502939993615	2.0267	1.4236221
24.432961931007917	2.0116148	1.4183141
24.450895069683856	1.979705	1.4070199
24.468828816465	1.9235605	1.3869249
24.4867631718525	1.9110786	1.3824177
24.504698136347656	1.9129746	1.3831033
24.52263371045192	1.8972971	1.3774241
24.540569894666874	1.941901	1.3935211
24.558506689494266	1.9694346	1.4033655
24.57644409543597	1.941599	1.3934127
24.594382112994012	1.895442	1.3767505
24.61232074267057	1.893589	1.3760774
24.630259984967953	1.938827	1.3924177
24.64819984038863	1.9558461	1.3985157
24.66614030943522	2.0021443	1.4149715
24.684081392610462	2.024868	1.4229785
24.702023090417274	2.054495	1.433351
24.7199654033587	2.0871267	1.4446892
24.737908331937927	2.0967805	1.4480264
24.755851876658305	2.0786753	1.4417611
24.773796038023324	2.03765	1.4274628
24.79174081653661	2.051338	1.4322493
24.809686212701962	2.0659304	1.4373344
24.827632227023294	2.0458357	1.4303272
24.8455788600047	2.026476	1.4235435
24.8635261121504	2.053569	1.433028
24.88147398396475	2.072925	1.4397657
24.899422475952303	2.0853915	1.4440885
24.917371588617698	2.08929	1.4454377
24.935321322465768	2.1214917	1.4565341
24.953271678001478	2.2411134	1.4970349
24.97122265572994	2.4400225	1.5620571
24.989174256156414	2.7074215	1.6454245
25.00712647978632	3.0974097	1.759946
25.02507932712521	3.6365058	1.9069625
25.043032798678798	4.1969576	2.0486476
25.060986894952933	4.8543606	2.2032614
25.078941616453637	5.5627537	2.358549
25.096896963687055	6.373773	2.5246332
25.114852937159508	7.30494	2.7027652
25.132809537377444	7.643519	2.7646914
25.150766764847468	7.709357	2.776573
25.168724620076347	7.302623	2.7023365
25.186683103570985	6.5233035	2.554076
25.204642215838426	5.5184755	2.3491435
25.222601957385894	4.2585487	2.063625
25.24056232872074	3.2553089	1.8042475
25.25852333035048	2.6317012	1.6222519
25.276484962782778	2.2810304	1.510308
25.294447226525435	2.0717263	1.4393493
25.312410122086423	1.9870973	1.4096444
25.330373649973843	1.9775023	1.4062369
25.348337810695988	1.9543648	1.3979859
25.366302604761245	1.9474082	1.3954957
25.384268032678207	1.9316082	1.3898231
25.40223409495558	1.9208701	1.3859546
25.420200792102257	1.8767607	1.3699492
25.438168124627246	1.8665059	1.3662013
25.45613609303974	1.9095173	1.3818529
25.474104697849057	1.9606317	1.4002256
25.492073939564698	1.9567806	1.3988497
25.510043818696285	1.9298425	1.3891877
25.528014335753614	1.8958151	1.376886
25.54598549124664	1.8777032	1.3702931
25.56395728568544	1.8510197	1.3605219
25.58192971958028	1.8508413	1.3604562
25.59990279344156	1.867145	1.3664352
25.617876507779833	1.9002007	1.3784777
25.635850863105826	1.9108074	1.3823196
25.653825859930386	1.9028225	1.3794283
25.671801498764548	1.8668221	1.366317
25.68977778011949	1.8681617	1.3668071
25.707754704506524	1.8761194	1.3697151
25.725732272437153	1.8723037	1.3683215
25.743710484423012	1.8523757	1.3610201
25.761689340975888	1.7853974	1.3361876
25.77966884260774	1.7912282	1.3383677
25.797648989830662	1.7843614	1.3357999
25.815629783156922	1.798056	1.3409162
25.83361122309895	1.7949709	1.3397652
25.85159331016929	1.8058141	1.3438058
25.869576044880695	1.8181796	1.3483989
25.887559427746034	1.8345112	1.3544413
25.90554345927836	1.825922	1.3512669
25.92352813999086	1.8364607	1.3551607
25.94151347039689	1.8277389	1.351939
25.959499451009965	1.8363129	1.3551062
25.97748608234374	1.8449807	1.3583007
25.995473364912062	1.8404843	1.3566445
26.013461299228904	1.8546841	1.3618679
26.03144988580839	1.8602141	1.3638966
26.04943912516483	1.8217552	1.349724
26.067429017812675	1.7986486	1.341137
26.085419564266537	1.8292254	1.3524886
26.103410765041186	1.8556628	1.3622272
26.12140262065155	1.8652586	1.3657447
26.139395131612723	1.864854	1.3655965
26.157388298439948	1.8879634	1.3740318
26.17538212164861	1.8425031	1.3573884
26.193376601754295	1.8119718	1.346095
26.211371739272714	1.7870837	1.3368185
26.229367534719746	1.7953767	1.3399167
26.247363988611433	1.7844752	1.3358425
26.26536110146397	1.7780528	1.3334365
26.283358873793727	1.7778537	1.3333619
26.301357306117204	1.7849381	1.3360157
26.319356398951104	1.820266	1.3491724
26.33735615281224	1.8662794	1.3661183
26.35535656821762	1.8594558	1.3636186
26.373357645684404	1.8607137	1.3640798
26.39135938572991	1.8216319	1.3496784
26.409361788871614	1.8179567	1.3483162
26.427364855627165	1.8235196	1.3503776
26.445368586514352	1.8169773	1.347953
26.46337298205115	1.8184742	1.3485081
26.48137804275568	1.8120805	1.3461354
26.499383769146217	1.8406868	1.3567191
26.517390161741215	1.8440944	1.3579744
26.53539722105928	1.8465542	1.3588797
26.553404947619182	1.8490454	1.359796
26.571413341939856	1.9138838	1.3834319
26.589422404540397	1.9080328	1.3813156
26.60743213594006	1.8323064	1.3536271
26.62544253665827	1.7813194	1.3346608
26.64345360721459	1.7725084	1.3313558
26.66146534812879	1.7755462	1.3324963
26.679477759920758	1.8126787	1.3463576
26.69749084311057	1.8229808	1.350178
26.71550459821847	1.8103379	1.345488
26.733519025764842	1.819228	1.3487877
26.751534126270258	1.8106161	1.3455914
26.769549900255434	1.8144724	1.3470236
26.787566348241267	1.8000337	1.3416533
26.80558347074881	1.7761382	1.3327184
26.823601268299267	1.7881176	1.3372052
26.841619741414036	1.83909	1.3561305
26.85963889061465	1.869628	1.3673434
26.877658716422832	1.8688844	1.3670715
26.89567921936045	1.8675121	1.3665695
26.913700399949544	1.8544481	1.3617812
26.93172225871233	1.8227712	1.3501004
26.949744796171174	1.803984	1.3431247
26.967768012848605	1.8178432	1.3482741
26.98579190926733	1.7919269	1.3386288
27.003816485950225	1.770293	1.3305236
27.021841743420318	1.7932377	1.3391182
27.039867682200814	1.8118273	1.3460413
27.057894302815072	1.802786	1.3426787
27.07592160578664	1.746516	1.3215581
27.0939495916392	1.7534381	1.3241745
27.111978260896635	1.798885	1.3412251
27.13000761408296	1.8211157	1.3494872
27.148037651722397	1.829788	1.3526965
27.166068374339304	1.826524	1.3514895
27.184099782458215	1.7892661	1.3376346
27.20213187660384	1.7775931	1.3332641
27.22016465730105	1.7819993	1.3349155
27.23819812507487	1.7970862	1.3405545
27.256232280450533	1.7811443	1.3345952
27.274267123953383	1.8099899	1.3453586
27.292302656108987	1.8391801	1.3561637
27.31033887744306	1.7929704	1.3390185
27.32837578848146	1.7211356	1.3119205
27.34641338975026	1.7650524	1.3285527
27.364451681775673	1.8287741	1.3523217
27.382490665084074	1.8404876	1.3566457
27.400530340202046	1.7955049	1.3399645
27.41857070765629	1.8015752	1.3422277
27.436611767973726	1.804046	1.3431478
27.454653521681404	1.8074329	1.344408
27.472695969306564	1.7900656	1.3379333
27.490739111376627	1.8140281	1.3468586
27.508782948419153	1.8436664	1.3578168
27.526827480961902	1.8332069	1.3539597
27.54487270953279	1.8373029	1.3554715
27.562918634659898	1.8117083	1.3459971
27.580965256871508	1.7779028	1.3333802
27.599012576696026	1.788081	1.3371915
27.617060594662068	1.8100528	1.345382
27.63510931129842	1.8055528	1.3437086
27.65315872713401	1.7947772	1.339693
27.67120884269797	1.8004657	1.3418143
27.68925965851958	1.8118098	1.3460349
27.707311175128307	1.833735	1.3541547
27.725363393053787	1.8561351	1.3624005
27.74341631282583	1.8871192	1.3737246
27.7614699349744	1.9073534	1.3810697
27.77952426002968	2.1090045	1.4522412
27.797579288521973	2.2018125	1.4838506
27.815635020981784	2.7157447	1.6479517
27.83369145793979	2.7621017	1.6619571
27.85174859992682	2.524356	1.5888221
27.869806447473923	2.3562684	1.5350142
27.887865001112267	2.0566313	1.434096
27.905924261373233	1.976875	1.4060138
27.92398422878836	1.9413058	1.3933074
27.94204490388936	1.9100114	1.3820317
27.96010628720813	1.8688861	1.3670721
27.978168379276728	1.8450809	1.3583375
27.9962311806274	1.8493562	1.3599104
28.014294691792568	1.8522962	1.3609909
28.0323589133048	1.8396869	1.3563505
28.050423845696887	1.8475909	1.3592612
28.068489489501758	1.8309728	1.3531344
28.086555845252523	1.833195	1.3539553
28.104622913482487	1.8665142	1.3662043
28.122690694725115	1.9469583	1.3953345
28.14075918951405	1.9539785	1.3978478
28.15882839838312	1.9489881	1.3960617
28.176898321866304	1.9105568	1.382229
28.1949689604978	1.9151121	1.3838757
28.213040314811945	1.9195843	1.3854907
28.23111238534327	1.8893136	1.374523
28.249185172626493	1.884283	1.3726919
28.267258677196473	1.9049674	1.3802056
28.285332899588294	1.9399737	1.3928294
28.303407840337172	1.9435236	1.3941032
28.321483499978545	1.9814665	1.4076457
28.33955987904799	1.9839525	1.4085284
28.357636978081285	1.9981905	1.4135736
28.37571479761439	1.9587116	1.3995398
28.393793338183425	1.9220165	1.3863682
28.41187260032469	1.9216799	1.3862467
28.429952584574686	1.9049969	1.3802162
28.448033291470065	1.9305552	1.3894442
28.46611472154769	1.9522945	1.3972453
28.484196875344566	1.9544882	1.39803
28.502279753397914	2.0081859	1.4171047
28.52036335624511	2.0282097	1.4241523
28.538447684423716	2.0112154	1.4181733
28.556532738471482	1.9621346	1.4007622
28.574618518926325	1.9392611	1.3925736
28.59270502632635	1.9335847	1.3905339
28.61079226120985	1.9494407	1.3962238
28.628880224115274	1.959006	1.399645
28.646968915581287	1.9418311	1.393496
28.66505833614671	1.9183246	1.385036
28.68314848635055	1.9764808	1.4058737
28.701239366732004	2.0543902	1.4333144
28.71933097783044	2.0897574	1.4455993
28.737423320185403	2.1058047	1.4511391
28.75551639433665	2.1270497	1.4584409
28.773610200824074	2.148385	1.465737
28.791704740187793	2.1174529	1.455147
28.80980001296809	2.0660326	1.4373701
28.827896019705413	2.096904	1.4480691
28.845992760940433	2.1203818	1.456153
28.86409023721397	2.152032	1.4669806
28.88218844906704	2.1970866	1.4822572
28.900287397040845	2.2193227	1.4897392
28.918387081676755	2.204092	1.4846184
28.936487503516343	2.2090106	1.4862741
28.954588663101365	2.269235	1.506398
28.97269056097374	2.273946	1.5079609
28.990793197675597	2.2274444	1.4924625
29.00889657374923	2.2742097	1.5080483
29.027000689737125	2.3808272	1.542993
29.04510554618196	2.4325485	1.5596629
29.06321114362659	2.5009055	1.5814252
29.08131748261405	2.4770591	1.5738676
29.099424563687567	2.396279	1.547992
29.11753238739057	2.5054529	1.5828623
29.13564095426663	2.586492	1.6082574
29.15375026485954	2.4794638	1.5746313
29.171860319713275	2.449043	1.5649419
29.18997111937199	2.5594876	1.5998398
29.20808266438002	2.6281278	1.6211501
29.226194955281898	2.7221017	1.6498793
29.244307992622335	2.7614229	1.6617529
29.26242177694624	2.769188	1.6640878
29.2805363087987	2.7885966	1.6699091
29.29865158872498	2.8227355	1.6800998
29.316767617270557	2.8975317	1.7022138
29.334884394981064	2.949187	1.7173197
29.353001922402367	3.0615177	1.7497194
29.37112020008047	3.1001136	1.7607139
29.389239228561596	3.1830924	1.7841223
29.407359008392152	3.3573802	1.8323156
29.42547954011872	3.6483579	1.9100676
29.44360082428809	4.275755	2.0677898
29.46172286144722	5.3613763	2.3154645
29.479845652143283	6.9497223	2.6362326
29.497969196923606	8.927641	2.9879158
29.516093496335728	11.220538	3.3497071
29.5342185509274	13.651065	3.6947348
29.55234436124651	15.6733265	3.9589553
29.570470927841175	16.865894	4.1068106
29.588598251259686	16.576307	4.071401
29.60672633205055	15.410567	3.9256296
29.624855170762405	13.494095	3.673431
29.642984767944146	10.964755	3.3113072
29.66111512414481	8.43152	2.903708
29.67924623991366	6.309787	2.5119288
29.697378115800138	4.9142237	2.2168047
29.71551075235387	4.160802	2.0398045
29.733644150124675	3.7634907	1.9399718
29.751778309662576	3.5842185	1.8932033
29.769913231517766	3.4894679	1.8680117
29.78804891624066	3.42964	1.8519287
29.806185364381818	3.3965607	1.8429761
29.82432257649206	3.3643737	1.8342229
29.842460553122333	3.34562	1.8291036
29.86059929482382	3.301013	1.816869
29.878738802147872	3.2777655	1.81046
29.896879075646048	3.2473218	1.8020327
29.915020115870114	3.2144077	1.792877
29.933161923371976	3.2410817	1.8003005
29.951304498703777	3.2302916	1.7973012
29.969447842417857	3.2427652	1.8007679
29.987591955066733	3.263942	1.8066384
30.005736837203123	3.2439287	1.801091
30.023882489379943	3.1644762	1.7788974
30.04202891215028	3.0880816	1.7572938
30.060176106067455	3.1230664	1.76722
30.078324071684946	3.224657	1.795733
30.09647280955646	3.1752279	1.7819169
30.114622320235863	3.0705736	1.7523053
30.132772604277257	3.0145822	1.7362552
30.1509236622349	3.0656366	1.750896
30.16907549466328	3.0867999	1.756929
30.18722810211705	3.027674	1.7400212
30.205381485151097	2.9853206	1.727808
30.22353564432045	3.0085788	1.7345256
30.241690580180403	2.9771416	1.7254395
30.25984629328638	2.9117615	1.7063885
30.278002784194037	2.8978798	1.702316
30.296160053459246	2.9340525	1.7129076
30.314318101638033	2.921522	1.709246
30.332476929286646	2.8322139	1.6829183
30.35063653696153	2.8596284	1.6910436
30.368796925219307	2.920957	1.7090808
30.386958094616844	2.9121802	1.7065111
30.40512004571115	2.8249352	1.6807543
30.423282779059463	2.8250628	1.6807923
30.441446295219233	2.8099043	1.6762769
30.459610594748067	2.7614775	1.6617694
30.47777567820382	2.6915894	1.6406064
30.495941546144504	2.6796947	1.6369773
30.51410819912835	2.7602139	1.6613891
30.532275637713795	2.806526	1.6752689
30.55044386245946	2.847872	1.6875639
30.56861287392416	2.8169858	1.6783879
30.586782672666956	2.797062	1.672442
30.604953259247047	2.7804425	1.6674659
30.623124634223885	2.745563	1.6569741
30.641296798157075	2.686258	1.6389807
30.659469751606462	2.6946063	1.6415256
30.677643495132074	2.7383435	1.6547941
30.695818029294152	2.6903439	1.6402267
30.713993354653116	2.6936808	1.6412437
30.73216947176962	2.6835308	1.6381485
30.75034638120448	2.7135732	1.6472927
30.768524083518756	2.6863418	1.6390064
30.786702579273673	2.6967952	1.6421922
30.80488186903069	2.7237208	1.6503699
30.82306195335144	2.8861349	1.6988628
30.841242832797782	3.0836391	1.7560294
30.85942450793176	3.358003	1.8324854
30.877606979315637	3.6648643	1.9143835
30.895790247511883	4.0369263	2.0092103
30.913974313083134	4.4540386	2.1104593
30.932159176592283	4.603399	2.1455534
30.95034483860237	4.593918	2.1433427
30.968531299676698	4.364292	2.089089
30.98671856037873	4.1182513	2.0293474
31.00490662127215	3.8313847	1.9573923
31.023095482920848	3.4865465	1.8672296
31.04128514588892	3.1070025	1.7626691
31.059475610740662	2.7554793	1.6599636
31.07766687804056	2.5869155	1.6083891
31.09585894835335	2.519127	1.5871757
31.11405182224393	2.493108	1.5789579
31.132245500277417	2.4681134	1.5710231
31.15043998301914	2.5001621	1.5811901
31.168635271034628	2.4765635	1.5737101
31.18683136488964	2.428469	1.5583546
31.20502826515008	2.3441842	1.5310729
31.223225972382135	2.3168652	1.5221252
31.241424487152155	2.3505907	1.5331637
31.259623810026692	2.4192994	1.5554097
31.27782394157253	2.410013	1.5524217
31.296024882356644	2.3726609	1.5403444
31.314226632946237	2.343806	1.5309494
31.332429193908684	2.3819282	1.5433496
31.350632565811598	2.4206312	1.5558378
31.368836749222787	2.425337	1.5573493
31.387041744710295	2.4608939	1.5687237
31.40524755284232	2.4931736	1.5789787
31.423454174187317	2.46391	1.5696847
31.441661609313922	2.385413	1.5444782
31.459869858791002	2.3537757	1.534202
31.478078923187628	2.4030163	1.5501666
31.496288803073064	2.3812132	1.543118
31.514499499016807	2.3751283	1.5411451
31.532711011588546	2.3458598	1.53162
31.550923341358178	2.3525147	1.533791
31.56913648889584	2.3526587	1.5338379
31.587350454771844	2.288336	1.5127248
31.605565239556732	2.3143053	1.5212841
31.62378084382127	2.2837553	1.5112098
31.641997268136382	2.2571046	1.5023663
31.660214513073274	2.2556968	1.5018977
31.67843257920331	2.2838745	1.5112493
31.6966514670981	2.3415053	1.5301977
31.71487117732944	2.3915186	1.5464536
31.733091710469346	2.3675318	1.5386785
31.751313067090052	2.3555534	1.5347812
31.769535247764008	2.3001485	1.5166241
31.787758253063878	2.2165177	1.4887974
31.805982083562526	2.1801524	1.4765339
31.824206739833024	2.1840394	1.4778496
31.84243222244869	2.1855884	1.4783735
31.860658531983013	2.219784	1.4898939
31.878885669009737	2.3576872	1.5354762
31.897113634102784	2.3449163	1.531312
31.91534242783632	2.2845294	1.511466
31.933572050784694	2.2208977	1.4902676
31.951802503522508	2.1785781	1.4760007
31.970033786624548	2.2302208	1.4933923
31.988265900665834	2.2480986	1.499366
32.006498846221575	2.1849115	1.4781446
32.02473262386724	2.170867	1.4733862
32.04296723417845	2.2163973	1.488757
32.0612026777311	2.247666	1.4992218
32.07943895510129	2.2249515	1.4916271
32.097676066865304	2.2162106	1.4886943
32.115914013599685	2.244924	1.4983071
32.13415279588115	2.2110856	1.486972
32.152392414286666	2.193715	1.4811195
32.1706328693934	2.1744173	1.4745905
32.18887416177875	2.17205	1.4737877
32.20711629202032	2.1966622	1.4821141
32.225359260695924	2.2152498	1.4883715
32.243603068383614	2.1117764	1.4531952
32.26184771566166	2.0786347	1.4417471
32.28009320310852	2.1376388	1.4620667
32.2983395313029	2.1321316	1.4601821
32.31658670082372	2.1253617	1.457862
32.33483471225012	2.1183503	1.4554553
32.35308356616143	2.0532997	1.4329339
32.371333263137245	2.0612545	1.435707
32.38958380375734	2.1090143	1.4522445
32.407835188601744	2.1331427	1.4605283
32.42608741825067	2.1282525	1.4588531
32.444340493284585	2.1322646	1.4602276
32.46259441428416	2.1843898	1.4779681
32.48084918183028	2.145015	1.464587
32.49910479650405	2.0992763	1.448888
32.51736125888683	2.0330808	1.4258615
32.53561856956014	2.0180922	1.4205956
32.5538767291058	2.05942	1.435068
32.572135738105764	2.0755658	1.4406824
32.59039559714228	2.0717068	1.4393425
32.608656306797776	2.057512	1.4344031
32.62691786765491	2.0831687	1.4433186
32.645180280296586	2.104649	1.4507408
32.663443545305896	2.1084244	1.4520415
32.68170766326619	2.0449708	1.4300247
32.69997263476099	2.0108325	1.4180382
32.7182384603741	2.0314124	1.4252763
32.7365051406895	2.074922	1.440459
32.75477267629144	2.0659463	1.43734
32.77304106776434	2.0313115	1.4252409
32.79131031569289	2.0251577	1.4230803
32.809580420661966	1.946485	1.3951648
32.827851383256714	1.8738557	1.3688885
32.84612320406245	1.9180614	1.384941
32.86439588366476	1.9410509	1.393216
32.88266942264945	1.9295746	1.3890913
32.9009438216025	1.9663627	1.4022706
32.9192190811102	1.9643308	1.4015459
32.937495201758985	1.9248613	1.3873937
32.95577218413556	1.8562914	1.3624579
32.974050028826866	1.8283786	1.3521755
32.992328736420035	1.8478229	1.3593465
33.010608307502444	1.9818603	1.4077857
33.02888874266169	1.9999852	1.4142083
33.047170042485604	1.9481134	1.3957484
33.06545220756225	2.0090196	1.4173989
33.083735238479896	1.9823035	1.407943
33.10201913582707	1.9458032	1.3949205
33.12030390019248	1.9110233	1.3823977
33.138589532165135	1.8900071	1.3747753
33.15687603233419	1.8877742	1.373963
33.17516340128909	1.9150463	1.383852
33.19345163961947	1.9489415	1.396045
33.211740747915215	1.926298	1.3879114
33.23003072676643	1.8828332	1.3721637
33.248321576763466	1.8242595	1.3506515
33.266613298496885	1.9007642	1.378682
33.28490589255747	1.9552695	1.3983095
33.30319935953626	1.9390116	1.392484
33.32149370002451	1.9366871	1.391649
33.339788914613706	1.9629575	1.4010558
33.358085003895575	1.9441812	1.394339
33.376381968462034	1.8592123	1.3635293
33.39467980890529	1.8046548	1.3433744
33.41297852581774	1.7921848	1.3387251
33.43127811979204	1.8523543	1.3610122
33.44957859142105	1.8880669	1.3740695
33.467879941297866	1.8556695	1.3622296
33.486182170015844	1.9262702	1.3879014
33.50448527816853	2.025013	1.4230295
33.522789266349754	1.9753543	1.405473
33.541094135153514	1.9461716	1.3950526
33.55939988517411	1.9825578	1.4080333
33.57770651700602	2.000041	1.4142281
33.59601403124398	1.969779	1.4034882
33.61432242848296	1.8407161	1.35673
33.632631709318154	1.8159876	1.3475858
33.650941874344994	1.8609575	1.3641691
33.66925292415916	1.931002	1.389605
33.68756485935654	2.017033	1.4202229
33.70587768053328	1.9694481	1.4033703
33.724191388285746	1.9497473	1.3963336
33.74250598321054	2.0139565	1.4191394
33.760821465904506	2.0446327	1.4299065
33.77913783696474	1.9906763	1.4109132
33.79745509698852	2.0009098	1.4145352
33.815773246573414	1.9936929	1.4119819
33.8340922863172	1.9440686	1.3942986
33.852412216817896	1.8920635	1.375523
33.87073303867377	1.9143168	1.3835883
33.889054752483304	1.8998262	1.3783418
33.907377358845245	1.9199866	1.3856359
33.92570085835853	1.989755	1.4105867
33.94402525162239	2.1102147	1.4526578
33.96235053923627	2.1751428	1.4748365
33.980676721799824	1.9771562	1.4061139
33.999003799912984	1.8209958	1.3494427
34.01733177417592	1.8799047	1.3710961
34.03566064518901	1.9758958	1.4056656
34.0539904135529	1.9140677	1.3834984
34.07232107986846	1.9219546	1.3863457
34.090652644736785	1.8925173	1.375688
34.108985108759235	2.0507991	1.4320612
34.12731847253742	2.1132183	1.4536912
34.14565273667313	2.0352829	1.4266334
34.16398790176847	1.9913942	1.4111676
34.18232396842574	1.8389258	1.35607
34.20066093724749	1.6795568	1.2959772
34.21899880883651	1.798077	1.3409239
34.23733758379583	1.9488468	1.396011
34.25567726272874	1.9593742	1.3997765
34.27401784623872	2.011698	1.4183434
34.29235933492957	1.9562707	1.3986675
34.31070172940526	2.00426	1.4157189
34.32904503027003	2.0671732	1.4377668
34.347389238128386	2.06239	1.4361024
34.36573435358502	2.0791597	1.4419292
34.38408037724492	2.0861154	1.444339
34.402427309713296	2.0402017	1.4283563
34.42077515159559	2.0579813	1.4345666
34.43912390349752	2.0490074	1.4314355
34.45747356602499	2.0594258	1.4350699
34.47582413978423	2.240044	1.4966776
34.49417562538163	2.289182	1.5130043
34.51252802342388	2.0801182	1.4422615
34.53088133451789	1.8501436	1.3601998
34.54923555927084	1.9508983	1.3967456
34.567590698290104	1.9583666	1.3994166
34.58594675218336	1.9477178	1.3956066
34.6043037215585	1.9011842	1.3788344
34.62266160702365	1.9080901	1.3813363
34.641020409187234	1.8501921	1.3602177
34.65938012865785	1.8351843	1.3546897
34.677740766044394	1.8438162	1.3578719
34.69610232195598	1.9517276	1.3970425
34.714464797002016	2.06738	1.4378387
34.73282819179208	2.161819	1.4703126
34.751192506936064	2.1673794	1.4722022
34.76955774304408	2.1526875	1.467204
34.7879239007265	2.0952964	1.4475138
34.80629098059391	2.0611773	1.43568
34.824658983257194	1.9640954	1.4014618
34.843027909327446	1.855032	1.3619956
34.86139775941603	1.7829314	1.3352646
34.879768534134534	1.9345578	1.3908838
34.89814023409483	1.9559255	1.3985441
34.91651285990901	1.826363	1.3514299
34.93488641218944	1.7456627	1.3212353
34.95326089154871	1.9365925	1.391615
34.97163629859967	2.039088	1.4279664
34.99001263395542	1.9627355	1.4009767
35.00838989822934	1.7852257	1.3361233
35.02676809203499	1.8105658	1.3455727
35.04514721598624	1.8325658	1.3537229
35.063527270697215	1.86272	1.364815
35.081908256782256	1.8886474	1.3742807
35.10029017485597	1.7957191	1.3400445
35.11867302553321	1.796257	1.3402451
35.137056809429104	1.9999521	1.4141966
35.155441527159006	2.250439	1.5001463
35.173827179338524	2.1420965	1.4635903
35.19221376658354	2.0164604	1.4200213
35.21060128951017	1.9045514	1.3800548
35.2289897487348	2.0752547	1.4405744
35.24737914487405	2.2006834	1.4834701
35.26576947854479	1.8044186	1.3432865
35.28416075036418	1.5664135	1.2515644
35.30255296094958	1.674352	1.2939676
35.32094611091867	1.8348435	1.354564
35.33934020088932	1.9448977	1.3945959
35.35773523147969	1.7653325	1.3286581
35.3761312033082	1.6173022	1.271732
35.394528116993506	1.9662069	1.402215
35.41292597315452	2.2608297	1.5036056
35.431324772410434	2.1086981	1.4521357
35.449724515380666	2.018704	1.420811
35.46812520268491	2.1587422	1.4692658
35.486526834943106	2.0700736	1.4387751
35.504929412775454	1.716603	1.310192
35.52333293680242	1.7616315	1.3272647
35.54173740764471	1.58332	1.2583004
35.560142825923286	1.5476154	1.2440319
35.5785491922594	1.3514514	1.1625195
35.59695650727454	1.1490936	1.0719578
35.61536477159042	1.0391313	1.019378
