0.008763373481513119	0.9483193	0.9738169
0.026290120649546365	0.38522455	0.6206646
0.043816868432600686	0.3543273	0.59525394
0.06134361724069026	0.11451193	0.3383961
0.07887036748382949	0.14961642	0.38680282
0.0963971195720331	0.14530654	0.38119096
0.11392387391531617	0.18794955	0.4335315
0.1314506309236943	0.23574047	0.48553112
0.1489773910071836	0.25302932	0.50302017
0.16650415457580078	0.24656475	0.49655285
0.18403092203956356	0.19345044	0.43983
0.20155769380849	0.1916823	0.43781537
0.2190844702925996	0.13916525	0.3730486
0.2366112519019124	0.09827488	0.31348825
0.2541380390464497	0.07859377	0.2803458
0.27166483213623416	0.061947268	0.24889208
0.28919163158128947	0.09220118	0.30364648
0.3067184377916406	0.18754339	0.4330628
0.324245251177314	0.20184647	0.44927326
0.34177207214833777	0.20354424	0.4511588
0.3592989011147415	0.17136511	0.4139627
0.37682573848655654	0.15123418	0.3888884
0.39435258467381573	0.2145407	0.4631854
0.41187944008655414	0.20010197	0.44732758
0.42940630513480854	0.18720992	0.43267763
0.446933180228618	0.18150873	0.4260384
0.4644600657780234	0.17772774	0.4215777
0.48198696219306775	0.17198132	0.41470632
0.49951386988379676	0.15015112	0.38749337
0.5170407892602581	0.15817049	0.39770654
0.5345677207325025	0.19084702	0.4368604
0.5520946647105822	0.24497193	0.4949464
0.5696216216045534	0.23738116	0.48721778
0.5871485918244737	0.2119166	0.460344
0.6046755757804043	0.19319956	0.4395447
0.6222025738824094	0.18267053	0.42739972
0.6397295865405557	0.19393747	0.44038332
0.6572566141649129	0.20155884	0.44895306
0.6747836571655547	0.22449188	0.47380573
0.6923107159525568	0.22928746	0.4788397
0.7098377909359992	0.22873725	0.47826484
0.7273648825259653	0.19186132	0.43801975
0.7448919911325411	0.18363017	0.42852092
0.762419117165817	0.20676902	0.45471862
0.7799462610358868	0.20481181	0.45256138
0.7974734231528482	0.17032456	0.41270396
0.8150006039268024	0.18333206	0.42817292
0.8325278037678551	0.20096856	0.44829518
0.8500550230861152	0.2031607	0.4507335
0.8675822622916969	0.20872244	0.45686153
0.8851095217947171	0.1708781	0.41337404
0.9026368020052984	0.15242985	0.39042264
0.9201641033335665	0.12814365	0.35797158
0.9376914261896523	0.17196639	0.4146883
0.9552187709836915	0.22086433	0.46996206
0.9727461381258234	0.28632253	0.53509116
0.990273528026193	0.2701346	0.51974475
1.0078009410949496	0.25328806	0.5032773
1.0253283777422473	0.28251782	0.53152406
1.0428558383782454	0.28969884	0.5382368
1.0603833234131086	0.2917103	0.5401021
1.0779108332570058	0.32455522	0.5696975
1.0954383683201119	0.32369536	0.5689423
1.112965929012607	0.38791442	0.62282777
1.1304935157446763	0.44249982	0.6652066
1.1480211289265108	0.50556767	0.7110328
1.1655487689683062	1.3862466	1.1773897
1.1830764362802655	1.7060732	1.3061674
1.200604131272596	2.17331	1.474215
1.2181318543555117	2.3796782	1.5426205
1.235659605939232	2.4047506	1.5507258
1.253187386433982	4.0127354	2.0031812
1.270715196249994	6.5218353	2.5537884
1.2882430357975057	11.718543	3.4232357
1.3057709054867608	16.152336	4.0189967
1.3232988057280106	21.971506	4.6873775
1.3408267369315112	26.970247	5.193289
1.358354699507526	30.810282	5.550701
1.3758826938663256	35.04058	5.9195085
1.3934107204181858	37.37104	6.113186
1.410938779573391	38.224556	6.182601
1.4284668717422309	38.735043	6.223748
1.4459949973350033	38.056637	6.1690063
1.4635231567620117	37.551903	6.1279607
1.4810513504335687	36.568066	6.0471535
1.4985795787599925	35.96714	5.997261
1.5161078421516088	35.784233	5.9819922
1.5336361410187505	34.99737	5.915858
1.5511644757717598	34.893177	5.907045
1.5686928468209842	35.249226	5.9371057
1.58622125457678	36.00585	6.000488
1.6037496994495108	37.521706	6.1254964
1.621278181849548	37.350807	6.111531
1.6388067021872719	37.974907	6.1623783
1.6563352608730693	37.374603	6.113477
1.673863858317336	36.63876	6.052996
1.6913924949304753	36.04306	6.0035872
1.7089211711228998	34.904114	5.9079704
1.7264498873050296	34.099964	5.8395176
1.7439786438872935	32.94141	5.739461
1.7615074412801288	32.003906	5.6571994
1.779036279893981	31.25529	5.590643
1.796565160139305	30.41249	5.514752
1.814094082426564	29.677078	5.447667
1.8316230471662298	28.627108	5.3504305
1.849152054768784	27.565214	5.2502584
1.8666811056447168	27.136658	5.2092857
1.8842102002045273	26.542007	5.1518936
1.901739338858724	26.132706	5.1120157
1.9192685220178245	25.710909	5.0705924
1.9367977500923557	25.186947	5.01866
1.9543270234928547	24.39202	4.9388275
1.971856342629867	23.872177	4.885916
1.9893857079139496	23.384073	4.835708
2.006915119755667	22.98432	4.7941966
2.0244445785655945	22.61445	4.7554655
2.0419740847543175	22.136028	4.704894
2.0595036387324317	21.824675	4.6716886
2.0770332409105414	21.276312	4.612625
2.094562891699263	20.953865	4.577539
2.1120925915092217	20.4214	4.5190043
2.129622340751053	20.084808	4.481608
2.1471521398354043	188.29353	13.722009
2.1646819891729323	444.35913	21.079828
2.182211889174303	440.46594	20.98728
2.1997418402501974	452.83408	21.279898
2.2172718428113023	432.68417	20.801062
2.234801897268317	320.59146	17.905067
2.2523320040319548	16.907652	4.1118917
2.269862163512935	16.735153	4.0908623
2.287392376121992	16.410433	4.050979
2.304922642269869	16.101986	4.012728
2.322452962367322	15.788405	3.9734626
2.3399833368251164	15.56797	3.9456267
2.357513766054032	15.456697	3.9315007
2.3750442504648586	15.181592	3.8963563
2.3925747904683963	14.9381075	3.8649848
2.410105386475459	14.664659	3.8294463
2.4276360388968707	14.193411	3.7674143
2.445166748143469	14.062811	3.7500415
2.4626975146261025	13.799574	3.7147777
2.4802283387556323	13.683096	3.6990669
2.4977592209429305	13.4399	3.6660469
2.5152901615988825	13.030036	3.609714
2.5328211611343865	12.736401	3.5688095
2.5503522199603523	12.332331	3.5117419
2.5678833384877024	12.165837	3.487956
2.5854145171273712	12.099734	3.4784672
2.6029457562903064	12.097026	3.478078
2.620477056387469	11.956709	3.4578474
2.6380084178298326	11.841524	3.4411516
2.655539841028383	11.638203	3.411481
2.673071326394119	11.4798	3.3881855
2.6906028743380523	11.211074	3.3482943
2.708134485271211	10.88045	3.2985528
2.7256661596046325	10.609668	3.2572484
2.743197897749369	10.393896	3.2239566
2.760729700116486	10.187045	3.191715
2.778261567117063	10.067632	3.1729531
2.795793499162193	10.041166	3.1687799
2.8133254966629817	9.95662	3.1554112
2.830857560030551	9.883075	3.143736
2.8483896896760337	9.824657	3.134431
2.865921886010578	9.74625	3.1218984
2.883454149445347	9.619568	3.1015427
2.9009864803915177	9.39504	3.0651329
2.91851887926028	9.187101	3.0310233
2.9360513464628384	8.981827	2.9969697
2.953583882410413	8.924129	2.987328
2.9711164875142373	8.806741	2.9676154
2.9886491621855606	8.722995	2.9534717
3.0061819068356455	8.629886	2.9376667
3.023714721875769	8.577949	2.9288135
3.041247607717225	8.486086	2.9130888
3.0587805647713213	8.396879	2.897737
3.0763135934493806	8.271082	2.875949
3.0938466941627407	8.149004	2.854646
3.1113798673227544	7.9782147	2.8245733
3.1289131133407904	7.920868	2.8144035
3.1464464326282315	7.81703	2.795895
3.1639798255964786	7.7546344	2.7847145
3.1815132926569443	7.637562	2.763614
3.1990468342210603	7.5903363	2.7550566
3.216580450700272	7.5569425	2.7489893
3.2341141425060416	7.573507	2.7520006
3.251647910049847	7.504082	2.739358
3.2691817537431813	7.379589	2.7165399
3.286715673997555	7.22056	2.68711
3.3042496712244938	7.0255604	2.6505773
3.32178374583554	6.980081	2.6419842
3.339317898242251	6.916366	2.6298985
3.3568521288562034	6.9060445	2.6279354
3.3743864380889876	6.886106	2.624139
3.3919208263522127	6.7289286	2.5940177
3.4094552940575023	6.604633	2.569948
3.4269898416164972	6.4238477	2.534531
3.444524469440858	6.375256	2.524927
3.4620591779422587	6.4461217	2.5389214
3.479593967532391	6.354715	2.520856
3.4971288386229658	6.371773	2.5242372
3.5146637916257086	6.3227634	2.5145106
3.5321988269523628	6.3661895	2.523131
3.5497339450146903	6.4097896	2.5317562
3.5672691462244708	6.4373345	2.5371902
3.5848044309934988	6.500551	2.5496178
3.60233979973359	6.418616	2.5334988
3.619875252856575	6.425581	2.534873
3.6374107907743034	6.412841	2.5323586
3.6549464138986427	6.4242587	2.5346122
3.6724821226414788	6.36225	2.52235
3.690017917414714	6.2118144	2.4923513
3.7075537986302702	6.282393	2.5064702
3.7250897667000857	6.3250766	2.5149705
3.7426258220361235	6.5824814	2.5656347
3.7601619650503553	6.8991175	2.6266172
3.777698196154779	7.474468	2.7339473
3.7952345157614067	8.449551	2.906811
3.8127709242822716	9.2120905	3.0351427
3.830307422129425	11.536899	3.396601
3.847844009714936	30.398998	5.513529
3.8653806874508954	97.876755	9.893269
3.882917455749409	97.03071	9.850416
3.900454315022606	96.83312	9.840383
3.917991265682631	41.564335	6.4470406
3.9355283081416506	11.209061	3.3479936
3.9530654428118495	8.880962	2.9800944
3.970602670105433	7.490866	2.7369447
3.9881399904346244	6.5555906	2.5603888
4.005677404211669	6.3735685	2.5245926
4.023214911848827	6.331457	2.5162387
4.0407525137583855	6.325822	2.5151186
4.058290210352644	6.4733677	2.5442815
4.075828002043927	6.3159003	2.5131454
4.0933658892445814	6.234167	2.4968314
4.110903872366966	6.2071834	2.491422
4.128441951823468	6.1891418	2.4877987
4.145980128026488	6.254904	2.5009806
4.163518401388452	6.202607	2.4905033
4.181056772321807	6.1945534	2.4888859
4.1985952412390155	6.1236763	2.4746063
4.216133808552567	6.1772194	2.4854012
4.233672474674966	6.2930956	2.5086043
4.251211240018741	6.516955	2.5528326
4.268750104996445	6.743732	2.5968697
4.286289070020643	7.6939735	2.7738013
4.303828135503928	9.3672495	3.0605962
4.3213673018589125	29.660221	5.44612
4.3389065694982305	90.85313	9.531691
4.356445938834537	166.02928	12.885235
4.3739854102805085	171.29219	13.087864
4.391524984248844	172.20547	13.122708
4.409064661152262	136.43262	11.680437
4.426604441403504	96.8302	9.840234
4.444144325415337	76.11623	8.724462
4.461684313600543	22.041082	4.694793
4.47922440637193	22.427347	4.735752
4.496764604142329	20.530075	4.5310125
4.5143049073245916	18.509354	4.30225
4.531845316331589	16.486223	4.060323
4.5493858315762195	13.646318	3.6940923
4.566926453471405	11.322789	3.3649352
4.584467182430081	9.195938	3.0324805
4.602008018865218	7.978803	2.8246775
4.619548963189798	7.3775115	2.7161574
4.637090015816834	7.002334	2.6461923
4.654631177159353	6.8315525	2.613724
4.672172447630417	6.5613847	2.56152
4.689713827643102	6.346094	2.5191455
4.7072553176105085	6.137235	2.4773443
4.724796917945764	5.9888268	2.447208
4.742338629062015	5.879244	2.4247153
4.759880451372434	5.761863	2.4003882
4.777422385290215	5.6453857	2.376002
4.794964431228581	5.5884624	2.363993
4.812506589600768	5.571035	2.3603039
4.830048860820047	5.584482	2.3631508
4.847591245299709	5.5940585	2.3651762
4.8651337434530655	5.640734	2.375023
4.882676355693457	5.6720114	2.3815985
4.900219082434242	5.697099	2.3868597
4.917761924088813	5.615322	2.369667
4.935304881070575	5.5245104	2.3504276
4.952847953792969	5.425593	2.3292902
4.970391142669449	5.3856406	2.3206983
4.9879344481135055	5.4293623	2.330099
5.005477870538642	5.470532	2.3389168
5.023021410358394	5.4616547	2.3370183
5.040565067986324	5.432385	2.3307478
5.05810884383601	5.322023	2.306951
5.075652738321066	5.356789	2.3144739
5.09319675185512	5.394506	2.3226075
5.110740884851836	5.4401875	2.3324208
5.128285137724894	5.4187512	2.3278213
5.145829510888007	5.355326	2.3141577
5.163374004754908	5.341208	2.3111053
5.1809186197393595	5.402099	2.3242416
5.198463356255145	5.3821225	2.31994
5.216008214716077	5.3426895	2.311426
5.233553195535998	5.283085	2.2984962
5.251098299128764	5.2629275	2.2941072
5.268643525908272	5.2991786	2.3019946
5.286188876288432	5.239297	2.2889512
5.3037343506831895	5.195547	2.2793744
5.32127994950651	5.137861	2.266685
5.3388256731723915	5.126311	2.2641358
5.356371522094851	5.1875854	2.2776272
5.373917496687938	5.202221	2.2808378
5.391463597365729	5.1989636	2.2801237
5.40900982454232	5.1795306	2.2758582
5.426556178631843	5.191736	2.2785382
5.444102660048449	5.1777186	2.27546
5.4616492692063225	5.159503	2.2714539
5.479196006519669	5.1531706	2.2700596
5.496742872402727	5.0841393	2.2548037
5.514289867269756	5.0369754	2.2443206
5.531836991535049	5.0987267	2.2580361
5.549384245612924	5.225351	2.2859027
5.566931629917724	5.2372327	2.2885
5.584479144863822	5.192317	2.2786655
5.6020267908656205	5.0998516	2.258285
5.619574568337545	5.058415	2.249092
5.637122477694054	5.066697	2.2509325
5.654670519349629	5.1137714	2.261365
5.672218693718784	5.183597	2.2767515
5.689767001216059	5.189955	2.2781472
5.707315442256021	5.1603994	2.2716513
5.724864017253266	5.126302	2.2641337
5.7424127266224225	5.069264	2.2515025
5.75996157077814	5.1313844	2.265256
5.777510550135105	5.1093435	2.2603858
5.795059665108022	5.1641126	2.2724683
5.812608916111639	5.196483	2.2795796
5.830158303560715	5.231524	2.2872524
5.847707827870055	5.270836	2.29583
5.86525748945448	5.3137035	2.3051472
5.8828072887288485	5.41861	2.3277907
5.900357226108044	5.5099564	2.3473296
5.917907302006979	5.621003	2.3708656
5.9354575168406	6.194186	2.4888122
5.9530078710238765	6.7504096	2.598155
5.970558364971812	7.28264	2.6986368
5.988108999099438	7.653349	2.7664688
6.005659773821818	8.255202	2.8731868
6.023210689554039	8.000062	2.828438
6.040761746711227	8.418479	2.9014616
6.058312945708531	7.7366753	2.781488
6.075864286961132	7.3435345	2.7098956
6.093415770884244	6.775735	2.6030242
6.1109673978931065	6.245416	2.499083
6.128519168402993	5.610227	2.3685918
6.146071082829204	5.356617	2.3144367
6.163623141587075	5.1860075	2.2772808
6.181175345091969	5.1159053	2.2618368
6.198727693759281	5.05256	2.24779
6.216280188004435	5.0692706	2.2515042
6.233832828242885	5.0733933	2.2524195
6.251385614890126	5.2294617	2.2868016
6.268938548361669	5.2653027	2.2946248
6.286491629073067	5.179828	2.2759235
6.304044857439898	5.0427065	2.2455971
6.321598233877777	5.0093894	2.2381666
6.339151758802344	5.071089	2.2519078
6.356705432629277	5.1752434	2.2749162
6.37425925577428	5.175195	2.2749054
6.391813228653095	5.0738473	2.2525203
6.409367351681486	4.971648	2.2297194
6.426921625275259	4.9399123	2.2225914
6.44447604985025	5.0081058	2.2378798
6.46203062582232	5.0388536	2.244739
6.47958535360737	5.0365515	2.2442262
6.497140233621328	4.99156	2.23418
6.514695266280161	4.9428687	2.2232563
6.532250451999859	4.9265	2.219572
6.549805791196454	4.92316	2.2188196
6.567361284286002	4.971273	2.2296352
6.584916931684597	4.977678	2.231071
6.602472733808367	4.961523	2.2274477
6.6200286910734665	4.9312787	2.2206483
6.637584803896092	4.959897	2.2270827
6.655141072692462	4.983875	2.2324593
6.672697497878842	4.9435105	2.2234006
6.690254079871514	4.9139876	2.2167516
6.707810819086808	4.8759236	2.2081494
6.725367715941078	4.918479	2.2177644
6.742924770850719	4.91348	2.2166371
6.760481984232151	4.9182773	2.2177188
6.778039356501836	4.855379	2.2034924
6.795596888076266	4.7985	2.190548
6.813154579371963	4.785748	2.1876352
6.830712430805492	4.8354335	2.198962
6.84827044279344	4.9834356	2.232361
6.865828615752445	5.0053973	2.2372746
6.883386950099159	5.002745	2.2366817
6.900945446250287	4.911367	2.2161603
6.918504104622553	4.91213	2.2163324
6.936062925632727	4.9452643	2.223795
6.953621909697607	5.021531	2.2408774
6.971181057234028	5.1007924	2.2584934
6.988740368658859	5.1612167	2.271831
7.006299844389007	5.2500534	2.2912996
7.023859484841407	5.3349442	2.3097498
7.041419290433036	5.3890643	2.321436
7.058979261580902	5.485992	2.3422194
7.0765393987020495	5.6818604	2.3836653
7.094099702213559	6.030478	2.4557033
7.111660172532549	6.3662343	2.5231397
7.129220810076164	6.68638	2.5858035
7.146781615261595	7.3366117	2.7086182
7.16434258850606	7.596574	2.7561884
7.181903730226821	8.015537	2.8311725
7.1994650408411704	8.14698	2.8542914
7.217026520766437	8.322989	2.8849592
7.234588170419983	8.57741	2.9287214
7.252149990219215	8.568543	2.9272075
7.269711980581568	8.400862	2.898424
7.2872741419245175	8.182377	2.8604853
7.304836474665574	7.7035174	2.775521
7.322398979222286	7.39501	2.7193768
7.339961656012233	7.1224074	2.668784
7.357524505453039	6.871392	2.621334
7.375087527962357	6.629521	2.5747857
7.392650723957886	6.290862	2.5081592
7.410214093857353	5.8989873	2.4287832
7.427777638078528	5.6471863	2.376381
7.445341357039213	5.5045485	2.3461773
7.4629052511572525	5.382843	2.3200955
7.480469320850524	5.290441	2.3000958
7.498033566536948	5.3678885	2.3168705
7.5155979886344735	5.371342	2.3176155
7.5331625875610975	5.3013825	2.302473
7.550727363734844	5.2077084	2.2820404
7.568292317573788	5.1534357	2.270118
7.585857449496025	5.1956625	2.2793996
7.603422759919705	5.2329054	2.2875545
7.620988249263007	5.2363586	2.288309
7.638553917944147	5.2232723	2.2854478
7.656119766381391	5.134654	2.2659776
7.673685794993023	5.1105046	2.2606425
7.691252004197388	5.1796026	2.2758741
7.70881839441285	5.284339	2.298769
7.726384966057826	5.3479857	2.3125713
7.743951719550762	5.2556505	2.2925205
7.761518655310149	5.1641135	2.2724686
7.779085773754511	5.131958	2.2653825
7.796653075302419	5.2479806	2.290847
7.814220560372475	5.2929583	2.300643
7.831788229383323	5.3138366	2.305176
7.8493560827536495	5.3025846	2.3027341
7.866924120902174	5.31415	2.305244
7.884492344247663	5.3110366	2.3045685
7.9020607532089135	5.2962675	2.301362
7.919629348204771	5.3633556	2.315892
7.937198129654115	5.3774548	2.318934
7.954767097975865	5.3803477	2.3195577
7.972336253588986	5.3798504	2.3194504
7.989905596912472	5.3887887	2.3213766
8.007475128365371	5.422572	2.3286417
8.025044848366756	5.4635153	2.3374164
8.042614757335754	5.5399413	2.353708
8.060184855691523	5.5578055	2.3574998
8.07775514385327	5.6377397	2.3743925
8.095325622240228	5.7310348	2.3939579
8.112896291271687	5.863478	2.421462
8.130467151366968	5.96293	2.4419112
8.148038202945436	6.0675974	2.4632494
8.165609446426497	6.0473747	2.459141
8.183180882229594	6.0657725	2.462879
8.200752510774217	5.9440722	2.4380467
8.218324332479893	5.9432645	2.4378812
8.235896347766193	5.9248624	2.434104
8.253468557052724	5.896656	2.428303
8.27104096075914	5.9455204	2.4383438
8.288613559305137	5.962987	2.441923
8.306186353110448	6.0290956	2.4554217
8.32375934259485	6.097122	2.4692352
8.341332528178162	6.131525	2.4761918
8.358905910280246	6.227229	2.4954417
8.376479489321003	6.1902294	2.488017
8.394053265720377	6.287921	2.5075727
8.411627239898356	6.359056	2.5217168
8.42920141227497	6.3811584	2.5260954
8.44677578327029	6.344152	2.51876
8.464350353304427	6.2581544	2.5016303
8.48192512279754	6.2715554	2.5043073
8.499500092169827	6.246291	2.499258
8.51707526184153	6.217228	2.493437
8.534650632232934	6.1768513	2.4853272
8.552226203764365	6.132739	2.4764369
8.569801976856192	6.2046347	2.4909103
8.587377951928834	6.201997	2.4903808
8.60495412940274	6.236371	2.4972727
8.622530509698416	6.2455034	2.4991004
8.6401070932364	6.409421	2.5316834
8.657683880437283	6.5858736	2.5662956
8.675260871721695	6.771697	2.6022484
8.692838067510303	6.912035	2.6290748
8.710415468223834	7.0401707	2.653332
8.727993074283043	7.110136	2.6664839
8.745570886108737	7.087133	2.662167
8.763148904121765	7.0781436	2.660478
8.78072712874302	7.1308665	2.6703682
8.798305560393441	7.3984747	2.7200136
8.815884199494006	7.558337	2.749243
8.833463046465745	7.7681036	2.7871318
8.851042101729728	7.9087987	2.8122587
8.86862136570707	8.179995	2.860069
8.886200838818924	8.321451	2.8846927
8.903780521486505	8.313109	2.8832464
8.921360414131055	8.374717	2.8939102
8.938940517173874	8.463988	2.9092934
8.956520831036297	8.646909	2.9405627
8.97410135613971	9.000752	3.0001254
8.99168209290554	9.235518	3.0389996
9.009263041755265	9.550766	3.0904315
9.026844203110405	9.777688	3.1269295
9.044425577392525	9.959278	3.1558323
9.062007165023239	10.079579	3.1748354
9.079588966424197	10.291169	3.2079852
9.097170982017108	10.405174	3.2257051
9.11475321222372	11.4591675	3.3851392
9.132335657465825	12.418915	3.524048
9.149918318165264	12.48343	3.5331898
9.167501194743924	12.979023	3.602641
9.18508428762374	12.567368	3.5450482
9.202667597226693	12.511917	3.5372188
9.220251123974803	12.153131	3.486134
9.237834868290143	11.855004	3.4431098
9.255418830594836	11.807176	3.436157
9.273003011311046	11.306424	3.3625026
9.290587410860985	11.075547	3.3279946
9.308172029666911	10.423814	3.228593
9.32575686815113	10.116686	3.1806738
9.343341926735997	8.7295	2.9545727
9.360927205843916	8.489141	2.913613
9.378512705897327	8.27702	2.876981
9.396098427318728	8.150302	2.8548734
9.413684370530664	8.143957	2.853762
9.431270535955722	8.000873	2.8285813
9.448856924016539	7.9121585	2.812856
9.466443535135806	7.760685	2.7858007
9.484030369736251	7.79736	2.7923753
9.501617428240658	7.7331204	2.780849
9.519204711071852	7.7177505	2.778084
9.536792218652714	7.731507	2.7805588
9.55437995140617	7.7720127	2.787833
9.571967909755191	7.830901	2.7983747
9.589556094122802	7.908573	2.8122184
9.60714450493207	7.9336925	2.8166811
9.624733142606116	7.9203963	2.8143198
9.642322007568108	7.921116	2.8144476
9.659911100241267	7.952603	2.820036
9.677500421048851	7.986736	2.8260813
9.695089970414175	8.012175	2.8305786
9.712679748760609	8.025311	2.8328981
9.730269756511557	8.079868	2.842511
9.747859994090492	8.062576	2.8394675
9.765450461920915	8.080215	2.842572
9.78304116042639	8.057372	2.838551
9.800632090030527	8.073352	2.8413644
9.81822325115699	8.145886	2.8541
9.835814644229481	8.198887	2.86337
9.853406269671762	8.285848	2.8785148
9.870998127907646	8.310965	2.8828743
9.888590219360985	8.315762	2.8837063
9.906182544455698	8.273777	2.8764174
9.923775103615734	8.250526	2.8723729
9.941367897265108	8.1670685	2.8578084
9.958960925827878	8.184166	2.8607981
9.97655418972816	8.138481	2.8528023
9.994147689390106	8.235536	2.8697622
10.011741425237934	8.257283	2.873549
10.029335397695904	8.320864	2.8845906
10.04692960718833	8.210274	2.8653576
10.06452405413958	8.083068	2.8430736
10.082118738974064	8.107099	2.8472967
10.099713662116246	8.156464	2.8559523
10.117308823990651	8.191501	2.8620799
10.134904225021844	8.199096	2.8634064
10.152499865634445	8.182279	2.8604681
10.170095746253125	8.243856	2.8712118
10.18769186730261	8.211867	2.8656356
10.205288229207675	8.210061	2.8653204
10.222884832393145	8.136889	2.8525233
10.2404816772839	8.017073	2.8314435
10.258078764304868	7.9819384	2.8252325
10.275676093881035	7.9897523	2.826615
10.293273666437438	8.087355	2.8438275
10.310871482399158	8.155683	2.8558156
10.32846954219134	8.149951	2.854812
10.346067846239173	8.130537	2.8514097
10.363666394967908	8.091238	2.84451
10.38126518880283	8.113176	2.8483639
10.398864228169298	8.218352	2.866767
10.416463513492713	8.299331	2.8808558
10.434063045198531	8.285394	2.878436
10.451662823712262	8.220429	2.867129
10.469262849459467	8.153056	2.8553557
10.486863122865758	8.133143	2.8518667
10.504463644356806	8.181	2.8602448
10.522064414358338	8.160636	2.8566828
10.539665433296118	8.05266	2.8377209
10.557266701595987	7.935891	2.8170714
10.574868219683818	7.741667	2.782385
10.592469987985552	7.683247	2.771867
10.610072006927185	7.59464	2.7558374
10.627674276934751	7.549445	2.7476254
10.64527679843435	7.4346123	2.7266486
10.662879571852143	7.3214006	2.7058086
10.680482597614331	7.1747594	2.678574
10.698085876147173	6.996947	2.6451743
10.715689407876988	6.89997	2.6267793
10.733293193230146	6.8408446	2.615501
10.750897232633072	6.8107758	2.6097462
10.76850152651225	6.7377763	2.5957227
10.786106075294207	6.605852	2.5701852
10.803710879405534	6.551322	2.559555
10.821315939272877	6.4022913	2.5302749
10.83892125532294	6.338133	2.5175648
10.856526827982472	6.1946335	2.488902
10.874132657678285	6.187597	2.487488
10.891738744837243	6.1582155	2.4815753
10.909345089886271	6.104012	2.47063
10.926951693252343	6.0974474	2.469301
10.944558555362494	6.0285783	2.4553163
10.96216567664381	5.9448643	2.4382093
10.979773057523436	5.8682513	2.4224474
10.997380698428573	5.8524156	2.4191766
11.014988599786477	5.820163	2.4125013
11.032596762024461	5.7204285	2.3917418
11.050205185569892	5.5652285	2.3590736
11.067813870850198	5.469756	2.338751
11.085422818292859	5.4322042	2.330709
11.10303202832541	5.4568505	2.3359902
11.120641501375454	5.4382796	2.332012
11.138251237870636	5.3894687	2.321523
11.155861238238671	5.3051176	2.3032842
11.173471502907317	5.240101	2.2891266
11.191082032304402	5.150052	2.2693727
11.208692826857805	5.0587587	2.2491684
11.226303886995465	4.9658093	2.2284095
11.243915213145371	4.9638085	2.2279606
11.261526805735578	4.964267	2.2280633
11.279138665194196	4.9176283	2.2175727
11.296750791949393	4.849642	2.2021902
11.314363186429393	4.7356796	2.1761618
11.331975849062479	4.6906676	2.1657948
11.34958878027699	4.608982	2.146854
11.36720198050133	4.595057	2.1436083
11.384815450163948	4.5834074	2.1408894
11.402429189693366	4.5304036	2.1284745
11.420043199518153	4.4540343	2.1104584
11.437657480066942	63.37215	7.960663
11.455272031768422	85.12673	9.226415
11.472886855051353	107.5637	10.371292
11.490501950344528	99.17031	9.958429
11.508117318076819	84.49239	9.191975
11.52573295867715	45.857975	6.7718515
11.543348872574514	4.1590858	2.0393836
11.560965060197946	4.148281	2.036733
11.57858152197655	4.1526437	2.0378036
11.59619825833949	4.105836	2.0262861
11.613815269715985	3.9777853	1.9944386
11.631432556535323	38.481087	6.2033124
11.649050119226837	82.98912	9.109837
11.666667958219929	93.42502	9.665662
11.68428607394406	107.64516	10.375218
11.701904466828756	82.44389	9.079862
11.719523137303586	65.279305	8.079561
11.737142085798196	4.4813695	2.1169245
11.754761312742286	3.5656693	1.888298
11.772380818565619	3.5124946	1.874165
11.790000603698015	3.5538864	1.8851755
11.80762066856935	3.58237	1.892715
11.825241013609572	3.5896244	1.8946304
11.842861639248683	3.5636163	1.8877543
11.860482545916748	3.4993408	1.8706526
11.878103734043883	3.498183	1.870343
11.895725204060282	3.4912574	1.8684907
11.91334695639619	3.4826465	1.866185
11.930968991481919	3.4140682	1.8477198
11.948591309747824	3.356633	1.8321116
11.966213911624347	3.352195	1.8309001
11.98383679754198	3.35205	1.8308605
12.001459967931268	3.3019624	1.8171302
12.019083423222835	3.2372537	1.799237
12.036707163847352	3.2003627	1.7889558
12.05433119023556	3.1955338	1.7876056
12.071955502818259	3.182727	1.78402
12.089580102026313	3.14974	1.7747507
12.107204988290643	3.1503458	1.7749213
12.12483016204224	3.174642	1.7817526
12.142455623712152	3.1489487	1.7745278
12.16008137373149	3.1047468	1.7620292
12.177707412531431	3.089548	1.757711
12.19533374054321	3.1285577	1.768773
12.212960358198126	3.101369	1.7610704
12.230587265927545	3.0478334	1.7458045
12.248214464162889	2.9958704	1.7308583
12.265841953335649	2.9557557	1.7192311
12.283469733877375	2.9644854	1.7217681
12.301097806219685	2.963041	1.7213486
12.31872617079425	2.931579	1.7121855
12.336354828032825	2.9326417	1.7124958
12.353983778367205	2.951914	1.7181135
12.371613022229262	2.990117	1.7291955
12.389242560050928	2.950622	1.7177374
12.406872392264201	2.9506876	1.7177566
12.424502519301143	2.9138317	1.7069949
12.442132941593874	2.8764408	1.6960073
12.459763659574586	2.8244262	1.6806029
12.477394673675532	2.8247979	1.6807135
12.49502598432903	2.8291469	1.6820068
12.51265759196746	2.8426013	1.6860015
12.530289497023267	2.8559215	1.6899472
12.547921699928967	2.81112	1.6766396
12.565554201117134	2.7978513	1.6726779
12.583187001020404	2.756813	1.6603653
12.600820100071486	2.747181	1.6574622
12.618453498703152	2.773844	1.6654861
12.636087197348235	2.7771199	1.6664693
12.65372119643964	2.7765577	1.6663007
12.671355496410326	2.7715127	1.6647861
12.68899009769333	2.7949276	1.6718037
12.706625000721749	2.848984	1.6878934
12.724260205928752	2.9324293	1.7124337
12.741895713747551	2.9873805	1.728404
12.759531524611454	3.0175548	1.7371111
12.777167638953818	2.9972632	1.7312605
12.794804057208072	2.9864168	1.7281252
12.812440779807702	2.9903822	1.7292721
12.830077807186271	3.1526997	1.7755843
12.847715139777405	3.1997252	1.7887776
12.865352778014795	3.4372673	1.8539869
12.882990722332197	3.532063	1.8793783
12.90062897316344	3.5946178	1.8959477
12.918267530942412	3.6960158	1.9225025
12.935906396103071	3.6051629	1.8987266
12.953545569079449	3.7715003	1.9420351
12.971185050305628	3.5920517	1.895271
12.988824840215775	3.5731478	1.8902771
13.006464939244115	3.580858	1.8923155
13.024105347824943	3.4543924	1.8585995
13.041746066392617	3.539246	1.8812884
13.05938709538157	3.3596227	1.8329273
13.077028435226296	3.397769	1.8433038
13.094670086361363	3.3218715	1.8226002
13.112312049221401	3.2730987	1.8091707
13.129954324241112	3.1558123	1.7764606
13.147596911855258	2.9467115	1.7165989
13.165239812498685	2.8691375	1.6938529
13.182883026606293	2.8062828	1.6751963
13.200526554613058	2.7515192	1.6587704
13.218170396954017	2.7203176	1.6493385
13.235814554064284	2.7105637	1.646379
13.253459026379034	2.7241693	1.6505058
13.271103814333523	2.7104182	1.6463348
13.288748918363058	2.7128196	1.647064
13.306394338903031	2.683421	1.638115
13.32404007638889	2.660499	1.6311036
13.341686131256164	2.6481493	1.6273135
13.359332503940449	2.6358619	1.6235337
13.376979194877402	2.6454613	1.6264874
13.394626204502751	2.6829782	1.6379799
13.412273533252307	2.7037916	1.644321
13.429921181561937	2.7352474	1.6538583
13.447569149867581	2.818988	1.6789843
13.465217438605247	2.8219955	1.6798797
13.482866048211022	2.7896187	1.6702151
13.500514979121052	2.7387776	1.6549252
13.518164231771568	2.7173514	1.648439
13.535813806598844	2.6786227	1.6366498
13.553463704039254	2.6522303	1.628567
13.571113924529229	2.639766	1.6247357
13.588764468505275	2.6366153	1.6237658
13.606415336403956	2.679144	1.6368091
13.624066528661917	2.693409	1.6411608
13.641718045715882	2.7645724	1.6627003
13.659369888002635	2.8107772	1.6765373
13.67702205595903	2.8981194	1.7023864
13.694674550021993	2.9826481	1.7270344
13.712327370628532	3.0579426	1.7486974
13.729980518215713	3.0944633	1.7591087
13.747633993220681	3.148203	1.7743176
13.765287796080647	3.1692908	1.7802502
13.7829419272329	3.2721264	1.808902
13.800596387114801	3.3106577	1.8195213
13.818251176163775	3.3582795	1.8325609
13.835906294817324	3.3868065	1.8403279
13.853561743513023	3.437165	1.8539593
13.871217522688525	3.4352355	1.8534389
13.888873632781538	3.4464946	1.8564737
13.906530074229858	3.437288	1.8539925
13.92418684747135	3.476113	1.8644338
13.941843952943948	3.4947124	1.8694149
13.959501391085665	3.4660828	1.8617419
13.977159162334578	3.3760061	1.8373911
13.994817267128846	3.3512042	1.8306295
14.012475705906693	3.2553692	1.8042642
14.030134479106424	3.1296382	1.7690784
14.047793587166414	3.0593278	1.7490934
14.065453030525108	3.0302052	1.7407485
14.083112809621026	2.9454665	1.7162361
14.100772924892766	2.8703334	1.6942059
14.118433376778997	2.8237998	1.6804166
14.136094165718458	2.7767408	1.6663555
14.153755292149969	2.7364368	1.6542178
14.171416756512416	2.7120824	1.6468401
14.189078559244768	2.6763155	1.6359448
14.20674070078606	2.6247733	1.6201152
14.224403181575408	2.584034	1.607493
14.242066002051999	2.554074	1.598147
14.259729162655093	2.4859662	1.5766947
14.277392663824022	2.4446428	1.5635353
14.295056505998208	2.4206524	1.5558445
14.312720689617128	2.386748	1.5449104
14.330385215120348	2.3951786	1.5476364
14.348050082947497	2.375255	1.5411862
14.3657152935383	2.3712451	1.5398848
14.383380847332528	2.3843124	1.5441219
14.401046744770051	2.3574016	1.5353832
14.418712986290798	2.3678963	1.538797
14.436379572334793	2.3617945	1.5368131
14.454046503342123	2.3668458	1.5384557
14.471713779752946	2.3653815	1.5379797
14.489381402007504	2.380892	1.5430139
14.507049370546113	2.4201221	1.5556742
14.524717685809168	2.4431176	1.5630475
14.542386348237134	2.4320652	1.559508
14.560055358270553	2.4228494	1.5565505
14.577724716350051	2.4298031	1.5587826
14.595394422916325	2.4176946	1.5548937
14.61306447841015	2.4451516	1.563698
14.63073488327237	2.4466455	1.5641756
14.648405637943917	2.408749	1.5520146
14.6660767428658	2.3844335	1.5441611
14.683748198479094	2.4404235	1.5621855
14.701420005224954	2.5377247	1.5930238
14.719092163544628	2.6173398	1.6178194
14.73676467387942	2.627829	1.621058
14.754437536670727	2.6672938	1.6331851
14.772110752360014	2.6643438	1.6322818
14.78978432138882	2.6602893	1.6310394
14.807458244198777	2.6500518	1.627898
14.82513252123159	2.6807058	1.6372861
14.842807152929028	2.7212873	1.6496325
14.860482139732962	2.692405	1.640855
14.87815748208531	2.641826	1.6253694
14.8958331804281	2.6416135	1.6253041
14.91350923520342	2.6263645	1.6206062
14.931185646853438	2.6618931	1.6315309
14.948862415820408	2.6797087	1.6369816
14.966539542546656	2.7036462	1.6442767
14.98421702747459	2.6581166	1.6303731
15.001894871046696	2.6649182	1.6324577
15.019573073705542	2.678238	1.6365323
15.037251635893766	2.6726942	1.6348376
15.054930558054092	2.6822748	1.6377652
15.072609840629323	2.7070742	1.6453189
15.090289484062351	2.866076	1.6929489
15.107969488796124	3.2059555	1.7905182
15.125649855273691	3.6640902	1.9141814
15.14333058393817	4.157419	2.038975
15.161011675232768	5.08985	2.2560697
15.17869312960076	6.3470035	2.519326
15.196374947485506	8.095892	2.845328
15.214057129330447	11.161358	3.3408618
15.231739675579114	15.948211	3.993521
15.249422586675102	21.10732	4.59427
15.267105863062092	24.33034	4.9325795
15.284789505183847	24.646824	4.9645567
15.302473513484218	22.61486	4.7555084
15.320157888407127	18.977337	4.3562984
15.337842630396578	14.757174	3.8415067
15.355527739896656	11.454548	3.3844569
15.37321321735153	8.886129	2.980961
15.39089906320545	6.4300146	2.5357473
15.408585277902748	4.8172383	2.194821
15.42627186188783	3.693055	1.9217323
15.443958815605198	3.1430295	1.7728591
15.461646139499424	2.876328	1.6959741
15.479333834015168	2.7680473	1.6637449
15.497021899597165	2.7239823	1.6504492
15.514710336690234	2.6753235	1.6356416
15.53239914573928	2.6517808	1.6284289
15.550088327189297	2.6138957	1.6167547
15.567777881485336	2.5858865	1.6080692
15.58546780907256	2.5223265	1.5881834
15.6031581103962	2.50782	1.5836098
15.620848785901568	2.5033653	1.5822027
15.638539836034063	2.4965453	1.5800459
15.656231261239173	2.4512722	1.5656539
15.673923061962451	2.420333	1.5557419
15.691615238649552	2.4326591	1.5596985
15.709307791746202	2.4401248	1.5620899
15.727000721698221	2.42354	1.5567724
15.744694028951498	2.3867683	1.544917
15.76238771395202	2.3803287	1.5428314
15.780081777145844	2.3840656	1.544042
15.797776218979125	2.4003806	1.5493162
15.815471039898094	2.3864305	1.5448076
15.833166240349064	2.3598225	1.5361714
15.850861820778437	2.3555732	1.5347877
15.868557781632699	2.3953927	1.5477057
15.886254123358412	2.45087	1.5655255
15.903950846402232	2.4121635	1.5531142
15.921647951210897	2.374957	1.5410895
15.939345438231225	2.3638277	1.5374745
15.957043307910133	2.3822887	1.5434664
15.974741560694602	2.387026	1.5450003
15.992440197031714	2.3811524	1.5430983
16.01013921736862	2.3853502	1.5444579
16.02783862215259	2.3807483	1.5429673
16.045538411830933	2.3729174	1.5404277
16.06323858685107	2.365962	1.5381684
16.080939147660512	2.390621	1.5461633
16.09864009470684	2.4143336	1.5538126
16.11634142843774	2.3988647	1.5488269
16.134043149300954	2.3989553	1.5488561
16.15174525774433	2.405204	1.5508721
16.169447754215817	2.4345448	1.5603027
16.18715063916342	2.4031792	1.550219
16.204853913035244	2.3985653	1.5487303
16.222557576279478	2.419382	1.5554363
16.240261629344403	22.437902	4.7368665
16.257966072678386	43.002285	6.557613
16.275670906729868	38.060722	6.1693373
16.293376131947387	2.4705257	1.5717906
16.31108174877957	2.484479	1.576223
16.328787757675133	2.5515897	1.5973697
16.34649415908287	2.6037107	1.6136018
16.364200953451657	2.6503034	1.6279752
16.38190814123048	2.6428344	1.6256797
16.39961572286839	2.6512365	1.6282618
16.41732369881455	2.6826692	1.6378856
16.43503206951817	2.7116473	1.646708
16.45274083542859	2.7244	1.6505756
16.47044999699522	2.718077	1.6486591
16.488159554667558	2.7915335	1.6707883
16.505869508895184	2.8560238	1.6899774
16.523579860127786	2.9311001	1.7120456
16.541290608815117	2.9498842	1.7175227
16.559001755407035	3.016282	1.7367446
16.57671330035348	3.095537	1.7594138
16.59442524410448	3.1785815	1.7828577
16.61213758711015	3.2082016	1.7911453
16.629850329820705	3.2497954	1.8027189
16.647563472686436	3.3176808	1.8214502
16.665277016157724	3.3873134	1.8404655
16.682990960685053	3.454449	1.8586148
16.70070530671898	3.4996443	1.8707336
16.718420054710155	3.536679	1.880606
16.736135205109335	3.5734587	1.8903594
16.753850758367335	3.6155055	1.9014482
16.771566714935087	3.6357436	1.9067626
16.789283075263597	3.6790428	1.9180831
16.80699983980398	3.7227767	1.9294498
16.82471700900741	3.7708213	1.9418603
16.84243458332518	3.8822308	1.9703377
16.860152563208665	3.9676774	1.991903
16.87787094910932	4.0175405	2.0043802
16.89558974147871	4.0468383	2.0116756
16.913308940768466	4.1133876	2.028149
16.931028547430333	4.2395463	2.0590158
16.94874856191613	4.2970934	2.0729432
16.966468984677785	4.347177	2.0849886
16.98418981616729	4.379787	2.092794
17.00191105683676	4.4415097	2.1074889
17.019632707138374	4.506287	2.1228018
17.03735476752442	4.5886064	2.1421032
17.05507723844728	4.6010485	2.1450055
17.072800120359403	4.5878444	2.1419253
17.090523413713353	4.5799565	2.1400833
17.108247118961785	4.6199503	2.149407
17.125971236557437	4.640685	2.1542249
17.143695766953133	4.679088	2.16312
17.161420710601806	4.7221437	2.1730494
17.179146067956477	4.7069664	2.1695545
17.19687183947025	4.6983933	2.1675777
17.21459802559634	4.6719456	2.1614683
17.232324626788028	4.653463	2.1571887
17.25005164349871	4.6630025	2.1593986
17.267779076181863	4.717262	2.1719258
17.285506925291074	4.694049	2.1665754
17.30323519127999	4.646855	2.1556566
17.320963874602384	4.5619392	2.1358697
17.33869297571211	4.523102	2.1267586
17.356422495063114	4.4687505	2.113942
17.37415243310944	4.4008822	2.097828
17.391882790305218	4.410921	2.1002192
17.40961356710468	4.414178	2.1009946
17.42734476396215	4.49147	2.1193087
17.445076381332044	4.496164	2.120416
17.462808419668868	4.515038	2.124862
17.48054087942723	4.6041274	2.145723
17.498273761061835	4.869173	2.2066202
17.51600706502747	5.3617477	2.3155448
17.533740791779024	6.0920362	2.468205
17.551474941771485	7.535237	2.7450385
17.56920951545993	8.634002	2.9383671
17.586944513299528	10.784092	3.283914
17.60467993574556	12.520981	3.5384998
17.622415783253373	14.313259	3.7832868
17.64015205627843	15.768175	3.9709163
17.657888755276293	16.885885	4.109244
17.675625880702604	17.434599	4.175476
17.69336343301311	17.333082	4.163302
17.71110141266366	16.522663	4.064808
17.728839820110178	15.500753	3.9370997
17.746578655808705	14.499668	3.807843
17.764317920215372	13.035792	3.6105113
17.7820576137864	11.599754	3.405841
17.79979773697811	9.599321	3.098277
17.81753829024692	7.630332	2.7623055
17.835279274049356	5.81582	2.411601
17.85302068884201	4.7304087	2.1749504
17.870762535081607	4.130473	2.0323565
17.888504813224934	3.8127625	1.9526297
17.90624752372891	3.6656857	1.914598
17.923990667050536	3.5694983	1.8893116
17.941734243646895	3.4987001	1.8704813
17.959478253975185	3.438236	1.854248
17.9772226984927	3.444284	1.8558782
17.994967577656833	3.4299338	1.852008
18.01271289192506	3.4461515	1.8563813
18.030458641754965	3.418606	1.8489473
18.04820482760425	3.3433933	1.8284948
18.06595144993067	3.2704751	1.8084455
18.083698509192125	3.239495	1.7998598
18.101446005846576	3.25572	1.8043613
18.119193940352105	3.2573614	1.8048161
18.136942313166887	3.2573955	1.8048257
18.1546911247492	3.2458272	1.801618
18.1724403755574	3.192103	1.7866458
18.19019006604997	3.1311772	1.7695132
18.207940196685467	3.1035738	1.7616963
18.225690767922575	3.1008513	1.7609234
18.243441780220046	3.09843	1.7602358
18.261193234036764	3.0525076	1.7471427
18.278945129831676	3.0502257	1.7464895
18.29669746806386	3.0532782	1.7473632
18.314450249192483	3.0590816	1.7490231
18.3322034736768	3.0181973	1.737296
18.349957141976184	3.0011375	1.7323792
18.3677112545501	3.0377839	1.742924
18.385465811858108	3.0694582	1.751987
18.403220814359884	3.08113	1.7553148
18.420976262515172	3.0933797	1.7588006
18.43873215678387	3.1068218	1.7626178
18.456488497625923	3.0765667	1.7540145
18.474245285501407	3.1637194	1.7786847
18.492002520870486	3.261508	1.8059646
18.50976020419343	3.3602777	1.833106
18.527518335930615	3.6304708	1.9053794
18.545276916542516	4.239395	2.058979
18.563035946489688	4.4361706	2.106222
18.580795426232832	4.844284	2.2009735
18.598555356232698	4.6922464	2.1661594
18.616315736950185	5.0125656	2.2388759
18.63407656884626	4.6489234	2.1561363
18.65183785238201	4.801347	2.1911976
18.669599588018617	4.563991	2.13635
18.68736177621737	4.628335	2.1513565
18.705124417439652	4.5982585	2.144355
18.72288751214696	4.421623	2.1027656
18.740651060800886	4.5233216	2.1268103
18.758415063863115	4.2954345	2.072543
18.77617952179546	4.4609756	2.1121023
18.793944435059814	4.237954	2.0586293
18.811709804118184	4.234678	2.0578332
18.829475629432675	4.194923	2.048151
18.8472419114655	3.9849548	1.9962351
18.86500865067897	4.0746574	2.018578
18.88277584753551	3.7556345	1.937946
18.90054350249763	3.7406306	1.934071
18.918311616027957	3.4104664	1.8467448
18.936080188589226	3.2648258	1.8068829
18.953849220644265	3.0257256	1.7394613
18.971618712656007	2.8941798	1.7012289
18.9893886650875	2.8301926	1.6823176
19.007159078401887	7.9865003	2.8260398
19.024929953062408	32.868248	5.7330837
19.042701289532435	32.837505	5.730402
19.060473088275405	25.395004	5.0393457
19.07824534975489	2.618202	1.6180859
19.096018074434568	2.5396981	1.5936431
19.113791262778197	2.523122	1.5884339
19.13156491524966	2.5472627	1.5960146
19.149339032312945	2.5662322	1.6019464
19.167113614432136	2.5500178	1.5968776
19.184888662071433	2.5177693	1.586748
19.202664175695123	2.4981005	1.580538
19.220440155767623	2.491006	1.5782921
19.238216602753447	2.498342	1.5806144
19.2559935171172	2.5127623	1.5851694
19.27377089932361	2.521091	1.5877944
19.291548749837514	2.5231571	1.5884448
19.309327069123835	2.5122263	1.5850004
19.32710585764763	2.485739	1.5766226
19.344885115874032	2.4552798	1.5669333
19.362664844268313	2.4543889	1.566649
19.380445043295822	2.4721634	1.5723115
19.39822571342203	2.4640758	1.5697376
19.41600685511252	2.4338064	1.5600661
19.43378846883297	2.4182177	1.5550619
19.451570555049173	2.416239	1.5544256
19.469353114227037	2.4505937	1.5654372
19.48713614683254	2.4870422	1.5770359
19.50491965333182	2.5065546	1.5832102
19.52270363419109	2.5158882	1.5861552
19.540488089876686	2.4939082	1.5792112
19.55827302085503	2.4912062	1.5783556
19.576058427592674	2.5037954	1.5823386
19.593844310556282	2.506158	1.583085
19.611630670212598	2.5175927	1.5866923
19.629417507028506	2.484947	1.5763714
19.64720482147098	2.4949026	1.5795261
19.6649926140071	2.4918869	1.5785712
19.682780885104084	2.4999905	1.5811359
19.70056963522921	2.4972057	1.5802549
19.718358864849908	2.498134	1.5805486
19.7361485744337	2.4757473	1.5734508
19.753938764448215	2.5361216	1.5925205
19.771729435361202	2.5471053	1.5959653
19.789520587640506	2.5546322	1.5983217
19.807312221754092	2.5429325	1.5946575
19.825104338170043	2.5142004	1.585623
19.842896937356517	2.474047	1.5729103
19.860690019781824	2.493506	1.5790839
19.87848358591436	2.5376852	1.5930114
19.896277636222635	2.5549643	1.5984256
19.914072171175278	2.5133471	1.585354
19.931867191241015	2.5000436	1.5811527
19.94966269688869	2.47718	1.573906
19.967458688587264	2.4619539	1.5690615
19.985255166805807	2.4351404	1.5604936
20.00305213201348	2.4385717	1.5615927
20.020849584679578	2.409856	1.5523711
20.038647525273507	2.4103384	1.5525265
20.05644595426477	2.4303296	1.5589514
20.07424487212299	2.4590461	1.5681345
20.092044279317903	2.463309	1.5694933
20.109844176319353	2.42933	1.5586308
20.127644563597304	2.4066	1.551322
20.145445441621817	2.419326	1.5554183
20.16324681086307	2.4213674	1.5560744
20.181048671791373	2.4298613	1.5588013
20.198851024877122	2.3874996	1.5451536
20.216653870590836	2.3620067	1.5368822
20.234457209403146	2.3601842	1.5362891
20.252261041784802	2.3535013	1.5341126
20.270065368206662	2.3625283	1.5370518
20.287870189139685	2.3958187	1.5478432
20.305675505054968	2.4381006	1.5614418
20.323481316423702	2.422676	1.5564948
20.341287623717207	2.3700178	1.5394862
20.359094427406884	2.3257942	1.5250555
20.376901727964288	2.302523	1.5174066
20.39470952586107	2.3054614	1.5183746
20.41251782156899	2.2788103	1.5095729
20.430326615559935	2.2898538	1.5132263
20.448135908305886	2.3110316	1.5202078
20.465945700278965	2.3276567	1.525666
20.483755991951384	2.2998052	1.5165108
20.50156678379548	2.2741647	1.5080334
20.519378076283708	2.302643	1.5174463
20.537189869888635	2.3244214	1.5246053
20.55500216508294	2.315852	1.5217923
20.572814962339415	2.2625906	1.504191
20.59062826213098	2.3060086	1.5185548
20.60844206493066	2.352744	1.5338657
20.626256371211593	2.375166	1.5411574
20.644071181447032	2.3480036	1.5323197
20.66188649611036	2.3535137	1.5341166
20.67970231567506	2.3451188	1.531378
20.697518640614742	2.3195136	1.5229949
20.715335471403122	2.3034604	1.5177155
20.73315280851404	2.3009706	1.516895
20.750970652421447	2.3035846	1.5177565
20.768789003599412	2.2829638	1.510948
20.786607862522136	2.2738917	1.5079429
20.8044272296639	2.2649653	1.5049802
20.82224710549913	2.2402098	1.4967331
20.84006749050237	2.2379024	1.495962
20.857888385148268	3.804245	1.9504474
20.8757097899116	45.91628	6.776155
20.893531705267254	64.802895	8.050024
20.911354131690224	83.80831	9.154688
20.92917706965566	69.09301	8.312221
20.94700051963877	50.14309	7.0811787
20.96482448211493	29.445648	5.4263844
20.982648957559622	4.183942	2.0454686
21.00047394644843	2.2840538	1.5113087
21.01829944925707	2.2828126	1.510898
21.036125466461375	2.2651176	1.5050308
21.053951998537297	2.2336266	1.4945322
21.071779045960906	2.2145455	1.4881349
21.089606609208378	2.1995506	1.4830883
21.10743468875603	2.1955624	1.481743
21.12526328508028	2.1884525	1.4793419
21.143092398657675	2.1577623	1.4689324
21.16092202996488	2.1274745	1.4585865
21.17875217947867	2.1467366	1.4651746
21.19658284767596	2.1857789	1.478438
21.21441403503377	2.188901	1.4794935
21.232245742029225	2.140901	1.4631819
21.2500779691396	2.1286476	1.4589885
21.26791071684227	2.1725357	1.4739524
21.28574398561475	2.1863673	1.478637
21.30357777593465	2.1574132	1.4688135
21.321412088279704	2.1296713	1.4593394
21.339246923127792	2.1778667	1.4757597
21.357082280956888	2.1746895	1.4746828
21.3749181622451	2.165001	1.4713942
21.392754567470647	2.1381419	1.4622387
21.41059149711187	2.1276538	1.458648
21.42842895164726	2.130883	1.4597545
21.446266931555378	2.1363935	1.4616407
21.464105437314945	2.127436	1.4585732
21.481944469404798	2.097303	1.4482068
21.49978402830388	2.0913265	1.446142
21.51762411449127	2.0986586	1.4486748
21.53546472844617	2.1121256	1.4533154
21.553305870647876	2.1232572	1.4571401
21.571147541575865	2.0901191	1.4457245
21.58898974170967	2.0540967	1.433212
21.60683247152899	2.0345197	1.4263659
21.62467573151363	2.0538313	1.4331194
21.642519522143523	2.0812728	1.4426618
21.660363843898722	2.0726936	1.4396852
21.6782086972594	2.0558658	1.4338291
21.696054082705864	2.0678957	1.438018
21.713900000718535	2.0744612	1.440299
21.73174645177795	2.065857	1.4373089
21.749593436364794	2.0241547	1.422728
21.767440954959845	2.034326	1.426298
21.785289008044032	2.0586054	1.434784
21.803137596098388	2.0779338	1.441504
21.820986719604086	2.0497212	1.4316847
21.838836379042412	2.01133	1.4182136
21.85668657489478	1.9852344	1.4089835
21.87453730764273	2.0131948	1.4188709
21.892388577767914	2.039034	1.4279474
21.91024038575213	2.0483897	1.4312197
21.928092732077285	2.0356681	1.4267684
21.945945617225426	2.0156155	1.4197237
21.963799041678694	2.0069551	1.4166704
21.981653005919398	31.334488	5.5977216
21.999507510429943	78.11528	8.8382845
22.01736255569286	73.07114	8.548165
22.035218142190818	4.132201	2.0327816
22.05307427040661	1.9405934	1.3930519
22.07093094082315	1.940255	1.3929304
22.088788153923474	1.983088	1.4082216
22.106645910190746	1.9993557	1.4139857
22.12450421010827	1.9909304	1.4110034
22.142363054159464	2.010797	1.4180257
22.16022244282787	2.002897	1.4152374
22.178082376597164	2.0038853	1.4155866
22.195942855951145	1.989069	1.4103435
22.213803881373742	1.9734846	1.4048077
22.231665453349002	1.9634765	1.4012411
22.24952757236111	1.9751251	1.4053915
22.26739023889438	1.97721	1.406133
22.28525345343323	1.9622449	1.4008015
22.30311721646225	1.9334595	1.390489
22.320981528466113	1.9289273	1.3888583
22.33884638992964	1.9101739	1.3820904
22.356711801337788	1.9386877	1.3923676
22.37457776317561	1.9646534	1.4016609
22.392444275928337	1.9918947	1.411345
22.410311340081282	1.9845036	1.4087241
22.428178956119904	2.0013459	1.4146893
22.446047124529805	2.0006926	1.4144584
22.46391584579669	1.9777458	1.4063236
22.481785120406414	1.9281256	1.3885696
22.49965494884496	1.9491638	1.3961246
22.51752533159841	1.9844483	1.4087045
22.53539626915302	1.9946414	1.4123178
22.553267761995137	2.0137663	1.4190724
22.571139810611264	2.0076587	1.4169188
22.589012415488025	1.9819466	1.4078163
22.60688557711216	1.9515387	1.3969748
22.624759295970566	1.950542	1.396618
22.642633572550263	1.9447167	1.394531
22.660508407338362	1.9167941	1.3844833
22.67838380082217	1.9143102	1.383586
22.696259753489077	1.9290427	1.3888998
22.714136265826614	1.9267787	1.3880845
22.73201333832246	1.9410425	1.393213
22.74989097146439	1.9228356	1.3866634
22.76776916574035	1.9486421	1.3959377
22.785647921638393	1.9403114	1.3929507
22.803527239646712	1.9601221	1.4000436
22.82140712025363	1.9526771	1.3973823
22.839287563947593	1.902493	1.3793089
22.85716857121719	1.8671168	1.3664248
22.875050142551135	1.8714128	1.3679959
22.892932278438277	1.8720438	1.3682265
22.910814979367604	1.9010245	1.3787764
22.928698245828222	1.9051429	1.3802692
22.946582078309387	1.9144602	1.3836402
22.96446647730047	1.8997585	1.3783172
22.98235144329098	1.8852258	1.3730352
23.000236976770562	1.9195107	1.3854641
23.018123078229	1.9181104	1.3849586
23.03600974815619	1.8851043	1.372991
23.053896987042194	1.827584	1.3518816
23.071784795377173	1.8458358	1.3586154
23.08967317365145	1.862422	1.3647058
23.10756212235546	1.8955494	1.3767896
23.125451641979787	1.9473441	1.3954726
23.143341733015134	1.9771284	1.406104
23.161232395952357	1.9594367	1.3997988
23.179123631282426	1.9134197	1.3832642
23.197015439496468	1.912125	1.382796
23.214907821085717	1.9329389	1.3903017
23.23280077654157	1.9560984	1.398606
23.250694306355538	1.9829719	1.4081804
23.268588411019277	1.9916707	1.4112656
23.28648309102458	1.9728651	1.4045871
23.304378346863356	1.9534496	1.3976586
23.322274179027676	1.9395969	1.3926941
23.340170588009723	1.9504086	1.3965703
23.358067574301852	1.9744703	1.4051584
23.37596513839651	1.971988	1.404275
23.39386328078629	1.9319887	1.3899599
23.411762001963947	1.9170337	1.3845699
23.429661302422353	1.9511361	1.3968308
23.4475611826545	1.958221	1.3993645
23.46546164315356	1.9586858	1.3995305
23.48336268441279	1.939677	1.3927228
23.501264306925638	1.9284359	1.3886814
23.51916651118564	1.9090765	1.3816934
23.537069297686497	1.8800888	1.3711632
23.554972666922037	1.900867	1.3787193
23.57287661938623	1.9149338	1.3838114
23.59078115557318	1.9038181	1.3797891
23.608686275977128	1.9175097	1.3847418
23.62659198109246	1.9106925	1.382278
23.6444982714137	1.8772405	1.3701242
23.66240514743549	1.8463564	1.358807
23.68031260965263	1.8777434	1.3703078
23.698220658560068	1.9259708	1.3877935
23.716129294652845	1.9615339	1.4005477
23.7340385184262	1.9667977	1.4024256
23.75194833037546	1.9305664	1.3894483
23.769858730996123	1.8640023	1.3652847
23.78776972078382	1.8637049	1.3651757
23.80568130023431	1.8425243	1.3573961
23.823593469843495	1.8347682	1.3545362
23.841506230107424	1.857724	1.3629835
23.859419581522275	1.8549694	1.3619726
23.87733352458438	1.8491228	1.3598245
23.89524805979019	1.8438154	1.3578717
23.913163187636318	1.8618996	1.3645145
23.931078908619508	1.8841754	1.3726526
23.948995223236633	1.970824	1.4038604
23.966912131984735	2.019182	1.4209793
23.98482963536096	2.0612698	1.4357123
24.002747733862616	2.0425012	1.4291611
24.020666427987155	2.0536273	1.4330482
24.038585718232156	2.0019343	1.4148973
24.056505605095353	2.0214436	1.4217749
24.074426089074617	2.0635633	1.4365108
24.092347170667946	2.0972247	1.4481798
24.110268850373515	2.0531638	1.4328865
24.128191128689586	2.017499	1.4203869
24.146114006114626	1.9814594	1.4076432
24.164037483147187	1.9830902	1.4082223
24.181961560286005	1.9799182	1.4070957
24.199886238029926	1.9960247	1.4128073
24.21781151687797	2.0339804	1.4261768
24.235737397329274	2.0638292	1.4366033
24.253663879883135	2.0479658	1.4310715
24.271590965038975	2.0542014	1.4332485
24.289518653296376	2.075734	1.4407407
24.30744694515505	2.0774717	1.4413438
24.32537584111486	2.0686402	1.4382769
24.34330534167581	2.0501223	1.4318248
24.361235447338046	2.072342	1.4395632
24.379166158601876	2.0204403	1.4214219
24.39709747596772	2.0123634	1.4185779
24.41502939993615	1.9867464	1.4095199
24.432961931007917	1.997504	1.4133308
24.450895069683856	1.9565661	1.3987731
24.468828816465	1.9659004	1.4021057
24.4867631718525	1.9498682	1.3963768
24.504698136347656	1.9148587	1.3837842
24.52263371045192	1.8787147	1.3706621
24.540569894666874	1.8975611	1.3775198
24.558506689494266	1.9378549	1.3920685
24.57644409543597	1.9386139	1.3923411
24.594382112994012	1.9148767	1.3837907
24.61232074267057	1.8979393	1.3776572
24.630259984967953	1.9116508	1.3826246
24.64819984038863	1.9259288	1.3877784
24.66614030943522	1.9560157	1.3985763
24.684081392610462	1.9757657	1.4056194
24.702023090417274	1.9858934	1.4092172
24.7199654033587	2.030911	1.4251003
24.737908331937927	2.0729516	1.4397749
24.755851876658305	2.091888	1.446336
24.773796038023324	2.051526	1.432315
24.79174081653661	2.063013	1.4363192
24.809686212701962	2.0791647	1.4419309
24.827632227023294	2.0566602	1.4341061
24.8455788600047	2.0471368	1.4307818
24.8635261121504	2.081115	1.442607
24.88147398396475	2.105228	1.4509404
24.899422475952303	2.0912747	1.4461241
24.917371588617698	2.1117086	1.453172
24.935321322465768	2.1466024	1.4651288
24.953271678001478	2.2444122	1.4981363
24.97122265572994	2.4112966	1.552835
24.989174256156414	2.7369545	1.6543744
25.00712647978632	3.2621338	1.8061378
25.02507932712521	3.8325245	1.9576834
25.043032798678798	4.41955	2.1022725
25.060986894952933	5.0258923	2.2418501
25.078941616453637	5.7802434	2.4042137
25.096896963687055	6.727209	2.5936863
25.114852937159508	7.870416	2.8054261
25.132809537377444	8.365298	2.8922825
25.150766764847468	8.372952	2.8936055
25.168724620076347	7.831445	2.798472
25.186683103570985	6.735729	2.5953283
25.204642215838426	5.592318	2.3648083
25.222601957385894	4.2735314	2.0672522
25.24056232872074	3.283526	1.8120502
25.25852333035048	2.6284761	1.6212575
25.276484962782778	2.2346718	1.4948819
25.294447226525435	2.066134	1.4374053
25.312410122086423	2.0023308	1.4150374
25.330373649973843	1.981633	1.4077048
25.348337810695988	1.9778099	1.4063463
25.366302604761245	1.9794627	1.4069338
25.384268032678207	1.9732689	1.4047309
25.40223409495558	1.9367235	1.3916621
25.420200792102257	1.8731577	1.3686335
25.438168124627246	1.868626	1.366977
25.45613609303974	1.859472	1.3636246
25.474104697849057	1.8346583	1.3544955
25.492073939564698	1.8286587	1.3522791
25.510043818696285	1.848975	1.3597702
25.528014335753614	1.8617392	1.3644556
25.54598549124664	1.8499937	1.3601447
25.56395728568544	1.8329309	1.3538578
25.58192971958028	1.8529902	1.3612458
25.59990279344156	1.8473206	1.3591617
25.617876507779833	1.8466483	1.3589144
25.635850863105826	1.8291537	1.352462
25.653825859930386	1.8442972	1.358049
25.671801498764548	1.8646975	1.3655393
25.68977778011949	1.8808883	1.3714548
25.707754704506524	1.9077096	1.3811986
25.725732272437153	1.8947903	1.3765138
25.743710484423012	1.8314441	1.3533086
25.761689340975888	1.8247386	1.3508289
25.77966884260774	1.7993298	1.341391
25.797648989830662	1.8242637	1.350653
25.815629783156922	1.8464727	1.3588498
25.83361122309895	1.863457	1.365085
25.85159331016929	1.8813328	1.3716168
25.869576044880695	1.8498925	1.3601075
25.887559427746034	1.850727	1.3604143
25.90554345927836	1.8610702	1.3642105
25.92352813999086	1.8797706	1.3710473
25.94151347039689	1.8404539	1.3566333
25.959499451009965	1.8031204	1.3428031
25.97748608234374	1.7729814	1.3315334
25.995473364912062	1.7833982	1.3354393
26.013461299228904	1.8337257	1.3541512
26.03144988580839	1.8371307	1.355408
26.04943912516483	1.8178878	1.3482907
26.067429017812675	1.8076771	1.3444989
26.085419564266537	1.802818	1.3426906
26.103410765041186	1.7903146	1.3380264
26.12140262065155	1.7864242	1.3365718
26.139395131612723	1.7656422	1.3287747
26.157388298439948	1.7647045	1.3284218
26.17538212164861	1.7724185	1.3313221
26.193376601754295	1.8266481	1.3515354
26.211371739272714	1.8531499	1.3613045
26.229367534719746	1.8354427	1.3547851
26.247363988611433	1.7967347	1.3404233
26.26536110146397	1.7872634	1.3368857
26.283358873793727	1.7969854	1.3405168
26.301357306117204	1.8086016	1.3448426
26.319356398951104	1.8197707	1.3489888
26.33735615281224	1.8180071	1.3483349
26.35535656821762	1.8250834	1.3509564
26.373357645684404	1.8651985	1.3657227
26.39135938572991	1.860981	1.3641778
26.409361788871614	1.8442502	1.3580317
26.427364855627165	1.8625695	1.3647598
26.445368586514352	1.8722097	1.3682871
26.46337298205115	1.8738197	1.3688754
26.48137804275568	1.8264672	1.3514686
26.499383769146217	1.7841825	1.3357329
26.517390161741215	1.7656724	1.3287861
26.53539722105928	1.7768439	1.3329831
26.553404947619182	1.7742956	1.3320268
26.571413341939856	1.7513951	1.3234029
26.589422404540397	1.7791764	1.3338577
26.60743213594006	1.8242257	1.350639
26.62544253665827	1.8255326	1.3511227
26.64345360721459	1.8115878	1.3459524
26.66146534812879	1.813209	1.3465545
26.679477759920758	1.7956026	1.340001
26.69749084311057	1.731029	1.3156857
26.71550459821847	1.7426795	1.3201059
26.733519025764842	1.7719654	1.3311518
26.751534126270258	1.8014798	1.3421922
26.769549900255434	1.79476	1.3396865
26.787566348241267	1.8274977	1.3518498
26.80558347074881	1.8079851	1.3446133
26.823601268299267	1.7881625	1.337222
26.841619741414036	1.7839087	1.3356304
26.85963889061465	1.8102734	1.345464
26.877658716422832	1.7793254	1.3339136
26.89567921936045	1.749277	1.3226024
26.913700399949544	1.7683616	1.3297976
26.93172225871233	1.7733641	1.3316772
26.949744796171174	1.7892901	1.3376435
26.967768012848605	1.7554336	1.3249278
26.98579190926733	1.7538096	1.3243147
27.003816485950225	1.7740369	1.3319298
27.021841743420318	1.7728802	1.3314955
27.039867682200814	1.7977676	1.3408086
27.057894302815072	1.8566575	1.3625922
27.07592160578664	1.8517624	1.3607948
27.0939495916392	1.8591243	1.3634971
27.111978260896635	1.8655883	1.3658653
27.13000761408296	1.8648419	1.3655921
27.148037651722397	1.8459152	1.3586446
27.166068374339304	1.8513131	1.3606297
27.184099782458215	1.8398899	1.3564254
27.20213187660384	1.817129	1.3480092
27.22016465730105	1.7789656	1.3337787
27.23819812507487	1.7898862	1.3378663
27.256232280450533	1.7862008	1.3364882
27.274267123953383	1.7699647	1.3304002
27.292302656108987	1.7499326	1.3228502
27.31033887744306	1.7283933	1.3146837
27.32837578848146	1.7782434	1.3335079
27.34641338975026	1.8146485	1.3470889
27.364451681775673	1.8390434	1.3561133
27.382490665084074	1.819893	1.3490341
27.400530340202046	1.7805933	1.3343887
27.41857070765629	1.8405663	1.3566747
27.436611767973726	1.9252076	1.3875185
27.454653521681404	1.934473	1.3908534
27.472695969306564	1.8385385	1.3559272
27.490739111376627	1.7900763	1.3379374
27.508782948419153	1.7823008	1.3350284
27.526827480961902	1.7585114	1.3260888
27.54487270953279	1.7691118	1.3300796
27.562918634659898	1.8031095	1.3427992
27.580965256871508	1.8319963	1.3535126
27.599012576696026	1.8125092	1.3462946
27.617060594662068	1.8132724	1.346578
27.63510931129842	1.8098322	1.3453001
27.65315872713401	1.8081613	1.3446789
27.67120884269797	1.8121849	1.3461742
27.68925965851958	1.7960681	1.3401747
27.707311175128307	1.7836828	1.3355459
27.725363393053787	1.7876927	1.3370463
27.74341631282583	1.834365	1.3543873
27.7614699349744	1.8519528	1.3608648
27.77952426002968	2.053347	1.4329505
27.797579288521973	2.1531217	1.4673519
27.815635020981784	2.5048974	1.5826868
27.83369145793979	2.545776	1.5955487
27.85174859992682	2.4261446	1.5576086
27.869806447473923	2.271961	1.5073025
27.887865001112267	2.0203557	1.4213922
27.905924261373233	1.929475	1.3890554
27.92398422878836	1.9247462	1.3873522
27.94204490388936	1.9292909	1.3889892
27.96010628720813	1.8881339	1.3740939
27.978168379276728	1.8317325	1.3534151
27.9962311806274	1.8080647	1.344643
28.014294691792568	1.8087093	1.3448826
28.0323589133048	1.8100684	1.3453878
28.050423845696887	1.7948614	1.3397244
28.068489489501758	1.8550295	1.3619946
28.086555845252523	1.9212749	1.3861006
28.104622913482487	1.9353187	1.3911573
28.122690694725115	1.8822948	1.3719674
28.14075918951405	1.8878689	1.3739974
28.15882839838312	1.8885915	1.3742603
28.176898321866304	1.8587934	1.3633758
28.1949689604978	1.8047316	1.343403
28.213040314811945	1.8020599	1.3424083
28.23111238534327	1.873546	1.3687754
28.249185172626493	1.9192767	1.3853797
28.267258677196473	1.8946435	1.3764606
28.285332899588294	1.9056268	1.3804444
28.303407840337172	1.9561895	1.3986385
28.321483499978545	1.9387959	1.3924065
28.33955987904799	1.9197347	1.3855449
28.357636978081285	1.8743241	1.3690596
28.37571479761439	1.8958011	1.3768809
28.393793338183425	1.9836199	1.4084104
28.41187260032469	2.0020783	1.4149481
28.429952584574686	1.9967256	1.4130554
28.448033291470065	1.9656743	1.4020251
28.46611472154769	1.9505167	1.396609
28.484196875344566	1.955583	1.3984216
28.502279753397914	2.0013983	1.4147079
28.52036335624511	1.9913931	1.4111673
28.538447684423716	1.962559	1.4009136
28.556532738471482	1.9446429	1.3945045
28.574618518926325	1.9866866	1.4094987
28.59270502632635	2.0441637	1.4297426
28.61079226120985	2.0688627	1.4383541
28.628880224115274	2.0529377	1.4328077
28.646968915581287	2.0608385	1.435562
28.66505833614671	2.1011846	1.4495463
28.68314848635055	2.1114028	1.4530667
28.701239366732004	2.1042275	1.4505956
28.71933097783044	2.1048923	1.4508247
28.737423320185403	2.0903406	1.445801
28.75551639433665	2.0561311	1.4339216
28.773610200824074	2.0863857	1.4444326
28.791704740187793	2.100758	1.4493992
28.80980001296809	2.1182308	1.4554143
28.827896019705413	2.099866	1.4490914
28.845992760940433	2.1096706	1.4524705
28.86409023721397	2.1452918	1.4646815
28.88218844906704	2.2439282	1.4979748
28.900287397040845	2.246576	1.4988582
28.918387081676755	2.2124884	1.4874436
28.936487503516343	2.236084	1.4953542
28.954588663101365	2.2394562	1.4964813
28.97269056097374	2.2289522	1.4929676
28.990793197675597	2.2711506	1.5070337
29.00889657374923	2.3872266	1.5450653
29.027000689737125	2.3846002	1.5442151
29.04510554618196	2.3665566	1.5383617
29.06321114362659	2.3898437	1.5459119
29.08131748261405	2.466422	1.5704846
29.099424563687567	2.5111668	1.5846661
29.11753238739057	2.537992	1.5931077
29.13564095426663	2.6281488	1.6211566
29.15375026485954	2.6487231	1.6274898
29.171860319713275	2.6491961	1.6276351
29.18997111937199	2.6280985	1.6211411
29.20808266438002	2.6798716	1.6370313
29.226194955281898	2.794677	1.6717287
29.244307992622335	2.877416	1.6962948
29.26242177694624	2.9018035	1.7034681
29.2805363087987	2.8714201	1.6945266
29.29865158872498	2.9694345	1.7232047
29.316767617270557	2.9354715	1.7133218
29.334884394981064	2.8976934	1.7022612
29.353001922402367	2.994883	1.730573
29.37112020008047	3.142055	1.7725843
29.389239228561596	3.2012298	1.789198
29.407359008392152	3.3149614	1.8207035
29.42547954011872	3.6470306	1.9097201
29.44360082428809	4.297345	2.073004
29.46172286144722	5.3104405	2.3044393
29.479845652143283	6.8862753	2.6241713
29.497969196923606	9.131633	3.0218592
29.516093496335728	11.835529	3.4402804
29.5342185509274	14.717532	3.8363435
29.55234436124651	17.04443	4.12849
29.570470927841175	18.353832	4.2841372
29.588598251259686	17.907082	4.231676
29.60672633205055	16.625566	4.077446
29.624855170762405	14.394483	3.794006
29.642984767944146	11.576392	3.4024098
29.66111512414481	8.851185	2.975094
29.67924623991366	6.6015983	2.5693576
29.697378115800138	5.0986843	2.2580266
29.71551075235387	4.156471	2.0387425
29.733644150124675	3.7329211	1.9320769
29.751778309662576	3.5647693	1.8880596
29.769913231517766	3.504591	1.8720553
29.78804891624066	3.391282	1.8415434
29.806185364381818	3.3899865	1.8411916
29.82432257649206	3.4212236	1.849655
29.842460553122333	3.354076	1.8314136
29.86059929482382	3.3120656	1.8199081
29.878738802147872	3.3256178	1.8236276
29.896879075646048	3.3401868	1.8276178
29.915020115870114	3.2831728	1.8119528
29.933161923371976	3.1646755	1.7789534
29.951304498703777	3.1188772	1.7660344
29.969447842417857	3.1333277	1.7701209
29.987591955066733	3.208936	1.7913504
30.005736837203123	3.2848678	1.8124204
30.023882489379943	3.2791061	1.8108302
30.04202891215028	3.1766496	1.7823157
30.060176106067455	3.1170895	1.7655281
30.078324071684946	3.1908603	1.7862979
30.09647280955646	3.2183058	1.7939637
30.114622320235863	3.1559422	1.7764971
30.132772604277257	3.107092	1.7626945
30.1509236622349	3.0878637	1.7572318
30.16907549466328	3.1029031	1.761506
30.18722810211705	3.0652113	1.7507745
30.205381485151097	3.0105171	1.7350842
30.22353564432045	3.0434182	1.7445395
30.241690580180403	3.0709133	1.7524022
30.25984629328638	3.0567715	1.7483625
30.278002784194037	3.034789	1.7420646
30.296160053459246	2.9743013	1.7246163
30.314318101638033	2.9780595	1.7257055
30.332476929286646	2.999655	1.7319512
30.35063653696153	2.9631224	1.7213722
30.368796925219307	2.8947494	1.7013963
30.386958094616844	2.8535542	1.6892467
30.40512004571115	2.7946706	1.6717268
30.423282779059463	2.8111155	1.6766381
30.441446295219233	2.8397784	1.6851642
30.459610594748067	2.7976925	1.6726304
30.47777567820382	2.7298117	1.6522142
30.495941546144504	2.8045223	1.6746708
30.51410819912835	2.8134968	1.6773481
30.532275637713795	2.8645704	1.6925042
30.55044386245946	2.8687775	1.6937466
30.56861287392416	2.8234892	1.6803241
30.586782672666956	2.8174622	1.6785297
30.604953259247047	2.7915905	1.6708053
30.623124634223885	2.7543058	1.6596102
30.641296798157075	2.7584503	1.6608583
30.659469751606462	2.7786067	1.6669153
30.677643495132074	2.7767978	1.6663727
30.695818029294152	2.7479274	1.6576874
30.713993354653116	2.732323	1.652974
30.73216947176962	2.6457403	1.6265732
30.75034638120448	2.6150124	1.6171
30.768524083518756	2.6895857	1.6399957
30.786702579273673	2.7473922	1.6575259
30.80488186903069	2.7964673	1.6722641
30.82306195335144	2.9344049	1.7130104
30.841242832797782	3.0830176	1.7558523
30.85942450793176	3.3803213	1.838565
30.877606979315637	3.7033336	1.9244047
30.895790247511883	3.9735138	1.9933674
30.913974313083134	4.357524	2.0874684
30.932159176592283	4.6758623	2.1623743
30.95034483860237	4.7400966	2.1771762
30.968531299676698	4.507992	2.1232033
30.98671856037873	4.2523966	2.062134
31.00490662127215	3.9945984	1.9986491
31.023095482920848	3.5643864	1.8879583
31.04128514588892	3.0948496	1.7592185
31.059475610740662	2.8055649	1.6749821
31.07766687804056	2.5790198	1.6059327
31.09585894835335	2.457248	1.5675611
31.11405182224393	2.5037766	1.5823326
31.132245500277417	2.5556576	1.5986425
31.15043998301914	2.5216396	1.5879672
31.168635271034628	2.4277427	1.5581216
31.18683136488964	2.3939903	1.5472525
31.20502826515008	2.3585486	1.5357567
31.223225972382135	2.3249447	1.5247769
31.241424487152155	2.3728127	1.5403937
31.259623810026692	2.367196	1.5385695
31.27782394157253	2.330314	1.5265366
31.296024882356644	2.429794	1.5587797
31.314226632946237	2.5664191	1.6020048
31.332429193908684	2.6049325	1.6139803
31.350632565811598	2.5164022	1.5863172
31.368836749222787	2.4367034	1.5609944
31.387041744710295	2.3999963	1.5491922
31.40524755284232	2.4467351	1.5642043
31.423454174187317	2.4992838	1.5809124
31.441661609313922	2.5229766	1.5883881
31.459869858791002	2.4524252	1.5660222
31.478078923187628	2.372117	1.5401678
31.496288803073064	2.2674878	1.505818
31.514499499016807	2.2464263	1.4988083
31.532711011588546	2.2561417	1.5020459
31.550923341358178	2.30637	1.5186738
31.56913648889584	2.3524537	1.533771
31.587350454771844	2.3943636	1.5473732
31.605565239556732	2.3290243	1.5261141
31.62378084382127	2.2865746	1.5121424
31.641997268136382	2.308299	1.5193087
31.660214513073274	2.2869985	1.5122825
31.67843257920331	2.2716377	1.5071954
31.6966514670981	2.3359678	1.5283873
31.71487117732944	2.3748896	1.5410677
31.733091710469346	2.3098953	1.5198339
31.751313067090052	2.2058105	1.4851972
31.769535247764008	2.247431	1.4991435
31.787758253063878	2.34935	1.532759
31.805982083562526	2.330868	1.526718
31.824206739833024	2.3014247	1.5170448
31.84243222244869	2.2767193	1.5088801
31.860658531983013	2.2629893	1.5043235
31.878885669009737	2.222729	1.4908819
31.897113634102784	2.2085223	1.4861099
31.91534242783632	2.2129076	1.4875845
31.933572050784694	2.2253594	1.4917638
31.951802503522508	2.2509625	1.5003208
31.970033786624548	2.3203893	1.5232824
31.988265900665834	2.3298228	1.5263757
32.006498846221575	2.2493942	1.499798
32.02473262386724	2.2557478	1.5019147
32.04296723417845	2.2834704	1.5111157
32.0612026777311	2.2221704	1.4906946
32.07943895510129	2.1190317	1.4556894
32.097676066865304	2.1165373	1.4548324
32.115914013599685	2.1643515	1.4711735
32.13415279588115	2.143225	1.4639758
32.152392414286666	2.1397424	1.4627858
32.1706328693934	2.1619208	1.4703472
32.18887416177875	2.2474346	1.4991447
32.20711629202032	2.2875783	1.5124743
32.225359260695924	2.2984736	1.5160718
32.243603068383614	2.240835	1.4969419
32.26184771566166	2.0751538	1.4405395
32.28009320310852	2.0270832	1.4237567
32.2983395313029	2.0267577	1.4236424
32.31658670082372	2.0490234	1.4314411
32.33483471225012	2.0728924	1.4397542
32.35308356616143	2.0718048	1.4393765
32.371333263137245	2.0547292	1.4334327
32.38958380375734	2.0932968	1.446823
32.407835188601744	2.1525536	1.4671583
32.42608741825067	2.1272388	1.4585056
32.444340493284585	2.1038656	1.4504708
32.46259441428416	2.1204455	1.456175
32.48084918183028	2.1892943	1.4796264
32.49910479650405	2.2247958	1.491575
32.51736125888683	2.2316148	1.493859
32.53561856956014	2.143402	1.4640362
32.5538767291058	2.061859	1.4359175
32.572135738105764	2.051409	1.4322741
32.59039559714228	2.066965	1.4376943
32.608656306797776	2.1142125	1.4540331
32.62691786765491	2.1033127	1.4502802
32.645180280296586	2.0708976	1.4390614
32.663443545305896	2.0137331	1.4190607
32.68170766326619	1.9973766	1.4132857
32.69997263476099	2.0100963	1.4177786
32.7182384603741	2.0138566	1.4191042
32.7365051406895	2.0269797	1.4237204
32.75477267629144	2.041267	1.4287292
32.77304106776434	2.099398	1.4489299
32.79131031569289	2.1011994	1.4495515
32.809580420661966	2.0275645	1.4239258
32.827851383256714	1.9782478	1.406502
32.84612320406245	1.9589444	1.3996229
32.86439588366476	1.9440614	1.394296
32.88266942264945	1.946087	1.3950223
32.9009438216025	1.9973896	1.4132904
32.9192190811102	2.0346525	1.4264125
32.937495201758985	2.0365531	1.4270785
32.95577218413556	2.0422115	1.4290596
32.974050028826866	1.9763182	1.4058158
32.992328736420035	1.930839	1.3895463
33.010608307502444	1.9142727	1.3835725
33.02888874266169	1.8849788	1.3729453
33.047170042485604	1.8552012	1.3620577
33.06545220756225	1.8898426	1.3747154
33.083735238479896	1.8645204	1.3654745
33.10201913582707	1.8634746	1.3650914
33.12030390019248	1.8733739	1.3687124
33.138589532165135	1.992261	1.4114748
33.15687603233419	2.0613286	1.4357328
33.17516340128909	2.0474896	1.4309052
33.19345163961947	2.0150068	1.4195093
33.211740747915215	1.9887729	1.4102386
33.23003072676643	1.869782	1.3673997
33.248321576763466	1.8649755	1.365641
33.266613298496885	1.9062715	1.3806779
33.28490589255747	1.9256954	1.3876942
33.30319935953626	1.9699719	1.4035568
33.32149370002451	1.9687701	1.4031287
33.339788914613706	1.8425428	1.3574029
33.358085003895575	1.787952	1.3371432
33.376381968462034	1.7846032	1.3358904
33.39467980890529	1.8384155	1.3558818
33.41297852581774	1.8961208	1.376997
33.43127811979204	1.992024	1.4113908
33.44957859142105	1.9885066	1.4101442
33.467879941297866	1.9543955	1.397997
33.486182170015844	1.9403348	1.392959
33.50448527816853	1.9716581	1.4041574
33.522789266349754	1.8348451	1.3545645
33.541094135153514	1.6942244	1.3016237
33.55939988517411	1.6982301	1.3031616
33.57770651700602	1.7812694	1.334642
33.59601403124398	1.8848311	1.3728915
33.61432242848296	1.9492968	1.3961722
33.632631709318154	1.9520752	1.3971668
33.650941874344994	1.9786988	1.4066623
33.66925292415916	1.9958204	1.4127351
33.68756485935654	1.9569864	1.3989233
33.70587768053328	1.863129	1.3649648
33.724191388285746	1.9341085	1.3907223
33.74250598321054	2.0033484	1.4153969
33.760821465904506	2.0161624	1.4199164
33.77913783696474	2.0489469	1.4314142
33.79745509698852	1.9998103	1.4141465
33.815773246573414	1.9303204	1.3893597
33.8340922863172	1.8950963	1.376625
33.852412216817896	1.9088621	1.3816158
33.87073303867377	1.8517668	1.3607965
33.889054752483304	1.8755915	1.3695223
33.907377358845245	1.8807576	1.3714072
33.92570085835853	1.9014037	1.378914
33.94402525162239	1.9160168	1.3842026
33.96235053923627	1.9499846	1.3964185
33.980676721799824	1.9505019	1.3966037
33.999003799912984	1.8934538	1.3760283
34.01733177417592	1.7216113	1.3121018
34.03566064518901	1.8160145	1.3475958
34.0539904135529	1.920707	1.3858957
34.07232107986846	2.020862	1.4215703
34.090652644736785	2.1042078	1.4505887
34.108985108759235	2.0711422	1.4391464
34.12731847253742	1.9822125	1.4079107
34.14565273667313	1.9925587	1.4115802
34.16398790176847	2.0632558	1.4364038
34.18232396842574	2.0185053	1.4207411
34.20066093724749	1.9422578	1.3936491
34.21899880883651	1.9525248	1.3973278
34.23733758379583	2.0546997	1.4334223
34.25567726272874	2.0809965	1.4425659
34.27401784623872	2.0877383	1.4449008
34.29235933492957	2.0861807	1.4443617
34.31070172940526	2.1111102	1.452966
34.32904503027003	2.0921645	1.4464316
34.347389238128386	1.9138492	1.3834194
34.36573435358502	1.8529378	1.3612266
34.38408037724492	1.9688432	1.4031547
34.402427309713296	2.0815578	1.4427605
34.42077515159559	2.0480459	1.4310995
34.43912390349752	1.994363	1.4122192
34.45747356602499	2.0125906	1.418658
34.47582413978423	2.1298022	1.4593842
34.49417562538163	2.18212	1.4772
34.51252802342388	2.0160673	1.4198829
34.53088133451789	1.9296999	1.3891364
34.54923555927084	2.0239089	1.4226415
34.567590698290104	1.9425706	1.3937613
34.58594675218336	1.8735521	1.3687776
34.6043037215585	2.0158513	1.4198067
34.62266160702365	2.2097034	1.4865072
34.641020409187234	2.1834779	1.4776596
34.65938012865785	2.0702116	1.438823
34.677740766044394	2.105249	1.4509476
34.69610232195598	2.1126165	1.4534843
34.714464797002016	1.9475155	1.3955342
34.73282819179208	1.8806981	1.3713855
34.751192506936064	1.926836	1.3881052
34.76955774304408	1.8723501	1.3683385
34.7879239007265	1.7776673	1.3332919
34.80629098059391	1.8173066	1.3480752
34.824658983257194	1.8066324	1.3441103
34.843027909327446	1.9267476	1.3880733
34.86139775941603	1.9275378	1.388358
34.879768534134534	1.9178561	1.3848668
34.89814023409483	1.8350788	1.3546509
34.91651285990901	1.7664225	1.3290683
34.93488641218944	1.8379874	1.355724
34.95326089154871	2.0360935	1.4269174
34.97163629859967	1.9774947	1.4062343
34.99001263395542	1.8838477	1.3725333
35.00838989822934	1.983452	1.4083508
35.02676809203499	1.9972821	1.4132524
35.04514721598624	1.9438417	1.3942173
35.063527270697215	1.9606211	1.4002218
35.081908256782256	1.9972641	1.4132459
35.10029017485597	1.9065678	1.3807852
35.11867302553321	1.7789174	1.3337606
35.137056809429104	1.7051269	1.3058051
35.155441527159006	1.7815344	1.3347414
35.173827179338524	1.8968318	1.3772552
35.19221376658354	2.06245	1.4361233
35.21060128951017	2.1553626	1.4681153
35.2289897487348	1.8719368	1.3681874
35.24737914487405	1.6345519	1.2784959
35.26576947854479	1.8532796	1.3613521
35.28416075036418	1.9433665	1.3940468
35.30255296094958	1.7540104	1.3243906
35.32094611091867	1.7480145	1.322125
35.33934020088932	1.8525621	1.3610885
35.35773523147969	2.0389001	1.4279006
35.3761312033082	2.098673	1.4486798
35.394528116993506	1.9818231	1.4077724
35.41292597315452	2.0629108	1.4362837
35.431324772410434	2.1201952	1.456089
35.449724515380666	2.2791386	1.5096816
35.46812520268491	2.2192802	1.4897249
35.486526834943106	2.196374	1.4820168
35.504929412775454	2.0785487	1.4417173
35.52333293680242	2.278652	1.5095204
35.54173740764471	2.491638	1.5784923
35.560142825923286	1.8717825	1.368131
35.5785491922594	1.4552653	1.2063438
35.59695650727454	1.1539897	1.0742391
35.61536477159042	1.1671087	1.080328
