0.008763373481513119	0.0	0.0
0.026290120649546365	0.11242709	0.3353015
0.043816868432600686	0.15683767	0.39602736
0.06134361724069026	0.1660059	0.40743822
0.07887036748382949	0.13164991	0.36283594
0.0963971195720331	0.10975136	0.3312874
0.11392387391531617	0.058919284	0.24273294
0.1314506309236943	0.07548826	0.27475128
0.1489773910071836	0.13413952	0.36625063
0.16650415457580078	0.17565934	0.41911733
0.18403092203956356	0.20904918	0.45721897
0.20155769380849	0.16146907	0.40183213
0.2190844702925996	0.16956617	0.41178414
0.2366112519019124	0.17298128	0.41591018
0.2541380390464497	0.17944953	0.42361483
0.27166483213623416	0.18168494	0.42624515
0.28919163158128947	0.13554876	0.36816946
0.3067184377916406	0.096870765	0.31124067
0.324245251177314	0.099615864	0.3156198
0.34177207214833777	0.09308288	0.30509487
0.3592989011147415	0.10889719	0.32999575
0.37682573848655654	0.1073225	0.32760113
0.39435258467381573	0.112370916	0.3352177
0.41187944008655414	0.10617256	0.3258413
0.42940630513480854	0.12223365	0.3496193
0.446933180228618	0.12462831	0.35302734
0.4644600657780234	0.14350665	0.3788227
0.48198696219306775	0.1452831	0.3811602
0.49951386988379676	0.14447504	0.38009873
0.5170407892602581	0.13320489	0.36497244
0.5345677207325025	0.0914812	0.30245858
0.5520946647105822	0.08892007	0.29819468
0.5696216216045534	0.09941976	0.315309
0.5871485918244737	0.1470471	0.3834672
0.6046755757804043	0.16214089	0.40266722
0.6222025738824094	0.14649223	0.38274303
0.6397295865405557	0.14039227	0.37468958
0.6572566141649129	0.1308002	0.3616631
0.6747836571655547	0.1643779	0.40543544
0.6923107159525568	0.17921673	0.42333996
0.7098377909359992	0.16061483	0.4007678
0.7273648825259653	0.15021448	0.38757512
0.7448919911325411	0.11485295	0.3388996
0.762419117165817	0.12029513	0.34683588
0.7799462610358868	0.16412182	0.4051195
0.7974734231528482	0.18724729	0.4327208
0.8150006039268024	0.21497156	0.46365026
0.8325278037678551	0.23092759	0.48054925
0.8500550230861152	0.21138829	0.45976982
0.8675822622916969	0.16537908	0.40666828
0.8851095217947171	0.13358213	0.3654889
0.9026368020052984	0.16120814	0.40150732
0.9201641033335665	0.18304238	0.4278345
0.9376914261896523	0.18874551	0.4344485
0.9552187709836915	0.18544519	0.4306335
0.9727461381258234	0.19858864	0.44563285
0.990273528026193	0.18775313	0.43330488
1.0078009410949496	0.19058466	0.43656003
1.0253283777422473	0.20806532	0.45614177
1.0428558383782454	0.24608102	0.49606556
1.0603833234131086	0.27511963	0.5245185
1.0779108332570058	0.28529397	0.53412914
1.0954383683201119	0.28144023	0.5305094
1.112965929012607	0.34291312	0.58558786
1.1304935157446763	0.5278322	0.7265206
1.1480211289265108	0.5672577	0.7531651
1.1655487689683062	1.5073876	1.2277572
1.1830764362802655	1.7890084	1.3375381
1.200604131272596	2.289092	1.5129746
1.2181318543555117	2.5568173	1.5990051
1.235659605939232	2.535633	1.5923672
1.253187386433982	3.8778734	1.9692317
1.270715196249994	6.1512036	2.480162
1.2882430357975057	11.77173	3.4309955
1.3057709054867608	16.697506	4.0862584
1.3232988057280106	22.836813	4.7787876
1.3408267369315112	27.864883	5.27872
1.358354699507526	31.215239	5.58706
1.3758826938663256	35.54659	5.962096
1.3934107204181858	37.31857	6.1088924
1.410938779573391	38.05222	6.1686482
1.4284668717422309	38.634377	6.215656
1.4459949973350033	38.18678	6.1795454
1.4635231567620117	38.166412	6.177897
1.4810513504335687	37.306786	6.1079283
1.4985795787599925	36.70811	6.058722
1.5161078421516088	36.09032	6.007522
1.5336361410187505	34.963844	5.9130235
1.5511644757717598	34.7452	5.894506
1.5686928468209842	35.4038	5.9501095
1.58622125457678	36.180443	6.015018
1.6037496994495108	37.085205	6.089762
1.621278181849548	36.696526	6.057766
1.6388067021872719	37.729824	6.142461
1.6563352608730693	37.823566	6.150087
1.673863858317336	37.277412	6.105523
1.6913924949304753	36.274994	6.0228724
1.7089211711228998	34.775883	5.897108
1.7264498873050296	33.796795	5.813501
1.7439786438872935	33.036545	5.7477427
1.7615074412801288	32.22396	5.676615
1.779036279893981	31.566227	5.618383
1.796565160139305	30.425032	5.515889
1.814094082426564	29.946667	5.472355
1.8316230471662298	29.335289	5.4162064
1.849152054768784	28.293343	5.3191485
1.8666811056447168	27.776785	5.2703686
1.8842102002045273	26.815437	5.1783624
1.901739338858724	26.351547	5.1333756
1.9192685220178245	25.742558	5.0737123
1.9367977500923557	25.131887	5.013171
1.9543270234928547	24.822628	4.982231
1.971856342629867	24.54832	4.954626
1.9893857079139496	23.98899	4.8978558
2.006915119755667	23.446245	4.842132
2.0244445785655945	22.710009	4.765502
2.0419740847543175	22.19421	4.711073
2.0595036387324317	21.732124	4.6617727
2.0770332409105414	21.227669	4.6073494
2.094562891699263	20.955948	4.577767
2.1120925915092217	20.280777	4.5034184
2.129622340751053	19.91925	4.4630985
2.1471521398354043	187.97008	13.710218
2.1646819891729323	444.20306	21.076126
2.182211889174303	440.57883	20.98997
2.1997418402501974	453.172	21.287836
2.2172718428113023	433.24463	20.81453
2.234801897268317	321.00525	17.91662
2.2523320040319548	17.283812	4.1573806
2.269862163512935	16.78179	4.096558
2.287392376121992	16.430733	4.053484
2.304922642269869	16.112906	4.014088
2.322452962367322	15.843045	3.9803324
2.3399833368251164	15.606837	3.950549
2.357513766054032	15.344116	3.9171567
2.3750442504648586	15.154878	3.8929267
2.3925747904683963	14.879487	3.8573937
2.410105386475459	14.658778	3.8286784
2.4276360388968707	14.43721	3.7996328
2.445166748143469	14.180552	3.7657073
2.4626975146261025	13.863589	3.7233841
2.4802283387556323	13.663325	3.6963935
2.4977592209429305	13.51449	3.6762059
2.5152901615988825	13.349494	3.6536958
2.5328211611343865	13.15369	3.6268017
2.5503522199603523	12.992847	3.6045592
2.5678833384877024	12.834472	3.582523
2.5854145171273712	12.60425	3.5502465
2.6029457562903064	12.274931	3.5035598
2.620477056387469	11.887127	3.4477713
2.6380084178298326	11.713591	3.4225123
2.655539841028383	11.546595	3.3980281
2.673071326394119	11.389008	3.3747604
2.6906028743380523	11.156658	3.3401585
2.708134485271211	11.040656	3.3227482
2.7256661596046325	10.934911	3.3067977
2.743197897749369	10.69304	3.2700214
2.760729700116486	10.534561	3.245699
2.778261567117063	10.331984	3.2143402
2.795793499162193	10.257995	3.2028105
2.8133254966629817	10.110088	3.1796365
2.830857560030551	9.933778	3.1517897
2.8483896896760337	9.807944	3.1317637
2.865921886010578	9.680754	3.111391
2.883454149445347	9.586464	3.0962014
2.9009864803915177	9.490658	3.080691
2.91851887926028	9.41042	3.0676408
2.9360513464628384	9.50122	3.0824049
2.953583882410413	9.330063	3.0545151
2.9711164875142373	9.186757	3.0309663
2.9886491621855606	8.959658	2.9932687
3.0061819068356455	8.690041	2.9478874
3.023714721875769	8.536004	2.921644
3.041247607717225	8.436054	2.9044886
3.0587805647713213	8.398278	2.8979783
3.0763135934493806	8.361471	2.8916209
3.0938466941627407	8.251203	2.8724906
3.1113798673227544	8.1091	2.8476481
3.1289131133407904	7.9343386	2.8167958
3.1464464326282315	7.847389	2.8013191
3.1639798255964786	7.7446094	2.782914
3.1815132926569443	7.7210083	2.7786703
3.1990468342210603	7.46708	2.732596
3.216580450700272	7.226844	2.688279
3.2341141425060416	7.1915603	2.6817086
3.251647910049847	7.1407914	2.672226
3.2691817537431813	7.1975293	2.682821
3.286715673997555	7.1530414	2.674517
3.3042496712244938	7.0713143	2.6591942
3.32178374583554	7.0357265	2.6524944
3.339317898242251	7.0131907	2.648243
3.3568521288562034	6.9354987	2.6335335
3.3743864380889876	6.9089894	2.6284957
3.3919208263522127	6.851496	2.6175363
3.4094552940575023	6.7942786	2.6065836
3.4269898416164972	6.6004066	2.5691257
3.444524469440858	6.491066	2.5477571
3.4620591779422587	6.5590653	2.5610673
3.479593967532391	6.5629053	2.5618167
3.4971288386229658	6.5913057	2.5673537
3.5146637916257086	6.5766854	2.5645049
3.5321988269523628	6.5246286	2.5543354
3.5497339450146903	6.477146	2.545024
3.5672691462244708	6.48895	2.5473418
3.5848044309934988	6.3902817	2.5279007
3.60233979973359	6.303517	2.5106807
3.619875252856575	6.277624	2.5055187
3.6374107907743034	6.299829	2.509946
3.6549464138986427	6.274621	2.5049193
3.6724821226414788	6.2088485	2.4917562
3.690017917414714	6.175581	2.4850717
3.7075537986302702	6.334163	2.5167763
3.7250897667000857	6.538813	2.5571103
3.7426258220361235	6.707781	2.5899384
3.7601619650503553	6.9596863	2.6381218
3.777698196154779	7.4706206	2.7332437
3.7952345157614067	8.593432	2.9314556
3.8127709242822716	9.4471245	3.0736175
3.830307422129425	11.614363	3.4079852
3.847844009714936	30.201296	5.4955707
3.8653806874508954	97.57406	9.877958
3.882917455749409	96.76793	9.8370695
3.900454315022606	96.676956	9.832444
3.917991265682631	41.295555	6.426162
3.9355283081416506	10.941477	3.3077903
3.9530654428118495	8.790747	2.9649193
3.970602670105433	7.5085487	2.740173
3.9881399904346244	6.468638	2.5433517
4.005677404211669	6.345783	2.5190837
4.023214911848827	6.3293266	2.5158153
4.0407525137583855	6.450464	2.5397763
4.058290210352644	6.554455	2.5601668
4.075828002043927	6.5075464	2.5509894
4.0933658892445814	6.523873	2.5541873
4.110903872366966	6.419477	2.5336688
4.128441951823468	6.365622	2.5230184
4.145980128026488	6.290653	2.5081174
4.163518401388452	6.262159	2.5024307
4.181056772321807	6.278263	2.5056462
4.1985952412390155	6.226106	2.4952166
4.216133808552567	6.1760345	2.485163
4.233672474674966	6.220385	2.49407
4.251211240018741	6.463827	2.5424058
4.268750104996445	6.72574	2.593403
4.286289070020643	7.6799912	2.7712798
4.303828135503928	9.311492	3.0514739
4.3213673018589125	29.560633	5.4369693
4.3389065694982305	90.70136	9.523726
4.356445938834537	166.01741	12.884774
4.3739854102805085	171.27293	13.087129
4.391524984248844	172.07439	13.117713
4.409064661152262	135.97165	11.660688
4.426604441403504	96.297966	9.813152
4.444144325415337	75.47794	8.687804
4.461684313600543	21.657255	4.6537356
4.47922440637193	22.118315	4.703011
4.496764604142329	20.512972	4.5291247
4.5143049073245916	18.731625	4.328005
4.531845316331589	16.561935	4.069636
4.5493858315762195	13.679585	3.6985924
4.566926453471405	11.401529	3.376615
4.584467182430081	9.365171	3.0602567
4.602008018865218	8.181724	2.8603714
4.619548963189798	7.5091105	2.7402756
4.637090015816834	7.0265427	2.6507626
4.654631177159353	6.7848864	2.6047814
4.672172447630417	6.4816933	2.545917
4.689713827643102	6.3717666	2.5242357
4.7072553176105085	6.1117916	2.4722037
4.724796917945764	5.968665	2.4430852
4.742338629062015	5.8716855	2.423156
4.759880451372434	5.8568625	2.4200957
4.777422385290215	5.8187075	2.4121997
4.794964431228581	5.797391	2.407777
4.812506589600768	5.7595515	2.3999066
4.830048860820047	5.809575	2.410306
4.847591245299709	5.8268085	2.4138782
4.8651337434530655	5.698322	2.3871157
4.882676355693457	5.6118174	2.3689275
4.900219082434242	5.5480804	2.3554363
4.917761924088813	5.5504074	2.3559303
4.935304881070575	5.5938973	2.365142
4.952847953792969	5.5988336	2.3661854
4.970391142669449	5.590819	2.3644912
4.9879344481135055	5.568514	2.3597698
5.005477870538642	5.5482697	2.3554766
5.023021410358394	5.5327854	2.3521874
5.040565067986324	5.4797454	2.3408856
5.05810884383601	5.4846616	2.3419354
5.075652738321066	5.4054923	2.3249714
5.09319675185512	5.403082	2.324453
5.110740884851836	5.372119	2.317783
5.128285137724894	5.2988415	2.3019214
5.145829510888007	5.284369	2.2987754
5.163374004754908	5.3263845	2.3078961
5.1809186197393595	5.3546243	2.314006
5.198463356255145	5.415335	2.3270872
5.216008214716077	5.4500146	2.3345265
5.233553195535998	5.413166	2.326621
5.251098299128764	5.320034	2.30652
5.268643525908272	5.2295547	2.2868218
5.286188876288432	5.2606735	2.2936158
5.3037343506831895	5.349429	2.3128834
5.32127994950651	5.3490777	2.3128073
5.3388256731723915	5.322464	2.3070467
5.356371522094851	5.3018064	2.302565
5.373917496687938	5.292598	2.3005648
5.391463597365729	5.2400436	2.2891142
5.40900982454232	5.2090726	2.2823393
5.426556178631843	5.294475	2.3009727
5.444102660048449	5.3274236	2.3081212
5.4616492692063225	5.23367	2.2877216
5.479196006519669	5.166933	2.273089
5.496742872402727	5.1953645	2.2793343
5.514289867269756	5.2613697	2.2937677
5.531836991535049	5.2153683	2.283718
5.549384245612924	5.1622057	2.2720487
5.566931629917724	5.1433315	2.2678914
5.584479144863822	5.1346397	2.2659743
5.6020267908656205	5.098919	2.2580786
5.619574568337545	5.127692	2.2644408
5.637122477694054	5.134968	2.2660468
5.654670519349629	5.212789	2.2831533
5.672218693718784	5.2502418	2.2913406
5.689767001216059	5.2129283	2.2831838
5.707315442256021	5.1727705	2.2743726
5.724864017253266	5.1714306	2.274078
5.7424127266224225	5.166743	2.273047
5.75996157077814	5.1750617	2.274876
5.777510550135105	5.21763	2.2842133
5.795059665108022	5.2205873	2.2848604
5.812608916111639	5.3161635	2.3056808
5.830158303560715	5.417798	2.3276165
5.847707827870055	5.374811	2.318364
5.86525748945448	5.3754354	2.3184986
5.8828072887288485	5.4461126	2.333691
5.900357226108044	5.556648	2.3572543
5.917907302006979	5.6532273	2.3776517
5.9354575168406	6.22554	2.4951031
5.9530078710238765	6.797743	2.607248
5.970558364971812	7.3416147	2.7095413
5.988108999099438	7.700136	2.7749119
6.005659773821818	8.369034	2.8929281
6.023210689554039	8.157675	2.8561645
6.040761746711227	8.604542	2.9333498
6.058312945708531	8.004033	2.82914
6.075864286961132	7.4758835	2.7342062
6.093415770884244	6.7710304	2.6021204
6.1109673978931065	6.163466	2.4826329
6.128519168402993	5.536584	2.3529947
6.146071082829204	5.3868976	2.320969
6.163623141587075	5.2490306	2.2910762
6.181175345091969	5.173914	2.2746239
6.198727693759281	5.214012	2.283421
6.216280188004435	5.2720294	2.2960901
6.233832828242885	5.29243	2.3005283
6.251385614890126	5.2717385	2.2960267
6.268938548361669	5.2110023	2.282762
6.286491629073067	5.1313887	2.265257
6.304044857439898	5.102539	2.2588801
6.321598233877777	5.0759797	2.2529936
6.339151758802344	5.0064626	2.2375126
6.356705432629277	4.9214673	2.2184381
6.37425925577428	4.8590794	2.2043319
6.391813228653095	4.8849206	2.2101858
6.409367351681486	4.9648175	2.228187
6.426921625275259	4.9994717	2.2359498
6.44447604985025	4.9573817	2.226518
6.46203062582232	4.960862	2.2272992
6.47958535360737	5.0044518	2.2370632
6.497140233621328	5.019783	2.2404873
6.514695266280161	5.0677333	2.2511628
6.532250451999859	5.0459204	2.2463126
6.549805791196454	5.0632825	2.2501738
6.567361284286002	5.0195656	2.2404387
6.584916931684597	4.969547	2.229248
6.602472733808367	4.936624	2.2218516
6.6200286910734665	4.959674	2.2270324
6.637584803896092	5.0468564	2.246521
6.655141072692462	5.1118484	2.2609396
6.672697497878842	5.0859823	2.2552123
6.690254079871514	5.038506	2.2446616
6.707810819086808	4.968935	2.2291107
6.725367715941078	4.9373136	2.2220066
6.742924770850719	4.9798307	2.2315536
6.760481984232151	4.9757776	2.2306452
6.778039356501836	4.9786935	2.2312987
6.795596888076266	4.963296	2.2278457
6.813154579371963	4.9695354	2.2292454
6.830712430805492	4.9588785	2.2268538
6.84827044279344	4.991467	2.2341592
6.865828615752445	5.0319185	2.2431939
6.883386950099159	5.0257225	2.2418122
6.900945446250287	5.063143	2.2501428
6.918504104622553	5.0965767	2.25756
6.936062925632727	5.1184454	2.2623982
6.953621909697607	5.1173787	2.2621624
6.971181057234028	5.0658073	2.2507348
6.988740368658859	5.085482	2.2551014
7.006299844389007	5.2017198	2.2807279
7.023859484841407	5.2259617	2.2860363
7.041419290433036	5.336448	2.3100753
7.058979261580902	5.467273	2.3382201
7.0765393987020495	5.7095184	2.3894598
7.094099702213559	6.0964	2.4690888
7.111660172532549	6.474325	2.5444696
7.129220810076164	6.7761655	2.603107
7.146781615261595	7.3558598	2.712169
7.16434258850606	7.604558	2.7576363
7.181903730226821	8.032823	2.8342235
7.1994650408411704	8.261715	2.8743198
7.217026520766437	8.416267	2.9010804
7.234588170419983	8.62195	2.9363158
7.252149990219215	8.548449	2.923773
7.269711980581568	8.416116	2.9010541
7.2872741419245175	8.255933	2.873314
7.304836474665574	7.757254	2.7851849
7.322398979222286	7.3858576	2.7176933
7.339961656012233	7.1474648	2.6734743
7.357524505453039	6.902239	2.6272113
7.375087527962357	6.7768087	2.6032305
7.392650723957886	6.5422325	2.5577788
7.410214093857353	6.201183	2.4902174
7.427777638078528	5.927167	2.4345775
7.445341357039213	5.7137346	2.390342
7.4629052511572525	5.5575557	2.357447
7.480469320850524	5.401772	2.3241713
7.498033566536948	5.3097463	2.3042886
7.5155979886344735	5.2985363	2.301855
7.5331625875610975	5.225311	2.285894
7.550727363734844	5.1565547	2.270805
7.568292317573788	5.0908227	2.2562852
7.585857449496025	5.101543	2.2586596
7.603422759919705	5.133449	2.2657115
7.620988249263007	5.144699	2.268193
7.638553917944147	5.1822853	2.2764633
7.656119766381391	5.235073	2.2880282
7.673685794993023	5.252677	2.291872
7.691252004197388	5.2534924	2.29205
7.70881839441285	5.249802	2.2912447
7.726384966057826	5.276523	2.2970684
7.743951719550762	5.3186564	2.3062212
7.761518655310149	5.300306	2.3022394
7.779085773754511	5.322615	2.3070793
7.796653075302419	5.3489556	2.3127809
7.814220560372475	5.3822994	2.3199782
7.831788229383323	5.368634	2.3170314
7.8493560827536495	5.4254403	2.3292575
7.866924120902174	5.4628468	2.3372734
7.884492344247663	5.51373	2.3481333
7.9020607532089135	5.5478926	2.3553965
7.919629348204771	5.492371	2.3435807
7.937198129654115	5.495708	2.3442926
7.954767097975865	5.392464	2.3221679
7.972336253588986	5.378543	2.3191686
7.989905596912472	5.408246	2.3255637
8.007475128365371	5.430818	2.3304117
8.025044848366756	5.49607	2.34437
8.042614757335754	5.5680685	2.3596754
8.060184855691523	5.6133027	2.369241
8.07775514385327	5.7625985	2.4005413
8.095325622240228	5.836046	2.415791
8.112896291271687	5.9149346	2.4320638
8.130467151366968	5.9371824	2.4366333
8.148038202945436	5.971307	2.4436257
8.165609446426497	6.0487957	2.45943
8.183180882229594	6.1060624	2.4710448
8.200752510774217	6.0526485	2.4602132
8.218324332479893	6.022845	2.4541485
8.235896347766193	5.9821544	2.4458444
8.253468557052724	5.9772105	2.4448335
8.27104096075914	5.964895	2.4423134
8.288613559305137	6.0038095	2.4502673
8.306186353110448	6.0945954	2.4687235
8.32375934259485	6.2227836	2.4945507
8.341332528178162	6.2374024	2.4974792
8.358905910280246	6.2539763	2.5007951
8.376479489321003	6.203379	2.4906583
8.394053265720377	6.226214	2.4952383
8.411627239898356	6.2410927	2.4982178
8.42920141227497	6.3008375	2.5101469
8.44677578327029	6.2842402	2.5068388
8.464350353304427	6.259898	2.5019789
8.48192512279754	6.2597885	2.501957
8.499500092169827	6.256363	2.5012722
8.51707526184153	6.1765585	2.4852684
8.534650632232934	6.2252107	2.4950373
8.552226203764365	6.3085217	2.511677
8.569801976856192	6.3923283	2.5283055
8.587377951928834	6.3504004	2.52
8.60495412940274	6.2614527	2.5022895
8.622530509698416	6.2770014	2.5053945
8.6401070932364	6.413934	2.5325747
8.657683880437283	6.5511107	2.5595138
8.675260871721695	6.6852803	2.5855908
8.692838067510303	6.870469	2.621158
8.710415468223834	7.0219765	2.6499012
8.727993074283043	7.166981	2.6771219
8.745570886108737	7.1452656	2.673063
8.763148904121765	7.1063085	2.665766
8.78072712874302	7.183344	2.680176
8.798305560393441	7.457917	2.7309186
8.815884199494006	7.651214	2.7660828
8.833463046465745	7.8007307	2.7929788
8.851042101729728	7.938768	2.817582
8.86862136570707	8.205839	2.8645835
8.886200838818924	8.287449	2.878793
8.903780521486505	8.272923	2.876269
8.921360414131055	8.268522	2.8755038
8.938940517173874	8.385042	2.8956938
8.956520831036297	8.557742	2.9253619
8.97410135613971	8.890535	2.9817002
8.99168209290554	9.145698	3.0241854
9.009263041755265	9.504409	3.0829222
9.026844203110405	9.830691	3.1353934
9.044425577392525	9.957557	3.1555595
9.062007165023239	9.973433	3.1580741
9.079588966424197	10.189116	3.1920395
9.097170982017108	10.327149	3.2135882
9.11475321222372	11.391925	3.3751926
9.132335657465825	12.290113	3.5057259
9.149918318165264	12.427271	3.5252335
9.167501194743924	13.083258	3.6170785
9.18508428762374	12.777345	3.574541
9.202667597226693	12.796681	3.577245
9.220251123974803	12.333376	3.5118906
9.237834868290143	11.970883	3.4598963
9.255418830594836	11.935775	3.454819
9.273003011311046	11.454527	3.3844538
9.290587410860985	11.26722	3.356668
9.308172029666911	10.524887	3.2442083
9.32575686815113	10.197838	3.1934054
9.343341926735997	8.880419	2.980003
9.360927205843916	8.683711	2.9468138
9.378512705897327	8.439444	2.905072
9.396098427318728	8.155986	2.8558686
9.413684370530664	8.020701	2.8320842
9.431270535955722	8.006335	2.829547
9.448856924016539	7.9459257	2.818852
9.466443535135806	7.8033156	2.7934415
9.484030369736251	7.758651	2.7854354
9.501617428240658	7.758273	2.7853677
9.519204711071852	7.891906	2.8092537
9.536792218652714	7.994519	2.8274581
9.55437995140617	8.074005	2.8414793
9.571967909755191	7.9807367	2.8250198
9.589556094122802	7.8980856	2.8103533
9.60714450493207	7.887421	2.8084552
9.624733142606116	7.874981	2.8062396
9.642322007568108	7.957559	2.8209145
9.659911100241267	8.000503	2.828516
9.677500421048851	8.001473	2.8286877
9.695089970414175	8.05943	2.8389134
9.712679748760609	8.059017	2.8388407
9.730269756511557	8.062315	2.8394215
9.747859994090492	8.113879	2.8484871
9.765450461920915	8.171078	2.8585098
9.78304116042639	8.237694	2.8701382
9.800632090030527	8.307594	2.8822896
9.81822325115699	8.408936	2.8998165
9.835814644229481	8.408816	2.899796
9.853406269671762	8.388008	2.896206
9.870998127907646	8.369998	2.8930948
9.888590219360985	8.343791	2.8885622
9.906182544455698	8.366846	2.89255
9.923775103615734	8.306286	2.8820627
9.941367897265108	8.321113	2.8846338
9.958960925827878	8.367439	2.8926528
9.97655418972816	8.41645	2.9011118
9.994147689390106	8.423405	2.9023101
10.011741425237934	8.409796	2.8999648
10.029335397695904	8.42588	2.9027367
10.04692960718833	8.390126	2.8965714
10.06452405413958	8.396206	2.8976207
10.082118738974064	8.3701935	2.8931286
10.099713662116246	8.393166	2.8970962
10.117308823990651	8.401785	2.8985832
10.134904225021844	8.355864	2.890651
10.152499865634445	8.295565	2.8802023
10.170095746253125	8.286467	2.8786223
10.18769186730261	8.256316	2.8733807
10.205288229207675	8.18481	2.8609107
10.222884832393145	8.102268	2.8464484
10.2404816772839	8.097041	2.84553
10.258078764304868	8.149363	2.854709
10.275676093881035	8.213665	2.8659492
10.293273666437438	8.268304	2.8754659
10.310871482399158	8.314195	2.8834345
10.32846954219134	8.239457	2.8704455
10.346067846239173	8.21343	2.8659084
10.363666394967908	8.167097	2.8578134
10.38126518880283	8.231236	2.869013
10.398864228169298	8.2308235	2.868941
10.416463513492713	8.199348	2.8634505
10.434063045198531	8.1708765	2.8584745
10.451662823712262	8.141635	2.853355
10.469262849459467	8.1270685	2.8508015
10.486863122865758	8.090311	2.8443472
10.504463644356806	8.054834	2.838104
10.522064414358338	8.012982	2.8307211
10.539665433296118	7.931404	2.816275
10.557266701595987	7.8693767	2.8052409
10.574868219683818	7.846291	2.8011231
10.592469987985552	7.7742615	2.7882364
10.610072006927185	7.6452694	2.765008
10.627674276934751	7.5386434	2.745659
10.64527679843435	7.421152	2.7241793
10.662879571852143	7.299407	2.7017415
10.680482597614331	7.1844225	2.6803772
10.698085876147173	7.0325413	2.6518939
10.715689407876988	6.926907	2.6319017
10.733293193230146	6.9223967	2.6310449
10.750897232633072	6.9053683	2.6278067
10.76850152651225	6.806301	2.6088889
10.786106075294207	6.6776066	2.5841064
10.803710879405534	6.5450525	2.55833
10.821315939272877	6.5170145	2.5528443
10.83892125532294	6.4023395	2.5302844
10.856526827982472	6.284433	2.5068772
10.874132657678285	6.1749773	2.48495
10.891738744837243	6.1585417	2.4816408
10.909345089886271	6.161739	2.482285
10.926951693252343	6.109333	2.4717064
10.944558555362494	6.0529375	2.4602718
10.96216567664381	5.969589	2.4432743
10.979773057523436	5.938406	2.4368844
10.997380698428573	5.8700175	2.422812
11.014988599786477	5.790965	2.4064424
11.032596762024461	5.725723	2.3928483
11.050205185569892	5.6586237	2.378786
11.067813870850198	5.595599	2.3655019
11.085422818292859	5.51878	2.3492084
11.10303202832541	5.4206314	2.328225
11.120641501375454	5.347023	2.3123631
11.138251237870636	5.2883887	2.2996497
11.155861238238671	5.2464046	2.290503
11.173471502907317	5.185998	2.2772787
11.191082032304402	5.1575055	2.2710142
11.208692826857805	5.093481	2.256874
11.226303886995465	5.026748	2.242041
11.243915213145371	4.9854517	2.2328124
11.261526805735578	4.915977	2.2172003
11.279138665194196	4.82639	2.1969047
11.296750791949393	4.703497	2.1687546
11.314363186429393	4.6024446	2.145331
11.331975849062479	4.64202	2.1545348
11.34958878027699	4.672031	2.161488
11.36720198050133	4.68628	2.1647818
11.384815450163948	4.632517	2.1523283
11.402429189693366	4.5664544	2.1369264
11.420043199518153	4.5163264	2.125165
11.437657480066942	63.490845	7.9681144
11.455272031768422	85.205154	9.230664
11.472886855051353	107.602875	10.37318
11.490501950344528	99.17866	9.958848
11.508117318076819	84.51923	9.193435
11.52573295867715	45.89922	6.774896
11.543348872574514	4.2130857	2.0525804
11.560965060197946	4.116672	2.0289583
11.57858152197655	4.0531254	2.0132375
11.59619825833949	4.0035	2.0008748
11.613815269715985	3.9987547	1.9996886
11.631432556535323	38.52587	6.206921
11.649050119226837	83.10858	9.116391
11.666667958219929	93.571724	9.673248
11.68428607394406	107.82887	10.3840685
11.701904466828756	82.634605	9.090358
11.719523137303586	65.47333	8.091559
11.737142085798196	4.7181516	2.1721306
11.754761312742286	3.825672	1.9559325
11.772380818565619	3.7142856	1.9272482
11.790000603698015	3.6515632	1.9109063
11.80762066856935	3.6042874	1.898496
11.825241013609572	3.5851498	1.8934492
11.842861639248683	3.5917902	1.8952019
11.860482545916748	3.5472589	1.8834168
11.878103734043883	3.519077	1.8759203
11.895725204060282	3.44969	1.8573341
11.91334695639619	3.429976	1.8520194
11.930968991481919	3.362568	1.8337306
11.948591309747824	3.352951	1.8311065
11.966213911624347	3.3710914	1.8360533
11.98383679754198	3.3796816	1.8383911
12.001459967931268	3.3549476	1.8316516
12.019083423222835	3.2803986	1.811187
12.036707163847352	3.250534	1.8029238
12.05433119023556	3.1780567	1.7827106
12.071955502818259	3.2011228	1.7891681
12.089580102026313	3.1966398	1.7879149
12.107204988290643	3.2106755	1.7918358
12.12483016204224	3.169069	1.780188
12.142455623712152	3.1077309	1.7628758
12.16008137373149	3.078583	1.7545891
12.177707412531431	3.0609856	1.7495673
12.19533374054321	3.0640173	1.7504334
12.212960358198126	3.0749686	1.7535589
12.230587265927545	3.0909877	1.7581205
12.248214464162889	3.0853817	1.7565255
12.265841953335649	3.0821042	1.7555922
12.283469733877375	3.039238	1.7433411
12.301097806219685	3.0038495	1.7331617
12.31872617079425	2.998586	1.7316426
12.336354828032825	2.9750364	1.7248294
12.353983778367205	2.9395995	1.714526
12.371613022229262	2.953524	1.718582
12.389242560050928	2.9648414	1.7218715
12.406872392264201	2.9716766	1.7238551
12.424502519301143	2.8959527	1.7017499
12.442132941593874	2.8176887	1.6785972
12.459763659574586	2.7776885	1.6666399
12.477394673675532	2.7807908	1.6675704
12.49502598432903	2.7969408	1.6724057
12.51265759196746	2.826051	1.6810863
12.530289497023267	2.8428295	1.6860693
12.547921699928967	2.8705516	1.6942703
12.565554201117134	2.8562934	1.6900573
12.583187001020404	2.8303282	1.6823579
12.600820100071486	2.8110774	1.6766268
12.618453498703152	2.8301759	1.6823126
12.636087197348235	2.8163419	1.6781961
12.65372119643964	2.807839	1.6756607
12.671355496410326	2.7914224	1.670755
12.68899009769333	2.766021	1.6631359
12.706625000721749	2.8021164	1.6739523
12.724260205928752	2.8659801	1.6929206
12.741895713747551	2.9327855	1.7125378
12.759531524611454	2.9978356	1.7314259
12.777167638953818	3.000285	1.732133
12.794804057208072	2.975811	1.7250539
12.812440779807702	3.0001488	1.7320938
12.830077807186271	3.1992583	1.788647
12.847715139777405	3.276516	1.8101149
12.865352778014795	3.5020363	1.8713728
12.882990722332197	3.5458772	1.88305
12.90062897316344	3.6144955	1.9011827
12.918267530942412	3.6840818	1.9193962
12.935906396103071	3.6274085	1.9045757
12.953545569079449	3.8105004	1.9520503
12.971185050305628	3.5883803	1.8943021
12.988824840215775	3.5416644	1.8819311
13.006464939244115	3.595891	1.8962835
13.024105347824943	3.465318	1.8615365
13.041746066392617	3.6423402	1.9084916
13.05938709538157	3.4534562	1.8583477
13.077028435226296	3.4880202	1.8676242
13.094670086361363	3.3517025	1.8307655
13.112312049221401	3.2757812	1.809912
13.129954324241112	3.1766613	1.7823191
13.147596911855258	2.9599926	1.7204629
13.165239812498685	2.872892	1.6949607
13.182883026606293	2.7530377	1.6592281
13.200526554613058	2.7223387	1.6499511
13.218170396954017	2.726939	1.6513445
13.235814554064284	2.766169	1.6631804
13.253459026379034	2.796019	1.6721301
13.271103814333523	2.7701757	1.6643845
13.288748918363058	2.7356958	1.653994
13.306394338903031	2.6671793	1.6331501
13.32404007638889	2.6360037	1.6235775
13.341686131256164	2.6564195	1.6298527
13.359332503940449	2.6615188	1.6314162
13.376979194877402	2.653474	1.6289488
13.394626204502751	2.667653	1.6332952
13.412273533252307	2.6742315	1.6353078
13.429921181561937	2.694668	1.6415445
13.447569149867581	2.7157645	1.6479577
13.465217438605247	2.7317827	1.6528106
13.482866048211022	2.7212307	1.6496153
13.500514979121052	2.7089753	1.6458966
13.518164231771568	2.685291	1.6386858
13.535813806598844	2.6862268	1.6389713
13.553463704039254	2.6708512	1.6342739
13.571113924529229	2.6976388	1.642449
13.588764468505275	2.7161155	1.6480641
13.606415336403956	2.7414067	1.6557194
13.624066528661917	2.7097023	1.6461173
13.641718045715882	2.7425017	1.6560501
13.659369888002635	2.817517	1.6785461
13.67702205595903	2.9014058	1.7033514
13.694674550021993	2.9778185	1.7256356
13.712327370628532	3.0174468	1.73708
13.729980518215713	3.0736446	1.7531813
13.747633993220681	3.1564622	1.7766435
13.765287796080647	3.2261195	1.7961402
13.7829419272329	3.3299882	1.8248255
13.800596387114801	3.3866096	1.8402743
13.818251176163775	3.4177887	1.8487263
13.835906294817324	3.4421945	1.8553152
13.853561743513023	3.4536223	1.8583924
13.871217522688525	3.4444778	1.8559304
13.888873632781538	3.4283092	1.8515694
13.906530074229858	3.4956977	1.8696785
13.92418684747135	3.5426512	1.8821932
13.941843952943948	3.5343976	1.8799994
13.959501391085665	3.4609714	1.8603686
13.977159162334578	3.351767	1.8307831
13.994817267128846	3.3133569	1.8202629
14.012475705906693	3.2238905	1.7955196
14.030134479106424	3.184446	1.7845017
14.047793587166414	3.126285	1.7681304
14.065453030525108	3.0898223	1.757789
14.083112809621026	3.0379298	1.7429658
14.100772924892766	2.9366066	1.713653
14.118433376778997	2.878603	1.6966447
14.136094165718458	2.8435917	1.6862953
14.153755292149969	2.802566	1.6740867
14.171416756512416	2.73977	1.655225
14.189078559244768	2.701013	1.6434759
14.20674070078606	2.6432323	1.625802
14.224403181575408	2.6169155	1.6176883
14.242066002051999	2.5838497	1.6074357
14.259729162655093	2.5361242	1.5925213
14.277392663824022	2.454941	1.5668252
14.295056505998208	2.415293	1.5541213
14.312720689617128	2.394921	1.5475533
14.330385215120348	2.3912172	1.5463561
14.348050082947497	2.3740637	1.5407997
14.3657152935383	2.370108	1.5395155
14.383380847332528	2.3647242	1.537766
14.401046744770051	2.3792412	1.5424789
14.418712986290798	2.3576915	1.5354776
14.436379572334793	2.38771	1.5452217
14.454046503342123	2.3909867	1.5462816
14.471713779752946	2.412554	1.5532398
14.489381402007504	2.4398086	1.5619887
14.507049370546113	2.4347756	1.5603768
14.524717685809168	2.4275506	1.5580598
14.542386348237134	2.4006	1.549387
14.560055358270553	2.3911479	1.5463337
14.577724716350051	2.4028165	1.5501021
14.595394422916325	2.4100528	1.5524344
14.61306447841015	2.4654074	1.5701616
14.63073488327237	2.5051594	1.5827695
14.648405637943917	2.5315773	1.5910932
14.6660767428658	2.5251255	1.5890644
14.683748198479094	2.5399656	1.593727
14.701420005224954	2.5988784	1.6121037
14.719092163544628	2.6936905	1.6412467
14.73676467387942	2.755577	1.659993
14.754437536670727	2.7639344	1.6625085
14.772110752360014	2.7740946	1.6655613
14.78978432138882	2.7644532	1.6626645
14.807458244198777	2.777124	1.6664705
14.82513252123159	2.7414477	1.6557318
14.842807152929028	2.7346976	1.6536921
14.860482139732962	2.68964	1.6400123
14.87815748208531	2.6509085	1.6281611
14.8958331804281	2.6178033	1.6179627
14.91350923520342	2.6202383	1.618715
14.931185646853438	2.6835945	1.638168
14.948862415820408	2.733197	1.6532383
14.966539542546656	2.7789075	1.6670055
14.98421702747459	2.7118742	1.6467769
15.001894871046696	2.7212877	1.6496326
15.019573073705542	2.7033992	1.6442016
15.037251635893766	2.6917129	1.6406441
15.054930558054092	2.6690485	1.6337223
15.072609840629323	2.7166839	1.6482366
15.090289484062351	2.8650658	1.6926506
15.107969488796124	3.1084373	1.7630761
15.125649855273691	3.480761	1.8656797
15.14333058393817	3.9342515	1.9834948
15.161011675232768	4.8772917	2.2084591
15.17869312960076	6.2661533	2.5032287
15.196374947485506	8.246142	2.8716097
15.214057129330447	11.342206	3.367819
15.231739675579114	16.1303	4.0162544
15.249422586675102	21.30301	4.6155186
15.267105863062092	24.503582	4.9501095
15.284789505183847	24.921574	4.9921513
15.302473513484218	22.804762	4.775433
15.320157888407127	19.237791	4.3860908
15.337842630396578	14.977519	3.87008
15.355527739896656	11.699018	3.4203827
15.37321321735153	9.083573	3.0138967
15.39089906320545	6.543399	2.5580068
15.408585277902748	4.8173833	2.1948538
15.42627186188783	3.6780078	1.9178133
15.443958815605198	3.2144694	1.7928941
15.461646139499424	2.9440024	1.7158096
15.479333834015168	2.8359623	1.6840316
15.497021899597165	2.8057094	1.6750252
15.514710336690234	2.762918	1.6622027
15.53239914573928	2.6616483	1.6314559
15.550088327189297	2.5285883	1.5901536
15.567777881485336	2.4560254	1.5671711
15.58546780907256	2.4605155	1.568603
15.6031581103962	2.4808	1.5750555
15.620848785901568	2.5136015	1.5854342
15.638539836034063	2.4942107	1.5793071
15.656231261239173	2.4907067	1.5781972
15.673923061962451	2.4555383	1.5670158
15.691615238649552	2.4438107	1.5632693
15.709307791746202	2.4192739	1.5554016
15.727000721698221	2.4204693	1.5557858
15.744694028951498	2.4202385	1.5557116
15.76238771395202	2.3968647	1.548181
15.780081777145844	2.3794494	1.5425464
15.797776218979125	2.3803425	1.5428358
15.815471039898094	2.382739	1.5436124
15.833166240349064	2.4123511	1.5531745
15.850861820778437	2.4125428	1.5532362
15.868557781632699	2.406909	1.5514216
15.886254123358412	2.419691	1.5555357
15.903950846402232	2.4089508	1.5520796
15.921647951210897	2.410393	1.552544
15.939345438231225	2.417986	1.5549874
15.957043307910133	2.440766	1.5622951
15.974741560694602	2.4539216	1.5664998
15.992440197031714	2.4524567	1.5660322
16.01013921736862	2.4541235	1.5665642
16.02783862215259	2.4348466	1.5603995
16.045538411830933	2.4189634	1.5553017
16.06323858685107	2.4318244	1.5594308
16.080939147660512	2.440541	1.5622231
16.09864009470684	2.411396	1.552867
16.11634142843774	2.4085808	1.5519603
16.134043149300954	2.3980677	1.5485696
16.15174525774433	2.4055936	1.5509976
16.169447754215817	2.4018524	1.5497911
16.18715063916342	2.4459438	1.5639514
16.204853913035244	2.4583948	1.5679269
16.222557576279478	2.4309604	1.5591538
16.240261629344403	22.424042	4.735403
16.257966072678386	43.014114	6.5585146
16.275670906729868	38.157818	6.1772013
16.293376131947387	2.5510848	1.5972116
16.31108174877957	2.5400915	1.5937665
16.328787757675133	2.5815747	1.606728
16.34649415908287	2.6182432	1.6180986
16.364200953451657	2.629768	1.621656
16.38190814123048	2.609621	1.6154321
16.39961572286839	2.6482234	1.6273363
16.41732369881455	2.6845653	1.6384643
16.43503206951817	2.7163334	1.6481303
16.45274083542859	2.7759721	1.6661249
16.47044999699522	2.816879	1.678356
16.488159554667558	2.8506303	1.688381
16.505869508895184	2.862118	1.6917795
16.523579860127786	2.8939767	1.7011693
16.541290608815117	2.9106355	1.7060585
16.559001755407035	2.9690785	1.7231014
16.57671330035348	3.0259397	1.7395228
16.59442524410448	3.113698	1.7645674
16.61213758711015	3.2018912	1.7893829
16.629850329820705	3.2529619	1.803597
16.647563472686436	3.3369396	1.8267292
16.665277016157724	3.408058	1.8460926
16.682990960685053	3.399413	1.8437498
16.70070530671898	3.4155178	1.848112
16.718420054710155	3.4112132	1.846947
16.736135205109335	3.5120955	1.8740586
16.753850758367335	3.570001	1.8894446
16.771566714935087	3.6314003	1.9056233
16.789283075263597	3.7091658	1.9259194
16.80699983980398	3.8076699	1.9513252
16.82471700900741	3.9062514	1.9764239
16.84243458332518	3.9395726	1.9848356
16.860152563208665	3.9749243	1.9937212
16.87787094910932	4.043243	2.0107818
16.89558974147871	4.1563993	2.038725
16.913308940768466	4.2420135	2.059615
16.931028547430333	4.279202	2.0686233
16.94874856191613	4.325282	2.0797312
16.966468984677785	4.365911	2.0894763
16.98418981616729	4.3863726	2.0943668
17.00191105683676	4.441472	2.10748
17.019632707138374	4.522917	2.126715
17.03735476752442	4.6014237	2.145093
17.05507723844728	4.6588473	2.1584363
17.072800120359403	4.6681457	2.1605892
17.090523413713353	4.638446	2.1537051
17.108247118961785	4.6450768	2.155244
17.125971236557437	4.6480045	2.1559231
17.143695766953133	4.615415	2.1483517
17.161420710601806	4.636309	2.153209
17.179146067956477	4.6331687	2.1524796
17.19687183947025	4.674021	2.1619484
17.21459802559634	4.6961083	2.1670506
17.232324626788028	4.738024	2.1767004
17.25005164349871	4.731743	2.175257
17.267779076181863	4.6441374	2.155026
17.285506925291074	4.601448	2.1450987
17.30323519127999	4.56567	2.1367428
17.320963874602384	4.5409975	2.1309617
17.33869297571211	4.4958825	2.1203496
17.356422495063114	4.4909983	2.1191976
17.37415243310944	4.4774256	2.1159928
17.391882790305218	4.482021	2.1170783
17.40961356710468	4.475766	2.1156006
17.42734476396215	4.522567	2.1266327
17.445076381332044	4.5251317	2.1272357
17.462808419668868	4.623478	2.1502273
17.48054087942723	4.702582	2.1685438
17.498273761061835	4.9706216	2.229489
17.51600706502747	5.439966	2.3323736
17.533740791779024	6.2117577	2.4923398
17.551474941771485	7.684163	2.7720323
17.56920951545993	8.74718	2.9575632
17.586944513299528	10.973415	3.3126147
17.60467993574556	12.7258215	3.567327
17.622415783253373	14.589274	3.8195908
17.64015205627843	16.062405	4.007793
17.657888755276293	17.15506	4.1418667
17.675625880702604	17.715708	4.209003
17.69336343301311	17.553139	4.1896467
17.71110141266366	16.783607	4.0967803
17.728839820110178	15.706615	3.9631572
17.746578655808705	14.548754	3.814283
17.764317920215372	12.930687	3.5959265
17.7820576137864	11.303115	3.3620105
17.79979773697811	9.362286	3.0597851
17.81753829024692	7.475919	2.7342126
17.835279274049356	5.81362	2.411145
17.85302068884201	4.808907	2.192922
17.870762535081607	4.1897616	2.0468907
17.888504813224934	3.8879635	1.971792
17.90624752372891	3.722194	1.9292989
17.923990667050536	3.6356144	1.9067287
17.941734243646895	3.6058486	1.8989072
17.959478253975185	3.602695	1.8980767
17.9772226984927	3.5649288	1.8881019
17.994967577656833	3.475786	1.864346
18.01271289192506	3.3718882	1.8362702
18.030458641754965	3.325781	1.8236724
18.04820482760425	3.3146696	1.8206234
18.06595144993067	3.2816494	1.8115324
18.083698509192125	3.2657564	1.8071404
18.101446005846576	3.234702	1.7985277
18.119193940352105	3.225411	1.7959429
18.136942313166887	3.213812	1.7927108
18.1546911247492	3.1956737	1.7876447
18.1724403755574	3.1967814	1.7879546
18.19019006604997	3.1595511	1.7775127
18.207940196685467	3.1298497	1.7691381
18.225690767922575	3.0546067	1.7477434
18.243441780220046	3.0711725	1.7524761
18.261193234036764	3.0723794	1.7528204
18.278945129831676	3.089337	1.757651
18.29669746806386	3.071304	1.7525136
18.314450249192483	3.0346284	1.7420185
18.3322034736768	3.0369608	1.7426878
18.349957141976184	3.075	1.7535678
18.3677112545501	3.12304	1.7672125
18.385465811858108	3.1386306	1.7716181
18.403220814359884	3.0851185	1.7564505
18.420976262515172	3.0867999	1.756929
18.43873215678387	3.1024318	1.7613721
18.456488497625923	3.1569889	1.7767917
18.474245285501407	3.2163227	1.7934109
18.492002520870486	3.2828333	1.8118591
18.50976020419343	3.3776581	1.8378406
18.527518335930615	3.6761844	1.9173379
18.545276916542516	4.253203	2.0623295
18.563035946489688	4.413068	2.1007304
18.580795426232832	4.823585	2.1962662
18.598555356232698	4.734248	2.1758327
18.616315736950185	5.1042347	2.2592554
18.63407656884626	4.7957973	2.189931
18.65183785238201	4.9563375	2.2262833
18.669599588018617	4.608538	2.1467507
18.68736177621737	4.5524607	2.1336496
18.705124417439652	4.577397	2.1394851
18.72288751214696	4.4665046	2.1134107
18.740651060800886	4.677742	2.162809
18.758415063863115	4.362802	2.0887322
18.77617952179546	4.553666	2.133932
18.793944435059814	4.2268906	2.0559404
18.811709804118184	4.242274	2.059678
18.829475629432675	4.221344	2.054591
18.8472419114655	4.0544705	2.0135715
18.86500865067897	4.1254873	2.0311296
18.88277584753551	3.7780485	1.9437202
18.90054350249763	3.8395853	1.959486
18.918311616027957	3.5474808	1.8834758
18.936080188589226	3.4547372	1.8586923
18.953849220644265	3.068173	1.75162
18.971618712656007	2.8532586	1.6891592
18.9893886650875	2.834329	1.6835465
19.007159078401887	8.040899	2.835648
19.024929953062408	32.951317	5.7403235
19.042701289532435	32.911316	5.7368383
19.060473088275405	25.438128	5.0436225
19.07824534975489	2.668609	1.6335877
19.096018074434568	2.6142921	1.6168773
19.113791262778197	2.6119308	1.6161469
19.13156491524966	2.6083229	1.6150303
19.149339032312945	2.576914	1.605277
19.167113614432136	2.5958982	1.6111791
19.184888662071433	2.6311598	1.622085
19.202664175695123	2.6223557	1.6193689
19.220440155767623	2.5908492	1.6096115
19.238216602753447	2.5644486	1.6013895
19.2559935171172	2.5485775	1.5964265
19.27377089932361	2.575537	1.6048479
19.291548749837514	2.5832815	1.607259
19.309327069123835	2.5642133	1.6013161
19.32710585764763	2.5563958	1.5988733
19.344885115874032	2.5196495	1.5873404
19.362664844268313	2.524195	1.5887716
19.380445043295822	2.4966733	1.5800865
19.39822571342203	2.5113308	1.5847179
19.41600685511252	2.5296605	1.5904906
19.43378846883297	2.5475	1.5960889
19.451570555049173	2.5433655	1.5947932
19.469353114227037	2.526228	1.5894111
19.48713614683254	2.506857	1.5833057
19.50491965333182	2.4833188	1.5758549
19.52270363419109	2.4782472	1.574245
19.540488089876686	2.4742372	1.5729709
19.55827302085503	2.4669514	1.5706532
19.576058427592674	2.473204	1.5726423
19.593844310556282	2.4988923	1.5807885
19.611630670212598	2.499208	1.5808884
19.629417507028506	2.5046062	1.5825948
19.64720482147098	2.492885	1.5788873
19.6649926140071	2.46919	1.5713656
19.682780885104084	2.4684947	1.5711443
19.70056963522921	2.4642065	1.5697792
19.718358864849908	2.4573462	1.5675925
19.7361485744337	2.5021496	1.5818185
19.753938764448215	2.5484607	1.5963899
19.771729435361202	2.5868807	1.6083783
19.789520587640506	2.5794728	1.6060737
19.807312221754092	2.5337894	1.591788
19.825104338170043	2.5061655	1.5830873
19.842896937356517	2.5166228	1.5863867
19.860690019781824	2.559585	1.5998703
19.87848358591436	2.55641	1.5988778
19.896277636222635	2.490734	1.578206
19.914072171175278	2.489887	1.5779376
19.931867191241015	2.4983575	1.5806193
19.94966269688869	2.5228767	1.5883566
19.967458688587264	2.5239353	1.5886898
19.985255166805807	2.5412962	1.5941443
20.00305213201348	2.534303	1.5919495
20.020849584679578	2.5045898	1.5825896
20.038647525273507	2.475998	1.5735304
20.05644595426477	2.4497547	1.5651692
20.07424487212299	2.4500303	1.5652573
20.092044279317903	2.4641387	1.5697576
20.109844176319353	2.4863899	1.5768291
20.127644563597304	2.4764388	1.5736705
20.145445441621817	2.4180343	1.555003
20.16324681086307	2.3852553	1.5444272
20.181048671791373	2.39505	1.5475949
20.198851024877122	2.4370477	1.5611047
20.216653870590836	2.4079344	1.5517521
20.234457209403146	2.4025478	1.5500154
20.252261041784802	2.4249039	1.5572103
20.270065368206662	2.434248	1.5602077
20.287870189139685	2.4302728	1.5589333
20.305675505054968	2.4110105	1.5527428
20.323481316423702	2.3844607	1.5441699
20.341287623717207	2.3663704	1.5383011
20.359094427406884	2.3270571	1.5254694
20.376901727964288	2.3145416	1.5213617
20.39470952586107	2.327297	1.5255481
20.41251782156899	2.375327	1.5412096
20.430326615559935	2.3712807	1.5398964
20.448135908305886	2.3819642	1.5433613
20.465945700278965	2.3668363	1.5384526
20.483755991951384	2.3442483	1.5310938
20.50156678379548	2.355185	1.5346612
20.519378076283708	2.3680959	1.5388619
20.537189869888635	2.3505576	1.5331528
20.55500216508294	2.3401983	1.5297706
20.572814962339415	2.304951	1.5182065
20.59062826213098	2.2818027	1.5105637
20.60844206493066	2.2889986	1.5129437
20.626256371211593	2.329218	1.5261775
20.644071181447032	2.3413148	1.5301355
20.66188649611036	2.292124	1.5139762
20.67970231567506	2.275778	1.5085682
20.697518640614742	2.3003256	1.5166824
20.715335471403122	2.331612	1.5269617
20.73315280851404	2.3445551	1.531194
20.750970652421447	2.33952	1.529549
20.768789003599412	2.306935	1.5188597
20.786607862522136	2.2808213	1.5102389
20.8044272296639	2.3101838	1.5199288
20.82224710549913	2.2933352	1.5143762
20.84006749050237	2.2526422	1.5008805
20.857888385148268	3.7809675	1.944471
20.8757097899116	45.93682	6.777671
20.893531705267254	64.815765	8.050824
20.911354131690224	83.856155	9.157301
20.92917706965566	69.061325	8.310314
20.94700051963877	50.075462	7.0764017
20.96482448211493	29.330336	5.415749
20.982648957559622	4.087673	2.0217996
21.00047394644843	2.2159293	1.4885998
21.01829944925707	2.1880457	1.4792044
21.036125466461375	2.1989515	1.4828862
21.053951998537297	2.2681882	1.5060506
21.071779045960906	2.291432	1.5137477
21.089606609208378	2.2774353	1.5091174
21.10743468875603	2.2358046	1.4952607
21.12526328508028	2.2239516	1.4912919
21.143092398657675	2.2023206	1.4840218
21.16092202996488	2.1950977	1.4815862
21.17875217947867	2.2294025	1.4931184
21.19658284767596	2.259094	1.5030283
21.21441403503377	2.2827046	1.5108622
21.232245742029225	2.2836795	1.5111848
21.2500779691396	2.240454	1.4968146
21.26791071684227	2.2303195	1.4934254
21.28574398561475	2.2085016	1.4861028
21.30357777593465	2.1876667	1.4790763
21.321412088279704	2.1578684	1.4689685
21.339246923127792	2.1800354	1.4764943
21.357082280956888	2.2105453	1.4867903
21.3749181622451	2.208193	1.485999
21.392754567470647	2.1904936	1.4800316
21.41059149711187	2.1838865	1.4777979
21.42842895164726	2.1898286	1.4798069
21.446266931555378	2.1559725	1.468323
21.464105437314945	2.1325219	1.4603157
21.481944469404798	2.12069	1.4562589
21.49978402830388	2.1253572	1.4578605
21.51762411449127	2.0989003	1.4487582
21.53546472844617	2.090834	1.4459716
21.553305870647876	2.1272614	1.4585134
21.571147541575865	2.1449754	1.4645735
21.58898974170967	2.125648	1.4579602
21.60683247152899	2.0817115	1.4428138
21.62467573151363	2.0730517	1.4398096
21.642519522143523	2.0412638	1.428728
21.660363843898722	2.0200405	1.4212813
21.6782086972594	2.0281231	1.4241219
21.696054082705864	2.0556107	1.4337401
21.713900000718535	2.0927207	1.4466239
21.73174645177795	2.1021323	1.4498732
21.749593436364794	2.1136825	1.4538509
21.767440954959845	2.086968	1.4446342
21.785289008044032	2.0686777	1.4382899
21.803137596098388	2.076667	1.4410646
21.820986719604086	2.0787106	1.4417734
21.838836379042412	2.0373304	1.4273509
21.85668657489478	1.9994212	1.414009
21.87453730764273	2.006844	1.4166312
21.892388577767914	2.0768325	1.4411219
21.91024038575213	2.0995686	1.4489888
21.928092732077285	2.091781	1.4462991
21.945945617225426	2.0709238	1.4390705
21.963799041678694	2.0319507	1.4254651
21.981653005919398	31.349476	5.59906
21.999507510429943	78.129326	8.83908
22.01736255569286	73.08121	8.548755
22.035218142190818	4.1655045	2.0409567
22.05307427040661	1.9759403	1.4056815
22.07093094082315	1.9551153	1.3982544
22.088788153923474	1.956989	1.3989242
22.106645910190746	1.9794194	1.4069184
22.12450421010827	1.9985268	1.4136926
22.142363054159464	1.9621154	1.4007553
22.16022244282787	1.9278735	1.3884789
22.178082376597164	1.9343249	1.3908001
22.195942855951145	1.9434173	1.394065
22.213803881373742	1.9445994	1.3944889
22.231665453349002	1.9618005	1.4006429
22.24952757236111	1.9665052	1.4023213
22.26739023889438	1.9757098	1.4055995
22.28525345343323	1.9809272	1.4074541
22.30311721646225	1.9639127	1.4013968
22.320981528466113	1.9636272	1.4012948
22.33884638992964	1.9713466	1.4040465
22.356711801337788	1.9767203	1.4059589
22.37457776317561	1.9580632	1.3993081
22.392444275928337	1.9477606	1.3956219
22.410311340081282	1.9360418	1.3914171
22.428178956119904	1.9269269	1.3881379
22.446047124529805	1.9316919	1.3898532
22.46391584579669	1.938106	1.3921587
22.481785120406414	1.9476142	1.3955694
22.49965494884496	1.9526305	1.3973656
22.51752533159841	1.9684846	1.4030269
22.53539626915302	1.9549456	1.3981937
22.553267761995137	1.9234467	1.3868837
22.571139810611264	1.9277431	1.3884319
22.589012415488025	1.9452479	1.3947214
22.60688557711216	1.9694215	1.4033608
22.624759295970566	1.9837098	1.4084424
22.642633572550263	1.9695519	1.4034072
22.660508407338362	1.9513028	1.3968904
22.67838380082217	1.9774992	1.4062358
22.696259753489077	1.9687334	1.4031156
22.714136265826614	1.9462606	1.3950844
22.73201333832246	1.9396152	1.3927007
22.74989097146439	1.934731	1.390946
22.76776916574035	1.8997879	1.378328
22.785647921638393	1.8704907	1.3676589
22.803527239646712	1.8838627	1.3725388
22.82140712025363	1.9285796	1.388733
22.839287563947593	1.9308368	1.3895456
22.85716857121719	1.9347353	1.3909476
22.875050142551135	1.9080062	1.3813059
22.892932278438277	1.8998989	1.3783681
22.910814979367604	1.887345	1.3738067
22.928698245828222	1.9000007	1.3784051
22.946582078309387	1.9110366	1.3824024
22.96446647730047	1.9524246	1.3972919
22.98235144329098	1.9397128	1.3927357
23.000236976770562	1.9172226	1.3846381
23.018123078229	1.8926818	1.3757477
23.03600974815619	1.8927816	1.375784
23.053896987042194	1.9089178	1.3816359
23.071784795377173	1.911286	1.3824927
23.08967317365145	1.9443823	1.3944111
23.10756212235546	1.9183723	1.3850532
23.125451641979787	1.9565316	1.3987608
23.143341733015134	1.9688543	1.4031587
23.161232395952357	1.9803097	1.4072348
23.179123631282426	1.905481	1.3803916
23.197015439496468	1.851798	1.3608079
23.214907821085717	1.8638457	1.3652273
23.23280077654157	1.923679	1.3869675
23.250694306355538	1.9823663	1.4079653
23.268588411019277	1.9975742	1.4133557
23.28648309102458	2.00876	1.4173073
23.304378346863356	1.9962306	1.4128803
23.322274179027676	1.9508065	1.3967128
23.340170588009723	1.9210227	1.3860096
23.358067574301852	1.9176414	1.3847893
23.37596513839651	1.9434751	1.3940858
23.39386328078629	1.9470259	1.3953587
23.411762001963947	1.950989	1.3967781
23.429661302422353	1.9600594	1.4000212
23.4475611826545	1.9562032	1.3986434
23.46546164315356	1.9503115	1.3965355
23.48336268441279	1.9009545	1.378751
23.501264306925638	1.8791032	1.3708038
23.51916651118564	1.885172	1.3730156
23.537069297686497	1.8816597	1.371736
23.554972666922037	1.897147	1.3773696
23.57287661938623	1.9266258	1.3880295
23.59078115557318	1.9364828	1.3915757
23.608686275977128	1.952476	1.3973103
23.62659198109246	1.9397691	1.392756
23.6444982714137	1.9468513	1.3952961
23.66240514743549	1.9339741	1.390674
23.68031260965263	1.9588933	1.3996047
23.698220658560068	1.9986584	1.4137392
23.716129294652845	2.016336	1.4199774
23.7340385184262	2.006245	1.4164197
23.75194833037546	1.9392035	1.3925529
23.769858730996123	1.9222836	1.3864645
23.78776972078382	1.913114	1.3831537
23.80568130023431	1.9101887	1.3820958
23.823593469843495	1.8885084	1.3742301
23.841506230107424	1.8635905	1.3651339
23.859419581522275	1.865464	1.3658199
23.87733352458438	1.9015968	1.378984
23.89524805979019	1.9339979	1.3906826
23.913163187636318	1.9813087	1.4075897
23.931078908619508	1.9674584	1.4026612
23.948995223236633	2.0069056	1.4166529
23.966912131984735	2.0079389	1.4170176
23.98482963536096	2.0511868	1.4321965
24.002747733862616	1.996463	1.4129624
24.020666427987155	2.0129511	1.4187851
24.038585718232156	2.0353718	1.4266646
24.056505605095353	2.0391092	1.4279739
24.074426089074617	2.0909107	1.4459982
24.092347170667946	2.1229281	1.4570272
24.110268850373515	2.154116	1.4676907
24.128191128689586	2.1083033	1.4519998
24.146114006114626	2.03021	1.4248544
24.164037483147187	2.0365262	1.4270691
24.181961560286005	2.0550318	1.4335382
24.199886238029926	2.0241895	1.4227401
24.21781151687797	2.0129015	1.4187676
24.235737397329274	2.0039322	1.4156032
24.253663879883135	2.0217173	1.4218711
24.271590965038975	2.074784	1.4404111
24.289518653296376	2.0588863	1.4348819
24.30744694515505	2.1012528	1.4495698
24.32537584111486	2.1023073	1.4499335
24.34330534167581	2.0658627	1.4373109
24.361235447338046	2.0661428	1.4374083
24.379166158601876	2.0641694	1.4367218
24.39709747596772	2.0566382	1.4340984
24.41502939993615	2.0304701	1.4249457
24.432961931007917	2.0476272	1.4309533
24.450895069683856	2.0199847	1.4212617
24.468828816465	2.0058854	1.4162928
24.4867631718525	2.0107923	1.4180241
24.504698136347656	1.9814056	1.4076241
24.52263371045192	1.9644725	1.4015964
24.540569894666874	1.9842056	1.4086183
24.558506689494266	1.972311	1.4043899
24.57644409543597	1.951413	1.3969299
24.594382112994012	1.9272469	1.3882532
24.61232074267057	1.9094805	1.3818395
24.630259984967953	1.8678467	1.366692
24.64819984038863	1.8554263	1.3621403
24.66614030943522	1.8894256	1.3745638
24.684081392610462	1.9106431	1.3822601
24.702023090417274	1.9576794	1.399171
24.7199654033587	2.020282	1.4213662
24.737908331937927	2.064952	1.4369941
24.755851876658305	2.0517616	1.4323971
24.773796038023324	2.0296998	1.4246753
24.79174081653661	2.0659492	1.437341
24.809686212701962	2.0840416	1.443621
24.827632227023294	2.0862677	1.4443918
24.8455788600047	2.0418894	1.428947
24.8635261121504	2.048298	1.4311876
24.88147398396475	2.0625734	1.4361663
24.899422475952303	2.059325	1.4350349
24.917371588617698	2.023891	1.4226352
24.935321322465768	2.1240036	1.4573961
24.953271678001478	2.2268243	1.4922547
24.97122265572994	2.4265733	1.5577462
24.989174256156414	2.7954624	1.6719636
25.00712647978632	3.3305259	1.8249729
25.02507932712521	3.8643706	1.9658003
25.043032798678798	4.3613915	2.0883944
25.060986894952933	4.9485865	2.224542
25.078941616453637	5.699285	2.3873177
25.096896963687055	6.6541705	2.579568
25.114852937159508	7.8726907	2.8058314
25.132809537377444	8.389806	2.896516
25.150766764847468	8.481653	2.9123278
25.168724620076347	7.9132676	2.8130531
25.186683103570985	6.845806	2.616449
25.204642215838426	5.5699577	2.3600757
25.222601957385894	4.1652474	2.0408938
25.24056232872074	3.1563833	1.7766213
25.25852333035048	2.6396704	1.6247063
25.276484962782778	2.3286438	1.5259894
25.294447226525435	2.1602643	1.4697838
25.312410122086423	2.054563	1.4333748
25.330373649973843	1.9807781	1.4074012
25.348337810695988	1.952147	1.3971926
25.366302604761245	1.9344826	1.3908567
25.384268032678207	1.913694	1.3833632
25.40223409495558	1.8994888	1.3782195
25.420200792102257	1.919456	1.3854443
25.438168124627246	1.9347413	1.3909497
25.45613609303974	1.9009023	1.3787321
25.474104697849057	1.9215728	1.386208
25.492073939564698	1.8974288	1.3774719
25.510043818696285	1.8836172	1.3724493
25.528014335753614	1.8663496	1.3661441
25.54598549124664	1.875539	1.3695031
25.56395728568544	1.8374594	1.3555292
25.58192971958028	1.8407468	1.3567412
25.59990279344156	1.8990109	1.378046
25.617876507779833	1.9325113	1.3901479
25.635850863105826	1.9285638	1.3887274
25.653825859930386	1.8752242	1.3693882
25.671801498764548	1.8295976	1.3526262
25.68977778011949	1.855649	1.3622221
25.707754704506524	1.8513323	1.3606367
25.725732272437153	1.838785	1.3560181
25.743710484423012	1.8662798	1.3661186
25.761689340975888	1.9174376	1.3847157
25.77966884260774	1.9232863	1.386826
25.797648989830662	1.9223596	1.3864918
25.815629783156922	1.8765999	1.3698905
25.83361122309895	1.887709	1.3739393
25.85159331016929	1.8886956	1.3742982
25.869576044880695	1.8341948	1.3543245
25.887559427746034	1.7694066	1.3301904
25.90554345927836	1.7576063	1.3257475
25.92352813999086	1.8325167	1.3537048
25.94151347039689	1.8177166	1.3482273
25.959499451009965	1.8200634	1.3490973
25.97748608234374	1.8139802	1.3468409
25.995473364912062	1.8303432	1.3529018
26.013461299228904	1.8601916	1.3638884
26.03144988580839	1.8230735	1.3502123
26.04943912516483	1.7978085	1.3408238
26.067429017812675	1.7791367	1.3338429
26.085419564266537	1.7894553	1.3377053
26.103410765041186	1.7914762	1.3384604
26.12140262065155	1.8340303	1.3542638
26.139395131612723	1.8569857	1.3627126
26.157388298439948	1.8677777	1.3666667
26.17538212164861	1.9055462	1.3804152
26.193376601754295	1.919644	1.3855122
26.211371739272714	1.8841219	1.3726332
26.229367534719746	1.8080404	1.3446339
26.247363988611433	1.8108591	1.3456817
26.26536110146397	1.777791	1.3333383
26.283358873793727	1.7767351	1.3329422
26.301357306117204	1.7947673	1.3396893
26.319356398951104	1.8073726	1.3443856
26.33735615281224	1.7816987	1.3348029
26.35535656821762	1.8029126	1.3427258
26.373357645684404	1.8327554	1.353793
26.39135938572991	1.8170005	1.3479617
26.409361788871614	1.7812207	1.3346238
26.427364855627165	1.7600509	1.3266691
26.445368586514352	1.7826416	1.3351561
26.46337298205115	1.8337764	1.35417
26.48137804275568	1.8424785	1.3573793
26.499383769146217	1.815758	1.3475007
26.517390161741215	1.7740802	1.331946
26.53539722105928	1.7885554	1.3373688
26.553404947619182	1.8374176	1.3555138
26.571413341939856	1.87726	1.3701314
26.589422404540397	1.8895856	1.374622
26.60743213594006	1.8364398	1.3551531
26.62544253665827	1.8276947	1.3519226
26.64345360721459	1.8420485	1.3572209
26.66146534812879	1.8272198	1.3517469
26.679477759920758	1.8510065	1.360517
26.69749084311057	1.8721583	1.3682684
26.71550459821847	1.8137798	1.3467665
26.733519025764842	1.7638205	1.328089
26.751534126270258	1.7927779	1.3389466
26.769549900255434	1.8225667	1.3500247
26.787566348241267	1.7982583	1.3409915
26.80558347074881	1.8092872	1.3450974
26.823601268299267	1.8461564	1.3587334
26.841619741414036	1.8834219	1.3723782
26.85963889061465	1.8566906	1.3626044
26.877658716422832	1.8262681	1.3513949
26.89567921936045	1.8228303	1.3501223
26.913700399949544	1.820056	1.3490945
26.93172225871233	1.8030465	1.3427757
26.949744796171174	1.7715528	1.3309969
26.967768012848605	1.7934879	1.3392117
26.98579190926733	1.8436615	1.357815
27.003816485950225	1.8371707	1.3554227
27.021841743420318	1.8251388	1.350977
27.039867682200814	1.8309214	1.3531154
27.057894302815072	1.816121	1.3476354
27.07592160578664	1.8034971	1.3429434
27.0939495916392	1.811649	1.345975
27.111978260896635	1.7866558	1.3366585
27.13000761408296	1.7965308	1.3403473
27.148037651722397	1.8262855	1.3514013
27.166068374339304	1.828636	1.3522707
27.184099782458215	1.7577971	1.3258194
27.20213187660384	1.7396163	1.3189452
27.22016465730105	1.7384903	1.3185183
27.23819812507487	1.769384	1.330182
27.256232280450533	1.7835226	1.3354859
27.274267123953383	1.7790824	1.3338225
27.292302656108987	1.7891543	1.3375927
27.31033887744306	1.8238233	1.3504901
27.32837578848146	1.8260661	1.3513201
27.34641338975026	1.8010391	1.342028
27.364451681775673	1.7768003	1.3329667
27.382490665084074	1.7894304	1.337696
27.400530340202046	1.8094666	1.3451642
27.41857070765629	1.8392246	1.3561802
27.436611767973726	1.84338	1.3577113
27.454653521681404	1.8444406	1.3581018
27.472695969306564	1.8826864	1.3721102
27.490739111376627	1.9236	1.386939
27.508782948419153	1.8792186	1.3708459
27.526827480961902	1.8499291	1.360121
27.54487270953279	1.8767147	1.3699324
27.562918634659898	1.882654	1.3720983
27.580965256871508	1.8384916	1.3559098
27.599012576696026	1.8127663	1.3463901
27.617060594662068	1.7850579	1.3360606
27.63510931129842	1.7759944	1.3326644
27.65315872713401	1.8281381	1.3520865
27.67120884269797	1.8746868	1.369192
27.68925965851958	1.8434086	1.3577218
27.707311175128307	1.8453254	1.3584275
27.725363393053787	1.8471744	1.359108
27.74341631282583	1.8423009	1.3573139
27.7614699349744	1.8431609	1.3576306
27.77952426002968	2.0415692	1.4288349
27.797579288521973	2.1554847	1.4681569
27.815635020981784	2.5475388	1.5961012
27.83369145793979	2.5570467	1.5990769
27.85174859992682	2.3693655	1.5392743
27.869806447473923	2.2306294	1.4935292
27.887865001112267	1.966329	1.4022585
27.905924261373233	1.8612304	1.3642691
27.92398422878836	1.8949925	1.3765873
27.94204490388936	1.891295	1.3752435
27.96010628720813	1.9012711	1.3788658
27.978168379276728	1.9257575	1.3877167
27.9962311806274	1.8683094	1.3668611
28.014294691792568	1.803954	1.3431135
28.0323589133048	1.7977943	1.3408185
28.050423845696887	1.8660069	1.3660187
28.068489489501758	1.8833349	1.3723465
28.086555845252523	1.8963175	1.3770684
28.104622913482487	1.9152699	1.3839327
28.122690694725115	1.9575248	1.3991157
28.14075918951405	1.908685	1.3815516
28.15882839838312	1.8567077	1.3626106
28.176898321866304	1.8896257	1.3746365
28.1949689604978	1.9451439	1.3946842
28.213040314811945	1.9238613	1.3870332
28.23111238534327	1.8931762	1.3759274
28.249185172626493	1.940929	1.3931723
28.267258677196473	1.978956	1.4067537
28.285332899588294	1.966184	1.4022069
28.303407840337172	1.9171782	1.384622
28.321483499978545	1.8858047	1.3732461
28.33955987904799	1.8783997	1.3705473
28.357636978081285	1.873296	1.368684
28.37571479761439	1.860164	1.3638784
28.393793338183425	1.8577263	1.3629843
28.41187260032469	1.9094064	1.3818127
28.429952584574686	1.9399576	1.3928236
28.448033291470065	2.009617	1.4176097
28.46611472154769	2.0020204	1.4149277
28.484196875344566	1.9532062	1.3975716
28.502279753397914	1.9390785	1.392508
28.52036335624511	1.9156114	1.3840561
28.538447684423716	1.9008791	1.3787237
28.556532738471482	1.9159702	1.3841858
28.574618518926325	1.9665645	1.4023426
28.59270502632635	1.9786975	1.4066619
28.61079226120985	1.9611694	1.4004176
28.628880224115274	1.9702071	1.4036406
28.646968915581287	2.045371	1.4301647
28.66505833614671	2.0491204	1.4314749
28.68314848635055	2.0092556	1.4174821
28.701239366732004	2.0183985	1.4207035
28.71933097783044	2.0663285	1.4374729
28.737423320185403	2.0678272	1.4379941
28.75551639433665	2.0796623	1.4421034
28.773610200824074	2.1058183	1.4511437
28.791704740187793	2.1763175	1.4752347
28.80980001296809	2.202727	1.4841588
28.827896019705413	2.197433	1.4823741
28.845992760940433	2.1735055	1.4742813
28.86409023721397	2.1950715	1.4815774
28.88218844906704	2.192449	1.4806921
28.900287397040845	2.1776073	1.4756718
28.918387081676755	2.1776896	1.4756997
28.936487503516343	2.2578564	1.5026165
28.954588663101365	2.289381	1.5130701
28.97269056097374	2.3101268	1.5199101
28.990793197675597	2.3291528	1.5261562
29.00889657374923	2.3137784	1.5211109
29.027000689737125	2.2960212	1.5152627
29.04510554618196	2.3645532	1.5377104
29.06321114362659	2.4882205	1.5774094
29.08131748261405	2.5645816	1.6014311
29.099424563687567	2.5238216	1.588654
29.11753238739057	2.475052	1.5732298
29.13564095426663	2.4941432	1.5792856
29.15375026485954	2.5625985	1.6008118
29.171860319713275	2.5938377	1.6105396
29.18997111937199	2.6445382	1.6262037
29.20808266438002	2.726956	1.6513497
29.226194955281898	2.8140473	1.6775123
29.244307992622335	2.869579	1.6939832
29.26242177694624	2.897763	1.7022817
29.2805363087987	2.8759706	1.6958687
29.29865158872498	2.8400638	1.6852489
29.316767617270557	2.7970064	1.6724253
29.334884394981064	2.8739407	1.6952701
29.353001922402367	2.9220445	1.7093989
29.37112020008047	2.9767506	1.7253262
29.389239228561596	3.0854626	1.7565485
29.407359008392152	3.341774	1.8280519
29.42547954011872	3.6970813	1.9227796
29.44360082428809	4.333583	2.0817258
29.46172286144722	5.3201885	2.3065534
29.479845652143283	6.856826	2.618554
29.497969196923606	8.993598	2.9989328
29.516093496335728	11.590877	3.4045377
29.5342185509274	14.553128	3.8148563
29.55234436124651	17.053785	4.129623
29.570470927841175	18.416037	4.291391
29.588598251259686	18.080309	4.2520947
29.60672633205055	16.708527	4.0876064
29.624855170762405	14.584722	3.8189948
29.642984767944146	11.718508	3.4232306
29.66111512414481	8.897373	2.9828465
29.67924623991366	6.5474977	2.5588078
29.697378115800138	4.997253	2.2354536
29.71551075235387	4.1557393	2.038563
29.733644150124675	3.7702634	1.9417167
29.751778309662576	3.58624	1.8937371
29.769913231517766	3.454847	1.8587219
29.78804891624066	3.410853	1.8468494
29.806185364381818	3.3950317	1.8425611
29.82432257649206	3.350965	1.8305641
29.842460553122333	3.2903461	1.8139311
29.86059929482382	3.290047	1.8138486
29.878738802147872	3.362669	1.8337581
29.896879075646048	3.385249	1.8399045
29.915020115870114	3.38837	1.8407526
29.933161923371976	3.3247364	1.823386
29.951304498703777	3.2244236	1.795668
29.969447842417857	3.1303527	1.7692803
29.987591955066733	3.1136036	1.7645407
30.005736837203123	3.1648908	1.779014
30.023882489379943	3.2027833	1.7896322
30.04202891215028	3.1924837	1.7867522
30.060176106067455	3.201984	1.7894088
30.078324071684946	3.1517525	1.7753175
30.09647280955646	3.116661	1.7654067
30.114622320235863	3.113112	1.7644013
30.132772604277257	3.1565363	1.7766644
30.1509236622349	3.1635454	1.7786359
30.16907549466328	3.0865688	1.7568634
30.18722810211705	3.072873	1.7529613
30.205381485151097	3.09201	1.7584112
30.22353564432045	3.0673862	1.7513955
30.241690580180403	3.0358338	1.7423644
30.25984629328638	3.0271034	1.7398573
30.278002784194037	3.0074725	1.7342066
30.296160053459246	2.9929225	1.7300065
30.314318101638033	3.0575848	1.7485951
30.332476929286646	3.0903916	1.757951
30.35063653696153	3.0339103	1.7418123
30.368796925219307	2.8940759	1.7011983
30.386958094616844	2.9249487	1.7102481
30.40512004571115	2.9409142	1.7149093
30.423282779059463	2.9022665	1.703604
30.441446295219233	2.9060779	1.7047222
30.459610594748067	2.9264693	1.7106926
30.47777567820382	2.9159582	1.7076176
30.495941546144504	2.8586473	1.6907535
30.51410819912835	2.8419397	1.6858053
30.532275637713795	2.7347398	1.6537049
30.55044386245946	2.7253726	1.6508702
30.56861287392416	2.8248193	1.6807199
30.586782672666956	2.900554	1.7031013
30.604953259247047	2.8647501	1.6925573
30.623124634223885	2.831094	1.6825855
30.641296798157075	2.8291156	1.6819975
30.659469751606462	2.867352	1.6933258
30.677643495132074	2.796227	1.6721922
30.695818029294152	2.668539	1.6335664
30.713993354653116	2.6540096	1.6291131
30.73216947176962	2.7086442	1.645796
30.75034638120448	2.7793522	1.6671389
30.768524083518756	2.7957313	1.672044
30.786702579273673	2.822521	1.680036
30.80488186903069	2.8107994	1.6765438
30.82306195335144	2.894401	1.701294
30.841242832797782	3.1147606	1.7648685
30.85942450793176	3.3754606	1.8372427
30.877606979315637	3.7134085	1.9270207
30.895790247511883	4.086684	2.021555
30.913974313083134	4.56555	2.1367147
30.932159176592283	4.891118	2.2115872
30.95034483860237	4.9902954	2.233897
30.968531299676698	4.8394537	2.1998758
30.98671856037873	4.4993496	2.121167
31.00490662127215	4.065504	2.0163095
31.023095482920848	3.6989098	1.923255
31.04128514588892	3.1921947	1.7866714
31.059475610740662	2.801894	1.673886
31.07766687804056	2.6135082	1.6166348
31.09585894835335	2.4954126	1.5796875
31.11405182224393	2.43858	1.5615953
31.132245500277417	2.4875638	1.5772012
31.15043998301914	2.4831202	1.575792
31.168635271034628	2.4762762	1.5736188
31.18683136488964	2.422159	1.5563287
31.20502826515008	2.3875024	1.5451545
31.223225972382135	2.3934085	1.5470645
31.241424487152155	2.4515412	1.5657399
31.259623810026692	2.4417741	1.5626177
31.27782394157253	2.415698	1.5542516
31.296024882356644	2.3871784	1.5450497
31.314226632946237	2.4161694	1.5544032
31.332429193908684	2.4910762	1.5783143
31.350632565811598	2.5313065	1.5910081
31.368836749222787	2.529197	1.5903449
31.387041744710295	2.4618738	1.5690359
31.40524755284232	2.4970472	1.5802048
31.423454174187317	2.5483818	1.5963652
31.441661609313922	2.5873516	1.6085247
31.459869858791002	2.5102594	1.5843798
31.478078923187628	2.3307405	1.5266763
31.496288803073064	2.234521	1.4948314
31.514499499016807	2.2470014	1.4990002
31.532711011588546	2.3733664	1.5405734
31.550923341358178	2.3655844	1.5380456
31.56913648889584	2.3232105	1.5242082
31.587350454771844	2.2814426	1.5104445
31.605565239556732	2.2307737	1.4935775
31.62378084382127	2.2434826	1.497826
31.641997268136382	2.3180838	1.5225254
31.660214513073274	2.3656924	1.5380807
31.67843257920331	2.36438	1.537654
31.6966514670981	2.3480172	1.5323241
31.71487117732944	2.3615944	1.536748
31.733091710469346	2.349876	1.5329305
31.751313067090052	2.3110046	1.5201988
31.769535247764008	2.3426578	1.5305743
31.787758253063878	2.3678691	1.5387882
31.805982083562526	2.3089325	1.5195172
31.824206739833024	2.2681656	1.5060431
31.84243222244869	2.3067298	1.5187923
31.860658531983013	2.2899954	1.5132731
31.878885669009737	2.2361012	1.4953599
31.897113634102784	2.2372236	1.4957352
31.91534242783632	2.2892044	1.5130117
31.933572050784694	2.2883832	1.5127403
31.951802503522508	2.2942576	1.5146807
31.970033786624548	2.2615209	1.5038354
31.988265900665834	2.1560495	1.4683492
32.006498846221575	2.1005716	1.4493349
32.02473262386724	2.140831	1.4631579
32.04296723417845	2.118325	1.4554467
32.0612026777311	2.1365037	1.4616784
32.07943895510129	2.1594946	1.4695219
32.097676066865304	2.1008334	1.4494252
32.115914013599685	2.0965111	1.4479334
32.13415279588115	2.176429	1.4752725
32.152392414286666	2.2476048	1.4992014
32.1706328693934	2.230985	1.4936482
32.18887416177875	2.122446	1.4568617
32.20711629202032	2.0377905	1.427512
32.225359260695924	2.085378	1.4440838
32.243603068383614	2.0782497	1.4416136
32.26184771566166	2.0493045	1.4315392
32.28009320310852	2.1123214	1.4533827
32.2983395313029	2.168318	1.472521
32.31658670082372	2.1959648	1.4818788
32.33483471225012	2.2262683	1.4920684
32.35308356616143	2.1768222	1.4754058
32.371333263137245	2.0469005	1.4306993
32.38958380375734	2.0495381	1.4316208
32.407835188601744	2.0848649	1.4439061
32.42608741825067	2.0615697	1.4358168
32.444340493284585	1.981911	1.4078035
32.46259441428416	2.015242	1.4195923
32.48084918183028	2.1206546	1.4562467
32.49910479650405	2.1620965	1.4704069
32.51736125888683	2.0590682	1.4349453
32.53561856956014	2.0347207	1.4264363
32.5538767291058	2.0238693	1.4226276
32.572135738105764	1.9706928	1.4038136
32.59039559714228	1.964535	1.4016187
32.608656306797776	1.9640081	1.4014307
32.62691786765491	1.9943167	1.4122028
32.645180280296586	2.064059	1.4366833
32.663443545305896	2.1126385	1.4534918
32.68170766326619	2.1183715	1.4554627
32.69997263476099	2.1426845	1.4637911
32.7182384603741	2.1387093	1.4624326
32.7365051406895	2.1106617	1.4528117
32.75477267629144	2.015252	1.4195957
32.77304106776434	1.9698908	1.403528
32.79131031569289	1.9747114	1.4052442
32.809580420661966	2.0789735	1.4418646
32.827851383256714	2.0804694	1.4423832
32.84612320406245	2.0063972	1.4164735
32.86439588366476	2.0288024	1.4243604
32.88266942264945	2.0699968	1.4387484
32.9009438216025	2.0158303	1.4197993
32.9192190811102	1.9367725	1.3916798
32.937495201758985	1.9955583	1.4126422
32.95577218413556	2.0256298	1.4232461
32.974050028826866	2.0534897	1.4330002
32.992328736420035	2.1668754	1.472031
33.010608307502444	2.1209474	1.4563472
33.02888874266169	1.9796484	1.4069998
33.047170042485604	1.8797028	1.3710226
33.06545220756225	1.8775346	1.3702316
33.083735238479896	1.8910015	1.3751369
33.10201913582707	1.920501	1.3858215
33.12030390019248	1.949735	1.3963292
33.138589532165135	1.9420105	1.3935604
33.15687603233419	1.9061774	1.3806438
33.17516340128909	1.8921955	1.375571
33.19345163961947	1.9574637	1.3990939
33.211740747915215	1.895036	1.376603
33.23003072676643	1.784684	1.3359207
33.248321576763466	1.82274	1.3500888
33.266613298496885	1.9596666	1.3998809
33.28490589255747	1.9610542	1.4003764
33.30319935953626	1.8563524	1.3624803
33.32149370002451	1.791314	1.3383998
33.339788914613706	1.7674574	1.3294575
33.358085003895575	1.8212359	1.3495318
33.376381968462034	1.8907162	1.3750331
33.39467980890529	1.8996657	1.3782836
33.41297852581774	1.8775	1.370219
33.43127811979204	1.8711644	1.3679051
33.44957859142105	1.9878347	1.4099059
33.467879941297866	2.050249	1.4318691
33.486182170015844	2.060638	1.4354923
33.50448527816853	2.0659025	1.4373248
33.522789266349754	2.103346	1.4502918
33.541094135153514	2.0022895	1.4150229
33.55939988517411	1.9293637	1.3890154
33.57770651700602	1.974211	1.4050661
33.59601403124398	2.08236	1.4430385
33.61432242848296	2.0531964	1.4328979
33.632631709318154	1.9794872	1.4069425
33.650941874344994	2.013552	1.4189968
33.66925292415916	1.9807603	1.4073949
33.68756485935654	1.9639003	1.4013923
33.70587768053328	1.9804194	1.4072738
33.724191388285746	1.8788104	1.370697
33.74250598321054	1.8231182	1.3502289
33.760821465904506	1.8164731	1.3477659
33.77913783696474	1.971884	1.4042379
33.79745509698852	2.0495064	1.4316097
33.815773246573414	2.0392249	1.4280143
33.8340922863172	2.0506706	1.4320163
33.852412216817896	2.086126	1.4443427
33.87073303867377	1.9779956	1.4064124
33.889054752483304	1.8974755	1.3774889
33.907377358845245	1.9054133	1.380367
33.92570085835853	1.8460225	1.3586841
33.94402525162239	1.8712054	1.3679202
33.96235053923627	1.9260454	1.3878204
33.980676721799824	1.9747808	1.4052689
33.999003799912984	1.9157393	1.3841023
34.01733177417592	2.003246	1.4153608
34.03566064518901	2.1239576	1.4573804
34.0539904135529	2.1316001	1.46
34.07232107986846	1.9528272	1.3974359
34.090652644736785	1.9192543	1.3853716
34.108985108759235	1.9993289	1.4139763
34.12731847253742	2.0401664	1.4283439
34.14565273667313	2.0263546	1.4235008
34.16398790176847	1.9498451	1.3963685
34.18232396842574	1.8942728	1.3763258
34.20066093724749	1.9620036	1.4007154
34.21899880883651	2.1127594	1.4535334
34.23733758379583	2.35805	1.5355943
34.25567726272874	2.3392828	1.5294714
34.27401784623872	2.101444	1.4496359
34.29235933492957	1.9057808	1.3805002
34.31070172940526	1.9415663	1.393401
34.32904503027003	1.8664491	1.3661805
34.347389238128386	1.859107	1.3634907
34.36573435358502	1.964428	1.4015806
34.38408037724492	2.0535352	1.4330162
34.402427309713296	2.1685824	1.4726107
34.42077515159559	2.1034048	1.4503119
34.43912390349752	1.9903097	1.4107834
34.45747356602499	1.9264072	1.3879508
34.47582413978423	1.9876657	1.409846
34.49417562538163	1.961719	1.4006138
34.51252802342388	1.93527	1.3911397
34.53088133451789	1.8787311	1.3706682
34.54923555927084	1.898971	1.3780316
34.567590698290104	1.8936452	1.3760978
34.58594675218336	1.8598733	1.3637717
34.6043037215585	1.7260131	1.3137782
34.62266160702365	1.8209844	1.3494385
34.641020409187234	1.9597846	1.3999231
34.65938012865785	1.9419438	1.3935364
34.677740766044394	1.9168984	1.384521
34.69610232195598	1.9590266	1.3996524
34.714464797002016	1.9746324	1.4052161
34.73282819179208	1.9562055	1.3986442
34.751192506936064	1.9771112	1.4060979
34.76955774304408	2.058941	1.434901
34.7879239007265	2.0875506	1.4448359
34.80629098059391	2.1448877	1.4645435
34.824658983257194	2.1916585	1.4804251
34.843027909327446	2.0339978	1.426183
34.86139775941603	1.8762221	1.3697525
34.879768534134534	2.0707948	1.4390256
34.89814023409483	2.1342072	1.4608927
34.91651285990901	2.0345387	1.4263725
34.93488641218944	1.9394913	1.3926562
34.95326089154871	2.1141734	1.4540198
34.97163629859967	2.3619516	1.5368642
34.99001263395542	2.1733553	1.4742304
35.00838989822934	2.0545166	1.4333584
35.02676809203499	2.201327	1.483687
35.04514721598624	2.299256	1.5163298
35.063527270697215	2.222755	1.4908906
35.081908256782256	2.1853693	1.4782995
35.10029017485597	2.1218417	1.4566543
35.11867302553321	1.8401706	1.3565289
35.137056809429104	1.5515214	1.2456008
35.155441527159006	1.6368195	1.2793825
35.173827179338524	2.0117228	1.4183521
35.19221376658354	2.2215877	1.4904991
35.21060128951017	2.3346255	1.5279481
35.2289897487348	2.1965368	1.4820718
35.24737914487405	1.9627693	1.4009887
35.26576947854479	1.6802394	1.2962404
35.28416075036418	1.6311787	1.277176
35.30255296094958	1.934409	1.3908303
35.32094611091867	2.2449539	1.498317
35.33934020088932	2.258549	1.502847
35.35773523147969	1.9869795	1.4096026
35.3761312033082	1.8278917	1.3519955
35.394528116993506	2.0540335	1.43319
35.41292597315452	2.1260333	1.4580923
35.431324772410434	2.003365	1.4154028
35.449724515380666	1.846405	1.3588248
35.46812520268491	1.9632205	1.4011497
35.486526834943106	2.3439314	1.5309904
35.504929412775454	2.1777325	1.4757142
35.52333293680242	1.960059	1.4000211
35.54173740764471	1.8623327	1.3646731
35.560142825923286	2.0995166	1.4489709
35.5785491922594	2.270647	1.5068666
35.59695650727454	2.0024521	1.4150803
35.61536477159042	1.9318032	1.3898933
