0.008763373481513119	0.0	0.0
0.026290120649546365	0.0	0.0
0.043816868432600686	0.0	0.0
0.06134361724069026	0.06194876	0.24889508
0.07887036748382949	0.15037045	0.3877763
0.0963971195720331	0.20705831	0.4550366
0.11392387391531617	0.20393641	0.4515932
0.1314506309236943	0.23029798	0.4798937
0.1489773910071836	0.2434519	0.49340844
0.16650415457580078	0.17764726	0.42148224
0.18403092203956356	0.07844327	0.28007725
0.20155769380849	0.048239246	0.21963434
0.2190844702925996	0.07699678	0.27748293
0.2366112519019124	0.09096788	0.30160883
0.2541380390464497	0.14416051	0.37968475
0.27166483213623416	0.120120145	0.34658355
0.28919163158128947	0.09338331	0.30558684
0.3067184377916406	0.08089203	0.28441525
0.324245251177314	0.0941151	0.30678186
0.34177207214833777	0.16740093	0.40914658
0.3592989011147415	0.18552382	0.43072477
0.37682573848655654	0.18352991	0.4284039
0.39435258467381573	0.1387789	0.3725304
0.41187944008655414	0.11188198	0.33448765
0.42940630513480854	0.08816214	0.2969211
0.446933180228618	0.10191324	0.31923854
0.4644600657780234	0.12383756	0.3519056
0.48198696219306775	0.14312874	0.37832358
0.49951386988379676	0.14675169	0.38308182
0.5170407892602581	0.17950729	0.423683
0.5345677207325025	0.16722247	0.40892845
0.5520946647105822	0.15537153	0.39417195
0.5696216216045534	0.119785994	0.34610114
0.5871485918244737	0.10470315	0.32357866
0.6046755757804043	0.15441461	0.39295626
0.6222025738824094	0.19064347	0.4366274
0.6397295865405557	0.21109353	0.45944917
0.6572566141649129	0.18735217	0.43284196
0.6747836571655547	0.21923527	0.46822566
0.6923107159525568	0.21045023	0.45874855
0.7098377909359992	0.20347211	0.45107883
0.7273648825259653	0.17842983	0.42240953
0.7448919911325411	0.17963965	0.42383918
0.762419117165817	0.19368091	0.44009194
0.7799462610358868	0.19517542	0.44178662
0.7974734231528482	0.18780316	0.43336263
0.8150006039268024	0.20116144	0.44851026
0.8325278037678551	0.20939068	0.45759228
0.8500550230861152	0.21521927	0.46391732
0.8675822622916969	0.23478736	0.48454863
0.8851095217947171	0.24038553	0.49029127
0.9026368020052984	0.25502896	0.5050039
0.9201641033335665	0.21963003	0.46864703
0.9376914261896523	0.24064873	0.4905596
0.9552187709836915	0.2343505	0.48409763
0.9727461381258234	0.26871377	0.5183761
0.990273528026193	0.25574657	0.50571394
1.0078009410949496	0.25034654	0.5003464
1.0253283777422473	0.26540643	0.5151761
1.0428558383782454	0.26979604	0.51941895
1.0603833234131086	0.27210906	0.5216407
1.0779108332570058	0.30466855	0.55196786
1.0954383683201119	0.3361381	0.5797742
1.112965929012607	0.36235243	0.60195714
1.1304935157446763	0.39417636	0.6278347
1.1480211289265108	0.43170306	0.65704113
1.1655487689683062	1.2746494	1.1290038
1.1830764362802655	1.5686048	1.2524395
1.200604131272596	1.9632496	1.4011601
1.2181318543555117	2.2539122	1.5013036
1.235659605939232	2.356558	1.5351084
1.253187386433982	3.961137	1.9902606
1.270715196249994	6.3051343	2.5110025
1.2882430357975057	11.596749	3.4054
1.3057709054867608	16.44989	4.055846
1.3232988057280106	22.4604	4.73924
1.3408267369315112	27.342613	5.2290163
1.358354699507526	30.773933	5.5474257
1.3758826938663256	34.493595	5.8731246
1.3934107204181858	36.73683	6.0610914
1.410938779573391	37.379494	6.1138773
1.4284668717422309	38.023838	6.166347
1.4459949973350033	37.285137	6.106156
1.4635231567620117	37.502415	6.1239214
1.4810513504335687	36.648396	6.053792
1.4985795787599925	35.798885	5.983217
1.5161078421516088	34.896313	5.90731
1.5336361410187505	34.17722	5.8461285
1.5511644757717598	34.232143	5.8508244
1.5686928468209842	35.1084	5.925234
1.58622125457678	35.771744	5.9809484
1.6037496994495108	37.002502	6.082968
1.621278181849548	37.143417	6.09454
1.6388067021872719	38.162193	6.1775556
1.6563352608730693	37.460213	6.120475
1.673863858317336	36.28138	6.0234027
1.6913924949304753	35.368946	5.94718
1.7089211711228998	34.62075	5.88394
1.7264498873050296	33.813057	5.8148994
1.7439786438872935	32.681313	5.7167573
1.7615074412801288	31.761738	5.6357555
1.779036279893981	31.01208	5.568849
1.796565160139305	30.101261	5.4864616
1.814094082426564	29.388784	5.4211426
1.8316230471662298	28.444302	5.33332
1.849152054768784	27.85088	5.2773933
1.8666811056447168	27.446083	5.238901
1.8842102002045273	26.846254	5.1813374
1.901739338858724	26.188208	5.1174417
1.9192685220178245	25.618084	5.061431
1.9367977500923557	24.868185	4.986801
1.9543270234928547	24.702291	4.97014
1.971856342629867	24.05578	4.9046693
1.9893857079139496	23.57903	4.8558245
2.006915119755667	22.846426	4.7797937
2.0244445785655945	21.883017	4.6779284
2.0419740847543175	21.274748	4.612456
2.0595036387324317	20.885805	4.570099
2.0770332409105414	20.688545	4.548466
2.094562891699263	20.495453	4.52719
2.1120925915092217	19.98268	4.470199
2.129622340751053	19.654257	4.433312
2.1471521398354043	187.58444	13.696147
2.1646819891729323	443.89914	21.068914
2.182211889174303	439.9971	20.976109
2.1997418402501974	452.59518	21.274284
2.2172718428113023	432.75696	20.80281
2.234801897268317	320.9353	17.914667
2.2523320040319548	17.388998	4.1700115
2.269862163512935	16.915928	4.112898
2.287392376121992	16.535902	4.066436
2.304922642269869	16.112844	4.014081
2.322452962367322	15.947966	3.9934905
2.3399833368251164	15.790206	3.9736893
2.357513766054032	15.645823	3.95548
2.3750442504648586	15.27757	3.9086533
2.3925747904683963	14.837628	3.8519642
2.410105386475459	14.476532	3.8048038
2.4276360388968707	14.119476	3.757589
2.445166748143469	13.978853	3.7388306
2.4626975146261025	13.648615	3.6944032
2.4802283387556323	13.432392	3.6650229
2.4977592209429305	13.217538	3.6355932
2.5152901615988825	12.96638	3.600886
2.5328211611343865	12.918589	3.5942438
2.5503522199603523	12.70751	3.5647595
2.5678833384877024	12.501378	3.5357287
2.5854145171273712	12.280715	3.504385
2.6029457562903064	11.986963	3.4622195
2.620477056387469	11.762401	3.4296355
2.6380084178298326	11.574416	3.4021194
2.655539841028383	11.372615	3.3723307
2.673071326394119	11.254111	3.3547149
2.6906028743380523	11.137784	3.3373318
2.708134485271211	11.023997	3.3202405
2.7256661596046325	10.842098	3.2927341
2.743197897749369	10.678594	3.2678118
2.760729700116486	10.4628315	3.23463
2.778261567117063	10.314227	3.211577
2.795793499162193	10.07971	3.174856
2.8133254966629817	9.937016	3.1523032
2.830857560030551	9.769882	3.1256812
2.8483896896760337	9.542247	3.0890527
2.865921886010578	9.281729	3.046593
2.883454149445347	9.219235	3.0363195
2.9009864803915177	9.120928	3.0200875
2.91851887926028	8.992725	2.9987874
2.9360513464628384	8.864808	2.9773827
2.953583882410413	8.774034	2.9620996
2.9711164875142373	8.606318	2.9336526
2.9886491621855606	8.606915	2.9337544
3.0061819068356455	8.412324	2.9004006
3.023714721875769	8.401776	2.8985817
3.041247607717225	8.152221	2.8552094
3.0587805647713213	8.131891	2.8516471
3.0763135934493806	7.982559	2.8253424
3.0938466941627407	7.9142337	2.8132248
3.1113798673227544	7.915886	2.8135185
3.1289131133407904	7.9853787	2.8258412
3.1464464326282315	8.039762	2.8354473
3.1639798255964786	7.887871	2.8085353
3.1815132926569443	7.7163033	2.7778234
3.1990468342210603	7.5503883	2.747797
3.216580450700272	7.399465	2.7201958
3.2341141425060416	7.29442	2.7008183
3.251647910049847	7.143026	2.672644
3.2691817537431813	7.114675	2.6673348
3.286715673997555	7.0932355	2.663313
3.3042496712244938	7.1533475	2.6745744
3.32178374583554	7.0568676	2.6564765
3.339317898242251	6.9724436	2.6405385
3.3568521288562034	6.8198256	2.6114795
3.3743864380889876	6.7350636	2.5952
3.3919208263522127	6.7075515	2.589894
3.4094552940575023	6.6565857	2.580036
3.4269898416164972	6.547982	2.5589025
3.444524469440858	6.402551	2.5303264
3.4620591779422587	6.4045796	2.5307271
3.479593967532391	6.36252	2.5224037
3.4971288386229658	6.3973	2.5292883
3.5146637916257086	6.3714695	2.524177
3.5321988269523628	6.3296084	2.5158713
3.5497339450146903	6.375984	2.5250711
3.5672691462244708	6.3393335	2.5178034
3.5848044309934988	6.2945104	2.5088863
3.60233979973359	6.2351885	2.497036
3.619875252856575	6.2348695	2.496972
3.6374107907743034	6.2321815	2.4964337
3.6549464138986427	6.2994423	2.5098689
3.6724821226414788	6.2852054	2.5070312
3.690017917414714	6.338036	2.5175457
3.7075537986302702	6.2878294	2.5075545
3.7250897667000857	6.312204	2.51241
3.7426258220361235	6.4400573	2.5377269
3.7601619650503553	6.772952	2.6024897
3.777698196154779	7.3038616	2.7025657
3.7952345157614067	8.351885	2.8899627
3.8127709242822716	9.115353	3.0191643
3.830307422129425	11.381097	3.373588
3.847844009714936	30.200132	5.495465
3.8653806874508954	97.73156	9.885927
3.882917455749409	97.10011	9.853939
3.900454315022606	96.84527	9.841
3.917991265682631	41.2237	6.4205685
3.9355283081416506	10.818882	3.289207
3.9530654428118495	8.690917	2.9480362
3.970602670105433	7.4456105	2.7286646
3.9881399904346244	6.4721804	2.544048
4.005677404211669	6.346593	2.5192444
4.023214911848827	6.4019856	2.5302145
4.0407525137583855	6.4397182	2.53766
4.058290210352644	6.345773	2.5190818
4.075828002043927	6.319542	2.51387
4.0933658892445814	6.2820654	2.5064049
4.110903872366966	6.261975	2.5023937
4.128441951823468	6.136289	2.4771535
4.145980128026488	6.183472	2.4866588
4.163518401388452	6.1886597	2.4877017
4.181056772321807	6.1605244	2.4820404
4.1985952412390155	6.1482577	2.479568
4.216133808552567	6.2082973	2.4916456
4.233672474674966	6.2706256	2.5041218
4.251211240018741	6.4771066	2.545016
4.268750104996445	6.504326	2.550358
4.286289070020643	7.3733683	2.7153947
4.303828135503928	9.058781	3.009781
4.3213673018589125	29.398603	5.422048
4.3389065694982305	90.614395	9.519159
4.356445938834537	165.831	12.877539
4.3739854102805085	171.32285	13.089035
4.391524984248844	172.18234	13.121827
4.409064661152262	136.13463	11.667674
4.426604441403504	96.36835	9.816738
4.444144325415337	75.469444	8.687315
4.461684313600543	21.518469	4.6388
4.47922440637193	21.987085	4.6890388
4.496764604142329	20.234955	4.498328
4.5143049073245916	18.31103	4.279139
4.531845316331589	16.247202	4.0307817
4.5493858315762195	13.445753	3.666845
4.566926453471405	11.263469	3.3561091
4.584467182430081	9.291615	3.048215
4.602008018865218	8.233604	2.8694258
4.619548963189798	7.476887	2.7343898
4.637090015816834	6.961008	2.6383722
4.654631177159353	6.603449	2.5697176
4.672172447630417	6.327574	2.515467
4.689713827643102	6.138706	2.4776413
4.7072553176105085	5.9516125	2.4395926
4.724796917945764	5.8273125	2.4139826
4.742338629062015	5.7284255	2.3934128
4.759880451372434	5.6283116	2.3724062
4.777422385290215	5.602741	2.3670108
4.794964431228581	5.5716023	2.3604243
4.812506589600768	5.616692	2.369956
4.830048860820047	5.645793	2.3760877
4.847591245299709	5.6743693	2.3820934
4.8651337434530655	5.676303	2.3824992
4.882676355693457	5.5516486	2.3561938
4.900219082434242	5.454208	2.3354247
4.917761924088813	5.3977733	2.3233109
4.935304881070575	5.401932	2.3242056
4.952847953792969	5.4712305	2.3390663
4.970391142669449	5.38686	2.320961
4.9879344481135055	5.3631544	2.3158486
5.005477870538642	5.3384995	2.3105192
5.023021410358394	5.3938093	2.3224576
5.040565067986324	5.4414096	2.3326828
5.05810884383601	5.4760737	2.3401012
5.075652738321066	5.4493675	2.334388
5.09319675185512	5.4202094	2.3281343
5.110740884851836	5.3270807	2.308047
5.128285137724894	5.289141	2.2998133
5.145829510888007	5.1983085	2.27998
5.163374004754908	5.2264776	2.286149
5.1809186197393595	5.271742	2.2960274
5.198463356255145	5.2635674	2.2942467
5.216008214716077	5.27743	2.2972658
5.233553195535998	5.2304907	2.2870266
5.251098299128764	5.304623	2.3031766
5.268643525908272	5.22882	2.2866614
5.286188876288432	5.2225475	2.2852893
5.3037343506831895	5.201486	2.2806766
5.32127994950651	5.216765	2.2840238
5.3388256731723915	5.2583766	2.2931151
5.356371522094851	5.23271	2.2875118
5.373917496687938	5.2348475	2.287979
5.391463597365729	5.2113633	2.282841
5.40900982454232	5.1831284	2.2766485
5.426556178631843	5.156455	2.270783
5.444102660048449	5.1213083	2.2630308
5.4616492692063225	5.141813	2.2675567
5.479196006519669	5.1508923	2.2695577
5.496742872402727	5.213814	2.2833776
5.514289867269756	5.1990194	2.2801359
5.531836991535049	5.2096763	2.2824714
5.549384245612924	5.1892924	2.2780018
5.566931629917724	5.1720924	2.2742236
5.584479144863822	5.144736	2.268201
5.6020267908656205	5.0249777	2.2416463
5.619574568337545	5.005626	2.2373257
5.637122477694054	5.0034127	2.236831
5.654670519349629	5.081986	2.254326
5.672218693718784	5.125197	2.2638898
5.689767001216059	5.2425284	2.2896569
5.707315442256021	5.18947	2.278041
5.724864017253266	5.166064	2.2728977
5.7424127266224225	5.112672	2.2611217
5.75996157077814	5.098679	2.2580254
5.777510550135105	5.1065245	2.259762
5.795059665108022	5.135433	2.2661495
5.812608916111639	5.2647123	2.294496
5.830158303560715	5.400763	2.323954
5.847707827870055	5.363216	2.3158617
5.86525748945448	5.3886046	2.3213367
5.8828072887288485	5.4730287	2.3394506
5.900357226108044	5.5463715	2.3550735
5.917907302006979	5.600776	2.366596
5.9354575168406	6.166512	2.4832463
5.9530078710238765	6.7818594	2.6042004
5.970558364971812	7.326488	2.7067487
5.988108999099438	7.590668	2.7551167
6.005659773821818	8.178893	2.8598764
6.023210689554039	7.979692	2.8248348
6.040761746711227	8.406764	2.899442
6.058312945708531	7.746943	2.783333
6.075864286961132	7.2638845	2.6951594
6.093415770884244	6.638259	2.5764818
6.1109673978931065	6.0933394	2.4684691
6.128519168402993	5.5150776	2.3484201
6.146071082829204	5.3233614	2.307241
6.163623141587075	5.157309	2.270971
6.181175345091969	5.124522	2.2637408
6.198727693759281	5.0965323	2.25755
6.216280188004435	5.1434383	2.267915
6.233832828242885	5.12982	2.2649105
6.251385614890126	5.136911	2.2664754
6.268938548361669	5.105048	2.2594354
6.286491629073067	5.0413775	2.2453012
6.304044857439898	5.0459514	2.2463195
6.321598233877777	5.010168	2.2383404
6.339151758802344	5.0056095	2.2373219
6.356705432629277	4.980596	2.231725
6.37425925577428	4.964507	2.2281175
6.391813228653095	4.968192	2.228944
6.409367351681486	4.9084363	2.2154992
6.426921625275259	4.92202	2.2185626
6.44447604985025	4.893583	2.2121444
6.46203062582232	4.926331	2.219534
6.47958535360737	4.978491	2.2312531
6.497140233621328	4.961521	2.2274473
6.514695266280161	4.952139	2.2253401
6.532250451999859	4.9345403	2.2213826
6.549805791196454	4.864083	2.2054665
6.567361284286002	4.927516	2.219801
6.584916931684597	4.954131	2.2257876
6.602472733808367	4.9814186	2.2319093
6.6200286910734665	4.9902735	2.233892
6.637584803896092	4.9673595	2.2287574
6.655141072692462	4.9926276	2.2344189
6.672697497878842	4.9793043	2.2314355
6.690254079871514	5.002421	2.2366092
6.707810819086808	4.95823	2.2267084
6.725367715941078	4.9294167	2.220229
6.742924770850719	4.907945	2.2153883
6.760481984232151	4.9034634	2.2143764
6.778039356501836	4.889561	2.2112353
6.795596888076266	4.8613353	2.2048435
6.813154579371963	4.8896422	2.2112536
6.830712430805492	4.922568	2.218686
6.84827044279344	4.996567	2.2353
6.865828615752445	4.9830136	2.2322664
6.883386950099159	5.0271525	2.2421312
6.900945446250287	5.022687	2.2411351
6.918504104622553	5.086018	2.2552202
6.936062925632727	5.038104	2.2445722
6.953621909697607	5.0312986	2.2430556
6.971181057234028	5.0699053	2.251645
6.988740368658859	5.106829	2.2598295
7.006299844389007	5.180797	2.2761364
7.023859484841407	5.2353873	2.288097
7.041419290433036	5.251477	2.29161
7.058979261580902	5.4206276	2.3282242
7.0765393987020495	5.6359344	2.3740122
7.094099702213559	6.0797167	2.4657083
7.111660172532549	6.384923	2.5268404
7.129220810076164	6.749207	2.5979235
7.146781615261595	7.2496457	2.6925166
7.16434258850606	7.4930935	2.7373517
7.181903730226821	7.928297	2.8157232
7.1994650408411704	8.091443	2.844546
7.217026520766437	8.236207	2.8698792
7.234588170419983	8.414666	2.9008045
7.252149990219215	8.446671	2.9063156
7.269711980581568	8.313106	2.8832457
7.2872741419245175	8.135229	2.8522322
7.304836474665574	7.744632	2.7829177
7.322398979222286	7.4675465	2.7326813
7.339961656012233	7.1865945	2.6807826
7.357524505453039	6.8574758	2.6186783
7.375087527962357	6.5884514	2.566798
7.392650723957886	6.2819214	2.506376
7.410214093857353	5.911656	2.4313898
7.427777638078528	5.689858	2.3853424
7.445341357039213	5.507382	2.3467813
7.4629052511572525	5.3390455	2.3106375
7.480469320850524	5.256543	2.2927153
7.498033566536948	5.232043	2.287366
7.5155979886344735	5.2447805	2.2901485
7.5331625875610975	5.2545166	2.2922733
7.550727363734844	5.280711	2.2979798
7.568292317573788	5.2414026	2.289411
7.585857449496025	5.2531533	2.291976
7.603422759919705	5.1916842	2.2785268
7.620988249263007	5.1939583	2.2790258
7.638553917944147	5.0833735	2.254634
7.656119766381391	5.0803213	2.2539568
7.673685794993023	5.106409	2.2597365
7.691252004197388	5.175144	2.2748942
7.70881839441285	5.1981115	2.2799368
7.726384966057826	5.2398105	2.2890632
7.743951719550762	5.211519	2.282875
7.761518655310149	5.1723204	2.2742736
7.779085773754511	5.1206684	2.2628894
7.796653075302419	5.1483145	2.2689898
7.814220560372475	5.198452	2.2800114
7.831788229383323	5.2522025	2.2917683
7.8493560827536495	5.27163	2.296003
7.866924120902174	5.2528315	2.2919056
7.884492344247663	5.2343426	2.2878685
7.9020607532089135	5.275761	2.2969024
7.919629348204771	5.339104	2.31065
7.937198129654115	5.450926	2.3347218
7.954767097975865	5.446028	2.3336728
7.972336253588986	5.416754	2.327392
7.989905596912472	5.353041	2.313664
8.007475128365371	5.3551555	2.3141208
8.025044848366756	5.4042525	2.324705
8.042614757335754	5.5170903	2.3488488
8.060184855691523	5.578308	2.3618443
8.07775514385327	5.675856	2.3824055
8.095325622240228	5.7094517	2.3894458
8.112896291271687	5.7412906	2.396099
8.130467151366968	5.844201	2.4174783
8.148038202945436	5.8677373	2.4223413
8.165609446426497	5.9013915	2.429278
8.183180882229594	5.9114637	2.4313502
8.200752510774217	5.9239	2.4339063
8.218324332479893	5.9570208	2.4407008
8.235896347766193	5.945133	2.4382644
8.253468557052724	5.949803	2.4392219
8.27104096075914	6.0263762	2.4548678
8.288613559305137	6.0461273	2.4588873
8.306186353110448	6.1140437	2.4726593
8.32375934259485	6.1515217	2.480226
8.341332528178162	6.149501	2.4798188
8.358905910280246	6.1978135	2.4895408
8.376479489321003	6.2399683	2.4979928
8.394053265720377	6.3076916	2.5115118
8.411627239898356	6.314961	2.5129585
8.42920141227497	6.263793	2.502757
8.44677578327029	6.2300353	2.4960039
8.464350353304427	6.233318	2.4966614
8.48192512279754	6.234095	2.496817
8.499500092169827	6.14864	2.4796453
8.51707526184153	6.054373	2.4605634
8.534650632232934	6.0131364	2.4521697
8.552226203764365	6.08918	2.4676263
8.569801976856192	6.1513453	2.4801905
8.587377951928834	6.1975017	2.489478
8.60495412940274	6.173634	2.48468
8.622530509698416	6.2053957	2.491063
8.6401070932364	6.358976	2.521701
8.657683880437283	6.5054393	2.5505762
8.675260871721695	6.6629972	2.5812783
8.692838067510303	6.8398085	2.6153028
8.710415468223834	6.998624	2.6454911
8.727993074283043	7.1549215	2.6748686
8.745570886108737	7.12071	2.6684659
8.763148904121765	7.1422634	2.6725013
8.78072712874302	7.1577425	2.6753957
8.798305560393441	7.331577	2.7076886
8.815884199494006	7.4616075	2.7315943
8.833463046465745	7.695063	2.7739978
8.851042101729728	7.8963556	2.8100455
8.86862136570707	8.22018	2.8670855
8.886200838818924	8.349643	2.8895748
8.903780521486505	8.347253	2.8891613
8.921360414131055	8.504135	2.9161851
8.938940517173874	8.669564	2.9444125
8.956520831036297	8.832925	2.9720237
8.97410135613971	9.086311	3.014351
8.99168209290554	9.177262	3.0293996
9.009263041755265	9.373768	3.061661
9.026844203110405	9.557049	3.0914476
9.044425577392525	9.776302	3.1267078
9.062007165023239	9.911449	3.1482453
9.079588966424197	10.197428	3.1933413
9.097170982017108	10.230014	3.1984394
9.11475321222372	11.106748	3.3326788
9.132335657465825	12.036475	3.4693623
9.149918318165264	12.196563	3.4923577
9.167501194743924	13.01297	3.6073494
9.18508428762374	12.747481	3.5703616
9.202667597226693	12.664797	3.5587635
9.220251123974803	12.234101	3.497728
9.237834868290143	11.841376	3.4411302
9.255418830594836	11.728826	3.4247372
9.273003011311046	11.306664	3.3625383
9.290587410860985	11.03782	3.3223214
9.308172029666911	10.389748	3.223313
9.32575686815113	10.111258	3.1798203
9.343341926735997	8.858998	2.976407
9.360927205843916	8.613688	2.9349086
9.378512705897327	8.363293	2.8919358
9.396098427318728	8.050357	2.837315
9.413684370530664	7.9450393	2.8186946
9.431270535955722	7.8446493	2.8008301
9.448856924016539	7.851192	2.801998
9.466443535135806	7.80256	2.7933064
9.484030369736251	7.817915	2.7960534
9.501617428240658	7.7418685	2.7824214
9.519204711071852	7.7068768	2.7761261
9.536792218652714	7.6981134	2.7745473
9.55437995140617	7.736896	2.7815278
9.571967909755191	7.7864547	2.790422
9.589556094122802	7.744133	2.7828283
9.60714450493207	7.7781434	2.7889323
9.624733142606116	7.8034596	2.7934673
9.642322007568108	7.8635783	2.8042073
9.659911100241267	7.91351	2.813096
9.677500421048851	7.8905644	2.8090148
9.695089970414175	7.898918	2.8105013
9.712679748760609	7.974513	2.823918
9.730269756511557	8.098349	2.8457599
9.747859994090492	8.192716	2.862292
9.765450461920915	8.187544	2.8613884
9.78304116042639	8.191517	2.8620827
9.800632090030527	8.221526	2.8673203
9.81822325115699	8.275453	2.8767087
9.835814644229481	8.309211	2.8825703
9.853406269671762	8.293603	2.8798616
9.870998127907646	8.24137	2.8707786
9.888590219360985	8.222013	2.8674054
9.906182544455698	8.209677	2.8652534
9.923775103615734	8.239029	2.8703709
9.941367897265108	8.266435	2.875141
9.958960925827878	8.248391	2.8720012
9.97655418972816	8.219967	2.8670485
9.994147689390106	8.21116	2.8655121
10.011741425237934	8.245699	2.8715324
10.029335397695904	8.233754	2.869452
10.04692960718833	8.197143	2.8630652
10.06452405413958	8.167942	2.8579612
10.082118738974064	8.21388	2.8659866
10.099713662116246	8.210607	2.8654156
10.117308823990651	8.215362	2.8662453
10.134904225021844	8.195711	2.8628151
10.152499865634445	8.148057	2.8544803
10.170095746253125	8.124669	2.8503804
10.18769186730261	8.040606	2.835596
10.205288229207675	8.063882	2.8396976
10.222884832393145	8.06008	2.839028
10.2404816772839	8.027588	2.8332999
10.258078764304868	8.004286	2.8291848
10.275676093881035	7.9996047	2.8283572
10.293273666437438	8.012809	2.8306906
10.310871482399158	8.107059	2.8472896
10.32846954219134	8.116265	2.848906
10.346067846239173	8.197188	2.8630733
10.363666394967908	8.133226	2.8518813
10.38126518880283	8.182054	2.8604288
10.398864228169298	8.217618	2.866639
10.416463513492713	8.210649	2.865423
10.434063045198531	8.132278	2.851715
10.451662823712262	8.053576	2.8378823
10.469262849459467	8.07343	2.8413782
10.486863122865758	7.991369	2.826901
10.504463644356806	8.056202	2.8383448
10.522064414358338	7.986141	2.8259761
10.539665433296118	7.949076	2.8194106
10.557266701595987	7.911946	2.812818
10.574868219683818	7.8778834	2.8067567
10.592469987985552	7.792175	2.7914467
10.610072006927185	7.5873513	2.7545147
10.627674276934751	7.4139743	2.7228615
10.64527679843435	7.204993	2.6842117
10.662879571852143	7.1101704	2.6664903
10.680482597614331	7.013335	2.6482701
10.698085876147173	6.9669166	2.6394918
10.715689407876988	6.8915734	2.6251807
10.733293193230146	6.8745856	2.621943
10.750897232633072	6.760525	2.600101
10.76850152651225	6.6880736	2.586131
10.786106075294207	6.498925	2.549299
10.803710879405534	6.444658	2.538633
10.821315939272877	6.359075	2.5217206
10.83892125532294	6.339555	2.5178473
10.856526827982472	6.284268	2.5068443
10.874132657678285	6.275732	2.505141
10.891738744837243	6.252327	2.5004654
10.909345089886271	6.1788044	2.4857202
10.926951693252343	6.099248	2.4696655
10.944558555362494	6.021655	2.453906
10.96216567664381	6.00798	2.451118
10.979773057523436	5.9435916	2.4379482
10.997380698428573	5.851844	2.4190586
11.014988599786477	5.7396345	2.3957534
11.032596762024461	5.6521854	2.3774326
11.050205185569892	5.568846	2.3598404
11.067813870850198	5.4988627	2.3449655
11.085422818292859	5.430218	2.330283
11.10303202832541	5.360522	2.31528
11.120641501375454	5.3051896	2.3032997
11.138251237870636	5.2791796	2.2976465
11.155861238238671	5.2500763	2.2913046
11.173471502907317	5.2026734	2.280937
11.191082032304402	5.196074	2.2794898
11.208692826857805	5.1567974	2.2708583
11.226303886995465	5.0862036	2.2552614
11.243915213145371	4.9925456	2.2344005
11.261526805735578	4.8353076	2.1989334
11.279138665194196	4.751138	2.1797106
11.296750791949393	4.7089663	2.1700153
11.314363186429393	4.7298098	2.1748126
11.331975849062479	4.712548	2.1708403
11.34958878027699	4.6868796	2.1649203
11.36720198050133	4.7059565	2.1693218
11.384815450163948	4.7090406	2.1700325
11.402429189693366	4.649969	2.1563787
11.420043199518153	4.5282564	2.12797
11.437657480066942	63.446556	7.9653344
11.455272031768422	85.1641	9.228439
11.472886855051353	107.58415	10.372278
11.490501950344528	99.18433	9.959133
11.508117318076819	84.46173	9.190307
11.52573295867715	45.812958	6.768527
11.543348872574514	4.0979233	2.0243328
11.560965060197946	4.079391	2.01975
11.57858152197655	4.083747	2.0208282
11.59619825833949	4.057352	2.014287
11.613815269715985	4.006085	2.0015206
11.631432556535323	38.51322	6.205902
11.649050119226837	83.04478	9.11289
11.666667958219929	93.450096	9.666959
11.68428607394406	107.69713	10.377723
11.701904466828756	82.50046	9.082976
11.719523137303586	65.3624	8.084702
11.737142085798196	4.6024814	2.1453395
11.754761312742286	3.7309952	1.9315784
11.772380818565619	3.705767	1.9250369
11.790000603698015	3.6866682	1.9200698
11.80762066856935	3.6658928	1.9146521
11.825241013609572	3.6193252	1.9024523
11.842861639248683	3.5564103	1.8858447
11.860482545916748	3.5326593	1.879537
11.878103734043883	3.5084367	1.8730822
11.895725204060282	3.4523659	1.8580543
11.91334695639619	3.3537064	1.8313128
11.930968991481919	3.2640975	1.8066814
11.948591309747824	3.2148793	1.7930084
11.966213911624347	3.2151966	1.7930969
11.98383679754198	3.2592444	1.8053378
12.001459967931268	3.2933977	1.8147721
12.019083423222835	3.3158433	1.8209457
12.036707163847352	3.2707446	1.80852
12.05433119023556	3.2301407	1.7972592
12.071955502818259	3.1454933	1.7735538
12.089580102026313	3.1349802	1.7705876
12.107204988290643	3.130711	1.7693815
12.12483016204224	3.1781893	1.7827476
12.142455623712152	3.1774244	1.7825332
12.16008137373149	3.1390126	1.7717259
12.177707412531431	3.0909133	1.7580993
12.19533374054321	3.058623	1.748892
12.212960358198126	3.0601425	1.7493263
12.230587265927545	3.0058043	1.7337255
12.248214464162889	3.0236948	1.7388774
12.265841953335649	2.9930587	1.7300459
12.283469733877375	3.0041473	1.7332476
12.301097806219685	2.9589775	1.7201679
12.31872617079425	2.9598784	1.7204298
12.336354828032825	2.953678	1.7186267
12.353983778367205	2.9760063	1.7251105
12.371613022229262	2.9619005	1.7210172
12.389242560050928	2.924544	1.7101299
12.406872392264201	2.8558073	1.6899134
12.424502519301143	2.8425472	1.6859856
12.442132941593874	2.8487508	1.6878242
12.459763659574586	2.8896122	1.699886
12.477394673675532	2.9209092	1.7090667
12.49502598432903	2.9455297	1.7162546
12.51265759196746	2.8994913	1.7027893
12.530289497023267	2.8480709	1.6876228
12.547921699928967	2.8152628	1.6778744
12.565554201117134	2.8247464	1.6806982
12.583187001020404	2.8031447	1.6742594
12.600820100071486	2.7535737	1.6593895
12.618453498703152	2.7175267	1.6484922
12.636087197348235	2.7060502	1.6450076
12.65372119643964	2.729691	1.6521777
12.671355496410326	2.7108278	1.6464592
12.68899009769333	2.7508976	1.658583
12.706625000721749	2.846335	1.6871084
12.724260205928752	2.9615204	1.7209069
12.741895713747551	2.9877584	1.7285134
12.759531524611454	2.9874694	1.7284298
12.777167638953818	2.9384906	1.7142026
12.794804057208072	2.9308589	1.7119751
12.812440779807702	2.9568765	1.719557
12.830077807186271	3.1195426	1.7662227
12.847715139777405	3.1934683	1.7870278
12.865352778014795	3.4556692	1.858943
12.882990722332197	3.5789518	1.8918117
12.90062897316344	3.670368	1.9158205
12.918267530942412	3.7115748	1.9265448
12.935906396103071	3.5830936	1.8929062
12.953545569079449	3.6958966	1.9224715
12.971185050305628	3.495445	1.8696109
12.988824840215775	3.5284233	1.8784097
13.006464939244115	3.5665286	1.8885255
13.024105347824943	3.4513013	1.8577678
13.041746066392617	3.54999	1.8841417
13.05938709538157	3.3438501	1.8286197
13.077028435226296	3.3182669	1.821611
13.094670086361363	3.2419314	1.8005364
13.112312049221401	3.1519659	1.7753776
13.129954324241112	3.1120882	1.7641112
13.147596911855258	2.9402435	1.7147138
13.165239812498685	2.9199224	1.708778
13.182883026606293	2.8162134	1.6781577
13.200526554613058	2.7456748	1.6570078
13.218170396954017	2.711345	1.6466162
13.235814554064284	2.7065732	1.6451666
13.253459026379034	2.7090564	1.6459211
13.271103814333523	2.6923115	1.6408265
13.288748918363058	2.6724901	1.6347753
13.306394338903031	2.6751773	1.635597
13.32404007638889	2.6583977	1.6304593
13.341686131256164	2.6471643	1.6270108
13.359332503940449	2.6068797	1.6145835
13.376979194877402	2.600997	1.6127607
13.394626204502751	2.6392908	1.6245894
13.412273533252307	2.6990302	1.6428726
13.429921181561937	2.70824	1.6456732
13.447569149867581	2.7312725	1.6526562
13.465217438605247	2.726861	1.6513209
13.482866048211022	2.694325	1.6414399
13.500514979121052	2.7222278	1.6499175
13.518164231771568	2.7044847	1.6445317
13.535813806598844	2.6569788	1.6300242
13.553463704039254	2.6374726	1.6240298
13.571113924529229	2.627176	1.6208565
13.588764468505275	2.664901	1.6324525
13.606415336403956	2.668448	1.6335385
13.624066528661917	2.6774435	1.6362896
13.641718045715882	2.7104652	1.6463491
13.659369888002635	2.7785592	1.6669011
13.67702205595903	2.8633077	1.6921312
13.694674550021993	2.9164467	1.7077607
13.712327370628532	2.9681125	1.7228211
13.729980518215713	3.0701606	1.7521874
13.747633993220681	3.1691668	1.7802154
13.765287796080647	3.2604291	1.8056659
13.7829419272329	3.2681043	1.8077899
13.800596387114801	3.2612545	1.8058944
13.818251176163775	3.2313502	1.7975956
13.835906294817324	3.3145053	1.8205783
13.853561743513023	3.3819513	1.8390082
13.871217522688525	3.434765	1.8533119
13.888873632781538	3.479115	1.8652385
13.906530074229858	3.5035965	1.8717897
13.92418684747135	3.5522969	1.8847538
13.941843952943948	3.5499234	1.884124
13.959501391085665	3.492959	1.868946
13.977159162334578	3.4146473	1.8478764
13.994817267128846	3.4164684	1.8483691
14.012475705906693	3.3444753	1.8287907
14.030134479106424	3.2322488	1.7978456
14.047793587166414	3.1046524	1.7620023
14.065453030525108	3.0414984	1.7439892
14.083112809621026	2.9974027	1.7313008
14.100772924892766	2.9812849	1.7266397
14.118433376778997	2.8823504	1.6977487
14.136094165718458	2.7965777	1.6722971
14.153755292149969	2.6977417	1.6424804
14.171416756512416	2.6427383	1.6256502
14.189078559244768	2.5423505	1.594475
14.20674070078606	2.497731	1.5804211
14.224403181575408	2.461498	1.5689162
14.242066002051999	2.4674761	1.5708202
14.259729162655093	2.4538476	1.5664762
14.277392663824022	2.464732	1.5699465
14.295056505998208	2.4316566	1.559377
14.312720689617128	2.4106307	1.5526206
14.330385215120348	2.4004796	1.5493481
14.348050082947497	2.3810914	1.5430785
14.3657152935383	2.394152	1.5473047
14.383380847332528	2.3623612	1.5369974
14.401046744770051	2.3798437	1.5426742
14.418712986290798	2.3705904	1.5396721
14.436379572334793	2.413934	1.553684
14.454046503342123	2.4067452	1.5513688
14.471713779752946	2.3657515	1.5381
14.489381402007504	2.3528945	1.5339148
14.507049370546113	2.3899581	1.545949
14.524717685809168	2.4171762	1.5547271
14.542386348237134	2.4141266	1.553746
14.560055358270553	2.4226398	1.5564831
14.577724716350051	2.4582524	1.5678815
14.595394422916325	2.4532278	1.5662783
14.61306447841015	2.4682481	1.5710659
14.63073488327237	2.451598	1.565758
14.648405637943917	2.459598	1.5683106
14.6660767428658	2.4514387	1.5657071
14.683748198479094	2.4727366	1.5724938
14.701420005224954	2.5263598	1.5894526
14.719092163544628	2.6193705	1.618447
14.73676467387942	2.676127	1.6358873
14.754437536670727	2.681362	1.6374865
14.772110752360014	2.6967697	1.6421844
14.78978432138882	2.67954	1.63693
14.807458244198777	2.6644144	1.6323034
14.82513252123159	2.628109	1.6211443
14.842807152929028	2.6635137	1.6320275
14.860482139732962	2.6607285	1.631174
14.87815748208531	2.6505473	1.6280501
14.8958331804281	2.6484156	1.6273953
14.91350923520342	2.6195126	1.6184908
14.931185646853438	2.611364	1.6159714
14.948862415820408	2.593938	1.6105708
14.966539542546656	2.6538994	1.6290793
14.98421702747459	2.6645718	1.6323516
15.001894871046696	2.6686046	1.6335864
15.019573073705542	2.6502347	1.6279541
15.037251635893766	2.6575332	1.6301942
15.054930558054092	2.6681466	1.6334462
15.072609840629323	2.7179656	1.6486254
15.090289484062351	2.8187504	1.6789135
15.107969488796124	3.119006	1.7660707
15.125649855273691	3.489158	1.8679287
15.14333058393817	3.9893663	1.9973398
15.161011675232768	4.9056478	2.2148697
15.17869312960076	6.2597976	2.5019588
15.196374947485506	8.142581	2.8535209
15.214057129330447	11.2538	3.3546684
15.231739675579114	15.964581	3.9955702
15.249422586675102	20.956867	4.577867
15.267105863062092	24.135431	4.9127827
15.284789505183847	24.431385	4.9428115
15.302473513484218	22.381638	4.7309237
15.320157888407127	18.860533	4.3428717
15.337842630396578	14.7304	3.8380203
15.355527739896656	11.521389	3.3943172
15.37321321735153	8.905578	2.9842215
15.39089906320545	6.4131174	2.5324132
15.408585277902748	4.7675056	2.183462
15.42627186188783	3.6885643	1.9205636
15.443958815605198	3.1684482	1.7800136
15.461646139499424	2.8887784	1.6996406
15.479333834015168	2.7707283	1.6645505
15.497021899597165	2.7611754	1.6616784
15.514710336690234	2.7398372	1.6552453
15.53239914573928	2.7082212	1.6456674
15.550088327189297	2.6458266	1.6265997
15.567777881485336	2.5436285	1.5948757
15.58546780907256	2.46857	1.5711683
15.6031581103962	2.426895	1.5578494
15.620848785901568	2.4372404	1.5611664
15.638539836034063	2.4543948	1.5666509
15.656231261239173	2.4522219	1.5659572
15.673923061962451	2.4181101	1.5550274
15.691615238649552	2.3983467	1.5486597
15.709307791746202	2.3744652	1.54093
15.727000721698221	2.387549	1.5451696
15.744694028951498	2.3447561	1.5312597
15.76238771395202	2.358821	1.5358454
15.780081777145844	2.3519385	1.5336031
15.797776218979125	2.3595665	1.536088
15.815471039898094	2.3649173	1.5378288
15.833166240349064	2.3550258	1.5346093
15.850861820778437	2.3655982	1.5380502
15.868557781632699	2.3743439	1.5408906
15.886254123358412	2.3621736	1.5369364
15.903950846402232	2.3614366	1.5366967
15.921647951210897	2.3480198	1.532325
15.939345438231225	2.3641672	1.5375849
15.957043307910133	2.3590379	1.535916
15.974741560694602	2.3650887	1.5378845
15.992440197031714	2.3585277	1.5357499
16.01013921736862	2.379736	1.5426393
16.02783862215259	2.3606896	1.5364536
16.045538411830933	2.3892674	1.5457256
16.06323858685107	2.3960114	1.5479054
16.080939147660512	2.4237695	1.556846
16.09864009470684	2.398822	1.5488131
16.11634142843774	2.3822412	1.5434511
16.134043149300954	2.3625195	1.5370489
16.15174525774433	2.3987095	1.5487767
16.169447754215817	2.447396	1.5644156
16.18715063916342	2.440977	1.5623627
16.204853913035244	2.4032857	1.5502534
16.222557576279478	2.36218	1.5369385
16.240261629344403	22.330135	4.725477
16.257966072678386	42.87846	6.548165
16.275670906729868	38.009342	6.1651716
16.293376131947387	2.5022798	1.5818596
16.31108174877957	2.5428143	1.5946205
16.328787757675133	2.562034	1.6006354
16.34649415908287	2.5625916	1.6008097
16.364200953451657	2.585451	1.6079338
16.38190814123048	2.606345	1.6144178
16.39961572286839	2.6109843	1.615854
16.41732369881455	2.653879	1.629073
16.43503206951817	2.7098455	1.6461608
16.45274083542859	2.7861516	1.6691769
16.47044999699522	2.798168	1.6727725
16.488159554667558	2.7900898	1.6703562
16.505869508895184	2.77909	1.6670603
16.523579860127786	2.8260052	1.6810726
16.541290608815117	2.8965685	1.7019309
16.559001755407035	2.940348	1.7147442
16.57671330035348	3.01211	1.7355431
16.59442524410448	3.0810483	1.7552915
16.61213758711015	3.1633322	1.7785759
16.629850329820705	3.188246	1.785566
16.647563472686436	3.2756076	1.8098639
16.665277016157724	3.3495183	1.830169
16.682990960685053	3.4048822	1.8452322
16.70070530671898	3.4456952	1.8562584
16.718420054710155	3.4692097	1.8625815
16.736135205109335	3.525674	1.8776778
16.753850758367335	3.5461564	1.8831241
16.771566714935087	3.594871	1.8960146
16.789283075263597	3.6181388	1.9021406
16.80699983980398	3.6622462	1.9136996
16.82471700900741	3.7015982	1.9239538
16.84243458332518	3.7759297	1.9431752
16.860152563208665	3.9156237	1.9787935
16.87787094910932	4.0860276	2.0213926
16.89558974147871	4.217025	2.0535395
16.913308940768466	4.2232113	2.0550454
16.931028547430333	4.198114	2.04893
16.94874856191613	4.208992	2.0515828
16.966468984677785	4.257179	2.0632932
16.98418981616729	4.3348293	2.0820253
17.00191105683676	4.41074	2.100176
17.019632707138374	4.4750767	2.1154377
17.03735476752442	4.469377	2.1140902
17.05507723844728	4.515752	2.1250298
17.072800120359403	4.514181	2.1246603
17.090523413713353	4.5477266	2.13254
17.108247118961785	4.565417	2.1366837
17.125971236557437	4.6170287	2.1487272
17.143695766953133	4.6719384	2.1614668
17.161420710601806	4.648045	2.1559324
17.179146067956477	4.644919	2.1552074
17.19687183947025	4.6412735	2.1543615
17.21459802559634	4.657885	2.1582134
17.232324626788028	4.6263914	2.150905
17.25005164349871	4.611324	2.1473994
17.267779076181863	4.5745244	2.1388137
17.285506925291074	4.541982	2.1311927
17.30323519127999	4.532009	2.1288517
17.320963874602384	4.538882	2.1304653
17.33869297571211	4.5535946	2.1339154
17.356422495063114	4.5755725	2.1390588
17.37415243310944	4.5610695	2.1356661
17.391882790305218	4.5388875	2.1304665
17.40961356710468	4.504928	2.1224816
17.42734476396215	4.504962	2.1224895
17.445076381332044	4.514816	2.1248095
17.462808419668868	4.595879	2.1438003
17.48054087942723	4.6653666	2.159946
17.498273761061835	4.90354	2.2143939
17.51600706502747	5.390969	2.321846
17.533740791779024	6.1290617	2.4756942
17.551474941771485	7.569691	2.7513072
17.56920951545993	8.6427765	2.9398599
17.586944513299528	10.7828	3.2837174
17.60467993574556	12.483912	3.533258
17.622415783253373	14.308336	3.7826362
17.64015205627843	15.78502	3.9730365
17.657888755276293	16.87943	4.1084585
17.675625880702604	17.329681	4.1628933
17.69336343301311	17.046116	4.128694
17.71110141266366	16.208624	4.0259933
17.728839820110178	15.215319	3.9006817
17.746578655808705	14.308292	3.7826304
17.764317920215372	12.86402	3.5866446
17.7820576137864	11.319975	3.364517
17.79979773697811	9.301194	3.0497859
17.81753829024692	7.40014	2.7203197
17.835279274049356	5.7312016	2.393993
17.85302068884201	4.6882935	2.1652467
17.870762535081607	4.0761685	2.0189524
17.888504813224934	3.824328	1.9555889
17.90624752372891	3.64308	1.9086854
17.923990667050536	3.547282	1.883423
17.941734243646895	3.4640992	1.861209
17.959478253975185	3.4042587	1.8450633
17.9772226984927	3.3998404	1.8438656
17.994967577656833	3.4081097	1.8461066
18.01271289192506	3.3896031	1.8410875
18.030458641754965	3.3279755	1.824274
18.04820482760425	3.285961	1.812722
18.06595144993067	3.2620175	1.8061056
18.083698509192125	3.2507694	1.802989
18.101446005846576	3.228807	1.7968881
18.119193940352105	3.2014225	1.7892519
18.136942313166887	3.1865427	1.785089
18.1546911247492	3.1602025	1.7776959
18.1724403755574	3.1814346	1.7836577
18.19019006604997	3.1701524	1.7804922
18.207940196685467	3.149111	1.7745734
18.225690767922575	3.1047864	1.7620404
18.243441780220046	3.087592	1.7571545
18.261193234036764	3.0828621	1.7558081
18.278945129831676	3.0497012	1.7463393
18.29669746806386	3.0007527	1.7322681
18.314450249192483	2.9885485	1.7287419
18.3322034736768	2.9938924	1.7302868
18.349957141976184	3.0006428	1.7322364
18.3677112545501	3.0304067	1.7408063
18.385465811858108	3.044103	1.7447357
18.403220814359884	3.0493822	1.746248
18.420976262515172	3.0564725	1.7482771
18.43873215678387	3.1022794	1.7613289
18.456488497625923	3.1180966	1.7658134
18.474245285501407	3.1534927	1.7758076
18.492002520870486	3.2434146	1.8009483
18.50976020419343	3.346229	1.8292701
18.527518335930615	3.6658223	1.9146338
18.545276916542516	4.2033124	2.050198
18.563035946489688	4.362712	2.0887105
18.580795426232832	4.8140864	2.1941028
18.598555356232698	4.730878	2.1750581
18.616315736950185	5.0761933	2.2530408
18.63407656884626	4.7453213	2.1783757
18.65183785238201	4.9109225	2.2160602
18.669599588018617	4.65642	2.157874
18.68736177621737	4.6697335	2.1609566
18.705124417439652	4.683094	2.1640458
18.72288751214696	4.494042	2.1199155
18.740651060800886	4.614644	2.1481721
18.758415063863115	4.3458824	2.084678
18.77617952179546	4.501218	2.1216073
18.793944435059814	4.2449856	2.0603364
18.811709804118184	4.229397	2.0565498
18.829475629432675	4.197293	2.0487297
18.8472419114655	3.994287	1.9985713
18.86500865067897	4.056084	2.0139723
18.88277584753551	3.7324443	1.9319534
18.90054350249763	3.728971	1.9310544
18.918311616027957	3.3912706	1.8415403
18.936080188589226	3.310875	1.819581
18.953849220644265	3.017222	1.7370152
18.971618712656007	2.8840878	1.6982602
18.9893886650875	2.8433392	1.6862204
19.007159078401887	8.036819	2.8349285
19.024929953062408	32.872856	5.7334857
19.042701289532435	32.816807	5.7285957
19.060473088275405	25.382315	5.0380864
19.07824534975489	2.6522434	1.6285709
19.096018074434568	2.6293657	1.6215318
19.113791262778197	2.5673208	1.6022861
19.13156491524966	2.585818	1.6080478
19.149339032312945	2.5700393	1.6031342
19.167113614432136	2.581332	1.6066524
19.184888662071433	2.5405703	1.5939167
19.202664175695123	2.548461	1.59639
19.220440155767623	2.527487	1.5898073
19.238216602753447	2.5066736	1.5832478
19.2559935171172	2.5063174	1.5831352
19.27377089932361	2.528643	1.5901707
19.291548749837514	2.5281537	1.5900168
19.309327069123835	2.513191	1.5853047
19.32710585764763	2.5136752	1.5854574
19.344885115874032	2.4961958	1.5799354
19.362664844268313	2.4849377	1.5763685
19.380445043295822	2.4491024	1.5649608
19.39822571342203	2.475182	1.5732712
19.41600685511252	2.5004153	1.5812702
19.43378846883297	2.526133	1.5893813
19.451570555049173	2.5244367	1.5888476
19.469353114227037	2.50005	1.5811547
19.48713614683254	2.4788113	1.5744241
19.50491965333182	2.4515257	1.5657349
19.52270363419109	2.4295702	1.5587078
19.540488089876686	2.4216888	1.5561776
19.55827302085503	2.443918	1.5633036
19.576058427592674	2.4571614	1.5675335
19.593844310556282	2.431665	1.5593797
19.611630670212598	2.4057214	1.5510389
19.629417507028506	2.4411473	1.5624171
19.64720482147098	2.483537	1.5759242
19.6649926140071	2.4987957	1.580758
19.682780885104084	2.4825733	1.5756184
19.70056963522921	2.4705172	1.5717878
19.718358864849908	2.465671	1.5702455
19.7361485744337	2.4603322	1.5685446
19.753938764448215	2.4762175	1.5736002
19.771729435361202	2.477726	1.5740794
19.789520587640506	2.5154939	1.5860308
19.807312221754092	2.533643	1.5917422
19.825104338170043	2.559443	1.599826
19.842896937356517	2.5379236	1.5930861
19.860690019781824	2.531803	1.591164
19.87848358591436	2.4966025	1.580064
19.896277636222635	2.5143068	1.5856565
19.914072171175278	2.5271318	1.5896955
19.931867191241015	2.4952888	1.5796484
19.94966269688869	2.46021	1.5685056
19.967458688587264	2.465821	1.5702933
19.985255166805807	2.463969	1.5697035
20.00305213201348	2.444513	1.5634938
20.020849584679578	2.4343023	1.5602251
20.038647525273507	2.42669	1.5577837
20.05644595426477	2.41609	1.5543777
20.07424487212299	2.4433224	1.5631131
20.092044279317903	2.4532301	1.566279
20.109844176319353	2.4744058	1.5730244
20.127644563597304	2.4615686	1.5689387
20.145445441621817	2.4748604	1.5731689
20.16324681086307	2.4414248	1.562506
20.181048671791373	2.3939645	1.5472442
20.198851024877122	2.345673	1.531559
20.216653870590836	2.3433344	1.5307953
20.234457209403146	2.3445466	1.5311912
20.252261041784802	2.3531573	1.5340004
20.270065368206662	2.3849218	1.5443192
20.287870189139685	2.4162004	1.5544132
20.305675505054968	2.4097843	1.552348
20.323481316423702	2.3522687	1.5337107
20.341287623717207	2.3359003	1.5283653
20.359094427406884	2.3245718	1.5246546
20.376901727964288	2.334918	1.5280439
20.39470952586107	2.321827	1.5237542
20.41251782156899	2.296655	1.5154718
20.430326615559935	2.293598	1.514463
20.448135908305886	2.275788	1.5085715
20.465945700278965	2.3133535	1.5209713
20.483755991951384	2.334833	1.528016
20.50156678379548	2.337162	1.528778
20.519378076283708	2.3035626	1.5177492
20.537189869888635	2.293773	1.5145206
20.55500216508294	2.2772374	1.5090518
20.572814962339415	2.302542	1.5174129
20.59062826213098	2.3297582	1.5263546
20.60844206493066	2.35836	1.5356953
20.626256371211593	2.3412702	1.530121
20.644071181447032	2.3223124	1.5239135
20.66188649611036	2.2926185	1.5141395
20.67970231567506	2.2374027	1.495795
20.697518640614742	2.2250469	1.491659
20.715335471403122	2.226202	1.4920462
20.73315280851404	2.24875	1.4995832
20.750970652421447	2.280337	1.5100785
20.768789003599412	2.2764819	1.5088015
20.786607862522136	2.289979	1.5132676
20.8044272296639	2.2841923	1.5113544
20.82224710549913	2.316123	1.5218815
20.84006749050237	2.2821815	1.5106891
20.857888385148268	3.8024347	1.9499832
20.8757097899116	45.91671	6.776187
20.893531705267254	64.78984	8.049213
20.911354131690224	83.79496	9.153958
20.92917706965566	69.0482	8.309525
20.94700051963877	50.12274	7.0797415
20.96482448211493	29.400776	5.4222484
20.982648957559622	4.1345096	2.0333493
21.00047394644843	2.221807	1.4905727
21.01829944925707	2.2054884	1.4850887
21.036125466461375	2.1739826	1.4744432
21.053951998537297	2.1864724	1.4786725
21.071779045960906	2.203855	1.4845387
21.089606609208378	2.2063794	1.4853886
21.10743468875603	2.1988392	1.4828483
21.12526328508028	2.1723952	1.4739047
21.143092398657675	2.1822653	1.4772493
21.16092202996488	2.1588573	1.469305
21.17875217947867	2.139498	1.4627023
21.19658284767596	2.1290157	1.4591147
21.21441403503377	2.1534545	1.4674654
21.232245742029225	2.166212	1.4718057
21.2500779691396	2.135926	1.4614807
21.26791071684227	2.1098883	1.4525454
21.28574398561475	2.1500428	1.4663024
21.30357777593465	2.175356	1.4749088
21.321412088279704	2.1657863	1.4716611
21.339246923127792	2.129607	1.4593173
21.357082280956888	2.114737	1.4542135
21.3749181622451	2.0966463	1.44798
21.392754567470647	2.103249	1.4502583
21.41059149711187	2.1338832	1.4607817
21.42842895164726	2.1426368	1.4637748
21.446266931555378	2.1701534	1.473144
21.464105437314945	2.1443682	1.4643661
21.481944469404798	2.1032445	1.4502567
21.49978402830388	2.055397	1.4336656
21.51762411449127	2.038279	1.4276831
21.53546472844617	2.0590672	1.434945
21.553305870647876	2.0715334	1.4392823
21.571147541575865	2.0873454	1.4447649
21.58898974170967	2.0868413	1.4445903
21.60683247152899	2.0991437	1.4488422
21.62467573151363	2.1038244	1.4504566
21.642519522143523	2.0816355	1.4427874
21.660363843898722	2.0902202	1.4457594
21.6782086972594	2.0881944	1.4450586
21.696054082705864	2.103237	1.4502541
21.713900000718535	2.0916028	1.4462374
21.73174645177795	2.073567	1.4399885
21.749593436364794	2.0428936	1.4292983
21.767440954959845	2.0230694	1.4223465
21.785289008044032	2.03159	1.4253385
21.803137596098388	2.0436127	1.4295498
21.820986719604086	2.0513742	1.432262
21.838836379042412	2.021462	1.4217813
21.85668657489478	1.9954298	1.4125968
21.87453730764273	1.9752115	1.4054222
21.892388577767914	1.9746993	1.4052399
21.91024038575213	1.9765836	1.4059103
21.928092732077285	1.9873606	1.4097378
21.945945617225426	1.9976735	1.4133908
21.963799041678694	1.9877678	1.4098822
21.981653005919398	31.291927	5.593919
21.999507510429943	78.10083	8.837467
22.01736255569286	73.06428	8.547765
22.035218142190818	4.175768	2.0434697
22.05307427040661	1.9875948	1.4098209
22.07093094082315	1.9637638	1.4013436
22.088788153923474	1.9232904	1.3868275
22.106645910190746	1.9269788	1.3881567
22.12450421010827	1.9546934	1.3981035
22.142363054159464	1.9683592	1.4029822
22.16022244282787	1.9825802	1.4080412
22.178082376597164	1.9972243	1.4132318
22.195942855951145	1.9885789	1.4101698
22.213803881373742	1.9716856	1.4041673
22.231665453349002	1.9208658	1.3859531
22.24952757236111	1.9377635	1.3920357
22.26739023889438	1.9923859	1.411519
22.28525345343323	2.0065534	1.4165287
22.30311721646225	1.9821101	1.4078743
22.320981528466113	1.9663237	1.4022566
22.33884638992964	1.9655303	1.4019737
22.356711801337788	1.965066	1.4018081
22.37457776317561	1.9382596	1.392214
22.392444275928337	1.9574145	1.3990763
22.410311340081282	1.9461817	1.3950561
22.428178956119904	1.9463711	1.3951241
22.446047124529805	1.9551886	1.3982806
22.46391584579669	1.9779401	1.4063926
22.481785120406414	1.9775217	1.4062438
22.49965494884496	1.9370643	1.3917845
22.51752533159841	1.9094596	1.381832
22.53539626915302	1.9285084	1.3887074
22.553267761995137	1.9608276	1.4002955
22.571139810611264	1.9598433	1.3999441
22.589012415488025	1.9438738	1.3942287
22.60688557711216	1.9351127	1.3910832
22.624759295970566	1.931375	1.3897392
22.642633572550263	1.9220799	1.3863909
22.660508407338362	1.9138147	1.3834069
22.67838380082217	1.904028	1.3798653
22.696259753489077	1.8686694	1.3669928
22.714136265826614	1.8630003	1.3649176
22.73201333832246	1.8783278	1.3705211
22.74989097146439	1.892362	1.3756315
22.76776916574035	1.887601	1.3738999
22.785647921638393	1.8996851	1.3782907
22.803527239646712	1.8986762	1.3779246
22.82140712025363	1.8867968	1.3736073
22.839287563947593	1.8906325	1.3750027
22.85716857121719	1.8961488	1.3770072
22.875050142551135	1.8834813	1.3723998
22.892932278438277	1.8865712	1.3735251
22.910814979367604	1.9001333	1.3784533
22.928698245828222	1.9103214	1.3821437
22.946582078309387	1.9222836	1.3864645
22.96446647730047	1.901799	1.3790573
22.98235144329098	1.8955683	1.3767964
23.000236976770562	1.8850635	1.3729762
23.018123078229	1.8795141	1.3709537
23.03600974815619	1.8644403	1.3654451
23.053896987042194	1.8606333	1.3640503
23.071784795377173	1.8472093	1.3591208
23.08967317365145	1.8345832	1.3544679
23.10756212235546	1.8201612	1.3491335
23.125451641979787	1.8371941	1.3554313
23.143341733015134	1.8583758	1.3632226
23.161232395952357	1.9166381	1.384427
23.179123631282426	1.9320905	1.3899966
23.197015439496468	1.9569979	1.3989275
23.214907821085717	1.9317434	1.3898717
23.23280077654157	1.9081113	1.3813441
23.250694306355538	1.8858253	1.3732536
23.268588411019277	1.9176238	1.3847829
23.28648309102458	1.9179181	1.3848892
23.304378346863356	1.9047289	1.3801192
23.322274179027676	1.9170426	1.3845731
23.340170588009723	1.9075989	1.3811585
23.358067574301852	1.8827045	1.3721168
23.37596513839651	1.8724967	1.368392
23.39386328078629	1.9202893	1.385745
23.411762001963947	1.936298	1.3915093
23.429661302422353	1.9325294	1.3901545
23.4475611826545	1.9215233	1.3861902
23.46546164315356	1.916221	1.3842764
23.48336268441279	1.8952084	1.3766657
23.501264306925638	1.8955494	1.3767896
23.51916651118564	1.9207839	1.3859235
23.537069297686497	1.8998206	1.3783398
23.554972666922037	1.8614469	1.3643485
23.57287661938623	1.8977213	1.377578
23.59078115557318	1.891326	1.3752549
23.608686275977128	1.8964484	1.377116
23.62659198109246	1.9109015	1.3823537
23.6444982714137	1.9248047	1.3873733
23.66240514743549	1.9284356	1.3886812
23.68031260965263	1.9043723	1.37999
23.698220658560068	1.899568	1.3782481
23.716129294652845	1.9195225	1.3854684
23.7340385184262	1.912865	1.3830637
23.75194833037546	1.891989	1.3754959
23.769858730996123	1.8529567	1.3612335
23.78776972078382	1.8927193	1.3757614
23.80568130023431	1.933103	1.3903607
23.823593469843495	1.9234836	1.3868971
23.841506230107424	1.8624696	1.3647232
23.859419581522275	1.8464171	1.3588293
23.87733352458438	1.8880213	1.3740529
23.89524805979019	1.9320822	1.3899935
23.913163187636318	1.9710637	1.4039458
23.931078908619508	1.9712349	1.4040067
23.948995223236633	1.9782594	1.4065061
23.966912131984735	1.9849218	1.4088725
23.98482963536096	2.0480146	1.4310886
24.002747733862616	2.0485702	1.4312826
24.020666427987155	2.0250468	1.4230413
24.038585718232156	1.9537041	1.3977497
24.056505605095353	1.9434985	1.3940941
24.074426089074617	2.0053587	1.4161069
24.092347170667946	2.0030708	1.4152988
24.110268850373515	1.9973823	1.4132878
24.128191128689586	1.9562285	1.3986524
24.146114006114626	1.9681646	1.4029129
24.164037483147187	2.0113237	1.4182115
24.181961560286005	1.9923364	1.4115015
24.199886238029926	1.9900697	1.4106983
24.21781151687797	2.0423892	1.4291219
24.235737397329274	2.1040406	1.4505311
24.253663879883135	2.0817635	1.4428318
24.271590965038975	2.0629737	1.4363056
24.289518653296376	2.0301635	1.4248381
24.30744694515505	2.010326	1.4178597
24.32537584111486	2.0203454	1.4213885
24.34330534167581	2.0210326	1.4216303
24.361235447338046	2.0172994	1.4203167
24.379166158601876	1.9849122	1.4088691
24.39709747596772	1.9955446	1.4126375
24.41502939993615	2.0231633	1.4223795
24.432961931007917	1.9940658	1.4121139
24.450895069683856	1.9616255	1.4005804
24.468828816465	1.9499122	1.3963926
24.4867631718525	1.9297985	1.3891718
24.504698136347656	1.9328208	1.3902593
24.52263371045192	1.9189386	1.3852576
24.540569894666874	1.9040525	1.3798741
24.558506689494266	1.9218504	1.3863082
24.57644409543597	1.8986388	1.3779111
24.594382112994012	1.8658068	1.3659453
24.61232074267057	1.8648647	1.3656005
24.630259984967953	1.8562601	1.3624463
24.64819984038863	1.8478808	1.3593678
24.66614030943522	1.856694	1.3626056
24.684081392610462	1.8853372	1.3730758
24.702023090417274	1.8862222	1.3733981
24.7199654033587	1.9112669	1.3824857
24.737908331937927	1.954604	1.3980715
24.755851876658305	1.9835857	1.4083983
24.773796038023324	1.9824473	1.407994
24.79174081653661	1.9938141	1.4120249
24.809686212701962	2.011895	1.4184128
24.827632227023294	2.020837	1.4215615
24.8455788600047	2.0416217	1.4288533
24.8635261121504	2.075179	1.4405482
24.88147398396475	2.087879	1.4449495
24.899422475952303	2.0705168	1.4389291
24.917371588617698	2.040857	1.4285856
24.935321322465768	2.0881445	1.4450414
24.953271678001478	2.219629	1.4898419
24.97122265572994	2.4368608	1.5610448
24.989174256156414	2.7652106	1.6628922
25.00712647978632	3.2229593	1.7952602
25.02507932712521	3.7893047	1.9466137
25.043032798678798	4.301883	2.074098
25.060986894952933	4.9180813	2.2176747
25.078941616453637	5.6847987	2.3842816
25.096896963687055	6.667297	2.582111
25.114852937159508	7.831167	2.7984223
25.132809537377444	8.225973	2.8680956
25.150766764847468	8.227806	2.8684154
25.168724620076347	7.6327367	2.7627409
25.186683103570985	6.7074556	2.5898757
25.204642215838426	5.5650544	2.3590367
25.222601957385894	4.2328506	2.0573893
25.24056232872074	3.1918297	1.7865692
25.25852333035048	2.587577	1.6085948
25.276484962782778	2.2037125	1.4844906
25.294447226525435	2.010155	1.4177994
25.312410122086423	1.9172529	1.384649
25.330373649973843	1.8946911	1.3764778
25.348337810695988	1.8891708	1.3744711
25.366302604761245	1.8949345	1.3765662
25.384268032678207	1.9068848	1.3809
25.40223409495558	1.9127774	1.383032
25.420200792102257	1.9290386	1.3888984
25.438168124627246	1.9402679	1.392935
25.45613609303974	1.9062071	1.3806546
25.474104697849057	1.8861275	1.3733636
25.492073939564698	1.8709735	1.3678353
25.510043818696285	1.8763458	1.3697977
25.528014335753614	1.8828307	1.3721628
25.54598549124664	1.8290904	1.3524387
25.56395728568544	1.7888037	1.3374617
25.58192971958028	1.8249135	1.3508936
25.59990279344156	1.8846613	1.3728297
25.617876507779833	1.8910284	1.3751466
25.635850863105826	1.8718292	1.3681481
25.653825859930386	1.8715554	1.3680481
25.671801498764548	1.8573687	1.3628532
25.68977778011949	1.8438832	1.3578966
25.707754704506524	1.8457164	1.3585714
25.725732272437153	1.8396196	1.3563257
25.743710484423012	1.8274349	1.3518265
25.761689340975888	1.858378	1.3632234
25.77966884260774	1.8575877	1.3629335
25.797648989830662	1.8502967	1.3602561
25.815629783156922	1.7928003	1.3389549
25.83361122309895	1.7852707	1.3361403
25.85159331016929	1.7879076	1.3371266
25.869576044880695	1.8248597	1.3508737
25.887559427746034	1.8231219	1.3502303
25.90554345927836	1.8393021	1.3562087
25.92352813999086	1.8172491	1.3480538
25.94151347039689	1.8102374	1.3454506
25.959499451009965	1.8502403	1.3602355
25.97748608234374	1.8762305	1.3697556
25.995473364912062	1.8085898	1.3448383
26.013461299228904	1.7486591	1.3223687
26.03144988580839	1.7442127	1.3206865
26.04943912516483	1.8050437	1.3435191
26.067429017812675	1.8166584	1.3478347
26.085419564266537	1.8063422	1.3440024
26.103410765041186	1.8089705	1.3449798
26.12140262065155	1.7902313	1.3379953
26.139395131612723	1.8070561	1.3442678
26.157388298439948	1.836236	1.3550779
26.17538212164861	1.8400514	1.3564849
26.193376601754295	1.8292265	1.352489
26.211371739272714	1.8169849	1.3479558
26.229367534719746	1.8302252	1.3528582
26.247363988611433	1.7763476	1.3327969
26.26536110146397	1.7959068	1.3401145
26.283358873793727	1.8434331	1.3577309
26.301357306117204	1.8520327	1.3608941
26.319356398951104	1.7894174	1.3376911
26.33735615281224	1.7962444	1.3402405
26.35535656821762	1.8193719	1.348841
26.373357645684404	1.7840633	1.3356884
26.39135938572991	1.7572596	1.3256167
26.409361788871614	1.8003776	1.3417815
26.427364855627165	1.8441722	1.358003
26.445368586514352	1.8540983	1.3616527
26.46337298205115	1.841822	1.3571374
26.48137804275568	1.7700187	1.3304205
26.499383769146217	1.7732035	1.3316169
26.517390161741215	1.8352745	1.354723
26.53539722105928	1.8595746	1.3636622
26.553404947619182	1.8023757	1.3425258
26.571413341939856	1.746329	1.3214874
26.589422404540397	1.7053341	1.3058844
26.60743213594006	1.7234758	1.3128122
26.62544253665827	1.7350675	1.3172196
26.64345360721459	1.68671	1.298734
26.66146534812879	1.695311	1.302041
26.679477759920758	1.7324764	1.3162357
26.69749084311057	1.7898964	1.3378701
26.71550459821847	1.7772301	1.333128
26.733519025764842	1.7398903	1.319049
26.751534126270258	1.738995	1.3187096
26.769549900255434	1.7750298	1.3323025
26.787566348241267	1.7615958	1.3272512
26.80558347074881	1.7432199	1.3203105
26.823601268299267	1.7607459	1.326931
26.841619741414036	1.7688009	1.3299627
26.85963889061465	1.7822535	1.3350106
26.877658716422832	1.7884289	1.3373215
26.89567921936045	1.8022913	1.3424944
26.913700399949544	1.8020483	1.3424039
26.93172225871233	1.8497496	1.360055
26.949744796171174	1.9016188	1.378992
26.967768012848605	1.8777544	1.3703119
26.98579190926733	1.8042681	1.3432305
27.003816485950225	1.748787	1.3224171
27.021841743420318	1.7759527	1.3326488
27.039867682200814	1.8307021	1.3530344
27.057894302815072	1.8661512	1.3660715
27.07592160578664	1.8641714	1.3653467
27.0939495916392	1.7945582	1.3396112
27.111978260896635	1.8029169	1.3427274
27.13000761408296	1.8071189	1.3442912
27.148037651722397	1.8251652	1.3509867
27.166068374339304	1.8088377	1.3449304
27.184099782458215	1.7703607	1.330549
27.20213187660384	1.7380633	1.3183563
27.22016465730105	1.7797244	1.334063
27.23819812507487	1.8306589	1.3530184
27.256232280450533	1.8538811	1.361573
27.274267123953383	1.8811148	1.3715374
27.292302656108987	1.8641679	1.3653454
27.31033887744306	1.8452557	1.3584019
27.32837578848146	1.7990087	1.3412713
27.34641338975026	1.7848033	1.3359653
27.364451681775673	1.7768797	1.3329965
27.382490665084074	1.7443097	1.3207232
27.400530340202046	1.7654132	1.3286885
27.41857070765629	1.7910903	1.3383162
27.436611767973726	1.7801062	1.3342062
27.454653521681404	1.7576193	1.3257524
27.472695969306564	1.7570858	1.3255512
27.490739111376627	1.7920882	1.338689
27.508782948419153	1.8512831	1.3606186
27.526827480961902	1.844533	1.3581358
27.54487270953279	1.8387513	1.3560057
27.562918634659898	1.8449152	1.3582765
27.580965256871508	1.8498237	1.3600823
27.599012576696026	1.8101896	1.3454329
27.617060594662068	1.7274563	1.3143274
27.63510931129842	1.7465326	1.3215644
27.65315872713401	1.8064598	1.344046
27.67120884269797	1.8402643	1.3565634
27.68925965851958	1.7569244	1.3254902
27.707311175128307	1.7655945	1.3287567
27.725363393053787	1.8294989	1.3525897
27.74341631282583	1.8919796	1.3754925
27.7614699349744	1.9156191	1.384059
27.77952426002968	2.1015701	1.4496794
27.797579288521973	2.1586387	1.4692307
27.815635020981784	2.553504	1.5979687
27.83369145793979	2.6330352	1.622663
27.85174859992682	2.4806604	1.5750113
27.869806447473923	2.3347673	1.5279945
27.887865001112267	2.03226	1.4255736
27.905924261373233	1.907039	1.3809558
27.92398422878836	1.8686754	1.366995
27.94204490388936	1.8512086	1.3605913
27.96010628720813	1.841501	1.3570192
27.978168379276728	1.8267075	1.3515574
27.9962311806274	1.8052523	1.3435968
28.014294691792568	1.766782	1.3292035
28.0323589133048	1.7778059	1.3333439
28.050423845696887	1.8634176	1.3650706
28.068489489501758	1.9025626	1.3793341
28.086555845252523	1.912364	1.3828825
28.104622913482487	1.8841274	1.3726352
28.122690694725115	1.8667611	1.3662946
28.14075918951405	1.8368921	1.35532
28.15882839838312	1.8599894	1.3638142
28.176898321866304	1.9404675	1.3930067
28.1949689604978	1.9770379	1.4060718
28.213040314811945	1.9402134	1.3929155
28.23111238534327	1.9411238	1.3932422
28.249185172626493	1.9710387	1.4039369
28.267258677196473	1.9240967	1.3871181
28.285332899588294	1.8709918	1.3678421
28.303407840337172	1.9038118	1.3797868
28.321483499978545	1.915471	1.3840054
28.33955987904799	1.8846543	1.3728272
28.357636978081285	1.8530405	1.3612642
28.37571479761439	1.8438938	1.3579005
28.393793338183425	1.8674206	1.366536
28.41187260032469	1.8786852	1.3706514
28.429952584574686	1.9252684	1.3875405
28.448033291470065	1.9486364	1.3959357
28.46611472154769	1.9175867	1.3847696
28.484196875344566	1.9310291	1.3896147
28.502279753397914	1.9695866	1.4034196
28.52036335624511	1.9956056	1.412659
28.538447684423716	2.0128887	1.418763
28.556532738471482	2.0134728	1.4189689
28.574618518926325	2.0287654	1.4243474
28.59270502632635	1.9985162	1.4136889
28.61079226120985	2.0230415	1.4223366
28.628880224115274	2.0410883	1.4286666
28.646968915581287	2.006721	1.4165878
28.66505833614671	2.0166628	1.4200926
28.68314848635055	2.041226	1.4287148
28.701239366732004	2.0937312	1.4469731
28.71933097783044	2.1226387	1.4569278
28.737423320185403	2.115498	1.4544752
28.75551639433665	2.0906215	1.4458982
28.773610200824074	2.146893	1.465228
28.791704740187793	2.1830566	1.477517
28.80980001296809	2.1471722	1.4653232
28.827896019705413	2.1063552	1.4513288
28.845992760940433	2.0964472	1.4479114
28.86409023721397	2.069515	1.4385809
28.88218844906704	2.1200848	1.4560511
28.900287397040845	2.166876	1.4720312
28.918387081676755	2.2093327	1.4863824
28.936487503516343	2.2036624	1.4844738
28.954588663101365	2.1866064	1.4787178
28.97269056097374	2.231579	1.493847
28.990793197675597	2.3319914	1.5270859
29.00889657374923	2.3717625	1.5400528
29.027000689737125	2.4055026	1.5509683
29.04510554618196	2.3738482	1.5407298
29.06321114362659	2.396762	1.5481479
29.08131748261405	2.435257	1.560531
29.099424563687567	2.462252	1.5691564
29.11753238739057	2.4265687	1.5577447
29.13564095426663	2.4296038	1.5587187
29.15375026485954	2.4429462	1.5629927
29.171860319713275	2.495713	1.5797826
29.18997111937199	2.5531003	1.5978425
29.20808266438002	2.5877345	1.6086437
29.226194955281898	2.68751	1.6393627
29.244307992622335	2.7573216	1.6605185
29.26242177694624	2.7797687	1.6672639
29.2805363087987	2.776966	1.6664232
29.29865158872498	2.8122787	1.676985
29.316767617270557	2.8999646	1.7029282
29.334884394981064	2.869932	1.6940874
29.353001922402367	2.885863	1.6987828
29.37112020008047	3.00768	1.7342664
29.389239228561596	3.1658716	1.7792896
29.407359008392152	3.3252635	1.8235306
29.42547954011872	3.6723058	1.9163262
29.44360082428809	4.308364	2.07566
29.46172286144722	5.4228554	2.3287024
29.479845652143283	7.0589004	2.6568592
29.497969196923606	8.984606	2.9974332
29.516093496335728	11.314042	3.3636353
29.5342185509274	14.149743	3.7616143
29.55234436124651	16.573837	4.071098
29.570470927841175	17.861725	4.2263136
29.588598251259686	17.52337	4.1860924
29.60672633205055	16.282106	4.035109
29.624855170762405	14.257974	3.7759733
29.642984767944146	11.518696	3.3939204
29.66111512414481	8.804674	2.967267
29.67924623991366	6.5054674	2.5505817
29.697378115800138	4.9909706	2.2340481
29.71551075235387	4.0709457	2.0176585
29.733644150124675	3.6194007	1.9024723
29.751778309662576	3.4505177	1.8575569
29.769913231517766	3.4136698	1.8476119
29.78804891624066	3.3459826	1.8292027
29.806185364381818	3.2094548	1.7914951
29.82432257649206	3.1744568	1.7817005
29.842460553122333	3.2346096	1.7985021
29.86059929482382	3.2996614	1.816497
29.878738802147872	3.2512653	1.8031266
29.896879075646048	3.2471292	1.8019793
29.915020115870114	3.297554	1.8159169
29.933161923371976	3.289888	1.8138049
29.951304498703777	3.2214527	1.7948406
29.969447842417857	3.1997068	1.7887725
29.987591955066733	3.1837332	1.7843019
30.005736837203123	3.1648488	1.7790022
30.023882489379943	3.1874342	1.7853386
30.04202891215028	3.2243645	1.7956516
30.060176106067455	3.20543	1.7903715
30.078324071684946	3.2059755	1.7905238
30.09647280955646	3.173355	1.7813914
30.114622320235863	3.11342	1.7644886
30.132772604277257	3.066738	1.7512105
30.1509236622349	3.0106206	1.735114
30.16907549466328	2.9912786	1.7295313
30.18722810211705	3.0420485	1.744147
30.205381485151097	3.044749	1.744921
30.22353564432045	2.9674091	1.7226169
30.241690580180403	2.8963046	1.7018533
30.25984629328638	2.9170759	1.7079449
30.278002784194037	2.9091136	1.7056124
30.296160053459246	2.9001544	1.702984
30.314318101638033	2.8886683	1.6996083
30.332476929286646	2.840196	1.6852881
30.35063653696153	2.810718	1.6765196
30.368796925219307	2.8585927	1.6907374
30.386958094616844	2.8671985	1.6932803
30.40512004571115	2.819092	1.6790152
30.423282779059463	2.773806	1.6654748
30.441446295219233	2.7056086	1.6448734
30.459610594748067	2.7473605	1.6575164
30.47777567820382	2.7732136	1.6652969
30.495941546144504	2.7293222	1.652066
30.51410819912835	2.8129096	1.6771731
30.532275637713795	2.8194928	1.6791345
30.55044386245946	2.863645	1.6922308
30.56861287392416	2.9013221	1.7033268
30.586782672666956	2.83646	1.6841793
30.604953259247047	2.7576942	1.6606307
30.623124634223885	2.752448	1.6590503
30.641296798157075	2.752489	1.6590627
30.659469751606462	2.7143185	1.6475189
30.677643495132074	2.6733143	1.6350273
30.695818029294152	2.6303468	1.6218344
30.713993354653116	2.6605103	1.6311071
30.73216947176962	2.6853623	1.6387075
30.75034638120448	2.7454348	1.6569353
30.768524083518756	2.7790163	1.6670382
30.786702579273673	2.7691143	1.6640656
30.80488186903069	2.8142247	1.6775651
30.82306195335144	2.906493	1.704844
30.841242832797782	3.0549715	1.7478477
30.85942450793176	3.3512182	1.8306333
30.877606979315637	3.7539096	1.9375008
30.895790247511883	4.123446	2.030627
30.913974313083134	4.521828	2.1264591
30.932159176592283	4.833548	2.198533
30.95034483860237	4.9258347	2.219422
30.968531299676698	4.6977477	2.1674287
30.98671856037873	4.3233833	2.0792747
31.00490662127215	3.9442585	1.9860157
31.023095482920848	3.5100374	1.8735094
31.04128514588892	3.1231608	1.7672467
31.059475610740662	2.814866	1.6777563
31.07766687804056	2.6205378	1.6188076
31.09585894835335	2.4878314	1.5772861
31.11405182224393	2.500015	1.5811436
31.132245500277417	2.5321093	1.5912603
31.15043998301914	2.506216	1.5831033
31.168635271034628	2.4683938	1.5711123
31.18683136488964	2.4527826	1.5661362
31.20502826515008	2.4704597	1.5717696
31.223225972382135	2.445762	1.5638932
31.241424487152155	2.4198587	1.5555896
31.259623810026692	2.4206138	1.5558321
31.27782394157253	2.4343033	1.5602254
31.296024882356644	2.4637449	1.569632
31.314226632946237	2.517096	1.5865358
31.332429193908684	2.5161335	1.5862325
31.350632565811598	2.5066714	1.5832471
31.368836749222787	2.513726	1.5854734
31.387041744710295	2.4827895	1.575687
31.40524755284232	2.4676945	1.5708897
31.423454174187317	2.5087867	1.583915
31.441661609313922	2.5382571	1.5931909
31.459869858791002	2.5018823	1.581734
31.478078923187628	2.3764849	1.5415852
31.496288803073064	2.3142066	1.5212517
31.514499499016807	2.2936652	1.5144851
31.532711011588546	2.322167	1.5238658
31.550923341358178	2.3414714	1.5301868
31.56913648889584	2.3043802	1.5180185
31.587350454771844	2.3140712	1.5212071
31.605565239556732	2.3339887	1.5277398
31.62378084382127	2.284136	1.5113358
31.641997268136382	2.2114396	1.487091
31.660214513073274	2.3056333	1.5184312
31.67843257920331	2.3519442	1.533605
31.6966514670981	2.3299837	1.5264285
31.71487117732944	2.3204844	1.5233136
31.733091710469346	2.3189824	1.5228205
31.751313067090052	2.2649486	1.5049746
31.769535247764008	2.2642171	1.5047315
31.787758253063878	2.2934816	1.5144246
31.805982083562526	2.197141	1.4822756
31.824206739833024	2.1703875	1.4732236
31.84243222244869	2.2083952	1.486067
31.860658531983013	2.1810582	1.4768406
31.878885669009737	2.2289999	1.4929836
31.897113634102784	2.2848384	1.5115682
31.91534242783632	2.295014	1.5149304
31.933572050784694	2.2266843	1.4922079
31.951802503522508	2.200716	1.483481
31.970033786624548	2.182139	1.4772065
31.988265900665834	2.1157923	1.4545764
32.006498846221575	2.066247	1.4374446
32.02473262386724	2.0394564	1.4280953
32.04296723417845	2.1181755	1.4553953
32.0612026777311	2.116926	1.454966
32.07943895510129	2.1163177	1.454757
32.097676066865304	2.125452	1.457893
32.115914013599685	2.1123087	1.4533784
32.13415279588115	2.1068273	1.4514914
32.152392414286666	2.1667786	1.4719981
32.1706328693934	2.2212577	1.4903884
32.18887416177875	2.1954405	1.4817019
32.20711629202032	2.2119708	1.4872696
32.225359260695924	2.1983762	1.4826922
32.243603068383614	2.1088493	1.4521878
32.26184771566166	2.072169	1.4395031
32.28009320310852	2.073853	1.4400878
32.2983395313029	2.1084247	1.4520415
32.31658670082372	2.146848	1.4652126
32.33483471225012	2.146364	1.4650475
32.35308356616143	2.0527425	1.4327395
32.371333263137245	2.0185597	1.4207603
32.38958380375734	1.9884787	1.4101343
32.407835188601744	2.036104	1.4269211
32.42608741825067	2.1171858	1.4550552
32.444340493284585	2.0397222	1.4281884
32.46259441428416	1.9882076	1.4100381
32.48084918183028	2.0636568	1.4365433
32.49910479650405	2.1101503	1.4526356
32.51736125888683	2.0948184	1.4473487
32.53561856956014	1.9863371	1.4093747
32.5538767291058	1.9758575	1.4056519
32.572135738105764	2.0312786	1.4252293
32.59039559714228	2.0502028	1.4318529
32.608656306797776	1.9258235	1.3877404
32.62691786765491	1.8371598	1.3554187
32.645180280296586	1.908901	1.3816298
32.663443545305896	2.0130417	1.418817
32.68170766326619	2.04056	1.4284817
32.69997263476099	2.0194159	1.4210615
32.7182384603741	1.9966701	1.4130358
32.7365051406895	1.9488072	1.3959968
32.75477267629144	1.9754399	1.4055034
32.77304106776434	1.9851518	1.4089541
32.79131031569289	2.026394	1.4235146
32.809580420661966	2.0276256	1.4239472
32.827851383256714	1.973296	1.4047406
32.84612320406245	1.9874473	1.4097685
32.86439588366476	2.0603573	1.4353945
32.88266942264945	2.1041927	1.4505836
32.9009438216025	2.138717	1.4624352
32.9192190811102	2.0970385	1.4481155
32.937495201758985	1.9990418	1.4138747
32.95577218413556	1.9719657	1.404267
32.974050028826866	1.905136	1.3802667
32.992328736420035	1.928309	1.3886356
33.010608307502444	1.9879278	1.4099389
33.02888874266169	1.9831915	1.4082583
33.047170042485604	1.8905579	1.3749756
33.06545220756225	1.9017868	1.3790529
33.083735238479896	2.010856	1.4180465
33.10201913582707	2.004453	1.415787
33.12030390019248	1.8771205	1.3700805
33.138589532165135	1.8403959	1.356612
33.15687603233419	1.8731061	1.3686147
33.17516340128909	1.8565296	1.3625453
33.19345163961947	1.8727865	1.3684978
33.211740747915215	1.9027865	1.3794153
33.23003072676643	1.9874061	1.4097539
33.248321576763466	2.0234149	1.4224678
33.266613298496885	1.9272391	1.3882504
33.28490589255747	1.8915739	1.375345
33.30319935953626	1.916171	1.3842583
33.32149370002451	1.9227443	1.3866305
33.339788914613706	1.8809743	1.3714862
33.358085003895575	1.8700244	1.3674884
33.376381968462034	1.8340081	1.3542556
33.39467980890529	1.8626628	1.364794
33.41297852581774	1.9882692	1.41006
33.43127811979204	2.1036286	1.4503891
33.44957859142105	2.024827	1.4229642
33.467879941297866	2.0098357	1.4176867
33.486182170015844	1.9991859	1.4139258
33.50448527816853	1.8364403	1.3551532
33.522789266349754	1.8093904	1.3451358
33.541094135153514	1.9197482	1.3855498
33.55939988517411	2.0191245	1.420959
33.57770651700602	1.9702727	1.403664
33.59601403124398	1.7949276	1.3397491
33.61432242848296	1.7465864	1.3215848
33.632631709318154	1.857727	1.3629847
33.650941874344994	1.9992054	1.4139326
33.66925292415916	2.0671985	1.4377755
33.68756485935654	2.0630422	1.4363294
33.70587768053328	1.909841	1.3819699
33.724191388285746	1.8865205	1.3735067
33.74250598321054	1.9482301	1.3957901
33.760821465904506	1.9105282	1.3822186
33.77913783696474	1.904985	1.380212
33.79745509698852	1.9265026	1.3879851
33.815773246573414	1.9337611	1.3905973
33.8340922863172	1.9583257	1.3994019
33.852412216817896	1.9604962	1.4001772
33.87073303867377	1.8485523	1.3596147
33.889054752483304	1.7874315	1.3369485
33.907377358845245	1.8099705	1.3453515
33.92570085835853	1.8369874	1.355355
33.94402525162239	1.8268019	1.3515923
33.96235053923627	1.9162273	1.3842787
33.980676721799824	1.9525732	1.3973451
33.999003799912984	1.9440556	1.3942939
34.01733177417592	1.9521918	1.3972086
34.03566064518901	1.971092	1.4039558
34.0539904135529	1.8633795	1.3650566
34.07232107986846	1.8544962	1.3617989
34.090652644736785	1.9266503	1.3880383
34.108985108759235	1.9441942	1.3943436
34.12731847253742	1.8868325	1.3736202
34.14565273667313	1.8927382	1.3757682
34.16398790176847	1.9203941	1.3857828
34.18232396842574	1.9966586	1.4130317
34.20066093724749	1.9382541	1.3922119
34.21899880883651	1.9782861	1.4065156
34.23733758379583	2.012129	1.4184953
34.25567726272874	1.9744663	1.4051571
34.27401784623872	1.921766	1.3862778
34.29235933492957	1.9432195	1.3939941
34.31070172940526	1.9108533	1.3823361
34.32904503027003	1.9092244	1.3817469
34.347389238128386	1.8942277	1.3763095
34.36573435358502	1.9207863	1.3859243
34.38408037724492	1.8681976	1.3668202
34.402427309713296	2.0087984	1.4173208
34.42077515159559	2.164017	1.4710598
34.43912390349752	2.0060635	1.4163557
34.45747356602499	1.8339072	1.3542184
34.47582413978423	1.9421059	1.3935946
34.49417562538163	2.0539079	1.4331461
34.51252802342388	2.3163922	1.5219698
34.53088133451789	2.2005649	1.4834301
34.54923555927084	1.9689173	1.4031811
34.567590698290104	1.8986222	1.377905
34.58594675218336	1.872654	1.3684494
34.6043037215585	1.8566004	1.3625712
34.62266160702365	1.9757156	1.4056015
34.641020409187234	2.1590602	1.4693741
34.65938012865785	2.0821612	1.4429696
34.677740766044394	2.013736	1.4190617
34.69610232195598	2.1869595	1.4788373
34.714464797002016	2.0485098	1.4312617
34.73282819179208	1.8972993	1.3774248
34.751192506936064	1.8748709	1.3692592
34.76955774304408	1.8818702	1.3718127
34.7879239007265	1.9596392	1.3998711
34.80629098059391	1.9365432	1.3915974
34.824658983257194	1.7648051	1.3284596
34.843027909327446	1.7888038	1.3374617
34.86139775941603	1.9559557	1.3985549
34.879768534134534	2.079325	1.4419864
34.89814023409483	2.1508334	1.4665719
34.91651285990901	2.0092561	1.4174824
34.93488641218944	1.8817304	1.3717618
34.95326089154871	1.8913956	1.3752801
34.97163629859967	2.023235	1.4224046
34.99001263395542	2.2239974	1.4913073
35.00838989822934	2.038313	1.4276949
35.02676809203499	1.7883078	1.3372762
35.04514721598624	1.8166891	1.3478462
35.063527270697215	1.8267622	1.3515776
35.081908256782256	1.905851	1.3805256
35.10029017485597	1.8735874	1.3687905
35.11867302553321	1.7707864	1.330709
35.137056809429104	1.9156833	1.3840821
35.155441527159006	1.9995993	1.4140719
35.173827179338524	2.0045958	1.4158375
35.19221376658354	1.9105484	1.3822259
35.21060128951017	1.9066933	1.3808306
35.2289897487348	1.9655634	1.4019855
35.24737914487405	1.9151164	1.3838773
35.26576947854479	2.0152142	1.4195824
35.28416075036418	2.0961335	1.447803
35.30255296094958	1.9714396	1.4040797
35.32094611091867	1.8962202	1.3770331
35.33934020088932	2.0158598	1.4198098
35.35773523147969	2.0524585	1.4326404
35.3761312033082	2.1302047	1.4595221
35.394528116993506	1.9610145	1.4003623
35.41292597315452	1.8205371	1.3492728
35.431324772410434	1.9205376	1.3858346
35.449724515380666	2.0855794	1.4441535
35.46812520268491	2.1887846	1.4794542
35.486526834943106	2.116439	1.4547987
35.504929412775454	2.1999114	1.4832098
35.52333293680242	2.086087	1.4443293
35.54173740764471	2.0445802	1.4298881
35.560142825923286	2.4248064	1.557179
35.5785491922594	2.3106606	1.5200857
35.59695650727454	1.5856401	1.259222
35.61536477159042	1.2298433	1.108983
