0.008763373481513119	0.0	0.0
0.026290120649546365	0.0	0.0
0.043816868432600686	0.0	0.0
0.06134361724069026	0.0	0.0
0.07887036748382949	0.0	0.0
0.0963971195720331	0.0	0.0
0.11392387391531617	0.023102459	0.15199493
0.1314506309236943	0.09487448	0.30801702
0.1489773910071836	0.1542201	0.3927087
0.16650415457580078	0.1638714	0.4048103
0.18403092203956356	0.14926755	0.3863516
0.20155769380849	0.15034854	0.38774803
0.2190844702925996	0.15336855	0.39162296
0.2366112519019124	0.1643934	0.40545455
0.2541380390464497	0.1554467	0.3942673
0.27166483213623416	0.15608653	0.39507788
0.28919163158128947	0.18647105	0.43182293
0.3067184377916406	0.22178824	0.470944
0.324245251177314	0.2101966	0.458472
0.34177207214833777	0.17294174	0.41586265
0.3592989011147415	0.13065344	0.36146015
0.37682573848655654	0.1579496	0.39742872
0.39435258467381573	0.16740274	0.4091488
0.41187944008655414	0.1436731	0.37904236
0.42940630513480854	0.12707351	0.3564737
0.446933180228618	0.16409539	0.40508687
0.4644600657780234	0.16632113	0.40782487
0.48198696219306775	0.16703627	0.4087007
0.49951386988379676	0.16488206	0.40605673
0.5170407892602581	0.14888872	0.385861
0.5345677207325025	0.1432368	0.37846637
0.5520946647105822	0.1411146	0.37565222
0.5696216216045534	0.1458736	0.38193405
0.5871485918244737	0.21154621	0.45994154
0.6046755757804043	0.21152861	0.4599224
0.6222025738824094	0.20289546	0.45043918
0.6397295865405557	0.19415054	0.44062516
0.6572566141649129	0.20800108	0.45607135
0.6747836571655547	0.21041116	0.45870596
0.6923107159525568	0.19540793	0.44204968
0.7098377909359992	0.16087838	0.40109646
0.7273648825259653	0.15058738	0.3880559
0.7448919911325411	0.14406326	0.37955666
0.762419117165817	0.13170356	0.36290985
0.7799462610358868	0.12882666	0.3589243
0.7974734231528482	0.11022923	0.33200788
0.8150006039268024	0.14429568	0.3798627
0.8325278037678551	0.16652323	0.4080726
0.8500550230861152	0.20788866	0.45594808
0.8675822622916969	0.25652927	0.5064872
0.8851095217947171	0.2503958	0.50039566
0.9026368020052984	0.25920454	0.50912136
0.9201641033335665	0.20905748	0.45722803
0.9376914261896523	0.23528151	0.48505825
0.9552187709836915	0.24700733	0.4969983
0.9727461381258234	0.295095	0.5432265
0.990273528026193	0.28402475	0.53293973
1.0078009410949496	0.25813738	0.5080722
1.0253283777422473	0.2650209	0.5148018
1.0428558383782454	0.28307447	0.53204745
1.0603833234131086	0.30824438	0.5551976
1.0779108332570058	0.34784937	0.58978754
1.0954383683201119	0.36096793	0.60080606
1.112965929012607	0.39092323	0.62523854
1.1304935157446763	0.5032449	0.70939755
1.1480211289265108	0.538029	0.7335046
1.1655487689683062	1.4682641	1.2117195
1.1830764362802655	1.7656764	1.3287876
1.200604131272596	2.2054877	1.4850885
1.2181318543555117	2.484247	1.5761495
1.235659605939232	2.5390623	1.5934435
1.253187386433982	4.0855823	2.0212824
1.270715196249994	6.5976367	2.5685866
1.2882430357975057	12.024561	3.467645
1.3057709054867608	17.084179	4.1333013
1.3232988057280106	22.593231	4.753234
1.3408267369315112	27.370335	5.2316666
1.358354699507526	30.60352	5.532045
1.3758826938663256	34.75405	5.8952565
1.3934107204181858	36.742954	6.061597
1.410938779573391	37.039433	6.086003
1.4284668717422309	37.37108	6.1131887
1.4459949973350033	37.041004	6.086132
1.4635231567620117	37.32151	6.1091332
1.4810513504335687	36.811913	6.067282
1.4985795787599925	36.467495	6.038832
1.5161078421516088	35.746304	5.9788213
1.5336361410187505	34.99814	5.9159226
1.5511644757717598	34.614475	5.8834066
1.5686928468209842	35.722073	5.9767947
1.58622125457678	36.817722	6.067761
1.6037496994495108	38.08132	6.1710067
1.621278181849548	37.502735	6.1239476
1.6388067021872719	37.854324	6.152587
1.6563352608730693	37.202816	6.099411
1.673863858317336	36.64913	6.0538526
1.6913924949304753	36.058968	6.004912
1.7089211711228998	34.946373	5.9115458
1.7264498873050296	34.133575	5.842395
1.7439786438872935	33.21017	5.7628264
1.7615074412801288	32.042973	5.660651
1.779036279893981	31.087784	5.575642
1.796565160139305	30.222874	5.4975333
1.814094082426564	29.526505	5.43383
1.8316230471662298	28.890118	5.374953
1.849152054768784	27.999166	5.291424
1.8666811056447168	27.360254	5.230703
1.8842102002045273	26.672886	5.16458
1.901739338858724	26.386229	5.1367526
1.9192685220178245	25.668896	5.066448
1.9367977500923557	24.859446	4.9859247
1.9543270234928547	24.20482	4.9198394
1.971856342629867	23.659466	4.8640995
1.9893857079139496	23.416578	4.839068
2.006915119755667	22.95117	4.790738
2.0244445785655945	22.20087	4.71178
2.0419740847543175	21.594816	4.6470222
2.0595036387324317	21.118292	4.595464
2.0770332409105414	20.85376	4.5665917
2.094562891699263	20.603184	4.539073
2.1120925915092217	20.367987	4.5130906
2.129622340751053	19.85404	4.455787
2.1471521398354043	187.84273	13.705573
2.1646819891729323	444.08865	21.073412
2.182211889174303	440.32947	20.98403
2.1997418402501974	452.96658	21.283012
2.2172718428113023	432.80756	20.804028
2.234801897268317	320.74536	17.909365
2.2523320040319548	17.091396	4.1341743
2.269862163512935	16.976198	4.1202183
2.287392376121992	16.678516	4.083934
2.304922642269869	16.545218	4.067581
2.322452962367322	16.221363	4.0275755
2.3399833368251164	15.918049	3.989743
2.357513766054032	15.727708	3.9658175
2.3750442504648586	15.259291	3.9063141
2.3925747904683963	14.662017	3.8291013
2.410105386475459	14.293526	3.780678
2.4276360388968707	14.096123	3.7544804
2.445166748143469	14.164144	3.763528
2.4626975146261025	13.958577	3.7361178
2.4802283387556323	13.603214	3.6882536
2.4977592209429305	13.192864	3.6321983
2.5152901615988825	12.846164	3.5841546
2.5328211611343865	12.910543	3.5931244
2.5503522199603523	12.866532	3.586995
2.5678833384877024	12.7663965	3.5730095
2.5854145171273712	12.419555	3.524139
2.6029457562903064	11.947041	3.456449
2.620477056387469	11.717673	3.4231088
2.6380084178298326	11.525491	3.3949213
2.655539841028383	11.421353	3.3795493
2.673071326394119	11.371361	3.372145
2.6906028743380523	11.28871	3.3598676
2.708134485271211	11.1207075	3.3347726
2.7256661596046325	10.77547	3.282601
2.743197897749369	10.499795	3.2403388
2.760729700116486	10.38546	3.222648
2.778261567117063	10.386144	3.222754
2.795793499162193	10.349199	3.2170172
2.8133254966629817	10.255887	3.2024813
2.830857560030551	10.013065	3.1643429
2.8483896896760337	9.738178	3.1206055
2.865921886010578	9.599193	3.0982563
2.883454149445347	9.545287	3.0895448
2.9009864803915177	9.447227	3.0736341
2.91851887926028	9.276852	3.0457923
2.9360513464628384	9.097421	3.0161932
2.953583882410413	8.981683	2.9969456
2.9711164875142373	8.765449	2.96065
2.9886491621855606	8.56983	2.9274273
3.0061819068356455	8.358916	2.891179
3.023714721875769	8.352214	2.8900197
3.041247607717225	8.409273	2.8998747
3.0587805647713213	8.354816	2.89047
3.0763135934493806	8.262248	2.8744125
3.0938466941627407	8.246423	2.8716586
3.1113798673227544	8.192254	2.8622115
3.1289131133407904	8.023059	2.8325005
3.1464464326282315	7.936453	2.817171
3.1639798255964786	7.7321	2.7806654
3.1815132926569443	7.6140027	2.7593482
3.1990468342210603	7.492701	2.73728
3.216580450700272	7.4664083	2.732473
3.2341141425060416	7.3169866	2.704993
3.251647910049847	7.239377	2.690609
3.2691817537431813	7.170966	2.677866
3.286715673997555	7.134374	2.671025
3.3042496712244938	7.1024494	2.6650422
3.32178374583554	6.9486256	2.6360245
3.339317898242251	6.929926	2.6324751
3.3568521288562034	6.8956556	2.625958
3.3743864380889876	6.8931007	2.6254716
3.3919208263522127	6.791483	2.6060474
3.4094552940575023	6.73149	2.5945115
3.4269898416164972	6.6212	2.5731692
3.444524469440858	6.528715	2.555135
3.4620591779422587	6.5053515	2.550559
3.479593967532391	6.4845357	2.5464752
3.4971288386229658	6.5150332	2.5524564
3.5146637916257086	6.467649	2.5431573
3.5321988269523628	6.4690213	2.543427
3.5497339450146903	6.442332	2.5381749
3.5672691462244708	6.512774	2.5520136
3.5848044309934988	6.4616885	2.541985
3.60233979973359	6.3676677	2.523424
3.619875252856575	6.3181577	2.5135946
3.6374107907743034	6.225971	2.4951897
3.6549464138986427	6.1808076	2.486123
3.6724821226414788	6.1059165	2.4710152
3.690017917414714	6.2502522	2.5000505
3.7075537986302702	6.311094	2.5121891
3.7250897667000857	6.4484377	2.5393775
3.7426258220361235	6.652542	2.5792522
3.7601619650503553	7.024057	2.6502938
3.777698196154779	7.4059477	2.7213871
3.7952345157614067	8.215145	2.8662074
3.8127709242822716	8.91628	2.9860141
3.830307422129425	11.121081	3.3348286
3.847844009714936	30.0055	5.477728
3.8653806874508954	97.65138	9.881871
3.882917455749409	96.93469	9.845542
3.900454315022606	96.736	9.835446
3.917991265682631	41.27601	6.4246407
3.9355283081416506	10.884639	3.2991877
3.9530654428118495	8.707593	2.9508631
3.970602670105433	7.5044107	2.739418
3.9881399904346244	6.565427	2.5623088
4.005677404211669	6.494876	2.5485046
4.023214911848827	6.389139	2.5276747
4.0407525137583855	6.3302927	2.5160072
4.058290210352644	6.2052507	2.491034
4.075828002043927	6.243376	2.4986749
4.0933658892445814	6.227198	2.4954355
4.110903872366966	6.272598	2.5045154
4.128441951823468	6.145783	2.479069
4.145980128026488	6.0460815	2.458878
4.163518401388452	6.002411	2.449982
4.181056772321807	5.967996	2.4429483
4.1985952412390155	6.056939	2.4610848
4.216133808552567	6.172732	2.4844983
4.233672474674966	6.2507854	2.500157
4.251211240018741	6.430243	2.5357924
4.268750104996445	6.5585265	2.560962
4.286289070020643	7.4940424	2.7375247
4.303828135503928	9.148274	3.0246115
4.3213673018589125	29.480175	5.429565
4.3389065694982305	90.68391	9.52281
4.356445938834537	165.93417	12.881544
4.3739854102805085	171.7705	13.106124
4.391524984248844	172.62393	13.138642
4.409064661152262	136.7594	11.694417
4.426604441403504	97.0452	9.851152
4.444144325415337	76.12192	8.724788
4.461684313600543	21.952892	4.6853914
4.47922440637193	22.142246	4.705555
4.496764604142329	20.149336	4.488801
4.5143049073245916	18.390585	4.2884245
4.531845316331589	16.285446	4.035523
4.5493858315762195	13.531754	3.678553
4.566926453471405	11.215708	3.3489861
4.584467182430081	9.412574	3.0679917
4.602008018865218	8.32863	2.8859367
4.619548963189798	7.68371	2.7719505
4.637090015816834	7.155008	2.6748846
4.654631177159353	6.8273497	2.6129198
4.672172447630417	6.4932837	2.5481923
4.689713827643102	6.302937	2.510565
4.7072553176105085	6.07948	2.46566
4.724796917945764	5.952036	2.4396794
4.742338629062015	5.8456087	2.4177694
4.759880451372434	5.7845964	2.4051187
4.777422385290215	5.6669188	2.3805292
4.794964431228581	5.718698	2.3913798
4.812506589600768	5.7335167	2.3944762
4.830048860820047	5.7120013	2.3899794
4.847591245299709	5.650547	2.3770878
4.8651337434530655	5.601679	2.3667867
4.882676355693457	5.61895	2.3704324
4.900219082434242	5.6720214	2.3816006
4.917761924088813	5.594177	2.3652012
4.935304881070575	5.5696683	2.3600144
4.952847953792969	5.454616	2.335512
4.970391142669449	5.3530903	2.3136747
4.9879344481135055	5.351053	2.3132343
5.005477870538642	5.30845	2.3040075
5.023021410358394	5.3942823	2.3225594
5.040565067986324	5.538513	2.3534045
5.05810884383601	5.573969	2.3609254
5.075652738321066	5.5592375	2.3578036
5.09319675185512	5.4948416	2.3441079
5.110740884851836	5.346985	2.3123548
5.128285137724894	5.279996	2.2978241
5.145829510888007	5.2504263	2.291381
5.163374004754908	5.3287134	2.3084006
5.1809186197393595	5.3472233	2.3124063
5.198463356255145	5.300616	2.3023067
5.216008214716077	5.2816234	2.2981782
5.233553195535998	5.330219	2.3087265
5.251098299128764	5.3455615	2.312047
5.268643525908272	5.2530894	2.291962
5.286188876288432	5.229814	2.2868786
5.3037343506831895	5.201507	2.2806814
5.32127994950651	5.232327	2.2874281
5.3388256731723915	5.2561364	2.2926266
5.356371522094851	5.263356	2.2942007
5.373917496687938	5.317595	2.3059912
5.391463597365729	5.283477	2.2985816
5.40900982454232	5.287158	2.2993822
5.426556178631843	5.233544	2.287694
5.444102660048449	5.2964826	2.3014088
5.4616492692063225	5.3205295	2.3066273
5.479196006519669	5.310727	2.3045015
5.496742872402727	5.24779	2.2908056
5.514289867269756	5.223997	2.2856066
5.531836991535049	5.244535	2.2900949
5.549384245612924	5.22261	2.285303
5.566931629917724	5.2526894	2.2918746
5.584479144863822	5.2233276	2.28546
5.6020267908656205	5.1965947	2.279604
5.619574568337545	5.160586	2.2716923
5.637122477694054	5.1517906	2.2697556
5.654670519349629	5.173412	2.2745135
5.672218693718784	5.175844	2.2750483
5.689767001216059	5.12991	2.2649305
5.707315442256021	5.1455374	2.2683778
5.724864017253266	5.141201	2.2674217
5.7424127266224225	5.1778083	2.2754798
5.75996157077814	5.185825	2.2772405
5.777510550135105	5.220372	2.2848134
5.795059665108022	5.2098293	2.282505
5.812608916111639	5.204424	2.2813206
5.830158303560715	5.2791615	2.2976425
5.847707827870055	5.2308936	2.2871146
5.86525748945448	5.326492	2.3079193
5.8828072887288485	5.450935	2.3347237
5.900357226108044	5.575334	2.3612146
5.917907302006979	5.667887	2.3807325
5.9354575168406	6.2124352	2.4924757
5.9530078710238765	6.7462926	2.5973625
5.970558364971812	7.2239237	2.6877358
5.988108999099438	7.509847	2.74041
6.005659773821818	7.9830003	2.8254204
6.023210689554039	7.683157	2.7718508
6.040761746711227	8.021243	2.83218
6.058312945708531	7.4868965	2.7362194
6.075864286961132	7.1220593	2.6687186
6.093415770884244	6.5584207	2.5609415
6.1109673978931065	5.9527097	2.4398177
6.128519168402993	5.3539844	2.3138678
6.146071082829204	5.235139	2.2880425
6.163623141587075	5.153112	2.2700467
6.181175345091969	5.12579	2.2640207
6.198727693759281	5.0790625	2.2536776
6.216280188004435	5.0390725	2.244788
6.233832828242885	5.0165315	2.2397616
6.251385614890126	5.0503736	2.2473037
6.268938548361669	5.0658436	2.250743
6.286491629073067	5.0409355	2.2452028
6.304044857439898	5.0222726	2.2410429
6.321598233877777	4.9770374	2.2309275
6.339151758802344	4.9265003	2.219572
6.356705432629277	4.925943	2.2194464
6.37425925577428	4.915903	2.2171836
6.391813228653095	4.901792	2.213999
6.409367351681486	4.8886175	2.211022
6.426921625275259	4.860064	2.2045553
6.44447604985025	4.855497	2.203519
6.46203062582232	4.882083	2.2095437
6.47958535360737	4.90219	2.214089
6.497140233621328	4.9535837	2.2256649
6.514695266280161	4.9832416	2.2323174
6.532250451999859	5.0235243	2.241322
6.549805791196454	5.0123987	2.2388387
6.567361284286002	5.0286665	2.2424688
6.584916931684597	5.0835943	2.2546828
6.602472733808367	5.058251	2.2490556
6.6200286910734665	5.0317492	2.2431562
6.637584803896092	4.9013615	2.2139018
6.655141072692462	4.9120555	2.2163157
6.672697497878842	4.88728	2.2107193
6.690254079871514	4.9214544	2.218435
6.707810819086808	4.9473715	2.2242687
6.725367715941078	4.951992	2.2253072
6.742924770850719	4.9667406	2.2286186
6.760481984232151	4.9094963	2.2157383
6.778039356501836	4.840492	2.2001119
6.795596888076266	4.9140153	2.2167578
6.813154579371963	5.0015855	2.2364225
6.830712430805492	5.0081396	2.2378874
6.84827044279344	5.0309567	2.2429795
6.865828615752445	4.9693084	2.2291946
6.883386950099159	4.9848075	2.2326682
6.900945446250287	4.9406505	2.2227573
6.918504104622553	4.9067845	2.2151263
6.936062925632727	4.877484	2.2085025
6.953621909697607	4.889409	2.2112007
6.971181057234028	4.9503336	2.2249346
6.988740368658859	5.1011195	2.258566
7.006299844389007	5.215455	2.2837372
7.023859484841407	5.2598424	2.2934346
7.041419290433036	5.327803	2.3082035
7.058979261580902	5.4645	2.337627
7.0765393987020495	5.673206	2.3818493
7.094099702213559	6.0909934	2.4679937
7.111660172532549	6.4684114	2.5433073
7.129220810076164	6.829016	2.6132386
7.146781615261595	7.415797	2.723196
7.16434258850606	7.5887003	2.7547596
7.181903730226821	8.081616	2.8428185
7.1994650408411704	8.183647	2.8607075
7.217026520766437	8.341361	2.8881414
7.234588170419983	8.564849	2.9265764
7.252149990219215	8.5728	2.9279344
7.269711980581568	8.473324	2.9108975
7.2872741419245175	8.192338	2.862226
7.304836474665574	7.7114873	2.7769566
7.322398979222286	7.4264708	2.725155
7.339961656012233	7.221232	2.687235
7.357524505453039	6.942562	2.634874
7.375087527962357	6.643244	2.577449
7.392650723957886	6.3556676	2.521045
7.410214093857353	6.0044875	2.4504056
7.427777638078528	5.762261	2.400471
7.445341357039213	5.537133	2.3531115
7.4629052511572525	5.3278103	2.308205
7.480469320850524	5.200496	2.2804596
7.498033566536948	5.227132	2.286292
7.5155979886344735	5.1687665	2.273492
7.5331625875610975	5.1596904	2.271495
7.550727363734844	5.104438	2.2593002
7.568292317573788	5.1275783	2.2644157
7.585857449496025	5.09648	2.2575386
7.603422759919705	5.116417	2.2619498
7.620988249263007	5.1310325	2.2651782
7.638553917944147	5.168637	2.2734637
7.656119766381391	5.1817775	2.2763517
7.673685794993023	5.2237105	2.285544
7.691252004197388	5.2178254	2.284256
7.70881839441285	5.218227	2.284344
7.726384966057826	5.197798	2.279868
7.743951719550762	5.192102	2.2786183
7.761518655310149	5.140511	2.2672696
7.779085773754511	5.1860867	2.2772982
7.796653075302419	5.2110887	2.282781
7.814220560372475	5.217382	2.284159
7.831788229383323	5.2532597	2.291999
7.8493560827536495	5.275739	2.2968976
7.866924120902174	5.2998347	2.302137
7.884492344247663	5.2790704	2.2976227
7.9020607532089135	5.223296	2.285453
7.919629348204771	5.2361054	2.2882538
7.937198129654115	5.293512	2.3007634
7.954767097975865	5.3111014	2.3045826
7.972336253588986	5.3329067	2.3093088
7.989905596912472	5.3449645	2.311918
8.007475128365371	5.4595513	2.3365684
8.025044848366756	5.5369334	2.3530688
8.042614757335754	5.6518545	2.377363
8.060184855691523	5.690324	2.3854399
8.07775514385327	5.744366	2.3967407
8.095325622240228	5.7924895	2.406759
8.112896291271687	5.778759	2.403905
8.130467151366968	5.853299	2.4193592
8.148038202945436	5.878586	2.4245796
8.165609446426497	5.87948	2.424764
8.183180882229594	5.928834	2.4349196
8.200752510774217	5.964864	2.442307
8.218324332479893	6.0367103	2.456972
8.235896347766193	6.0346026	2.4565427
8.253468557052724	5.989593	2.4473646
8.27104096075914	5.931187	2.4354029
8.288613559305137	5.9519725	2.4396665
8.306186353110448	5.9913263	2.4477186
8.32375934259485	6.09004	2.4678006
8.341332528178162	6.1475906	2.4794335
8.358905910280246	6.2487464	2.4997492
8.376479489321003	6.27678	2.5053504
8.394053265720377	6.3351817	2.5169787
8.411627239898356	6.2973714	2.5094564
8.42920141227497	6.257839	2.5015674
8.44677578327029	6.186577	2.487283
8.464350353304427	6.103	2.4704251
8.48192512279754	6.097274	2.469266
8.499500092169827	6.075294	2.464811
8.51707526184153	6.113803	2.4726105
8.534650632232934	6.151593	2.4802406
8.552226203764365	6.16967	2.483882
8.569801976856192	6.120684	2.4740016
8.587377951928834	6.1156483	2.4729836
8.60495412940274	6.1034904	2.4705243
8.622530509698416	6.1455193	2.4790158
8.6401070932364	6.3389235	2.517722
8.657683880437283	6.528063	2.5550075
8.675260871721695	6.780306	2.603902
8.692838067510303	6.9100533	2.628698
8.710415468223834	7.017211	2.6490018
8.727993074283043	7.147635	2.673506
8.745570886108737	7.0994825	2.6644855
8.763148904121765	7.1011677	2.6648016
8.78072712874302	7.0759883	2.660073
8.798305560393441	7.393949	2.7191818
8.815884199494006	7.607467	2.7581637
8.833463046465745	7.8391733	2.7998524
8.851042101729728	7.89641	2.8100553
8.86862136570707	8.120795	2.849701
8.886200838818924	8.256524	2.873417
8.903780521486505	8.377769	2.8944378
8.921360414131055	8.5565195	2.925153
8.938940517173874	8.616142	2.9353266
8.956520831036297	8.752756	2.9585056
8.97410135613971	9.030572	3.005091
8.99168209290554	9.112529	3.0186965
9.009263041755265	9.371267	3.0612526
9.026844203110405	9.600701	3.0984998
9.044425577392525	9.8119335	3.1324005
9.062007165023239	9.931297	3.151396
9.079588966424197	10.268035	3.2043774
9.097170982017108	10.426588	3.2290227
9.11475321222372	11.400009	3.37639
9.132335657465825	12.162534	3.4874825
9.149918318165264	12.202082	3.4931479
9.167501194743924	12.701684	3.5639422
9.18508428762374	12.315691	3.509372
9.202667597226693	12.217133	3.4953015
9.220251123974803	11.831665	3.4397187
9.237834868290143	11.69768	3.4201872
9.255418830594836	11.521214	3.3942914
9.273003011311046	11.171961	3.3424482
9.290587410860985	10.931909	3.3063438
9.308172029666911	10.274369	3.2053657
9.32575686815113	9.934365	3.151883
9.343341926735997	8.728348	2.9543777
9.360927205843916	8.512016	2.917536
9.378512705897327	8.286163	2.8785696
9.396098427318728	8.097641	2.8456354
9.413684370530664	7.9519663	2.8199232
9.431270535955722	7.849468	2.8016903
9.448856924016539	7.7766147	2.7886581
9.466443535135806	7.7629333	2.786204
9.484030369736251	7.798363	2.7925549
9.501617428240658	7.844034	2.8007202
9.519204711071852	7.885808	2.8081682
9.536792218652714	7.8782864	2.8068285
9.55437995140617	7.836618	2.799396
9.571967909755191	7.817425	2.795966
9.589556094122802	7.8147216	2.7954824
9.60714450493207	7.841238	2.800221
9.624733142606116	7.8553705	2.8027434
9.642322007568108	7.8785667	2.8068786
9.659911100241267	7.9467053	2.8189902
9.677500421048851	7.973946	2.8238177
9.695089970414175	7.978443	2.8246138
9.712679748760609	7.9955134	2.8276339
9.730269756511557	8.018761	2.8317416
9.747859994090492	8.122519	2.8500032
9.765450461920915	8.18307	2.8606067
9.78304116042639	8.219751	2.8670108
9.800632090030527	8.196209	2.8629022
9.81822325115699	8.175742	2.8593254
9.835814644229481	8.149313	2.8547
9.853406269671762	8.192739	2.862296
9.870998127907646	8.286085	2.878556
9.888590219360985	8.325389	2.885375
9.906182544455698	8.321417	2.8846867
9.923775103615734	8.2927685	2.8797166
9.941367897265108	8.395026	2.897417
9.958960925827878	8.38824	2.8962457
9.97655418972816	8.336293	2.887264
9.994147689390106	8.261007	2.8741968
10.011741425237934	8.229924	2.8687844
10.029335397695904	8.306524	2.8821042
10.04692960718833	8.300363	2.881035
10.06452405413958	8.288185	2.8789208
10.082118738974064	8.259599	2.8739517
10.099713662116246	8.26854	2.8755069
10.117308823990651	8.253818	2.8729458
10.134904225021844	8.243411	2.871134
10.152499865634445	8.136299	2.8524199
10.170095746253125	8.061903	2.839349
10.18769186730261	8.033493	2.8343418
10.205288229207675	8.136767	2.8525019
10.222884832393145	8.176868	2.8595223
10.2404816772839	8.169347	2.858207
10.258078764304868	8.1475935	2.854399
10.275676093881035	8.112094	2.8481739
10.293273666437438	8.079344	2.8424187
10.310871482399158	8.143012	2.8535964
10.32846954219134	8.208172	2.8649907
10.346067846239173	8.244735	2.8713646
10.363666394967908	8.132645	2.8517792
10.38126518880283	8.071079	2.8409646
10.398864228169298	8.130735	2.8514445
10.416463513492713	8.223694	2.8676984
10.434063045198531	8.187198	2.861328
10.451662823712262	8.147874	2.854448
10.469262849459467	8.21519	2.8662152
10.486863122865758	8.070291	2.8408258
10.504463644356806	8.014825	2.8310466
10.522064414358338	7.814617	2.7954636
10.539665433296118	7.71458	2.7775133
10.557266701595987	7.7368817	2.7815251
10.574868219683818	7.7660728	2.7867675
10.592469987985552	7.747335	2.7834034
10.610072006927185	7.6447873	2.764921
10.627674276934751	7.4703994	2.7332032
10.64527679843435	7.3640695	2.713682
10.662879571852143	7.2639894	2.695179
10.680482597614331	7.2296343	2.688798
10.698085876147173	7.1285377	2.6699321
10.715689407876988	7.0230055	2.6500955
10.733293193230146	6.8525453	2.6177366
10.750897232633072	6.7109933	2.5905585
10.76850152651225	6.601194	2.569279
10.786106075294207	6.560929	2.561431
10.803710879405534	6.552309	2.559748
10.821315939272877	6.485701	2.546704
10.83892125532294	6.341222	2.5181782
10.856526827982472	6.159523	2.4818387
10.874132657678285	6.1275086	2.4753804
10.891738744837243	6.089654	2.4677224
10.909345089886271	6.0798383	2.4657328
10.926951693252343	5.99702	2.4488814
10.944558555362494	5.988315	2.4471035
10.96216567664381	5.954809	2.4402478
10.979773057523436	5.9057755	2.43018
10.997380698428573	5.8511515	2.4189153
11.014988599786477	5.7564793	2.3992665
11.032596762024461	5.660258	2.3791296
11.050205185569892	5.547682	2.3553517
11.067813870850198	5.466414	2.3380363
11.085422818292859	5.4191403	2.3279047
11.10303202832541	5.376878	2.3188095
11.120641501375454	5.3750815	2.3184223
11.138251237870636	5.355451	2.3141847
11.155861238238671	5.3049946	2.3032575
11.173471502907317	5.2428074	2.2897177
11.191082032304402	5.1534986	2.2701318
11.208692826857805	5.0659976	2.250777
11.226303886995465	4.974577	2.230376
11.243915213145371	4.921022	2.2183375
11.261526805735578	4.908077	2.2154179
11.279138665194196	4.877146	2.208426
11.296750791949393	4.860201	2.2045863
11.314363186429393	4.7565894	2.1809607
11.331975849062479	4.6916385	2.166019
11.34958878027699	4.631245	2.1520329
11.36720198050133	4.578653	2.1397786
11.384815450163948	4.5649285	2.1365693
11.402429189693366	4.4884276	2.118591
11.420043199518153	4.457509	2.1112814
11.437657480066942	63.414513	7.963323
11.455272031768422	85.17935	9.229266
11.472886855051353	107.63332	10.374648
11.490501950344528	99.27191	9.963529
11.508117318076819	84.59282	9.197435
11.52573295867715	45.90945	6.7756515
11.543348872574514	4.176389	2.0436215
11.560965060197946	4.1178412	2.0292466
11.57858152197655	4.079637	2.0198112
11.59619825833949	4.0546975	2.013628
11.613815269715985	4.005652	2.0014124
11.631432556535323	38.480076	6.203231
11.649050119226837	83.00357	9.110629
11.666667958219929	93.36109	9.662354
11.68428607394406	107.60013	10.373048
11.701904466828756	82.47599	9.081629
11.719523137303586	65.359245	8.084506
11.737142085798196	4.5922623	2.1429565
11.754761312742286	3.695897	1.9224716
11.772380818565619	3.5980139	1.8968431
11.790000603698015	3.5831761	1.8929279
11.80762066856935	3.5403728	1.8815879
11.825241013609572	3.5448575	1.8827792
11.842861639248683	3.5392363	1.8812858
11.860482545916748	3.537878	1.8809248
11.878103734043883	3.5252967	1.8775773
11.895725204060282	3.4788837	1.8651766
11.91334695639619	3.4129422	1.847415
11.930968991481919	3.352446	1.8309686
11.948591309747824	3.342246	1.828181
11.966213911624347	3.3165781	1.8211474
11.98383679754198	3.3283587	1.824379
12.001459967931268	3.327035	1.8240162
12.019083423222835	3.306269	1.8183149
12.036707163847352	3.2928388	1.8146181
12.05433119023556	3.249511	1.80264
12.071955502818259	3.2217503	1.7949234
12.089580102026313	3.197885	1.7882631
12.107204988290643	3.1713035	1.7808154
12.12483016204224	3.1249905	1.7677642
12.142455623712152	3.1343923	1.7704215
12.16008137373149	3.1497943	1.774766
12.177707412531431	3.1314583	1.7695926
12.19533374054321	3.0923383	1.7585046
12.212960358198126	3.058069	1.7487335
12.230587265927545	3.0329463	1.7415357
12.248214464162889	3.0171564	1.7369964
12.265841953335649	3.0369012	1.7426708
12.283469733877375	3.0459008	1.7452509
12.301097806219685	3.046963	1.7455552
12.31872617079425	3.0017505	1.7325561
12.336354828032825	2.9714842	1.7237993
12.353983778367205	2.918843	1.7084622
12.371613022229262	2.9008782	1.7031964
12.389242560050928	2.8708575	1.6943605
12.406872392264201	2.8778934	1.6964356
12.424502519301143	2.8761358	1.6959174
12.442132941593874	2.9073148	1.7050849
12.459763659574586	2.930396	1.7118399
12.477394673675532	2.8882718	1.6994916
12.49502598432903	2.8464553	1.6871442
12.51265759196746	2.796139	1.672166
12.530289497023267	2.7663856	1.6632454
12.547921699928967	2.7710218	1.6646386
12.565554201117134	2.7769308	1.6664126
12.583187001020404	2.7748775	1.6657964
12.600820100071486	2.7261758	1.6511135
12.618453498703152	2.7231472	1.6501961
12.636087197348235	2.74708	1.6574317
12.65372119643964	2.8051398	1.6748551
12.671355496410326	2.827641	1.6815591
12.68899009769333	2.8313613	1.682665
12.706625000721749	2.7931607	1.6712751
12.724260205928752	2.8273659	1.6814773
12.741895713747551	2.876498	1.6960242
12.759531524611454	2.946129	1.7164291
12.777167638953818	2.9847643	1.7276471
12.794804057208072	3.0077255	1.7342795
12.812440779807702	3.0257313	1.739463
12.830077807186271	3.1580772	1.777098
12.847715139777405	3.2045102	1.7901145
12.865352778014795	3.4125252	1.8473021
12.882990722332197	3.5064323	1.872547
12.90062897316344	3.600895	1.8976024
12.918267530942412	3.666576	1.9148306
12.935906396103071	3.5540257	1.8852124
12.953545569079449	3.6754372	1.917143
12.971185050305628	3.4902678	1.8682258
12.988824840215775	3.5457702	1.8830216
13.006464939244115	3.6204538	1.9027491
13.024105347824943	3.5029693	1.8716221
13.041746066392617	3.5635986	1.8877497
13.05938709538157	3.3242438	1.8232509
13.077028435226296	3.3107119	1.8195362
13.094670086361363	3.2275631	1.796542
13.112312049221401	3.1491022	1.774571
13.129954324241112	3.0469313	1.7455461
13.147596911855258	2.8770778	1.6961951
13.165239812498685	2.8887217	1.699624
13.182883026606293	2.8026135	1.6741008
13.200526554613058	2.6948822	1.6416097
13.218170396954017	2.6570587	1.6300486
13.235814554064284	2.6309166	1.62201
13.253459026379034	2.6848662	1.6385561
13.271103814333523	2.6889932	1.639815
13.288748918363058	2.695528	1.6418064
13.306394338903031	2.7103274	1.6463072
13.32404007638889	2.6733584	1.6350408
13.341686131256164	2.6947336	1.6415644
13.359332503940449	2.6349468	1.6232519
13.376979194877402	2.6062975	1.6144031
13.394626204502751	2.6324039	1.6224685
13.412273533252307	2.6723936	1.6347457
13.429921181561937	2.6523411	1.628601
13.447569149867581	2.6668365	1.6330452
13.465217438605247	2.69651	1.6421053
13.482866048211022	2.70338	1.6441959
13.500514979121052	2.7235951	1.6503319
13.518164231771568	2.6830673	1.6380072
13.535813806598844	2.6703131	1.6341093
13.553463704039254	2.6557865	1.6296585
13.571113924529229	2.690015	1.6401266
13.588764468505275	2.7184782	1.6487808
13.606415336403956	2.7437458	1.6564256
13.624066528661917	2.773386	1.6653486
13.641718045715882	2.822341	1.6799824
13.659369888002635	2.8817298	1.6975659
13.67702205595903	2.8989153	1.7026201
13.694674550021993	2.9548745	1.7189748
13.712327370628532	3.0296037	1.7405757
13.729980518215713	3.1257493	1.7679789
13.747633993220681	3.1778975	1.7826658
13.765287796080647	3.2315047	1.7976387
13.7829419272329	3.3040352	1.8177005
13.800596387114801	3.3346882	1.8261129
13.818251176163775	3.3193772	1.8219157
13.835906294817324	3.3070257	1.8185229
13.853561743513023	3.3261502	1.8237736
13.871217522688525	3.357081	1.8322339
13.888873632781538	3.4054224	1.8453786
13.906530074229858	3.4601648	1.8601518
13.92418684747135	3.5133922	1.8744045
13.941843952943948	3.5017414	1.871294
13.959501391085665	3.4524934	1.8580886
13.977159162334578	3.388538	1.8407981
13.994817267128846	3.3192434	1.8218791
14.012475705906693	3.2651541	1.8069737
14.030134479106424	3.2056503	1.790433
14.047793587166414	3.127854	1.768574
14.065453030525108	3.0489657	1.7461288
14.083112809621026	3.012397	1.7356259
14.100772924892766	2.970426	1.7234924
14.118433376778997	2.9120278	1.7064664
14.136094165718458	2.8253846	1.680888
14.153755292149969	2.7784004	1.6668534
14.171416756512416	2.6982512	1.6426355
14.189078559244768	2.617787	1.6179576
14.20674070078606	2.5348244	1.5921131
14.224403181575408	2.5339656	1.5918435
14.242066002051999	2.5366461	1.5926852
14.259729162655093	2.490798	1.5782262
14.277392663824022	2.4352746	1.5605366
14.295056505998208	2.395482	1.5477345
14.312720689617128	2.3730488	1.5404704
14.330385215120348	2.3803358	1.5428337
14.348050082947497	2.389031	1.545649
14.3657152935383	2.4055865	1.5509953
14.383380847332528	2.4259198	1.5575365
14.401046744770051	2.4352667	1.5605341
14.418712986290798	2.4387727	1.5616571
14.436379572334793	2.4055738	1.5509913
14.454046503342123	2.4234815	1.5567535
14.471713779752946	2.4140074	1.5537076
14.489381402007504	2.3500636	1.5329916
14.507049370546113	2.337364	1.528844
14.524717685809168	2.3323584	1.5272061
14.542386348237134	2.3594742	1.536058
14.560055358270553	2.3710048	1.5398067
14.577724716350051	2.4320328	1.5594976
14.595394422916325	2.460623	1.5686374
14.61306447841015	2.4954355	1.5796947
14.63073488327237	2.4683836	1.571109
14.648405637943917	2.4921267	1.5786471
14.6660767428658	2.468576	1.5711702
14.683748198479094	2.47825	1.5742458
14.701420005224954	2.5111392	1.5846574
14.719092163544628	2.5956028	1.6110874
14.73676467387942	2.6448042	1.6262854
14.754437536670727	2.6650064	1.6324847
14.772110752360014	2.6737843	1.635171
14.78978432138882	2.703393	1.6441998
14.807458244198777	2.7071002	1.6453267
14.82513252123159	2.642138	1.6254655
14.842807152929028	2.6302793	1.6218135
14.860482139732962	2.6020045	1.613073
14.87815748208531	2.6219475	1.6192429
14.8958331804281	2.6203113	1.6187376
14.91350923520342	2.661905	1.6315346
14.931185646853438	2.702054	1.6437926
14.948862415820408	2.6946335	1.6415339
14.966539542546656	2.6897078	1.6400329
14.98421702747459	2.6472468	1.6270362
15.001894871046696	2.646379	1.6267695
15.019573073705542	2.6331122	1.6226867
15.037251635893766	2.6296644	1.621624
15.054930558054092	2.6723275	1.6347256
15.072609840629323	2.7401571	1.655342
15.090289484062351	2.859297	1.6909456
15.107969488796124	3.1517398	1.775314
15.125649855273691	3.5874138	1.8940469
15.14333058393817	4.113946	2.0282865
15.161011675232768	5.07218	2.25215
15.17869312960076	6.4123545	2.5322628
15.196374947485506	8.167736	2.8579252
15.214057129330447	11.111125	3.3333354
15.231739675579114	15.6308775	3.9535904
15.249422586675102	20.586567	4.5372424
15.267105863062092	23.69167	4.8674088
15.284789505183847	24.03071	4.902113
15.302473513484218	21.802397	4.669304
15.320157888407127	18.124863	4.2573304
15.337842630396578	14.022555	3.7446702
15.355527739896656	10.97745	3.3132236
15.37321321735153	8.647505	2.940664
15.39089906320545	6.406009	2.5310094
15.408585277902748	4.7898154	2.1885648
15.42627186188783	3.72103	1.9289972
15.443958815605198	3.195004	1.7874575
15.461646139499424	2.9419506	1.7152115
15.479333834015168	2.8031247	1.6742535
15.497021899597165	2.7289608	1.6519567
15.514710336690234	2.6371932	1.6239437
15.53239914573928	2.5501115	1.5969069
15.550088327189297	2.492472	1.5787565
15.567777881485336	2.4978771	1.5804673
15.58546780907256	2.4936056	1.5791155
15.6031581103962	2.463613	1.5695901
15.620848785901568	2.4497328	1.5651622
15.638539836034063	2.4596431	1.5683249
15.656231261239173	2.4924967	1.5787643
15.673923061962451	2.4997847	1.5810708
15.691615238649552	2.5086792	1.583881
15.709307791746202	2.4387262	1.5616422
15.727000721698221	2.4135735	1.553568
15.744694028951498	2.3752675	1.5411903
15.76238771395202	2.374946	1.5410861
15.780081777145844	2.341531	1.5302062
15.797776218979125	2.3637414	1.5374464
15.815471039898094	2.3862264	1.5447415
15.833166240349064	2.418641	1.5551981
15.850861820778437	2.3947718	1.547505
15.868557781632699	2.3552742	1.5346903
15.886254123358412	2.3410573	1.5300514
15.903950846402232	2.335175	1.5281279
15.921647951210897	2.341536	1.5302079
15.939345438231225	2.3350928	1.5281011
15.957043307910133	2.3746223	1.5409809
15.974741560694602	2.3889148	1.5456115
15.992440197031714	2.3643374	1.5376402
16.01013921736862	2.3883073	1.5454149
16.02783862215259	2.3833275	1.543803
16.045538411830933	2.3989553	1.5488561
16.06323858685107	2.3645267	1.5377017
16.080939147660512	2.3387837	1.5293082
16.09864009470684	2.3280087	1.5257813
16.11634142843774	2.3463762	1.5317886
16.134043149300954	2.3767881	1.5416836
16.15174525774433	2.3907003	1.546189
16.169447754215817	2.3913882	1.5464114
16.18715063916342	2.3912148	1.5463554
16.204853913035244	2.420591	1.5558249
16.222557576279478	2.4781435	1.574212
16.240261629344403	22.464636	4.7396874
16.257966072678386	42.987076	6.556453
16.275670906729868	38.080452	6.170936
16.293376131947387	2.4978988	1.5804743
16.31108174877957	2.496851	1.5801427
16.328787757675133	2.4953403	1.5796646
16.34649415908287	2.492836	1.5788717
16.364200953451657	2.5146878	1.5857767
16.38190814123048	2.5636952	1.6011543
16.39961572286839	2.6274226	1.6209326
16.41732369881455	2.662047	1.6315781
16.43503206951817	2.658062	1.6303564
16.45274083542859	2.684491	1.6384416
16.47044999699522	2.7497053	1.6582235
16.488159554667558	2.8177624	1.6786191
16.505869508895184	2.8484604	1.6877383
16.523579860127786	2.8891222	1.6997418
16.541290608815117	2.9341097	1.7129244
16.559001755407035	3.010671	1.7351285
16.57671330035348	3.0216982	1.7383033
16.59442524410448	3.0308652	1.7409381
16.61213758711015	3.0993917	1.7605089
16.629850329820705	3.1999123	1.7888299
16.647563472686436	3.3279808	1.8242754
16.665277016157724	3.3919327	1.8417201
16.682990960685053	3.42636	1.8510429
16.70070530671898	3.4303505	1.8521205
16.718420054710155	3.464264	1.8612533
16.736135205109335	3.562521	1.8874642
16.753850758367335	3.6566193	1.912229
16.771566714935087	3.7111573	1.9264364
16.789283075263597	3.7219608	1.9292384
16.80699983980398	3.7024126	1.9241655
16.82471700900741	3.7257502	1.9302202
16.84243458332518	3.7619255	1.9395684
16.860152563208665	3.8418477	1.9600632
16.87787094910932	3.9039044	1.9758301
16.89558974147871	4.006464	2.0016153
16.913308940768466	4.0643435	2.0160217
16.931028547430333	4.119223	2.029587
16.94874856191613	4.2248983	2.0554557
16.966468984677785	4.3381033	2.0828114
16.98418981616729	4.411776	2.1004229
17.00191105683676	4.394414	2.0962858
17.019632707138374	4.4113646	2.1003249
17.03735476752442	4.4527335	2.11015
17.05507723844728	4.5175567	2.1254544
17.072800120359403	4.5237556	2.126912
17.090523413713353	4.542472	2.1313076
17.108247118961785	4.590598	2.142568
17.125971236557437	4.6537204	2.1572483
17.143695766953133	4.6794505	2.1632037
17.161420710601806	4.620998	2.1496506
17.179146067956477	4.6038585	2.1456604
17.19687183947025	4.600835	2.1449556
17.21459802559634	4.648919	2.1561353
17.232324626788028	4.6989417	2.1677043
17.25005164349871	4.69431	2.1666358
17.267779076181863	4.6836247	2.1641684
17.285506925291074	4.6223283	2.14996
17.30323519127999	4.5935435	2.1432555
17.320963874602384	4.516465	2.1251976
17.33869297571211	4.4803276	2.1166785
17.356422495063114	4.479775	2.1165478
17.37415243310944	4.510545	2.1238043
17.391882790305218	4.475215	2.1154704
17.40961356710468	4.4304132	2.1048546
17.42734476396215	4.4536953	2.110378
17.445076381332044	4.474413	2.1152809
17.462808419668868	4.592125	2.1429243
17.48054087942723	4.6581583	2.1582768
17.498273761061835	4.972954	2.2300122
17.51600706502747	5.439405	2.3322532
17.533740791779024	6.1940722	2.4887893
17.551474941771485	7.6489944	2.7656815
17.56920951545993	8.739425	2.9562519
17.586944513299528	10.849905	3.2939193
17.60467993574556	12.335378	3.5121756
17.622415783253373	13.789709	3.7134497
17.64015205627843	15.057474	3.8803961
17.657888755276293	16.039183	4.0048947
17.675625880702604	16.543173	4.06733
17.69336343301311	16.27397	4.034101
17.71110141266366	15.582598	3.94748
17.728839820110178	14.775474	3.8438878
17.746578655808705	13.947083	3.7345793
17.764317920215372	12.65988	3.5580726
17.7820576137864	11.324876	3.3652453
17.79979773697811	9.398621	3.065717
17.81753829024692	7.5735745	2.7520127
17.835279274049356	5.877453	2.424346
17.85302068884201	4.8561654	2.203671
17.870762535081607	4.215753	2.0532298
17.888504813224934	3.933731	1.9833636
17.90624752372891	3.7517662	1.9369477
17.923990667050536	3.5903995	1.894835
17.941734243646895	3.5002317	1.8708906
17.959478253975185	3.4599466	1.8600932
17.9772226984927	3.4259965	1.8509448
17.994967577656833	3.38284	1.8392498
18.01271289192506	3.355559	1.8318186
18.030458641754965	3.349232	1.8300906
18.04820482760425	3.3486218	1.829924
18.06595144993067	3.3281882	1.8243322
18.083698509192125	3.272933	1.809125
18.101446005846576	3.2251709	1.795876
18.119193940352105	3.183943	1.7843606
18.136942313166887	3.1626902	1.7783954
18.1546911247492	3.1634188	1.7786002
18.1724403755574	3.1589186	1.7773347
18.19019006604997	3.1644905	1.7789015
18.207940196685467	3.137212	1.7712177
18.225690767922575	3.127042	1.7683444
18.243441780220046	3.078404	1.754538
18.261193234036764	3.0724773	1.7528484
18.278945129831676	3.062475	1.7499928
18.29669746806386	3.044657	1.7448945
18.314450249192483	3.0000641	1.7320694
18.3322034736768	2.9719365	1.7239305
18.349957141976184	2.9844658	1.7275606
18.3677112545501	3.0207016	1.7380166
18.385465811858108	3.046441	1.7454057
18.403220814359884	3.033475	1.7416874
18.420976262515172	3.0387099	1.7431896
18.43873215678387	3.046211	1.7453398
18.456488497625923	3.0902393	1.7579076
18.474245285501407	3.1645737	1.7789248
18.492002520870486	3.2526016	1.8034971
18.50976020419343	3.3264353	1.8238518
18.527518335930615	3.6810892	1.9186164
18.545276916542516	4.267743	2.0658517
18.563035946489688	4.46145	2.1122146
18.580795426232832	4.8836446	2.209897
18.598555356232698	4.785459	2.1875691
18.616315736950185	5.0960007	2.2574322
18.63407656884626	4.704944	2.1690884
18.65183785238201	4.9074044	2.2152662
18.669599588018617	4.6847687	2.1644328
18.68736177621737	4.7000737	2.1679654
18.705124417439652	4.686524	2.164838
18.72288751214696	4.4962497	2.1204362
18.740651060800886	4.5597715	2.1353621
18.758415063863115	4.283083	2.069561
18.77617952179546	4.458379	2.1114874
18.793944435059814	4.268673	2.0660768
18.811709804118184	4.275111	2.067634
18.829475629432675	4.2336392	2.057581
18.8472419114655	3.9840467	1.9960077
18.86500865067897	4.1014333	2.0251997
18.88277584753551	3.82844	1.95664
18.90054350249763	3.886632	1.9714543
18.918311616027957	3.5408077	1.8817034
18.936080188589226	3.3878374	1.8406079
18.953849220644265	3.0531476	1.7473258
18.971618712656007	2.839362	1.6850406
18.9893886650875	2.796637	1.6723149
19.007159078401887	7.987285	2.8261786
19.024929953062408	32.89804	5.7356815
19.042701289532435	32.818977	5.728785
19.060473088275405	25.397427	5.039586
19.07824534975489	2.6469247	1.6269373
19.096018074434568	2.605321	1.6141007
19.113791262778197	2.5712674	1.6035172
19.13156491524966	2.5793204	1.6060263
19.149339032312945	2.5604224	1.600132
19.167113614432136	2.5071495	1.5833981
19.184888662071433	2.4868608	1.5769783
19.202664175695123	2.4858215	1.5766488
19.220440155767623	2.485809	1.5766449
19.238216602753447	2.4880195	1.5773457
19.2559935171172	2.49246	1.5787526
19.27377089932361	2.4774232	1.5739832
19.291548749837514	2.4783072	1.574264
19.309327069123835	2.4729953	1.572576
19.32710585764763	2.4988992	1.5807906
19.344885115874032	2.4847987	1.5763245
19.362664844268313	2.4509516	1.5655515
19.380445043295822	2.4437537	1.563251
19.39822571342203	2.4476063	1.5644828
19.41600685511252	2.4943812	1.579361
19.43378846883297	2.4892135	1.5777241
19.451570555049173	2.4714668	1.5720899
19.469353114227037	2.4496672	1.5651413
19.48713614683254	2.4658813	1.5703125
19.50491965333182	2.4776733	1.5740627
19.52270363419109	2.467053	1.5706855
19.540488089876686	2.4487119	1.564836
19.55827302085503	2.4494586	1.5650747
19.576058427592674	2.4755154	1.573377
19.593844310556282	2.4985542	1.5806816
19.611630670212598	2.479851	1.5747542
19.629417507028506	2.4847124	1.576297
19.64720482147098	2.4708393	1.5718904
19.6649926140071	2.4587476	1.5680394
19.682780885104084	2.4631994	1.5694584
19.70056963522921	2.4770925	1.5738782
19.718358864849908	2.4996	1.5810124
19.7361485744337	2.4857118	1.576614
19.753938764448215	2.4908724	1.5782498
19.771729435361202	2.4954214	1.5796903
19.789520587640506	2.4720187	1.5722655
19.807312221754092	2.4683301	1.571092
19.825104338170043	2.4800735	1.5748249
19.842896937356517	2.5015209	1.5816197
19.860690019781824	2.473064	1.5725979
19.87848358591436	2.4683282	1.5710914
19.896277636222635	2.4665103	1.5705128
19.914072171175278	2.4521034	1.5659193
19.931867191241015	2.440838	1.5623182
19.94966269688869	2.476863	1.5738052
19.967458688587264	2.485136	1.5764314
19.985255166805807	2.488795	1.5775915
20.00305213201348	2.4851031	1.576421
20.020849584679578	2.4953134	1.5796561
20.038647525273507	2.4591513	1.5681682
20.05644595426477	2.4325058	1.5596492
20.07424487212299	2.4379392	1.5613902
20.092044279317903	2.4481678	1.5646622
20.109844176319353	2.4168694	1.5546284
20.127644563597304	2.3911018	1.5463188
20.145445441621817	2.3967378	1.5481402
20.16324681086307	2.4109805	1.5527332
20.181048671791373	2.4347138	1.560357
20.198851024877122	2.4558094	1.5671022
20.216653870590836	2.4375646	1.5612702
20.234457209403146	2.4095948	1.552287
20.252261041784802	2.3736343	1.5406604
20.270065368206662	2.3568742	1.5352114
20.287870189139685	2.3191552	1.5228773
20.305675505054968	2.3119671	1.5205154
20.323481316423702	2.302149	1.5172834
20.341287623717207	2.3257983	1.5250568
20.359094427406884	2.3523726	1.5337447
20.376901727964288	2.3748572	1.5410571
20.39470952586107	2.3569677	1.5352418
20.41251782156899	2.353526	1.5341207
20.430326615559935	2.3153055	1.5216128
20.448135908305886	2.3365157	1.5285666
20.465945700278965	2.3226378	1.5240203
20.483755991951384	2.3389766	1.5293713
20.50156678379548	2.358226	1.5356517
20.519378076283708	2.3496861	1.5328686
20.537189869888635	2.3334522	1.5275642
20.55500216508294	2.2935922	1.514461
20.572814962339415	2.313728	1.5210943
20.59062826213098	2.3227627	1.5240612
20.60844206493066	2.3514001	1.5334276
20.626256371211593	2.3377268	1.5289626
20.644071181447032	2.3142548	1.5212675
20.66188649611036	2.321838	1.5237578
20.67970231567506	2.326611	1.5253233
20.697518640614742	2.309677	1.5197622
20.715335471403122	2.3042657	1.5179808
20.73315280851404	2.3078349	1.519156
20.750970652421447	2.3008194	1.5168452
20.768789003599412	2.2665682	1.5055126
20.786607862522136	2.2804375	1.5101117
20.8044272296639	2.2776248	1.5091802
20.82224710549913	2.2902799	1.513367
20.84006749050237	2.2804244	1.5101074
20.857888385148268	3.846831	1.961334
20.8757097899116	45.96167	6.779504
20.893531705267254	64.79679	8.049645
20.911354131690224	83.78031	9.153158
20.92917706965566	69.01176	8.307331
20.94700051963877	50.117455	7.079368
20.96482448211493	29.385466	5.4208364
20.982648957559622	4.1498437	2.0371165
21.00047394644843	2.2594588	1.5031496
21.01829944925707	2.261685	1.5038899
21.036125466461375	2.2084537	1.4860867
21.053951998537297	2.199563	1.4830924
21.071779045960906	2.2092667	1.4863602
21.089606609208378	2.224552	1.4914932
21.10743468875603	2.2350729	1.495016
21.12526328508028	2.2247174	1.4915487
21.143092398657675	2.1892943	1.4796264
21.16092202996488	2.1913242	1.4803122
21.17875217947867	2.2216678	1.490526
21.19658284767596	2.2534802	1.5011597
21.21441403503377	2.1979072	1.482534
21.232245742029225	2.181076	1.4768467
21.2500779691396	2.180436	1.4766299
21.26791071684227	2.1820924	1.4771907
21.28574398561475	2.1991131	1.4829407
21.30357777593465	2.1749175	1.4747602
21.321412088279704	2.151561	1.46682
21.339246923127792	2.11209	1.4533032
21.357082280956888	2.0985925	1.4486519
21.3749181622451	2.1438763	1.4641982
21.392754567470647	2.1430182	1.4639051
21.41059149711187	2.153545	1.4674962
21.42842895164726	2.1443746	1.4643683
21.446266931555378	2.109219	1.4523151
21.464105437314945	2.1050704	1.450886
21.481944469404798	2.0950065	1.4474137
21.49978402830388	2.087211	1.4447182
21.51762411449127	2.0413575	1.4287609
21.53546472844617	2.0431144	1.4293755
21.553305870647876	2.0517516	1.4323937
21.571147541575865	2.0697322	1.4386563
21.58898974170967	2.055436	1.4336791
21.60683247152899	2.057093	1.4342569
21.62467573151363	2.052727	1.4327341
21.642519522143523	2.0428784	1.4292929
21.660363843898722	2.046569	1.4305835
21.6782086972594	2.0477245	1.4309872
21.696054082705864	2.0536077	1.4330415
21.713900000718535	2.0090213	1.4173995
21.73174645177795	2.032235	1.4255648
21.749593436364794	2.0485575	1.4312782
21.767440954959845	2.0555758	1.433728
21.785289008044032	2.0300415	1.4247953
21.803137596098388	2.0276346	1.4239503
21.820986719604086	2.0128798	1.41876
21.838836379042412	2.0110917	1.4181297
21.85668657489478	2.0208719	1.4215738
21.87453730764273	2.0093555	1.4175174
21.892388577767914	2.0142477	1.4192419
21.91024038575213	2.0144045	1.4192972
21.928092732077285	2.0079834	1.4170333
21.945945617225426	2.004705	1.415876
21.963799041678694	1.9969501	1.4131348
21.981653005919398	31.340551	5.5982633
21.999507510429943	78.110466	8.838013
22.01736255569286	73.051674	8.547028
22.035218142190818	4.153282	2.0379603
22.05307427040661	1.985324	1.4090153
22.07093094082315	1.9770001	1.4060583
22.088788153923474	1.9880859	1.409995
22.106645910190746	1.984708	1.4087967
22.12450421010827	1.9211736	1.386064
22.142363054159464	1.9111364	1.3824385
22.16022244282787	1.9215966	1.3862166
22.178082376597164	1.9466548	1.3952258
22.195942855951145	1.9271638	1.3882233
22.213803881373742	1.9522996	1.3972472
22.231665453349002	1.9857311	1.4091598
22.24952757236111	1.9881457	1.4100162
22.26739023889438	1.9311215	1.389648
22.28525345343323	1.9207022	1.3858941
22.30311721646225	1.9402776	1.3929385
22.320981528466113	1.9585576	1.3994848
22.33884638992964	1.9390448	1.3924959
22.356711801337788	1.9157625	1.3841107
22.37457776317561	1.9345767	1.3908906
22.392444275928337	1.9804872	1.4072978
22.410311340081282	2.0103436	1.4178659
22.428178956119904	1.9717541	1.4041916
22.446047124529805	1.9440235	1.3942825
22.46391584579669	1.9343529	1.3908101
22.481785120406414	1.9494008	1.3962095
22.49965494884496	1.9828573	1.4081397
22.51752533159841	1.9759996	1.4057025
22.53539626915302	1.94611	1.3950305
22.553267761995137	1.8931843	1.3759303
22.571139810611264	1.8916858	1.3753858
22.589012415488025	1.9351176	1.391085
22.60688557711216	1.9302757	1.3893436
22.624759295970566	1.9259921	1.3878012
22.642633572550263	1.8798501	1.3710762
22.660508407338362	1.8889202	1.3743799
22.67838380082217	1.9049146	1.3801864
22.696259753489077	1.9190041	1.3852812
22.714136265826614	1.9315197	1.3897913
22.73201333832246	1.9110981	1.3824247
22.74989097146439	1.8972251	1.377398
22.76776916574035	1.9189432	1.3852593
22.785647921638393	1.9504255	1.3965764
22.803527239646712	1.928029	1.3885348
22.82140712025363	1.9138138	1.3834066
22.839287563947593	1.8935385	1.376059
22.85716857121719	1.9070417	1.3809568
22.875050142551135	1.8809776	1.3714874
22.892932278438277	1.8641915	1.365354
22.910814979367604	1.899249	1.3781325
22.928698245828222	1.9101061	1.3820659
22.946582078309387	1.8892933	1.3745157
22.96446647730047	1.8849947	1.3729511
22.98235144329098	1.90878	1.3815861
23.000236976770562	1.9181722	1.3849809
23.018123078229	1.9352833	1.3911446
23.03600974815619	1.9187703	1.3851968
23.053896987042194	1.9220247	1.386371
23.071784795377173	1.9175451	1.3847545
23.08967317365145	1.9038306	1.3797936
23.10756212235546	1.9176983	1.3848099
23.125451641979787	1.9345891	1.3908951
23.143341733015134	1.951982	1.3971335
23.161232395952357	1.9699177	1.4035375
23.179123631282426	1.9627552	1.4009837
23.197015439496468	1.9447868	1.3945562
23.214907821085717	1.9241631	1.3871421
23.23280077654157	1.9173135	1.3846709
23.250694306355538	1.9192661	1.3853759
23.268588411019277	1.9452666	1.3947282
23.28648309102458	1.9596267	1.3998667
23.304378346863356	1.9480153	1.3957132
23.322274179027676	1.94042	1.3929896
23.340170588009723	1.923515	1.3869084
23.358067574301852	1.9309428	1.3895837
23.37596513839651	1.9413601	1.393327
23.39386328078629	1.9603577	1.4001278
23.411762001963947	1.9663076	1.4022509
23.429661302422353	1.97057	1.40377
23.4475611826545	1.934182	1.3907487
23.46546164315356	1.8946544	1.3764645
23.48336268441279	1.8647622	1.3655629
23.501264306925638	1.8448849	1.3582654
23.51916651118564	1.8605074	1.3640041
23.537069297686497	1.8684955	1.3669292
23.554972666922037	1.8693202	1.3672309
23.57287661938623	1.8500245	1.360156
23.59078115557318	1.8446018	1.3581612
23.608686275977128	1.8603575	1.3639492
23.62659198109246	1.8730525	1.3685951
23.6444982714137	1.8636376	1.3651512
23.66240514743549	1.8416684	1.3570808
23.68031260965263	1.8429176	1.357541
23.698220658560068	1.8712848	1.3679491
23.716129294652845	1.8956649	1.3768315
23.7340385184262	1.9257814	1.3877252
23.75194833037546	1.9522843	1.3972417
23.769858730996123	1.9436868	1.3941617
23.78776972078382	1.9168628	1.3845081
23.80568130023431	1.9194959	1.3854587
23.823593469843495	1.919201	1.3853523
23.841506230107424	1.9153138	1.3839487
23.859419581522275	1.8991405	1.378093
23.87733352458438	1.868709	1.3670073
23.89524805979019	1.8894815	1.3745841
23.913163187636318	1.9077898	1.3812276
23.931078908619508	1.9540657	1.397879
23.948995223236633	1.9729674	1.4046236
23.966912131984735	1.9948868	1.4124047
23.98482963536096	1.9987541	1.4137731
24.002747733862616	1.9625465	1.4009092
24.020666427987155	1.945368	1.3947645
24.038585718232156	1.9797168	1.4070241
24.056505605095353	1.9951496	1.4124976
24.074426089074617	2.0025563	1.415117
24.092347170667946	1.9962441	1.4128851
24.110268850373515	1.9991165	1.4139012
24.128191128689586	2.0536265	1.433048
24.146114006114626	2.055507	1.4337039
24.164037483147187	2.0719247	1.4394182
24.181961560286005	2.033229	1.4259135
24.199886238029926	1.9924774	1.4115515
24.21781151687797	1.9785513	1.4066099
24.235737397329274	1.9870895	1.4096416
24.253663879883135	2.038904	1.427902
24.271590965038975	2.0463216	1.4304969
24.289518653296376	2.0730734	1.4398172
24.30744694515505	2.0806198	1.4424354
24.32537584111486	2.0595958	1.4351292
24.34330534167581	2.0559533	1.4338596
24.361235447338046	2.0590923	1.4349538
24.379166158601876	2.0419092	1.4289539
24.39709747596772	2.0340133	1.4261883
24.41502939993615	2.0074575	1.4168477
24.432961931007917	1.9675667	1.4026998
24.450895069683856	1.9241494	1.3871372
24.468828816465	1.9263923	1.3879454
24.4867631718525	1.9558407	1.3985138
24.504698136347656	1.9715602	1.4041226
24.52263371045192	1.943349	1.3940406
24.540569894666874	1.9062558	1.3806722
24.558506689494266	1.9172889	1.384662
24.57644409543597	1.9257244	1.3877047
24.594382112994012	1.9374763	1.3919326
24.61232074267057	1.9261718	1.3878659
24.630259984967953	1.8916212	1.3753623
24.64819984038863	1.9084214	1.3814563
24.66614030943522	1.9657242	1.4020429
24.684081392610462	1.9524087	1.3972862
24.702023090417274	1.9088689	1.3816183
24.7199654033587	1.8753059	1.3694181
24.737908331937927	1.9127076	1.3830067
24.755851876658305	1.9819294	1.4078101
24.773796038023324	2.0251615	1.4230816
24.79174081653661	2.014279	1.419253
24.809686212701962	2.0090861	1.4174224
24.827632227023294	2.0245318	1.4228604
24.8455788600047	2.0539052	1.4331453
24.8635261121504	2.1021304	1.4498725
24.88147398396475	2.1017	1.4497241
24.899422475952303	2.0653768	1.4371419
24.917371588617698	2.0236893	1.4225644
24.935321322465768	2.083745	1.4435183
24.953271678001478	2.2082975	1.4860342
24.97122265572994	2.4329484	1.5597911
24.989174256156414	2.746453	1.6572427
25.00712647978632	3.1734285	1.781412
25.02507932712521	3.6779861	1.9178077
25.043032798678798	4.1501074	2.0371811
25.060986894952933	4.7953773	2.189835
25.078941616453637	5.453314	2.3352332
25.096896963687055	6.2937818	2.5087411
25.114852937159508	7.3152595	2.7046735
25.132809537377444	7.873748	2.80602
25.150766764847468	7.9960794	2.827734
25.168724620076347	7.5182185	2.741937
25.186683103570985	6.5283136	2.5550566
25.204642215838426	5.424524	2.3290608
25.222601957385894	4.1951394	2.048204
25.24056232872074	3.2355168	1.7987542
25.25852333035048	2.6459682	1.6266432
25.276484962782778	2.3134124	1.5209906
25.294447226525435	2.1484063	1.4657443
25.312410122086423	2.0116992	1.4183438
25.330373649973843	1.9376425	1.3919922
25.348337810695988	1.9074473	1.3811036
25.366302604761245	1.8903954	1.3749166
25.384268032678207	1.8903514	1.3749005
25.40223409495558	1.93444	1.3908415
25.420200792102257	1.947637	1.3955777
25.438168124627246	1.89823	1.3777627
25.45613609303974	1.843698	1.3578284
25.474104697849057	1.84672	1.3589407
25.492073939564698	1.8399694	1.3564547
25.510043818696285	1.828015	1.352041
25.528014335753614	1.8585854	1.3632995
25.54598549124664	1.8712099	1.3679217
25.56395728568544	1.8749859	1.3693012
25.58192971958028	1.8499225	1.3601186
25.59990279344156	1.8352106	1.3546995
25.617876507779833	1.8437535	1.3578489
25.635850863105826	1.8560992	1.3623873
25.653825859930386	1.8538184	1.36155
25.671801498764548	1.8118678	1.3460563
25.68977778011949	1.8410101	1.3568382
25.707754704506524	1.8460304	1.358687
25.725732272437153	1.8101965	1.3454354
25.743710484423012	1.8455328	1.3585038
25.761689340975888	1.8549101	1.3619509
25.77966884260774	1.8838325	1.3725277
25.797648989830662	1.870157	1.3675368
25.815629783156922	1.8869997	1.3736811
25.83361122309895	1.8812354	1.3715813
25.85159331016929	1.8447775	1.3582258
25.869576044880695	1.7879281	1.3371342
25.887559427746034	1.7688174	1.3299689
25.90554345927836	1.8127977	1.3464017
25.92352813999086	1.8361802	1.3550572
25.94151347039689	1.8637552	1.3651942
25.959499451009965	1.8819996	1.3718599
25.97748608234374	1.8356814	1.3548732
25.995473364912062	1.8068823	1.3442032
26.013461299228904	1.7759771	1.3326579
26.03144988580839	1.7885917	1.3373824
26.04943912516483	1.7966304	1.3403844
26.067429017812675	1.8182284	1.348417
26.085419564266537	1.8044496	1.343298
26.103410765041186	1.8069136	1.3442149
26.12140262065155	1.8512164	1.3605942
26.139395131612723	1.8389956	1.3560957
26.157388298439948	1.8423016	1.3573141
26.17538212164861	1.8287439	1.3523105
26.193376601754295	1.828475	1.3522111
26.211371739272714	1.7975558	1.3407296
26.229367534719746	1.758185	1.3259656
26.247363988611433	1.7337246	1.3167098
26.26536110146397	1.7326907	1.3163171
26.283358873793727	1.7243457	1.3131435
26.301357306117204	1.7550726	1.3247916
26.319356398951104	1.760801	1.3269517
26.33735615281224	1.7617579	1.3273122
26.35535656821762	1.8071855	1.344316
26.373357645684404	1.814207	1.346925
26.39135938572991	1.7930758	1.3390578
26.409361788871614	1.7978299	1.3408318
26.427364855627165	1.8253225	1.351045
26.445368586514352	1.8609046	1.3641498
26.46337298205115	1.838265	1.3558263
26.48137804275568	1.77743	1.333203
26.499383769146217	1.779789	1.3340874
26.517390161741215	1.8242058	1.3506316
26.53539722105928	1.803427	1.3429173
26.553404947619182	1.8081797	1.3446858
26.571413341939856	1.8253577	1.351058
26.589422404540397	1.7986643	1.3411429
26.60743213594006	1.7563181	1.3252615
26.62544253665827	1.7612185	1.3271091
26.64345360721459	1.745979	1.321355
26.66146534812879	1.7565278	1.3253406
26.679477759920758	1.7673692	1.3294244
26.69749084311057	1.7908064	1.3382101
26.71550459821847	1.7735891	1.3317617
26.733519025764842	1.7663428	1.3290383
26.751534126270258	1.777526	1.333239
26.769549900255434	1.7420355	1.3198619
26.787566348241267	1.7195727	1.3113247
26.80558347074881	1.7162484	1.3100567
26.823601268299267	1.7304461	1.3154643
26.841619741414036	1.753851	1.3243304
26.85963889061465	1.7166818	1.310222
26.877658716422832	1.6885048	1.2994248
26.89567921936045	1.747765	1.3220307
26.913700399949544	1.8045261	1.3433264
26.93172225871233	1.7936201	1.339261
26.949744796171174	1.8057843	1.3437947
26.967768012848605	1.8176246	1.348193
26.98579190926733	1.8275219	1.3518587
27.003816485950225	1.7779342	1.333392
27.021841743420318	1.7668467	1.3292278
27.039867682200814	1.7560184	1.3251485
27.057894302815072	1.7504942	1.3230624
27.07592160578664	1.782808	1.3352183
27.0939495916392	1.7893248	1.3376565
27.111978260896635	1.774947	1.3322713
27.13000761408296	1.7765945	1.3328896
27.148037651722397	1.7870216	1.3367953
27.166068374339304	1.7942665	1.3395023
27.184099782458215	1.7843994	1.3358141
27.20213187660384	1.8214778	1.3496213
27.22016465730105	1.8454442	1.3584713
27.23819812507487	1.8163447	1.3477184
27.256232280450533	1.7951288	1.3398242
27.274267123953383	1.7335616	1.3166479
27.292302656108987	1.7200161	1.3114939
27.31033887744306	1.7269351	1.314129
27.32837578848146	1.7470134	1.3217463
27.34641338975026	1.7393427	1.3188415
27.364451681775673	1.7506603	1.3231252
27.382490665084074	1.7471731	1.3218068
27.400530340202046	1.753821	1.3243191
27.41857070765629	1.7752281	1.3323768
27.436611767973726	1.7671691	1.3293492
27.454653521681404	1.7740186	1.3319229
27.472695969306564	1.8069451	1.3442266
27.490739111376627	1.8593374	1.3635752
27.508782948419153	1.8410554	1.3568549
27.526827480961902	1.8368548	1.3553061
27.54487270953279	1.8024871	1.3425673
27.562918634659898	1.7865211	1.336608
27.580965256871508	1.7754644	1.3324655
27.599012576696026	1.8023804	1.3425276
27.617060594662068	1.8302333	1.3528612
27.63510931129842	1.8186125	1.3485594
27.65315872713401	1.7717522	1.3310719
27.67120884269797	1.75732	1.3256395
27.68925965851958	1.8010733	1.3420408
27.707311175128307	1.8137506	1.3467556
27.725363393053787	1.8030431	1.3427744
27.74341631282583	1.8336443	1.3541212
27.7614699349744	1.8638349	1.3652234
27.77952426002968	2.0779517	1.4415102
27.797579288521973	2.161141	1.4700819
27.815635020981784	2.6285422	1.6212779
27.83369145793979	2.6584961	1.6304896
27.85174859992682	2.5049675	1.582709
27.869806447473923	2.3714197	1.5399414
27.887865001112267	2.0429194	1.4293073
27.905924261373233	1.90347	1.379663
27.92398422878836	1.8291384	1.3524565
27.94204490388936	1.8150053	1.3472214
27.96010628720813	1.8322662	1.3536123
27.978168379276728	1.8267626	1.3515778
27.9962311806274	1.7824486	1.3350837
28.014294691792568	1.7856786	1.3362929
28.0323589133048	1.818449	1.3484988
28.050423845696887	1.8453773	1.3584467
28.068489489501758	1.8386042	1.3559514
28.086555845252523	1.8283019	1.3521471
28.104622913482487	1.8408636	1.3567842
28.122690694725115	1.8634846	1.3650951
28.14075918951405	1.8541664	1.3616778
28.15882839838312	1.8720002	1.3682106
28.176898321866304	1.8831292	1.3722715
28.1949689604978	1.8933303	1.3759834
28.213040314811945	1.8405232	1.3566588
28.23111238534327	1.8596091	1.3636749
28.249185172626493	1.8889536	1.374392
28.267258677196473	1.926576	1.3880116
28.285332899588294	1.8838978	1.3725516
28.303407840337172	1.8625187	1.3647412
28.321483499978545	1.8944054	1.376374
28.33955987904799	1.8957703	1.3768698
28.357636978081285	1.9104483	1.3821896
28.37571479761439	1.8983698	1.3778135
28.393793338183425	1.8925143	1.3756869
28.41187260032469	1.8596438	1.3636876
28.429952584574686	1.8465799	1.3588892
28.448033291470065	1.8743343	1.3690633
28.46611472154769	1.9775041	1.4062376
28.484196875344566	2.027109	1.4237658
28.502279753397914	2.038827	1.4278749
28.52036335624511	1.9630948	1.4011048
28.538447684423716	1.9282525	1.3886153
28.556532738471482	1.9049698	1.3802065
28.574618518926325	1.9192399	1.3853663
28.59270502632635	1.964212	1.4015034
28.61079226120985	2.006351	1.4164572
28.628880224115274	2.029248	1.4245168
28.646968915581287	2.0090523	1.4174104
28.66505833614671	1.971229	1.4040046
28.68314848635055	2.0168188	1.4201474
28.701239366732004	2.094955	1.4473959
28.71933097783044	2.0927334	1.4466283
28.737423320185403	2.038736	1.4278432
28.75551639433665	2.0793986	1.442012
28.773610200824074	2.148002	1.4656063
28.791704740187793	2.1714191	1.4735736
28.80980001296809	2.1704	1.4732277
28.827896019705413	2.183851	1.4777858
28.845992760940433	2.2326171	1.4941945
28.86409023721397	2.23349	1.4944866
28.88218844906704	2.1605473	1.46988
28.900287397040845	2.1245768	1.4575928
28.918387081676755	2.1807945	1.4767513
28.936487503516343	2.2004263	1.4833834
28.954588663101365	2.2201395	1.4900132
28.97269056097374	2.2553053	1.5017674
28.990793197675597	2.2780633	1.5093254
29.00889657374923	2.2842534	1.5113747
29.027000689737125	2.3169105	1.5221401
29.04510554618196	2.3709984	1.5398047
29.06321114362659	2.425016	1.5572462
29.08131748261405	2.4177341	1.5549065
29.099424563687567	2.4419663	1.5626792
29.11753238739057	2.5164585	1.586335
29.13564095426663	2.531055	1.5909289
29.15375026485954	2.530728	1.5908263
29.171860319713275	2.578687	1.605829
29.18997111937199	2.6405888	1.6249888
29.20808266438002	2.725661	1.6509576
29.226194955281898	2.8049843	1.6748087
29.244307992622335	2.80604	1.6751239
29.26242177694624	2.7880557	1.6697472
29.2805363087987	2.7953675	1.6719352
29.29865158872498	2.8054423	1.6749455
29.316767617270557	2.812126	1.6769395
29.334884394981064	2.8302808	1.6823438
29.353001922402367	2.9202611	1.7088772
29.37112020008047	2.9405077	1.7147908
29.389239228561596	3.0822217	1.7556257
29.407359008392152	3.334233	1.8259883
29.42547954011872	3.6495676	1.9103842
29.44360082428809	4.279675	2.0687375
29.46172286144722	5.2941585	2.3009038
29.479845652143283	6.789475	2.605662
29.497969196923606	8.608441	2.9340146
29.516093496335728	10.936892	3.3070972
29.5342185509274	13.497124	3.6738431
29.55234436124651	15.756183	3.969406
29.570470927841175	17.119648	4.1375895
29.588598251259686	16.85784	4.1058297
29.60672633205055	15.554347	3.9438999
29.624855170762405	13.505662	3.675005
29.642984767944146	10.987361	3.3147187
29.66111512414481	8.533326	2.9211857
29.67924623991366	6.452504	2.540178
29.697378115800138	5.046608	2.2464657
29.71551075235387	4.134564	2.0333626
29.733644150124675	3.770666	1.9418203
29.751778309662576	3.6285696	1.9048805
29.769913231517766	3.5108998	1.8737395
29.78804891624066	3.3598108	1.8329787
29.806185364381818	3.264332	1.8067462
29.82432257649206	3.2379446	1.7994289
29.842460553122333	3.211567	1.7920846
29.86059929482382	3.2147706	1.7929782
29.878738802147872	3.2855902	1.8126197
29.896879075646048	3.2454672	1.801518
29.915020115870114	3.2320967	1.7978033
29.933161923371976	3.22759	1.7965494
29.951304498703777	3.2618558	1.8060609
29.969447842417857	3.2525704	1.8034884
29.987591955066733	3.2494507	1.8026233
30.005736837203123	3.2353404	1.7987052
30.023882489379943	3.2519102	1.8033054
30.04202891215028	3.2124052	1.7923183
30.060176106067455	3.1539128	1.7759259
30.078324071684946	3.1615708	1.7780807
30.09647280955646	3.1829386	1.7840792
30.114622320235863	3.2115622	1.7920831
30.132772604277257	3.1632087	1.7785412
30.1509236622349	3.1219094	1.7668926
30.16907549466328	3.104415	1.761935
30.18722810211705	3.1853154	1.7847452
30.205381485151097	3.1677258	1.7798107
30.22353564432045	3.0857553	1.7566319
30.241690580180403	3.0153368	1.7364725
30.25984629328638	2.9940467	1.7303314
30.278002784194037	2.96076	1.720686
30.296160053459246	2.9465477	1.7165511
30.314318101638033	2.9643698	1.7217345
30.332476929286646	2.9505877	1.7177275
30.35063653696153	2.8953612	1.7015761
30.368796925219307	2.9140992	1.7070733
30.386958094616844	2.8599658	1.6911434
30.40512004571115	2.7677405	1.6636528
30.423282779059463	2.8181262	1.6787275
30.441446295219233	2.8998108	1.7028831
30.459610594748067	2.8406258	1.6854156
30.47777567820382	2.7784376	1.6668646
30.495941546144504	2.7660165	1.6631346
30.51410819912835	2.7784274	1.6668615
30.532275637713795	2.777609	1.6666161
30.55044386245946	2.7930636	1.6712462
30.56861287392416	2.8127627	1.6771293
30.586782672666956	2.8003073	1.6734118
30.604953259247047	2.7602837	1.6614102
30.623124634223885	2.7838204	1.6684785
30.641296798157075	2.770887	1.6645981
30.659469751606462	2.750941	1.6585962
30.677643495132074	2.7418842	1.6558636
30.695818029294152	2.7189622	1.6489276
30.713993354653116	2.6330597	1.6226705
30.73216947176962	2.588392	1.6088481
30.75034638120448	2.6635652	1.6320432
30.768524083518756	2.7429976	1.6561998
30.786702579273673	2.72221	1.6499121
30.80488186903069	2.6986523	1.6427575
30.82306195335144	2.822912	1.6801524
30.841242832797782	3.0415385	1.7440007
30.85942450793176	3.3739731	1.8368378
30.877606979315637	3.7338884	1.9323272
30.895790247511883	4.0237694	2.0059335
30.913974313083134	4.3606553	2.0882182
30.932159176592283	4.6452003	2.1552727
30.95034483860237	4.6126	2.1476965
30.968531299676698	4.4540224	2.1104555
30.98671856037873	4.3040004	2.0746086
31.00490662127215	3.8976746	1.9742529
31.023095482920848	3.3998873	1.8438784
31.04128514588892	3.0261705	1.7395892
31.059475610740662	2.7346218	1.6536692
31.07766687804056	2.5066838	1.583251
31.09585894835335	2.4206548	1.5558454
31.11405182224393	2.436821	1.561032
31.132245500277417	2.4323552	1.559601
31.15043998301914	2.394124	1.5472957
31.168635271034628	2.446694	1.5641911
31.18683136488964	2.4432933	1.5631038
31.20502826515008	2.3797283	1.5426368
31.223225972382135	2.3328013	1.5273511
31.241424487152155	2.3677723	1.5387567
31.259623810026692	2.4217467	1.5561962
31.27782394157253	2.456616	1.5673596
31.296024882356644	2.4482813	1.5646985
31.314226632946237	2.4313538	1.5592799
31.332429193908684	2.4654086	1.5701619
31.350632565811598	2.5238152	1.588652
31.368836749222787	2.4310055	1.5591682
31.387041744710295	2.4179447	1.5549742
31.40524755284232	2.4675205	1.5708343
31.423454174187317	2.4837637	1.575996
31.441661609313922	2.4640024	1.5697141
31.459869858791002	2.4828994	1.5757219
31.478078923187628	2.4019957	1.5498374
31.496288803073064	2.299748	1.516492
31.514499499016807	2.302677	1.5174574
31.532711011588546	2.3082552	1.5192943
31.550923341358178	2.2603056	1.5034313
31.56913648889584	2.2267504	1.49223
31.587350454771844	2.209706	1.486508
31.605565239556732	2.2626867	1.504223
31.62378084382127	2.3094082	1.5196737
31.641997268136382	2.277367	1.5090948
31.660214513073274	2.294026	1.5146042
31.67843257920331	2.3819911	1.54337
31.6966514670981	2.3903985	1.5460913
31.71487117732944	2.303465	1.517717
31.733091710469346	2.2540307	1.501343
31.751313067090052	2.2560422	1.5020127
31.769535247764008	2.2583714	1.5027878
31.787758253063878	2.2891703	1.5130004
31.805982083562526	2.3016598	1.5171223
31.824206739833024	2.3238008	1.5244018
31.84243222244869	2.3493404	1.5327559
31.860658531983013	2.3017614	1.5171556
31.878885669009737	2.2217941	1.4905684
31.897113634102784	2.163808	1.4709889
31.91534242783632	2.2141707	1.488009
31.933572050784694	2.2180972	1.4893278
31.951802503522508	2.1993473	1.4830196
31.970033786624548	2.2032819	1.4843456
31.988265900665834	2.2126951	1.4875131
32.006498846221575	2.2011635	1.4836318
32.02473262386724	2.2333884	1.4944526
32.04296723417845	2.243072	1.4976889
32.0612026777311	2.185398	1.4783092
32.07943895510129	2.1929426	1.4808588
32.097676066865304	2.1539893	1.4676476
32.115914013599685	2.0947866	1.4473377
32.13415279588115	2.1432722	1.4639919
32.152392414286666	2.1261816	1.4581432
32.1706328693934	2.0701218	1.4387918
32.18887416177875	2.094348	1.4471862
32.20711629202032	2.076805	1.4411124
32.225359260695924	2.067568	1.437904
32.243603068383614	2.046767	1.4306526
32.26184771566166	2.070187	1.4388145
32.28009320310852	2.18588	1.4784721
32.2983395313029	2.2177715	1.4892185
32.31658670082372	2.108808	1.4521736
32.33483471225012	2.0086331	1.4172626
32.35308356616143	1.9667667	1.4024146
32.371333263137245	1.9983075	1.413615
32.38958380375734	2.057071	1.4342493
32.407835188601744	2.062132	1.4360125
32.42608741825067	2.0942433	1.4471501
32.444340493284585	2.0884202	1.4451367
32.46259441428416	2.0916128	1.4462409
32.48084918183028	2.1146586	1.4541866
32.49910479650405	2.057592	1.4344308
32.51736125888683	2.0683887	1.4381894
32.53561856956014	2.150577	1.4664845
32.5538767291058	2.0864315	1.4444485
32.572135738105764	1.9941361	1.4121388
32.59039559714228	1.9888153	1.4102536
32.608656306797776	2.0650427	1.4370257
32.62691786765491	2.0568466	1.4341711
32.645180280296586	1.9914057	1.4111718
32.663443545305896	2.01068	1.4179845
32.68170766326619	2.0162783	1.4199572
32.69997263476099	1.9598337	1.3999406
32.7182384603741	1.8950974	1.3766253
32.7365051406895	1.971391	1.4040623
32.75477267629144	2.039381	1.428069
32.77304106776434	2.0097544	1.4176581
32.79131031569289	2.0440195	1.429692
32.809580420661966	2.0215755	1.4218211
32.827851383256714	1.9615833	1.4005654
32.84612320406245	1.9487797	1.395987
32.86439588366476	1.9776187	1.4062784
32.88266942264945	2.0138893	1.4191157
32.9009438216025	1.9347128	1.3909395
32.9192190811102	1.8472759	1.3591453
32.937495201758985	1.9134845	1.3832875
32.95577218413556	1.987983	1.4099585
32.974050028826866	1.9676923	1.4027445
32.992328736420035	1.9369017	1.3917261
33.010608307502444	1.9581535	1.3993404
33.02888874266169	1.9489145	1.3960353
33.047170042485604	1.9646901	1.401674
33.06545220756225	1.9912986	1.4111338
33.083735238479896	2.0557134	1.4337759
33.10201913582707	2.0520997	1.4325151
33.12030390019248	2.023769	1.4225923
33.138589532165135	1.9154861	1.3840109
33.15687603233419	1.9250774	1.3874716
33.17516340128909	2.0006645	1.4144485
33.19345163961947	1.9774983	1.4062355
33.211740747915215	1.9284047	1.3886701
33.23003072676643	1.9236194	1.3869461
33.248321576763466	1.9775212	1.4062437
33.266613298496885	2.003681	1.4155143
33.28490589255747	1.9386601	1.3923577
33.30319935953626	1.8679968	1.3667468
33.32149370002451	1.8594292	1.363609
33.339788914613706	1.9254068	1.3875903
33.358085003895575	1.916397	1.3843399
33.376381968462034	1.8744599	1.3691092
33.39467980890529	1.9040699	1.3798804
33.41297852581774	1.946819	1.3952845
33.43127811979204	1.8695669	1.367321
33.44957859142105	1.8749717	1.3692961
33.467879941297866	1.9515418	1.396976
33.486182170015844	1.9254264	1.3875973
33.50448527816853	1.7347139	1.3170854
33.522789266349754	1.6258603	1.2750922
33.541094135153514	1.7253046	1.3135085
33.55939988517411	1.8043467	1.3432597
33.57770651700602	1.8340511	1.3542714
33.59601403124398	1.8930998	1.3758997
33.61432242848296	1.9362503	1.3914921
33.632631709318154	1.8990022	1.3780429
33.650941874344994	1.9062251	1.3806611
33.66925292415916	1.8871093	1.373721
33.68756485935654	1.787832	1.3370984
33.70587768053328	1.8211775	1.3495101
33.724191388285746	1.9211705	1.386063
33.74250598321054	2.0302985	1.4248854
33.760821465904506	1.9909022	1.4109933
33.77913783696474	1.8982468	1.3777688
33.79745509698852	1.8791646	1.3708262
33.815773246573414	1.935367	1.3911747
33.8340922863172	1.9097788	1.3819475
33.852412216817896	1.7844852	1.3358463
33.87073303867377	1.8116192	1.3459641
33.889054752483304	1.9271932	1.3882338
33.907377358845245	1.8846145	1.3728126
33.92570085835853	1.9316616	1.3898423
33.94402525162239	2.0870092	1.4446485
33.96235053923627	2.076782	1.4411044
33.980676721799824	2.001136	1.4146152
33.999003799912984	2.0318863	1.4254425
34.01733177417592	2.031391	1.4252688
34.03566064518901	1.9760797	1.405731
34.0539904135529	1.9433851	1.3940535
34.07232107986846	2.0013082	1.414676
34.090652644736785	2.089968	1.4456722
34.108985108759235	2.1261795	1.4581425
34.12731847253742	2.0292892	1.4245312
34.14565273667313	2.0736935	1.4400325
34.16398790176847	2.138436	1.4623393
34.18232396842574	2.150819	1.4665672
34.20066093724749	2.0647511	1.4369242
34.21899880883651	2.0192375	1.4209988
34.23733758379583	1.943523	1.3941029
34.25567726272874	1.9564735	1.3987399
34.27401784623872	1.9099329	1.3820032
34.29235933492957	1.8653625	1.3657827
34.31070172940526	1.8485551	1.3596158
34.32904503027003	1.9000314	1.3784163
34.347389238128386	1.9160268	1.3842062
34.36573435358502	1.8826132	1.3720835
34.38408037724492	1.8731412	1.3686274
34.402427309713296	1.908289	1.3814083
34.42077515159559	1.8766568	1.3699112
34.43912390349752	1.8827763	1.3721429
34.45747356602499	1.9612604	1.4004501
34.47582413978423	1.955796	1.3984978
34.49417562538163	1.9126214	1.3829756
34.51252802342388	1.9289389	1.3888625
34.53088133451789	1.9617612	1.4006289
34.54923555927084	1.9994864	1.414032
34.567590698290104	2.0188496	1.4208623
34.58594675218336	1.9574575	1.3990917
34.6043037215585	1.9523684	1.3972718
34.62266160702365	1.7993052	1.3413818
34.641020409187234	1.8623772	1.3646894
34.65938012865785	1.9686973	1.4031028
34.677740766044394	1.9544489	1.3980161
34.69610232195598	1.9975045	1.413331
34.714464797002016	2.0245488	1.4228663
34.73282819179208	1.8919841	1.3754941
34.751192506936064	1.9001412	1.3784561
34.76955774304408	1.9357269	1.391304
34.7879239007265	1.941379	1.3933338
34.80629098059391	2.0309374	1.4251096
34.824658983257194	1.9298856	1.3892032
34.843027909327446	1.8780464	1.3704183
34.86139775941603	1.8876022	1.3739004
34.879768534134534	1.8531538	1.361306
34.89814023409483	1.9565071	1.398752
34.91651285990901	1.9208472	1.3859463
34.93488641218944	2.0320745	1.4255085
34.95326089154871	2.0820725	1.4429388
34.97163629859967	1.9939458	1.4120715
34.99001263395542	1.8760114	1.3696756
35.00838989822934	1.9055705	1.380424
35.02676809203499	1.9393902	1.3926198
35.04514721598624	1.9308568	1.3895527
35.063527270697215	2.0789876	1.4418695
35.081908256782256	2.1825728	1.4773533
35.10029017485597	2.030586	1.4249864
35.11867302553321	1.9917067	1.4112784
35.137056809429104	2.070137	1.4387971
35.155441527159006	1.962267	1.4008094
35.173827179338524	1.9911226	1.4110714
35.19221376658354	1.9413844	1.3933357
35.21060128951017	1.8397799	1.3563849
35.2289897487348	1.956088	1.3986021
35.24737914487405	2.0313814	1.4252653
35.26576947854479	1.8922255	1.3755819
35.28416075036418	1.8981436	1.3777313
35.30255296094958	2.1522653	1.4670601
35.32094611091867	2.0516915	1.4323727
35.33934020088932	1.7677122	1.3295534
35.35773523147969	2.0043795	1.4157611
35.3761312033082	2.3947592	1.547501
35.394528116993506	2.2532456	1.5010815
35.41292597315452	2.1146352	1.4541786
35.431324772410434	2.1670423	1.4720877
35.449724515380666	2.1176105	1.4552011
35.46812520268491	1.9251463	1.3874965
35.486526834943106	1.7605128	1.3268431
35.504929412775454	1.6807075	1.296421
35.52333293680242	1.5952039	1.2630138
35.54173740764471	1.5881656	1.2602245
35.560142825923286	1.5548562	1.2469387
35.5785491922594	1.6737092	1.2937192
35.59695650727454	1.5731995	1.2542725
35.61536477159042	1.4327071	1.1969575
