0.008763373481513119	0.0	0.0
0.026290120649546365	0.0	0.0
0.043816868432600686	0.0	0.0
0.06134361724069026	0.011486674	0.1071759
0.07887036748382949	0.07051493	0.26554647
0.0963971195720331	0.08717205	0.29524913
0.11392387391531617	0.114158995	0.33787423
0.1314506309236943	0.087696664	0.29613623
0.1489773910071836	0.083687454	0.28928784
0.16650415457580078	0.071453616	0.2673081
0.18403092203956356	0.06578986	0.25649536
0.20155769380849	0.060094673	0.24514215
0.2190844702925996	0.07594655	0.275584
0.2366112519019124	0.057739075	0.24028957
0.2541380390464497	0.121030495	0.34789437
0.27166483213623416	0.100455426	0.31694704
0.28919163158128947	0.11155958	0.33400536
0.3067184377916406	0.11878215	0.34464785
0.324245251177314	0.120677285	0.34738636
0.34177207214833777	0.11929895	0.3453968
0.3592989011147415	0.18107298	0.4255267
0.37682573848655654	0.1605657	0.4007065
0.39435258467381573	0.17891051	0.42297813
0.41187944008655414	0.1657075	0.40707186
0.42940630513480854	0.17855595	0.4225588
0.446933180228618	0.16522545	0.40647933
0.4644600657780234	0.12377584	0.3518179
0.48198696219306775	0.110191524	0.33195108
0.49951386988379676	0.14204112	0.37688342
0.5170407892602581	0.18529473	0.43045875
0.5345677207325025	0.19175266	0.43789572
0.5520946647105822	0.1902256	0.4361486
0.5696216216045534	0.19792172	0.44488394
0.5871485918244737	0.16732769	0.40905708
0.6046755757804043	0.15155707	0.38930333
0.6222025738824094	0.1762825	0.4198601
0.6397295865405557	0.22554207	0.4749127
0.6572566141649129	0.2409862	0.49090344
0.6747836571655547	0.21624961	0.46502647
0.6923107159525568	0.19451442	0.4410379
0.7098377909359992	0.19720607	0.4440789
0.7273648825259653	0.21897699	0.46794978
0.7448919911325411	0.19838549	0.44540486
0.762419117165817	0.2210447	0.47015393
0.7799462610358868	0.1698591	0.41213965
0.7974734231528482	0.16831954	0.41026765
0.8150006039268024	0.1301677	0.3607876
0.8325278037678551	0.15203916	0.389922
0.8500550230861152	0.16699433	0.4086494
0.8675822622916969	0.17574903	0.41922432
0.8851095217947171	0.19544846	0.44209552
0.9026368020052984	0.18712583	0.43258044
0.9201641033335665	0.16542956	0.40673032
0.9376914261896523	0.14791368	0.38459548
0.9552187709836915	0.19187504	0.43803543
0.9727461381258234	0.22544584	0.47481138
0.990273528026193	0.28214398	0.5311723
1.0078009410949496	0.30657083	0.5536884
1.0253283777422473	0.32453117	0.5696764
1.0428558383782454	0.31959918	0.56533104
1.0603833234131086	0.3060901	0.55325407
1.0779108332570058	0.33369797	0.577666
1.0954383683201119	0.35839924	0.5986645
1.112965929012607	0.41860104	0.6469938
1.1304935157446763	0.5258235	0.7251369
1.1480211289265108	0.6017443	0.7757218
1.1655487689683062	1.4744973	1.2142888
1.1830764362802655	1.7920989	1.338693
1.200604131272596	2.2016857	1.4838078
1.2181318543555117	2.4991944	1.5808841
1.235659605939232	2.459088	1.568148
1.253187386433982	3.86999	1.967229
1.270715196249994	5.989772	2.447401
1.2882430357975057	11.745173	3.4271233
1.3057709054867608	16.878897	4.1083937
1.3232988057280106	22.953516	4.7909827
1.3408267369315112	28.282057	5.3180876
1.358354699507526	32.29213	5.682616
1.3758826938663256	36.835575	6.069232
1.3934107204181858	38.442562	6.2002068
1.410938779573391	38.148827	6.1764736
1.4284668717422309	38.1628	6.1776047
1.4459949973350033	37.924664	6.1583004
1.4635231567620117	37.939026	6.1594663
1.4810513504335687	37.2339	6.1019588
1.4985795787599925	36.20087	6.016716
1.5161078421516088	35.870083	5.989164
1.5336361410187505	35.286842	5.940273
1.5511644757717598	35.9784	5.9982
1.5686928468209842	36.462734	6.038438
1.58622125457678	36.949306	6.078594
1.6037496994495108	37.688824	6.1391225
1.621278181849548	37.45972	6.1204348
1.6388067021872719	38.393646	6.1962605
1.6563352608730693	37.8715	6.153982
1.673863858317336	37.167698	6.0965314
1.6913924949304753	36.705006	6.0584655
1.7089211711228998	35.80196	5.983474
1.7264498873050296	34.948235	5.911703
1.7439786438872935	33.620483	5.7983174
1.7615074412801288	32.344383	5.6872125
1.779036279893981	31.682816	5.628749
1.796565160139305	31.041304	5.571472
1.814094082426564	30.485855	5.5214
1.8316230471662298	29.58607	5.4393077
1.849152054768784	28.59616	5.347538
1.8666811056447168	27.843018	5.2766485
1.8842102002045273	27.468325	5.241023
1.901739338858724	26.9914	5.195325
1.9192685220178245	26.464914	5.1444063
1.9367977500923557	25.293173	5.029232
1.9543270234928547	24.666996	4.966588
1.971856342629867	23.996744	4.8986473
1.9893857079139496	23.557772	4.853635
2.006915119755667	23.142965	4.810714
2.0244445785655945	22.649443	4.759143
2.0419740847543175	22.128016	4.7040424
2.0595036387324317	21.917011	4.681561
2.0770332409105414	21.537031	4.6408005
2.094562891699263	21.33415	4.618891
2.1120925915092217	20.791126	4.5597286
2.129622340751053	20.369425	4.51325
2.1471521398354043	188.49142	13.729218
2.1646819891729323	444.98727	21.09472
2.182211889174303	441.23172	21.005516
2.1997418402501974	453.38818	21.292913
2.2172718428113023	433.01627	20.809042
2.234801897268317	320.8611	17.912596
2.2523320040319548	17.241863	4.1523323
2.269862163512935	17.05384	4.1296296
2.287392376121992	16.915619	4.11286
2.304922642269869	16.789778	4.097533
2.322452962367322	16.477173	4.0592084
2.3399833368251164	15.982899	3.9978619
2.357513766054032	15.502658	3.9373415
2.3750442504648586	15.063838	3.881216
2.3925747904683963	14.742547	3.8396025
2.410105386475459	14.567951	3.8167984
2.4276360388968707	14.277967	3.7786198
2.445166748143469	14.238814	3.7734354
2.4626975146261025	14.119935	3.7576501
2.4802283387556323	14.122826	3.7580347
2.4977592209429305	13.672064	3.6975753
2.5152901615988825	13.194279	3.632393
2.5328211611343865	12.8538685	3.5852292
2.5503522199603523	12.765758	3.57292
2.5678833384877024	12.7503	3.5707562
2.5854145171273712	12.513509	3.5374439
2.6029457562903064	12.164003	3.487693
2.620477056387469	11.788363	3.4334185
2.6380084178298326	11.516921	3.3936589
2.655539841028383	11.434841	3.381544
2.673071326394119	11.418176	3.379079
2.6906028743380523	11.309979	3.3630314
2.708134485271211	11.204003	3.347238
2.7256661596046325	11.084396	3.3293238
2.743197897749369	10.868386	3.2967236
2.760729700116486	10.71635	3.2735837
2.778261567117063	10.504804	3.2411115
2.795793499162193	10.18154	3.1908524
2.8133254966629817	10.104003	3.1786795
2.830857560030551	9.982986	3.1595864
2.8483896896760337	9.873566	3.1422231
2.865921886010578	9.6866665	3.112341
2.883454149445347	9.5570965	3.0914555
2.9009864803915177	9.526549	3.086511
2.91851887926028	9.406709	3.067036
2.9360513464628384	9.261391	3.0432534
2.953583882410413	9.112842	3.0187483
2.9711164875142373	8.983541	2.9972556
2.9886491621855606	8.97161	2.9952645
3.0061819068356455	8.91692	2.9861212
3.023714721875769	8.867672	2.9778636
3.041247607717225	8.782144	2.963468
3.0587805647713213	8.563831	2.9264026
3.0763135934493806	8.568974	2.927281
3.0938466941627407	8.417159	2.9012341
3.1113798673227544	8.364437	2.8921337
3.1289131133407904	8.109334	2.8476892
3.1464464326282315	7.950026	2.8195791
3.1639798255964786	7.8079433	2.7942698
3.1815132926569443	7.72781	2.7798939
3.1990468342210603	7.6535134	2.7664983
3.216580450700272	7.490922	2.736955
3.2341141425060416	7.360095	2.7129495
3.251647910049847	7.3545704	2.7119312
3.2691817537431813	7.335009	2.7083223
3.286715673997555	7.3404565	2.7093277
3.3042496712244938	7.306052	2.702971
3.32178374583554	7.0293236	2.651287
3.339317898242251	6.993825	2.6445842
3.3568521288562034	6.869422	2.6209583
3.3743864380889876	6.90543	2.6278183
3.3919208263522127	6.8827524	2.6235
3.4094552940575023	6.7969904	2.6071038
3.4269898416164972	6.7761083	2.603096
3.444524469440858	6.6766815	2.5839276
3.4620591779422587	6.695023	2.5874743
3.479593967532391	6.6403656	2.5768907
3.4971288386229658	6.5352626	2.556416
3.5146637916257086	6.4792366	2.5454345
3.5321988269523628	6.4254103	2.5348394
3.5497339450146903	6.3139677	2.5127609
3.5672691462244708	6.253435	2.500687
3.5848044309934988	6.2824607	2.5064838
3.60233979973359	6.2754564	2.5050862
3.619875252856575	6.289733	2.507934
3.6374107907743034	6.1920567	2.4883842
3.6549464138986427	6.163758	2.4826915
3.6724821226414788	6.2636895	2.5027363
3.690017917414714	6.3417497	2.5182831
3.7075537986302702	6.4493713	2.5395613
3.7250897667000857	6.3761954	2.5251129
3.7426258220361235	6.539794	2.557302
3.7601619650503553	6.884205	2.623777
3.777698196154779	7.453958	2.7301939
3.7952345157614067	8.469837	2.9102986
3.8127709242822716	9.24106	3.0399113
3.830307422129425	11.331832	3.3662786
3.847844009714936	30.094316	5.485829
3.8653806874508954	97.71655	9.885168
3.882917455749409	97.06916	9.852368
3.900454315022606	96.83458	9.840456
3.917991265682631	41.174713	6.4167523
3.9355283081416506	10.814809	3.2885876
3.9530654428118495	8.690864	2.9480271
3.970602670105433	7.5876994	2.7545779
3.9881399904346244	6.7255974	2.5933757
4.005677404211669	6.6517177	2.5790925
4.023214911848827	6.648783	2.5785234
4.0407525137583855	6.509837	2.5514383
4.058290210352644	6.497563	2.5490317
4.075828002043927	6.374581	2.5247931
4.0933658892445814	6.430345	2.5358126
4.110903872366966	6.338865	2.5177102
4.128441951823468	6.266953	2.5033884
4.145980128026488	6.292167	2.5084193
4.163518401388452	6.3003902	2.510058
4.181056772321807	6.320672	2.5140946
4.1985952412390155	6.366481	2.5231886
4.216133808552567	6.3600373	2.5219114
4.233672474674966	6.330566	2.5160615
4.251211240018741	6.5012393	2.5497527
4.268750104996445	6.6988006	2.5882041
4.286289070020643	7.6364646	2.7634153
4.303828135503928	9.310733	3.0513494
4.3213673018589125	29.607426	5.441271
4.3389065694982305	90.78046	9.527878
4.356445938834537	165.95956	12.882529
4.3739854102805085	171.77232	13.1061945
4.391524984248844	172.62405	13.138647
4.409064661152262	136.75842	11.694376
4.426604441403504	96.94367	9.845998
4.444144325415337	75.83134	8.708119
4.461684313600543	21.924612	4.6823726
4.47922440637193	22.23208	4.7150908
4.496764604142329	20.629873	4.542012
4.5143049073245916	18.813625	4.3374677
4.531845316331589	16.657877	4.081406
4.5493858315762195	13.75554	3.708846
4.566926453471405	11.397429	3.376008
4.584467182430081	9.439292	3.072343
4.602008018865218	8.367347	2.8926365
4.619548963189798	7.68741	2.7726178
4.637090015816834	7.1550374	2.6748903
4.654631177159353	6.9261336	2.6317549
4.672172447630417	6.574453	2.5640695
4.689713827643102	6.360829	2.5220683
4.7072553176105085	6.0561767	2.46093
4.724796917945764	5.8869624	2.4263062
4.742338629062015	5.747216	2.3973353
4.759880451372434	5.75468	2.3988914
4.777422385290215	5.7733393	2.4027774
4.794964431228581	5.8407016	2.4167542
4.812506589600768	5.907751	2.4305866
4.830048860820047	5.882719	2.4254317
4.847591245299709	5.7671633	2.4014919
4.8651337434530655	5.744267	2.39672
4.882676355693457	5.677705	2.3827934
4.900219082434242	5.583695	2.3629844
4.917761924088813	5.546558	2.355113
4.935304881070575	5.534871	2.3526306
4.952847953792969	5.6128616	2.3691478
4.970391142669449	5.600338	2.3665032
4.9879344481135055	5.6203055	2.3707182
5.005477870538642	5.602567	2.3669744
5.023021410358394	5.603871	2.3672497
5.040565067986324	5.566097	2.3592577
5.05810884383601	5.4811563	2.341187
5.075652738321066	5.3954167	2.3228037
5.09319675185512	5.365941	2.31645
5.110740884851836	5.388791	2.321377
5.128285137724894	5.39675	2.3230906
5.145829510888007	5.392406	2.3221555
5.163374004754908	5.409329	2.3257964
5.1809186197393595	5.4331746	2.3309171
5.198463356255145	5.4305873	2.330362
5.216008214716077	5.3628573	2.3157845
5.233553195535998	5.3624787	2.3157027
5.251098299128764	5.377616	2.3189688
5.268643525908272	5.3595014	2.3150597
5.286188876288432	5.3379455	2.3103995
5.3037343506831895	5.3079376	2.3038962
5.32127994950651	5.2757983	2.2969105
5.3388256731723915	5.311263	2.304618
5.356371522094851	5.3511996	2.313266
5.373917496687938	5.3382463	2.3104646
5.391463597365729	5.345595	2.3120542
5.40900982454232	5.3011584	2.3024244
5.426556178631843	5.257461	2.2929153
5.444102660048449	5.2621303	2.2939334
5.4616492692063225	5.2521834	2.2917643
5.479196006519669	5.2415195	2.2894366
5.496742872402727	5.209511	2.2824352
5.514289867269756	5.181278	2.276242
5.531836991535049	5.217732	2.2842355
5.549384245612924	5.2707324	2.2958076
5.566931629917724	5.339889	2.31082
5.584479144863822	5.3063946	2.3035612
5.6020267908656205	5.326561	2.3079343
5.619574568337545	5.2754736	2.29684
5.637122477694054	5.2801747	2.297863
5.654670519349629	5.2371507	2.2884822
5.672218693718784	5.2300096	2.2869215
5.689767001216059	5.1706324	2.2739024
5.707315442256021	5.1483407	2.2689955
5.724864017253266	5.177413	2.275393
5.7424127266224225	5.206925	2.2818687
5.75996157077814	5.256998	2.2928145
5.777510550135105	5.2631016	2.294145
5.795059665108022	5.2674394	2.2950902
5.812608916111639	5.261065	2.2937012
5.830158303560715	5.3868775	2.3209648
5.847707827870055	5.392645	2.322207
5.86525748945448	5.494821	2.3441036
5.8828072887288485	5.5918937	2.3647184
5.900357226108044	5.6800647	2.3832886
5.917907302006979	5.729848	2.3937101
5.9354575168406	6.2490487	2.4998097
5.9530078710238765	6.774819	2.6028483
5.970558364971812	7.293586	2.700664
5.988108999099438	7.6744304	2.7702763
6.005659773821818	8.304042	2.8816733
6.023210689554039	8.070181	2.8408065
6.040761746711227	8.521107	2.9190934
6.058312945708531	7.8984327	2.810415
6.075864286961132	7.4518647	2.7298105
6.093415770884244	6.793046	2.6063473
6.1109673978931065	6.194431	2.4888613
6.128519168402993	5.5951056	2.3653975
6.146071082829204	5.495714	2.344294
6.163623141587075	5.4156485	2.3271546
6.181175345091969	5.3657794	2.3164153
6.198727693759281	5.332753	2.3092754
6.216280188004435	5.2897687	2.2999496
6.233832828242885	5.3161554	2.3056788
6.251385614890126	5.3723073	2.317824
6.268938548361669	5.4086337	2.3256469
6.286491629073067	5.220707	2.2848866
6.304044857439898	5.1465526	2.2686014
6.321598233877777	5.006469	2.237514
6.339151758802344	4.987714	2.233319
6.356705432629277	4.994155	2.2347605
6.37425925577428	4.910373	2.2159362
6.391813228653095	4.860588	2.2046742
6.409367351681486	4.9534626	2.2256377
6.426921625275259	5.0803576	2.253965
6.44447604985025	5.067225	2.2510498
6.46203062582232	5.053411	2.2479794
6.47958535360737	5.091168	2.2563617
6.497140233621328	5.1476626	2.268846
6.514695266280161	5.183924	2.2768233
6.532250451999859	5.2270417	2.2862725
6.549805791196454	5.2075844	2.2820132
6.567361284286002	5.1463966	2.268567
6.584916931684597	5.0799274	2.2538695
6.602472733808367	5.0163116	2.2397125
6.6200286910734665	5.0616307	2.249807
6.637584803896092	5.0492105	2.2470448
6.655141072692462	5.082323	2.2544007
6.672697497878842	5.0651836	2.2505963
6.690254079871514	5.0391283	2.2448003
6.707810819086808	5.053046	2.247898
6.725367715941078	5.0708704	2.2518594
6.742924770850719	5.071277	2.2519495
6.760481984232151	5.090626	2.2562416
6.778039356501836	5.0575047	2.2488897
6.795596888076266	5.0892296	2.255932
6.813154579371963	5.004675	2.237113
6.830712430805492	4.985555	2.2328358
6.84827044279344	4.9892683	2.233667
6.865828615752445	5.055799	2.2485104
6.883386950099159	5.1156607	2.2617826
6.900945446250287	5.1243696	2.2637072
6.918504104622553	5.05379	2.2480636
6.936062925632727	5.077418	2.2533126
6.953621909697607	5.1301355	2.2649803
6.971181057234028	5.2315288	2.2872536
6.988740368658859	5.279742	2.2977688
7.006299844389007	5.2606144	2.293603
7.023859484841407	5.3097477	2.3042889
7.041419290433036	5.4058743	2.3250537
7.058979261580902	5.5529056	2.3564603
7.0765393987020495	5.73249	2.3942618
7.094099702213559	6.1077685	2.47139
7.111660172532549	6.4700727	2.5436337
7.129220810076164	6.846126	2.6165104
7.146781615261595	7.5215955	2.7425528
7.16434258850606	7.6972075	2.7743843
7.181903730226821	8.16265	2.8570352
7.1994650408411704	8.220681	2.867173
7.217026520766437	8.362528	2.8918035
7.234588170419983	8.646478	2.9404893
7.252149990219215	8.718827	2.952766
7.269711980581568	8.650629	2.9411952
7.2872741419245175	8.418446	2.9014559
7.304836474665574	7.9494786	2.819482
7.322398979222286	7.5657935	2.7505987
7.339961656012233	7.2951384	2.7009513
7.357524505453039	6.9511504	2.6365035
7.375087527962357	6.662912	2.5812616
7.392650723957886	6.3217263	2.5143044
7.410214093857353	5.959597	2.4412286
7.427777638078528	5.7090697	2.389366
7.445341357039213	5.558845	2.3577204
7.4629052511572525	5.4473176	2.3339489
7.480469320850524	5.3104577	2.3044431
7.498033566536948	5.265471	2.2946615
7.5155979886344735	5.2776437	2.2973123
7.5331625875610975	5.283731	2.2986367
7.550727363734844	5.2677355	2.2951548
7.568292317573788	5.239779	2.2890563
7.585857449496025	5.225048	2.2858365
7.603422759919705	5.1772323	2.2753532
7.620988249263007	5.1666193	2.2730198
7.638553917944147	5.1693344	2.273617
7.656119766381391	5.1989098	2.2801118
7.673685794993023	5.213073	2.2832155
7.691252004197388	5.256538	2.292714
7.70881839441285	5.289064	2.2997966
7.726384966057826	5.3457794	2.3120942
7.743951719550762	5.3800917	2.3195024
7.761518655310149	5.399668	2.3237185
7.779085773754511	5.4206805	2.3282354
7.796653075302419	5.3963776	2.3230104
7.814220560372475	5.363853	2.3159993
7.831788229383323	5.32276	2.3071108
7.8493560827536495	5.304323	2.3031116
7.866924120902174	5.271337	2.2959392
7.884492344247663	5.3193445	2.3063705
7.9020607532089135	5.3957763	2.322881
7.919629348204771	5.4029946	2.3244343
7.937198129654115	5.4257565	2.3293254
7.954767097975865	5.389787	2.3215916
7.972336253588986	5.423425	2.3288248
7.989905596912472	5.450372	2.3346033
8.007475128365371	5.468451	2.338472
8.025044848366756	5.527602	2.3510854
8.042614757335754	5.666547	2.380451
8.060184855691523	5.7405176	2.3959377
8.07775514385327	5.9754786	2.4444792
8.095325622240228	6.0412674	2.457899
8.112896291271687	6.085323	2.4668448
8.130467151366968	6.060269	2.4617612
8.148038202945436	6.028532	2.455307
8.165609446426497	5.977977	2.4449902
8.183180882229594	5.9807553	2.4455583
8.200752510774217	5.989992	2.447446
8.218324332479893	6.024958	2.454579
8.235896347766193	6.0422764	2.4581041
8.253468557052724	6.0528793	2.46026
8.27104096075914	6.0718765	2.4641178
8.288613559305137	6.0948544	2.468776
8.306186353110448	6.1694193	2.4838316
8.32375934259485	6.2402673	2.4980526
8.341332528178162	6.277798	2.5055535
8.358905910280246	6.3101325	2.5119977
8.376479489321003	6.28167	2.506326
8.394053265720377	6.3532534	2.520566
8.411627239898356	6.3375006	2.5174394
8.42920141227497	6.325724	2.5150993
8.44677578327029	6.345151	2.5189583
8.464350353304427	6.278012	2.5055962
8.48192512279754	6.2051435	2.4910126
8.499500092169827	6.119384	2.473739
8.51707526184153	6.106589	2.4711514
8.534650632232934	6.1520247	2.4803276
8.552226203764365	6.215288	2.493048
8.569801976856192	6.286252	2.5072398
8.587377951928834	6.390747	2.5279927
8.60495412940274	6.436074	2.5369418
8.622530509698416	6.410082	2.5318139
8.6401070932364	6.4118266	2.5321584
8.657683880437283	6.541311	2.5575986
8.675260871721695	6.717019	2.5917213
8.692838067510303	6.9170184	2.6300225
8.710415468223834	7.0798583	2.6608002
8.727993074283043	7.2539067	2.6933079
8.745570886108737	7.2506223	2.692698
8.763148904121765	7.262288	2.6948633
8.78072712874302	7.2427125	2.6912289
8.798305560393441	7.5080705	2.7400858
8.815884199494006	7.7074633	2.7762318
8.833463046465745	7.947225	2.8190823
8.851042101729728	8.063175	2.8395731
8.86862136570707	8.31156	2.8829775
8.886200838818924	8.418089	2.9013944
8.903780521486505	8.51153	2.9174526
8.921360414131055	8.573872	2.9281175
8.938940517173874	8.643205	2.9399328
8.956520831036297	8.784483	2.963863
8.97410135613971	9.055384	3.0092165
8.99168209290554	9.297424	3.0491679
9.009263041755265	9.620661	3.101719
9.026844203110405	9.856097	3.1394422
9.044425577392525	10.018638	3.1652231
9.062007165023239	10.067956	3.1730042
9.079588966424197	10.311908	3.211216
9.097170982017108	10.419699	3.2279558
9.11475321222372	11.445872	3.383175
9.132335657465825	12.445902	3.527875
9.149918318165264	12.511719	3.537191
9.167501194743924	12.964557	3.600633
9.18508428762374	12.63044	3.553933
9.202667597226693	12.617601	3.5521264
9.220251123974803	12.383416	3.519008
9.237834868290143	12.035373	3.4692035
9.255418830594836	11.785096	3.4329429
9.273003011311046	11.235309	3.3519113
9.290587410860985	11.078312	3.32841
9.308172029666911	10.510553	3.2419984
9.32575686815113	10.255844	3.2024746
9.343341926735997	8.930635	2.988417
9.360927205843916	8.665863	2.9437838
9.378512705897327	8.439397	2.905064
9.396098427318728	8.105853	2.847078
9.413684370530664	8.003579	2.8290598
9.431270535955722	7.9163694	2.8136044
9.448856924016539	7.9163656	2.8136036
9.466443535135806	7.864092	2.8042989
9.484030369736251	7.8996115	2.8106248
9.501617428240658	7.9422636	2.8182023
9.519204711071852	8.0112705	2.8304188
9.536792218652714	8.028939	2.8335383
9.55437995140617	8.058061	2.8386724
9.571967909755191	8.018517	2.8316984
9.589556094122802	7.9609466	2.8215148
9.60714450493207	7.9013243	2.8109295
9.624733142606116	7.9339895	2.8167338
9.642322007568108	7.9851956	2.8258088
9.659911100241267	8.036462	2.8348653
9.677500421048851	8.048409	2.836972
9.695089970414175	8.048003	2.8369002
9.712679748760609	8.068401	2.8404932
9.730269756511557	8.200137	2.863588
9.747859994090492	8.369413	2.892994
9.765450461920915	8.488598	2.9135199
9.78304116042639	8.5322695	2.9210048
9.800632090030527	8.472917	2.9108274
9.81822325115699	8.42009	2.9017391
9.835814644229481	8.4475355	2.9064643
9.853406269671762	8.520958	2.919068
9.870998127907646	8.4726	2.910773
9.888590219360985	8.433907	2.9041188
9.906182544455698	8.366158	2.892431
9.923775103615734	8.390681	2.8966672
9.941367897265108	8.452209	2.9072683
9.958960925827878	8.452148	2.9072578
9.97655418972816	8.387902	2.8961875
9.994147689390106	8.403494	2.898878
10.011741425237934	8.368483	2.892833
10.029335397695904	8.442952	2.905676
10.04692960718833	8.4218445	2.9020414
10.06452405413958	8.409587	2.8999288
10.082118738974064	8.417012	2.9012086
10.099713662116246	8.365265	2.8922768
10.117308823990651	8.4323225	2.9038463
10.134904225021844	8.478851	2.9118466
10.152499865634445	8.479653	2.9119844
10.170095746253125	8.477999	2.9117002
10.18769186730261	8.396455	2.8976636
10.205288229207675	8.384091	2.8955295
10.222884832393145	8.368347	2.8928096
10.2404816772839	8.341578	2.8881788
10.258078764304868	8.263102	2.874561
10.275676093881035	8.184395	2.8608382
10.293273666437438	8.134947	2.8521829
10.310871482399158	8.18542	2.8610172
10.32846954219134	8.23457	2.8695939
10.346067846239173	8.278565	2.8772497
10.363666394967908	8.253118	2.872824
10.38126518880283	8.246196	2.871619
10.398864228169298	8.261533	2.8742883
10.416463513492713	8.357627	2.8909562
10.434063045198531	8.40773	2.8996086
10.451662823712262	8.393657	2.8971808
10.469262849459467	8.35634	2.8907335
10.486863122865758	8.161618	2.8568547
10.504463644356806	8.099403	2.8459451
10.522064414358338	8.061098	2.8392074
10.539665433296118	8.004498	2.829222
10.557266701595987	7.948194	2.8192542
10.574868219683818	7.8196383	2.7963617
10.592469987985552	7.763186	2.7862494
10.610072006927185	7.7384534	2.7818077
10.627674276934751	7.690189	2.773119
10.64527679843435	7.5231566	2.7428374
10.662879571852143	7.3585296	2.712661
10.680482597614331	7.178589	2.6792889
10.698085876147173	7.0336094	2.6520953
10.715689407876988	6.986901	2.6432745
10.733293193230146	6.9643574	2.6390069
10.750897232633072	6.9422016	2.634806
10.76850152651225	6.876729	2.622352
10.786106075294207	6.7515836	2.598381
10.803710879405534	6.656897	2.5800962
10.821315939272877	6.57201	2.5635931
10.83892125532294	6.514248	2.5523024
10.856526827982472	6.443263	2.5383584
10.874132657678285	6.4017887	2.5301757
10.891738744837243	6.3318086	2.5163085
10.909345089886271	6.206135	2.4912114
10.926951693252343	6.100837	2.4699874
10.944558555362494	6.032317	2.4560776
10.96216567664381	6.0247297	2.4545324
10.979773057523436	5.9499297	2.4392478
10.997380698428573	5.9457912	2.4383993
11.014988599786477	5.8652644	2.421831
11.032596762024461	5.7920985	2.406678
11.050205185569892	5.698905	2.387238
11.067813870850198	5.6046534	2.367415
11.085422818292859	5.560907	2.3581576
11.10303202832541	5.5136166	2.3481092
11.120641501375454	5.467037	2.3381696
11.138251237870636	5.4361563	2.3315566
11.155861238238671	5.386367	2.3208547
11.173471502907317	5.215103	2.28366
11.191082032304402	5.1066737	2.259795
11.208692826857805	5.0641055	2.2503567
11.226303886995465	5.073619	2.2524695
11.243915213145371	5.091228	2.256375
11.261526805735578	5.04224	2.2454934
11.279138665194196	4.9695005	2.2292376
11.296750791949393	4.9597406	2.2270474
11.314363186429393	4.948544	2.2245324
11.331975849062479	4.9268656	2.2196543
11.34958878027699	4.874484	2.2078233
11.36720198050133	4.778208	2.1859112
11.384815450163948	4.701233	2.1682327
11.402429189693366	4.638942	2.1538203
11.420043199518153	4.58909	2.1422162
11.437657480066942	63.57018	7.973091
11.455272031768422	85.25269	9.233238
11.472886855051353	107.60458	10.373263
11.490501950344528	99.21179	9.960511
11.508117318076819	84.59384	9.197491
11.52573295867715	46.002293	6.782499
11.543348872574514	4.2386417	2.0587962
11.560965060197946	4.1759853	2.0435228
11.57858152197655	4.125667	2.0311737
11.59619825833949	4.1279545	2.0317369
11.613815269715985	4.1398187	2.0346544
11.631432556535323	38.67501	6.2189236
11.649050119226837	83.23151	9.12313
11.666667958219929	93.61521	9.675495
11.68428607394406	107.85464	10.385308
11.701904466828756	82.62134	9.089628
11.719523137303586	65.45755	8.090584
11.737142085798196	4.700255	2.1680071
11.754761312742286	3.841988	1.960099
11.772380818565619	3.7958214	1.9482868
11.790000603698015	3.6980581	1.9230336
11.80762066856935	3.643759	1.9088633
11.825241013609572	3.594228	1.8958449
11.842861639248683	3.5619085	1.8873019
11.860482545916748	3.51402	1.8745719
11.878103734043883	3.4567678	1.8592385
11.895725204060282	3.4444768	1.8559302
11.91334695639619	3.4208834	1.849563
11.930968991481919	3.4114988	1.8470243
11.948591309747824	3.373847	1.8368034
11.966213911624347	3.396335	1.8429148
11.98383679754198	3.3900237	1.8412017
12.001459967931268	3.3407493	1.8277717
12.019083423222835	3.3028321	1.8173696
12.036707163847352	3.2665274	1.8073537
12.05433119023556	3.2538054	1.8038307
12.071955502818259	3.2277594	1.7965966
12.089580102026313	3.2175393	1.79375
12.107204988290643	3.204273	1.7900484
12.12483016204224	3.2044532	1.7900987
12.142455623712152	3.197813	1.788243
12.16008137373149	3.2329552	1.798042
12.177707412531431	3.1887937	1.7857194
12.19533374054321	3.1557193	1.7764344
12.212960358198126	3.1048453	1.7620571
12.230587265927545	3.0776014	1.7543094
12.248214464162889	3.0602329	1.7493521
12.265841953335649	3.0300994	1.7407181
12.283469733877375	2.982514	1.7269956
12.301097806219685	2.9273047	1.7109368
12.31872617079425	2.903282	1.703902
12.336354828032825	2.9329937	1.7125986
12.353983778367205	2.9765306	1.7252624
12.371613022229262	3.0074377	1.7341965
12.389242560050928	2.9909115	1.7294252
12.406872392264201	2.9550405	1.7190231
12.424502519301143	2.9207594	1.709023
12.442132941593874	2.886102	1.6988531
12.459763659574586	2.881128	1.6973886
12.477394673675532	2.8830116	1.6979433
12.49502598432903	2.9040976	1.7041413
12.51265759196746	2.8769524	1.6961582
12.530289497023267	2.8228729	1.6801407
12.547921699928967	2.8575575	1.6904311
12.565554201117134	2.8650644	1.6926501
12.583187001020404	2.8762567	1.695953
12.600820100071486	2.8224626	1.6800187
12.618453498703152	2.8138132	1.6774424
12.636087197348235	2.804889	1.6747802
12.65372119643964	2.8093855	1.6761222
12.671355496410326	2.8199549	1.6792722
12.68899009769333	2.8437262	1.6863351
12.706625000721749	2.8580983	1.6905911
12.724260205928752	2.9322436	1.7123795
12.741895713747551	2.9671345	1.7225373
12.759531524611454	3.0515273	1.7468622
12.777167638953818	3.0336916	1.7417496
12.794804057208072	3.0410707	1.7438666
12.812440779807702	3.0765593	1.7540123
12.830077807186271	3.2478647	1.8021833
12.847715139777405	3.3051822	1.818016
12.865352778014795	3.5593636	1.8866276
12.882990722332197	3.6893733	1.9207741
12.90062897316344	3.7967641	1.9485288
12.918267530942412	3.8256078	1.955916
12.935906396103071	3.6603746	1.9132105
12.953545569079449	3.7873783	1.9461188
12.971185050305628	3.6181607	1.9021463
12.988824840215775	3.6486385	1.910141
13.006464939244115	3.604832	1.8986394
13.024105347824943	3.4354467	1.8534958
13.041746066392617	3.5351791	1.8802072
13.05938709538157	3.390072	1.8412149
13.077028435226296	3.4118938	1.8471313
13.094670086361363	3.3223372	1.8227279
13.112312049221401	3.272451	1.8089917
13.129954324241112	3.2292247	1.7970043
13.147596911855258	3.0068142	1.7340168
13.165239812498685	2.905293	1.704492
13.182883026606293	2.7619681	1.661917
13.200526554613058	2.7105806	1.6463841
13.218170396954017	2.6811106	1.6374097
13.235814554064284	2.7104797	1.6463535
13.253459026379034	2.7246146	1.6506407
13.271103814333523	2.7021613	1.6438252
13.288748918363058	2.69123	1.6404969
13.306394338903031	2.686565	1.6390744
13.32404007638889	2.7163093	1.6481229
13.341686131256164	2.7337387	1.6534021
13.359332503940449	2.6796305	1.6369576
13.376979194877402	2.656597	1.629907
13.394626204502751	2.6950705	1.641667
13.412273533252307	2.7268026	1.6513033
13.429921181561937	2.7105374	1.646371
13.447569149867581	2.7204425	1.6493764
13.465217438605247	2.7263994	1.6511812
13.482866048211022	2.7409906	1.6555938
13.500514979121052	2.7456155	1.6569899
13.518164231771568	2.7032297	1.6441501
13.535813806598844	2.699913	1.6431412
13.553463704039254	2.670953	1.6343051
13.571113924529229	2.6841912	1.6383501
13.588764468505275	2.6819363	1.6376618
13.606415336403956	2.7297413	1.6521928
13.624066528661917	2.7503796	1.6584269
13.641718045715882	2.7973154	1.6725177
13.659369888002635	2.824568	1.6806451
13.67702205595903	2.8763857	1.695991
13.694674550021993	2.985386	1.727827
13.712327370628532	3.070811	1.752373
13.729980518215713	3.1538887	1.7759191
13.747633993220681	3.1880813	1.7855198
13.765287796080647	3.2499313	1.8027565
13.7829419272329	3.3472638	1.8295529
13.800596387114801	3.4001756	1.8439565
13.818251176163775	3.3987484	1.8435695
13.835906294817324	3.4140549	1.8477161
13.853561743513023	3.4308794	1.8522633
13.871217522688525	3.5059905	1.872429
13.888873632781538	3.5594306	1.8866453
13.906530074229858	3.5524375	1.8847911
13.92418684747135	3.525356	1.8775932
13.941843952943948	3.5036163	1.8717949
13.959501391085665	3.5165641	1.8752505
13.977159162334578	3.5086079	1.8731278
13.994817267128846	3.4862196	1.8671421
14.012475705906693	3.3531895	1.8311716
14.030134479106424	3.2622926	1.8061818
14.047793587166414	3.1933517	1.7869952
14.065453030525108	3.1499681	1.774815
14.083112809621026	3.0677078	1.7514873
14.100772924892766	2.966668	1.7224017
14.118433376778997	2.8851829	1.6985826
14.136094165718458	2.8164508	1.6782285
14.153755292149969	2.7797604	1.6672614
14.171416756512416	2.7554367	1.6599509
14.189078559244768	2.7099683	1.6461982
14.20674070078606	2.634197	1.623021
14.224403181575408	2.5748122	1.6046221
14.242066002051999	2.5375469	1.592968
14.259729162655093	2.5305462	1.590769
14.277392663824022	2.5092003	1.5840455
14.295056505998208	2.4857354	1.5766215
14.312720689617128	2.4569957	1.5674807
14.330385215120348	2.4505024	1.5654081
14.348050082947497	2.425391	1.5573667
14.3657152935383	2.4014044	1.5496465
14.383380847332528	2.3844736	1.5441741
14.401046744770051	2.4231427	1.5566447
14.418712986290798	2.4357688	1.5606949
14.436379572334793	2.454638	1.5667285
14.454046503342123	2.4208963	1.555923
14.471713779752946	2.3802845	1.5428171
14.489381402007504	2.3468146	1.5319316
14.507049370546113	2.350138	1.533016
14.524717685809168	2.39151	1.5464507
14.542386348237134	2.4376721	1.5613046
14.560055358270553	2.4460075	1.5639718
14.577724716350051	2.488294	1.5774326
14.595394422916325	2.475388	1.5733366
14.61306447841015	2.504832	1.5826662
14.63073488327237	2.5285358	1.590137
14.648405637943917	2.5289433	1.5902652
14.6660767428658	2.5197911	1.5873849
14.683748198479094	2.4958982	1.5798413
14.701420005224954	2.5367205	1.5927086
14.719092163544628	2.6404648	1.6249506
14.73676467387942	2.7094557	1.6460425
14.754437536670727	2.6971486	1.6422998
14.772110752360014	2.6817737	1.6376122
14.78978432138882	2.67309	1.6349587
14.807458244198777	2.720728	1.6494629
14.82513252123159	2.699776	1.6430995
14.842807152929028	2.7421312	1.6559381
14.860482139732962	2.752804	1.6591576
14.87815748208531	2.7461545	1.6571525
14.8958331804281	2.7129288	1.6470971
14.91350923520342	2.6655223	1.6326427
14.931185646853438	2.6680727	1.6334236
14.948862415820408	2.664618	1.6323658
14.966539542546656	2.7213554	1.6496531
14.98421702747459	2.7197087	1.649154
15.001894871046696	2.7175965	1.6485134
15.019573073705542	2.7177222	1.6485516
15.037251635893766	2.7190568	1.6489563
15.054930558054092	2.7427776	1.6561333
15.072609840629323	2.7921746	1.6709801
15.090289484062351	2.8900347	1.7000102
15.107969488796124	3.1858215	1.784887
15.125649855273691	3.5830162	1.8928857
15.14333058393817	4.103597	2.0257337
15.161011675232768	5.1432	2.2678623
15.17869312960076	6.5777864	2.5647197
15.196374947485506	8.421875	2.9020467
15.214057129330447	11.512648	3.3930292
15.231739675579114	16.168478	4.0210047
15.249422586675102	21.1006	4.5935388
15.267105863062092	24.14563	4.9138203
15.284789505183847	24.441128	4.943797
15.302473513484218	22.45778	4.738964
15.320157888407127	18.90354	4.3478203
15.337842630396578	14.663004	3.8292303
15.355527739896656	11.345038	3.3682396
15.37321321735153	8.857991	2.9762378
15.39089906320545	6.5512977	2.5595503
15.408585277902748	4.968417	2.2289946
15.42627186188783	3.8196917	1.9544032
15.443958815605198	3.2799425	1.8110611
15.461646139499424	2.9880626	1.7286013
15.479333834015168	2.8563578	1.6900762
15.497021899597165	2.8127053	1.6771122
15.514710336690234	2.7703226	1.6644286
15.53239914573928	2.691766	1.6406603
15.550088327189297	2.6352382	1.6233417
15.567777881485336	2.5519724	1.5974894
15.58546780907256	2.5130267	1.5852529
15.6031581103962	2.463388	1.5695183
15.620848785901568	2.500939	1.5814357
15.638539836034063	2.536163	1.5925336
15.656231261239173	2.511381	1.5847337
15.673923061962451	2.4620075	1.5690786
15.691615238649552	2.3963819	1.5480251
15.709307791746202	2.4101884	1.5524782
15.727000721698221	2.4409392	1.5623505
15.744694028951498	2.42804	1.5582169
15.76238771395202	2.382472	1.5435258
15.780081777145844	2.3756192	1.5413043
15.797776218979125	2.3840804	1.5440468
15.815471039898094	2.3955648	1.5477612
15.833166240349064	2.4029074	1.5501314
15.850861820778437	2.3986433	1.5487554
15.868557781632699	2.412358	1.5531768
15.886254123358412	2.394177	1.5473129
15.903950846402232	2.3601635	1.5362823
15.921647951210897	2.3712385	1.5398827
15.939345438231225	2.3866339	1.5448735
15.957043307910133	2.3775222	1.5419216
15.974741560694602	2.368133	1.5388739
15.992440197031714	2.3750713	1.5411266
16.01013921736862	2.391692	1.5465096
16.02783862215259	2.4031463	1.5502084
16.045538411830933	2.399966	1.5491824
16.06323858685107	2.4147477	1.5539459
16.080939147660512	2.4265845	1.5577499
16.09864009470684	2.4035313	1.5503327
16.11634142843774	2.4374971	1.5612485
16.134043149300954	2.4891238	1.5776957
16.15174525774433	2.4620204	1.5690826
16.169447754215817	2.4306927	1.5590678
16.18715063916342	2.394769	1.5475041
16.204853913035244	2.4163702	1.5544678
16.222557576279478	2.429987	1.5588416
16.240261629344403	22.41947	4.73492
16.257966072678386	42.934452	6.5524387
16.275670906729868	38.032444	6.167045
16.293376131947387	2.5089896	1.583979
16.31108174877957	2.5778143	1.6055573
16.328787757675133	2.6345854	1.6231406
16.34649415908287	2.6157327	1.6173227
16.364200953451657	2.622277	1.6193446
16.38190814123048	2.6158574	1.6173612
16.39961572286839	2.6837091	1.638203
16.41732369881455	2.7129436	1.6471015
16.43503206951817	2.7265186	1.6512173
16.45274083542859	2.71352	1.6472765
16.47044999699522	2.7746484	1.6657276
16.488159554667558	2.8229227	1.6801555
16.505869508895184	2.8883562	1.6995164
16.523579860127786	2.9714692	1.7237949
16.541290608815117	3.0524337	1.7471216
16.559001755407035	3.097694	1.7600267
16.57671330035348	3.1077168	1.7628717
16.59442524410448	3.152953	1.7756556
16.61213758711015	3.2252266	1.7958916
16.629850329820705	3.3015714	1.8170227
16.647563472686436	3.3601918	1.8330826
16.665277016157724	3.423681	1.8503191
16.682990960685053	3.4606595	1.8602848
16.70070530671898	3.4878094	1.8675678
16.718420054710155	3.5541303	1.8852401
16.736135205109335	3.6224928	1.9032848
16.753850758367335	3.6378696	1.90732
16.771566714935087	3.6547215	1.9117326
16.789283075263597	3.7302537	1.9313865
16.80699983980398	3.8351903	1.9583642
16.82471700900741	3.8897135	1.9722357
16.84243458332518	3.9913535	1.9978372
16.860152563208665	4.0337667	2.008424
16.87787094910932	4.0890737	2.0221457
16.89558974147871	4.1356583	2.0336318
16.913308940768466	4.1761274	2.0435576
16.931028547430333	4.233618	2.0575757
16.94874856191613	4.355549	2.0869951
16.966468984677785	4.462625	2.1124926
16.98418981616729	4.47036	2.1143224
17.00191105683676	4.4471536	2.1088276
17.019632707138374	4.4164424	2.1015334
17.03735476752442	4.49821	2.1208985
17.05507723844728	4.59818	2.1443367
17.072800120359403	4.6764317	2.1625059
17.090523413713353	4.706365	2.169416
17.108247118961785	4.730268	2.174918
17.125971236557437	4.7446995	2.1782331
17.143695766953133	4.761511	2.1820886
17.161420710601806	4.76879	2.1837559
17.179146067956477	4.7427187	2.1777785
17.19687183947025	4.725162	2.1737437
17.21459802559634	4.6976166	2.1673987
17.232324626788028	4.7835884	2.1871417
17.25005164349871	4.8117733	2.1935754
17.267779076181863	4.7840786	2.1872537
17.285506925291074	4.685698	2.1646473
17.30323519127999	4.5984464	2.144399
17.320963874602384	4.5797076	2.1400251
17.33869297571211	4.574416	2.1387885
17.356422495063114	4.5743074	2.138763
17.37415243310944	4.5742097	2.1387403
17.391882790305218	4.558401	2.1350412
17.40961356710468	4.5707674	2.1379354
17.42734476396215	4.5714173	2.1380873
17.445076381332044	4.5830474	2.1408052
17.462808419668868	4.6696534	2.160938
17.48054087942723	4.8342323	2.1986887
17.498273761061835	5.0754046	2.2528658
17.51600706502747	5.5674	2.3595338
17.533740791779024	6.303823	2.5107415
17.551474941771485	7.7227163	2.7789776
17.56920951545993	8.798358	2.9662027
17.586944513299528	10.829658	3.2908444
17.60467993574556	12.483411	3.5331872
17.622415783253373	14.161751	3.76321
17.64015205627843	15.528974	3.940682
17.657888755276293	16.568398	4.07043
17.675625880702604	17.04042	4.1280046
17.69336343301311	16.896456	4.11053
17.71110141266366	16.152487	4.019016
17.728839820110178	15.290516	3.9103088
17.746578655808705	14.485201	3.8059428
17.764317920215372	13.053975	3.6130285
17.7820576137864	11.568028	3.4011805
17.79979773697811	9.520481	3.0855277
17.81753829024692	7.6004777	2.7568965
17.835279274049356	5.9064794	2.430325
17.85302068884201	4.913139	2.2165601
17.870762535081607	4.299087	2.073424
17.888504813224934	3.946781	1.9866507
17.90624752372891	3.7620773	1.9396075
17.923990667050536	3.6597981	1.91306
17.941734243646895	3.5732894	1.8903146
17.959478253975185	3.5102108	1.8735557
17.9772226984927	3.4769979	1.864671
17.994967577656833	3.4422243	1.8553232
18.01271289192506	3.3660967	1.8346926
18.030458641754965	3.3383548	1.8271165
18.04820482760425	3.3286207	1.8244507
18.06595144993067	3.3610077	1.8333051
18.083698509192125	3.3386633	1.827201
18.101446005846576	3.3166788	1.8211751
18.119193940352105	3.3042378	1.8177563
18.136942313166887	3.3151805	1.8207637
18.1546911247492	3.2954514	1.8153378
18.1724403755574	3.2323575	1.7978759
18.19019006604997	3.185685	1.7848487
18.207940196685467	3.1751423	1.7818929
18.225690767922575	3.1691253	1.7802037
18.243441780220046	3.1476424	1.7741597
18.261193234036764	3.1141024	1.7646819
18.278945129831676	3.0799315	1.7549734
18.29669746806386	3.1065028	1.7625273
18.314450249192483	3.1205506	1.766508
18.3322034736768	3.1194162	1.766187
18.349957141976184	3.0689883	1.7518529
18.3677112545501	3.0340834	1.741862
18.385465811858108	3.031218	1.7410394
18.403220814359884	3.085991	1.7566988
18.420976262515172	3.109558	1.7633939
18.43873215678387	3.1369534	1.7711446
18.456488497625923	3.1327956	1.7699705
18.474245285501407	3.2218473	1.7949505
18.492002520870486	3.321869	1.8225995
18.50976020419343	3.4484358	1.8569964
18.527518335930615	3.7247808	1.9299691
18.545276916542516	4.3001914	2.0736902
18.563035946489688	4.4664993	2.1134095
18.580795426232832	4.985841	2.2328997
18.598555356232698	4.8528204	2.2029119
18.616315736950185	5.14745	2.2687993
18.63407656884626	4.787101	2.1879444
18.65183785238201	5.001456	2.2363935
18.669599588018617	4.7572784	2.1811187
18.68736177621737	4.7510724	2.1796954
18.705124417439652	4.7204	2.1726482
18.72288751214696	4.5780277	2.1396327
18.740651060800886	4.6962557	2.1670847
18.758415063863115	4.338814	2.082982
18.77617952179546	4.481767	2.1170185
18.793944435059814	4.2743964	2.0674613
18.811709804118184	4.280676	2.0689795
18.829475629432675	4.239198	2.0589314
18.8472419114655	4.0378175	2.009432
18.86500865067897	4.2019825	2.0498738
18.88277584753551	3.8980613	1.9743508
18.90054350249763	3.9315364	1.9828103
18.918311616027957	3.5523906	1.8847786
18.936080188589226	3.4329221	1.8528147
18.953849220644265	3.074967	1.7535584
18.971618712656007	2.9021032	1.7035561
18.9893886650875	2.8447726	1.6866454
19.007159078401887	7.982832	2.8253906
19.024929953062408	32.852867	5.731742
19.042701289532435	32.817535	5.728659
19.060473088275405	25.403894	5.0402274
19.07824534975489	2.6780763	1.636483
19.096018074434568	2.6392472	1.624576
19.113791262778197	2.6389382	1.6244808
19.13156491524966	2.6201768	1.618696
19.149339032312945	2.589814	1.6092899
19.167113614432136	2.6135006	1.6166325
19.184888662071433	2.5830598	1.60719
19.202664175695123	2.587876	1.6086876
19.220440155767623	2.5401852	1.5937959
19.238216602753447	2.560443	1.6001384
19.2559935171172	2.544094	1.5950216
19.27377089932361	2.5600033	1.600001
19.291548749837514	2.5593472	1.5997959
19.309327069123835	2.5789669	1.6059163
19.32710585764763	2.599789	1.6123861
19.344885115874032	2.6052918	1.6140916
19.362664844268313	2.5777087	1.6055244
19.380445043295822	2.589158	1.609086
19.39822571342203	2.6038656	1.6136497
19.41600685511252	2.6336002	1.6228371
19.43378846883297	2.6150491	1.6171113
19.451570555049173	2.5524793	1.597648
19.469353114227037	2.499138	1.5808662
19.48713614683254	2.5050747	1.5827428
19.50491965333182	2.5417118	1.5942746
19.52270363419109	2.568065	1.6025183
19.540488089876686	2.5742443	1.6044451
19.55827302085503	2.5302594	1.5906789
19.576058427592674	2.4869506	1.5770068
19.593844310556282	2.463134	1.5694375
19.611630670212598	2.4942486	1.579319
19.629417507028506	2.5634878	1.6010896
19.64720482147098	2.5761104	1.6050266
19.6649926140071	2.520202	1.5875144
19.682780885104084	2.487824	1.5772837
19.70056963522921	2.4719057	1.5722295
19.718358864849908	2.513489	1.5853987
19.7361485744337	2.5126195	1.5851245
19.753938764448215	2.530328	1.5907005
19.771729435361202	2.5315928	1.591098
19.789520587640506	2.5430999	1.59471
19.807312221754092	2.5456684	1.5955151
19.825104338170043	2.53192	1.5912008
19.842896937356517	2.5376182	1.5929903
19.860690019781824	2.5124185	1.5850611
19.87848358591436	2.5559165	1.5987234
19.896277636222635	2.561749	1.6005465
19.914072171175278	2.5417445	1.5942849
19.931867191241015	2.504434	1.5825404
19.94966269688869	2.4985857	1.5806916
19.967458688587264	2.4910474	1.5783052
19.985255166805807	2.4739816	1.5728896
20.00305213201348	2.4631345	1.5694376
20.020849584679578	2.4956563	1.5797646
20.038647525273507	2.5570545	1.5990793
20.05644595426477	2.5282373	1.5900432
20.07424487212299	2.5075138	1.5835131
20.092044279317903	2.4609313	1.5687356
20.109844176319353	2.433451	1.5599523
20.127644563597304	2.4073262	1.5515561
20.145445441621817	2.4083931	1.5518998
20.16324681086307	2.4262424	1.55764
20.181048671791373	2.4478726	1.5645679
20.198851024877122	2.4270678	1.557905
20.216653870590836	2.4126804	1.5532805
20.234457209403146	2.4165275	1.5545185
20.252261041784802	2.4053106	1.5509064
20.270065368206662	2.3913915	1.5464125
20.287870189139685	2.3762062	1.5414947
20.305675505054968	2.389353	1.5457532
20.323481316423702	2.382972	1.5436878
20.341287623717207	2.3575704	1.5354382
20.359094427406884	2.3827357	1.5436113
20.376901727964288	2.379862	1.5426801
20.39470952586107	2.3602254	1.5363026
20.41251782156899	2.327695	1.5256785
20.430326615559935	2.3159063	1.5218102
20.448135908305886	2.368933	1.5391338
20.465945700278965	2.3999138	1.5491655
20.483755991951384	2.4262218	1.5576334
20.50156678379548	2.4055629	1.5509877
20.519378076283708	2.3532865	1.5340425
20.537189869888635	2.3570945	1.5352832
20.55500216508294	2.3772416	1.5418307
20.572814962339415	2.4199255	1.555611
20.59062826213098	2.4298546	1.5587991
20.60844206493066	2.4144907	1.5538632
20.626256371211593	2.4149966	1.5540259
20.644071181447032	2.3897653	1.5458865
20.66188649611036	2.3735628	1.5406371
20.67970231567506	2.3545067	1.5344402
20.697518640614742	2.3717945	1.5400631
20.715335471403122	2.3574095	1.5353857
20.73315280851404	2.339372	1.5295006
20.750970652421447	2.2973936	1.5157155
20.768789003599412	2.2798638	1.5099218
20.786607862522136	2.2484376	1.4994792
20.8044272296639	2.2600527	1.5033472
20.82224710549913	2.289653	1.51316
20.84006749050237	2.2952054	1.5149935
20.857888385148268	3.865341	1.966047
20.8757097899116	45.984505	6.7811875
20.893531705267254	64.85704	8.053387
20.911354131690224	83.907135	9.160084
20.92917706965566	69.164566	8.316524
20.94700051963877	50.208458	7.0857925
20.96482448211493	29.457829	5.4275064
20.982648957559622	4.1769156	2.0437503
21.00047394644843	2.2704341	1.506796
21.01829944925707	2.265389	1.5051209
21.036125466461375	2.2595942	1.5031947
21.053951998537297	2.261456	1.5038139
21.071779045960906	2.2270987	1.4923468
21.089606609208378	2.2421486	1.4973806
21.10743468875603	2.2450018	1.498333
21.12526328508028	2.2674093	1.5057919
21.143092398657675	2.2275705	1.4925048
21.16092202996488	2.2183576	1.4894152
21.17875217947867	2.201675	1.4838042
21.19658284767596	2.227599	1.4925143
21.21441403503377	2.2292013	1.493051
21.232245742029225	2.229614	1.4931892
21.2500779691396	2.1974752	1.4823884
21.26791071684227	2.1764734	1.4752876
21.28574398561475	2.1721735	1.4738295
21.30357777593465	2.2157366	1.488535
21.321412088279704	2.2025115	1.4840862
21.339246923127792	2.1905885	1.4800637
21.357082280956888	2.1670215	1.4720807
21.3749181622451	2.1788204	1.4760828
21.392754567470647	2.1642663	1.4711446
21.41059149711187	2.1629505	1.4706973
21.42842895164726	2.1633756	1.4708418
21.446266931555378	2.1919692	1.48053
21.464105437314945	2.186799	1.478783
21.481944469404798	2.1672552	1.47216
21.49978402830388	2.144273	1.4643337
21.51762411449127	2.118284	1.4554325
21.53546472844617	2.091428	1.446177
21.553305870647876	2.095232	1.4474916
21.571147541575865	2.1022794	1.449924
21.58898974170967	2.113301	1.4537197
21.60683247152899	2.116649	1.4548707
21.62467573151363	2.07609	1.4408643
21.642519522143523	2.0783408	1.4416451
21.660363843898722	2.0906096	1.445894
21.6782086972594	2.0940354	1.4470782
21.696054082705864	2.0802152	1.4422951
21.713900000718535	2.0716932	1.4393377
21.73174645177795	2.0902722	1.4457774
21.749593436364794	2.075469	1.4406488
21.767440954959845	2.0542898	1.4332794
21.785289008044032	2.02032	1.4213796
21.803137596098388	2.017789	1.420489
21.820986719604086	2.0045283	1.4158137
21.838836379042412	2.004505	1.4158053
21.85668657489478	2.0108576	1.4180471
21.87453730764273	2.0376294	1.4274555
21.892388577767914	2.0404093	1.428429
21.91024038575213	2.0461323	1.4304308
21.928092732077285	2.0504954	1.4319551
21.945945617225426	2.0773773	1.441311
21.963799041678694	2.0741725	1.4401988
21.981653005919398	31.381704	5.601938
21.999507510429943	78.17324	8.841563
22.01736255569286	73.12264	8.551178
22.035218142190818	4.218198	2.0538251
22.05307427040661	2.0301292	1.424826
22.07093094082315	2.0056725	1.4162177
22.088788153923474	1.9820405	1.4078497
22.106645910190746	1.974059	1.4050121
22.12450421010827	1.981224	1.4075595
22.142363054159464	1.9936314	1.4119601
22.16022244282787	2.0173502	1.4203346
22.178082376597164	2.0243092	1.4227822
22.195942855951145	2.012002	1.4184506
22.213803881373742	1.9822717	1.4079317
22.231665453349002	1.972494	1.4044551
22.24952757236111	1.9745739	1.4051954
22.26739023889438	1.9678862	1.4028137
22.28525345343323	1.9653847	1.4019217
22.30311721646225	1.95208	1.3971685
22.320981528466113	1.9808589	1.4074299
22.33884638992964	1.9791361	1.4068177
22.356711801337788	1.9948235	1.4123822
22.37457776317561	1.9867731	1.4095294
22.392444275928337	1.974021	1.4049985
22.410311340081282	1.9153699	1.3839688
22.428178956119904	1.8990377	1.3780558
22.446047124529805	1.897494	1.3774955
22.46391584579669	1.9233131	1.3868357
22.481785120406414	1.9673154	1.4026102
22.49965494884496	1.9772003	1.4061295
22.51752533159841	1.9987903	1.4137858
22.53539626915302	1.9785604	1.4066131
22.553267761995137	1.9517561	1.3970526
22.571139810611264	1.9841608	1.4086025
22.589012415488025	2.0278084	1.4240113
22.60688557711216	2.0094812	1.4175617
22.624759295970566	1.987079	1.4096379
22.642633572550263	1.976538	1.405894
22.660508407338362	2.0077262	1.4169426
22.67838380082217	1.9941661	1.4121494
22.696259753489077	1.9786752	1.4066539
22.714136265826614	1.9873954	1.4097501
22.73201333832246	1.9689207	1.4031824
22.74989097146439	1.9584563	1.3994485
22.76776916574035	1.9239286	1.3870575
22.785647921638393	1.9337611	1.3905973
22.803527239646712	1.9509099	1.3967497
22.82140712025363	1.9435303	1.3941056
22.839287563947593	1.9363347	1.3915224
22.85716857121719	1.943387	1.3940542
22.875050142551135	1.9757065	1.4055983
22.892932278438277	1.9573983	1.3990705
22.910814979367604	1.9187294	1.3851821
22.928698245828222	1.8951765	1.3766541
22.946582078309387	1.8925393	1.375696
22.96446647730047	1.9286888	1.3887724
22.98235144329098	1.9639162	1.401398
23.000236976770562	1.9493134	1.3961781
23.018123078229	1.8993075	1.3781537
23.03600974815619	1.8983656	1.3778119
23.053896987042194	1.97176	1.4041938
23.071784795377173	2.019212	1.4209898
23.08967317365145	1.9939694	1.4120798
23.10756212235546	1.9805993	1.4073377
23.125451641979787	1.9650565	1.4018047
23.143341733015134	1.9449713	1.3946223
23.161232395952357	1.9606813	1.4002433
23.179123631282426	2.0057542	1.4162465
23.197015439496468	2.0059159	1.4163036
23.214907821085717	1.9633088	1.4011812
23.23280077654157	1.9398766	1.3927945
23.250694306355538	1.9460876	1.3950224
23.268588411019277	1.9426167	1.3937778
23.28648309102458	1.9438857	1.394233
23.304378346863356	1.9421494	1.3936102
23.322274179027676	1.9373431	1.3918847
23.340170588009723	1.9213275	1.3861196
23.358067574301852	1.9015855	1.3789799
23.37596513839651	1.8753839	1.3694465
23.39386328078629	1.8706144	1.367704
23.411762001963947	1.8768352	1.3699764
23.429661302422353	1.9451276	1.3946784
23.4475611826545	1.9804767	1.4072942
23.46546164315356	1.9584231	1.3994367
23.48336268441279	1.9362795	1.3915026
23.501264306925638	1.9173298	1.3846768
23.51916651118564	1.9339108	1.3906512
23.537069297686497	1.9765507	1.4058986
23.554972666922037	1.9948698	1.4123986
23.57287661938623	1.9803087	1.4072344
23.59078115557318	1.9444053	1.3944193
23.608686275977128	1.9145923	1.383688
23.62659198109246	1.9138876	1.3834332
23.6444982714137	1.9234884	1.3868989
23.66240514743549	1.96227	1.4008105
23.68031260965263	1.9654139	1.4019322
23.698220658560068	1.9442691	1.3943704
23.716129294652845	1.9133699	1.3832462
23.7340385184262	1.8738515	1.368887
23.75194833037546	1.863708	1.3651769
23.769858730996123	1.9023643	1.3792622
23.78776972078382	1.9102198	1.382107
23.80568130023431	1.9115006	1.3825703
23.823593469843495	1.9230329	1.3867346
23.841506230107424	1.9509501	1.3967642
23.859419581522275	1.9303391	1.3893664
23.87733352458438	1.8818941	1.3718214
23.89524805979019	1.8976003	1.3775342
23.913163187636318	1.9458021	1.3949201
23.931078908619508	1.9776293	1.4062821
23.948995223236633	1.9945459	1.4122839
23.966912131984735	2.0340047	1.4261854
23.98482963536096	2.023402	1.4224633
24.002747733862616	2.008979	1.4173846
24.020666427987155	2.0141747	1.4192163
24.038585718232156	2.0700366	1.4387622
24.056505605095353	2.0698853	1.4387096
24.074426089074617	2.0617898	1.4358934
24.092347170667946	2.0599556	1.4352546
24.110268850373515	2.064532	1.4368479
24.128191128689586	2.0805447	1.4424094
24.146114006114626	2.060046	1.435286
24.164037483147187	2.0579004	1.4345384
24.181961560286005	2.0680385	1.4380676
24.199886238029926	2.064161	1.4367188
24.21781151687797	2.0321102	1.425521
24.235737397329274	2.0299833	1.4247748
24.253663879883135	2.015309	1.4196159
24.271590965038975	2.0510986	1.4321657
24.289518653296376	2.0560646	1.4338984
24.30744694515505	2.0833733	1.4433895
24.32537584111486	2.0581691	1.4346321
24.34330534167581	2.0620136	1.4359713
24.361235447338046	2.0862794	1.4443959
24.379166158601876	2.0980206	1.4484545
24.39709747596772	2.1078343	1.4518383
24.41502939993615	2.0501215	1.4318246
24.432961931007917	2.0338402	1.4261277
24.450895069683856	2.013773	1.4190747
24.468828816465	2.0078104	1.4169723
24.4867631718525	1.9975241	1.413338
24.504698136347656	2.0019057	1.4148872
24.52263371045192	2.0433693	1.4294647
24.540569894666874	2.0620496	1.4359839
24.558506689494266	2.047452	1.430892
24.57644409543597	1.972927	1.4046092
24.594382112994012	1.9063982	1.3807238
24.61232074267057	1.9044785	1.3800285
24.630259984967953	1.9432632	1.3940097
24.64819984038863	2.016449	1.4200172
24.66614030943522	2.037356	1.4273598
24.684081392610462	2.0272017	1.4237983
24.702023090417274	2.0010357	1.4145796
24.7199654033587	1.9861852	1.4093208
24.737908331937927	1.985308	1.4090096
24.755851876658305	1.97674	1.4059658
24.773796038023324	2.0189366	1.420893
24.79174081653661	2.0886543	1.4452177
24.809686212701962	2.139768	1.4627945
24.827632227023294	2.1575255	1.4688518
24.8455788600047	2.143603	1.4641049
24.8635261121504	2.1305802	1.4596508
24.88147398396475	2.1162934	1.4547486
24.899422475952303	2.0924492	1.4465301
24.917371588617698	2.1222777	1.4568039
24.935321322465768	2.1480188	1.465612
24.953271678001478	2.2604733	1.503487
24.97122265572994	2.4712665	1.5720263
24.989174256156414	2.7685435	1.663894
25.00712647978632	3.2145782	1.7929245
25.02507932712521	3.7485878	1.9361271
25.043032798678798	4.3034697	2.0744805
25.060986894952933	4.9234176	2.2188776
25.078941616453637	5.63251	2.373291
25.096896963687055	6.568566	2.5629213
25.114852937159508	7.7232275	2.7790694
25.132809537377444	8.079297	2.8424103
25.150766764847468	8.121483	2.8498216
25.168724620076347	7.606329	2.7579575
25.186683103570985	6.699519	2.588343
25.204642215838426	5.5424047	2.354231
25.222601957385894	4.2386017	2.0587864
25.24056232872074	3.2470553	1.8019587
25.25852333035048	2.6361113	1.6236106
25.276484962782778	2.2495847	1.4998616
25.294447226525435	2.0426676	1.4292192
25.312410122086423	1.9691085	1.4032493
25.330373649973843	1.9412026	1.3932705
25.348337810695988	1.946441	1.3951491
25.366302604761245	1.9012337	1.3788522
25.384268032678207	1.8534616	1.361419
25.40223409495558	1.8466834	1.3589272
25.420200792102257	1.8337691	1.3541673
25.438168124627246	1.8600951	1.3638531
25.45613609303974	1.8816774	1.3717425
25.474104697849057	1.8886117	1.3742677
25.492073939564698	1.872545	1.3684096
25.510043818696285	1.8695208	1.3673042
25.528014335753614	1.8626857	1.3648025
25.54598549124664	1.9179664	1.3849066
25.56395728568544	1.9183333	1.3850391
25.58192971958028	1.8764758	1.3698452
25.59990279344156	1.858762	1.3633642
25.617876507779833	1.8657578	1.3659275
25.635850863105826	1.8468844	1.3590013
25.653825859930386	1.8186516	1.3485739
25.671801498764548	1.8527117	1.3611435
25.68977778011949	1.888331	1.3741655
25.707754704506524	1.9449772	1.3946244
25.725732272437153	1.9331381	1.3903733
25.743710484423012	1.8954663	1.3767594
25.761689340975888	1.8584515	1.3632504
25.77966884260774	1.9071074	1.3809806
25.797648989830662	1.9151405	1.383886
25.815629783156922	1.8571917	1.3627882
25.83361122309895	1.7733443	1.3316697
25.85159331016929	1.8043157	1.3432481
25.869576044880695	1.819432	1.3488632
25.887559427746034	1.8330897	1.3539164
25.90554345927836	1.8412088	1.3569115
25.92352813999086	1.8334569	1.3540521
25.94151347039689	1.8315217	1.3533373
25.959499451009965	1.8553238	1.3621027
25.97748608234374	1.9057068	1.3804734
25.995473364912062	1.9228595	1.3866721
26.013461299228904	1.9129303	1.3830872
26.03144988580839	1.8392452	1.3561877
26.04943912516483	1.8096132	1.3452187
26.067429017812675	1.822819	1.3501182
26.085419564266537	1.8446509	1.3581792
26.103410765041186	1.8247852	1.3508462
26.12140262065155	1.8272175	1.3517461
26.139395131612723	1.840545	1.3566669
26.157388298439948	1.8429525	1.3575538
26.17538212164861	1.8047235	1.3434
26.193376601754295	1.7447382	1.3208854
26.211371739272714	1.7734916	1.331725
26.229367534719746	1.8641491	1.3653384
26.247363988611433	1.913435	1.3832697
26.26536110146397	1.8703598	1.3676109
26.283358873793727	1.8485994	1.3596321
26.301357306117204	1.8568888	1.3626771
26.319356398951104	1.8227069	1.3500767
26.33735615281224	1.79294	1.3390071
26.35535656821762	1.7987007	1.3411565
26.373357645684404	1.8584902	1.3632646
26.39135938572991	1.8844281	1.3727448
26.409361788871614	1.8451778	1.3583732
26.427364855627165	1.8252981	1.351036
26.445368586514352	1.8502897	1.3602536
26.46337298205115	1.8158678	1.3475413
26.48137804275568	1.797698	1.3407826
26.499383769146217	1.8108832	1.3456906
26.517390161741215	1.8041892	1.3432012
26.53539722105928	1.818535	1.3485307
26.553404947619182	1.8344755	1.3544282
26.571413341939856	1.8435	1.3577555
26.589422404540397	1.8189977	1.3487022
26.60743213594006	1.82121	1.3495221
26.62544253665827	1.805243	1.3435934
26.64345360721459	1.8383768	1.3558675
26.66146534812879	1.8329641	1.35387
26.679477759920758	1.8237108	1.3504484
26.69749084311057	1.7599446	1.326629
26.71550459821847	1.7503853	1.3230213
26.733519025764842	1.8042355	1.3432183
26.751534126270258	1.806306	1.3439889
26.769549900255434	1.8079028	1.3445828
26.787566348241267	1.8160383	1.3476046
26.80558347074881	1.8616571	1.3644255
26.823601268299267	1.8544267	1.3617734
26.841619741414036	1.8279985	1.3520349
26.85963889061465	1.8213902	1.3495889
26.877658716422832	1.8718135	1.3681424
26.89567921936045	1.8751872	1.3693748
26.913700399949544	1.8377702	1.3556439
26.93172225871233	1.8668935	1.3663431
26.949744796171174	1.8641737	1.3653475
26.967768012848605	1.8244374	1.3507173
26.98579190926733	1.7968862	1.3404799
27.003816485950225	1.7999114	1.3416078
27.021841743420318	1.7726613	1.3314133
27.039867682200814	1.7666308	1.3291466
27.057894302815072	1.7657063	1.3287988
27.07592160578664	1.785296	1.3361497
27.0939495916392	1.8047055	1.3433933
27.111978260896635	1.8303248	1.3528949
27.13000761408296	1.825262	1.3510226
27.148037651722397	1.8193054	1.3488163
27.166068374339304	1.8159972	1.3475894
27.184099782458215	1.8183869	1.3484758
27.20213187660384	1.7928843	1.3389863
27.22016465730105	1.7720522	1.3311845
27.23819812507487	1.782937	1.3352667
27.256232280450533	1.8075399	1.3444479
27.274267123953383	1.8201107	1.3491148
27.292302656108987	1.884777	1.3728718
27.31033887744306	1.9053934	1.3803599
27.32837578848146	1.8747317	1.3692085
27.34641338975026	1.8219968	1.3498136
27.364451681775673	1.8344643	1.354424
27.382490665084074	1.866594	1.3662335
27.400530340202046	1.8431424	1.3576238
27.41857070765629	1.837125	1.3554058
27.436611767973726	1.833485	1.3540624
27.454653521681404	1.8218684	1.349766
27.472695969306564	1.7958182	1.3400815
27.490739111376627	1.832522	1.3537067
27.508782948419153	1.8660183	1.3660228
27.526827480961902	1.8678671	1.3666993
27.54487270953279	1.8668922	1.3663427
27.562918634659898	1.8598595	1.3637667
27.580965256871508	1.8802761	1.3712316
27.599012576696026	1.9071109	1.3809819
27.617060594662068	1.8908162	1.3750695
27.63510931129842	1.8921432	1.3755519
27.65315872713401	1.8603309	1.3639395
27.67120884269797	1.8318772	1.3534685
27.68925965851958	1.8550289	1.3619944
27.707311175128307	1.898887	1.3780011
27.725363393053787	1.8826799	1.3721079
27.74341631282583	1.8848804	1.3729094
27.7614699349744	1.8923004	1.375609
27.77952426002968	2.1113954	1.4530641
27.797579288521973	2.1633842	1.4708447
27.815635020981784	2.5734904	1.6042103
27.83369145793979	2.6544862	1.6292593
27.85174859992682	2.5446177	1.5951858
27.869806447473923	2.4193273	1.5554187
27.887865001112267	2.0530033	1.4328306
27.905924261373233	1.9357779	1.3913224
27.92398422878836	1.9255811	1.3876531
27.94204490388936	1.8987908	1.3779662
27.96010628720813	1.8702321	1.3675643
27.978168379276728	1.8857515	1.3732266
27.9962311806274	1.8621486	1.3646057
28.014294691792568	1.8633685	1.3650526
28.0323589133048	1.8923264	1.3756186
28.050423845696887	1.9330508	1.390342
28.068489489501758	1.9281456	1.3885769
28.086555845252523	1.8804722	1.3713031
28.104622913482487	1.817284	1.3480668
28.122690694725115	1.8371042	1.3553982
28.14075918951405	1.9331557	1.3903797
28.15882839838312	1.9941722	1.4121516
28.176898321866304	1.9809803	1.407473
28.1949689604978	1.9529997	1.3974977
28.213040314811945	1.9289216	1.3888562
28.23111238534327	1.9110959	1.3824239
28.249185172626493	1.9377868	1.3920441
28.267258677196473	1.9658558	1.4020898
28.285332899588294	1.9575012	1.3991072
28.303407840337172	1.9212391	1.3860877
28.321483499978545	1.9122877	1.3828549
28.33955987904799	1.9070249	1.3809507
28.357636978081285	1.9383527	1.3922473
28.37571479761439	1.9416081	1.3934159
28.393793338183425	1.9379781	1.3921129
28.41187260032469	1.9662993	1.4022479
28.429952584574686	1.9887056	1.4102148
28.448033291470065	1.968153	1.4029088
28.46611472154769	1.9994367	1.4140145
28.484196875344566	2.0312517	1.4252199
28.502279753397914	2.0098367	1.417687
28.52036335624511	1.969587	1.4034197
28.538447684423716	1.9936353	1.4119616
28.556532738471482	2.0036502	1.4155035
28.574618518926325	2.0447288	1.4299401
28.59270502632635	2.0620847	1.435996
28.61079226120985	2.0647202	1.4369134
28.628880224115274	2.0403652	1.4284135
28.646968915581287	2.0426369	1.4292085
28.66505833614671	2.0349436	1.4265145
28.68314848635055	1.9963864	1.4129354
28.701239366732004	1.9957749	1.412719
28.71933097783044	1.9802748	1.4072224
28.737423320185403	2.0534136	1.4329737
28.75551639433665	2.1256135	1.4579483
28.773610200824074	2.155252	1.4680777
28.791704740187793	2.1900783	1.4798913
28.80980001296809	2.1974447	1.482378
28.827896019705413	2.1938097	1.4811515
28.845992760940433	2.1771939	1.4755317
28.86409023721397	2.1646588	1.471278
28.88218844906704	2.1719565	1.473756
28.900287397040845	2.2288	1.4929166
28.918387081676755	2.2823424	1.5107423
28.936487503516343	2.2696404	1.5065325
28.954588663101365	2.281134	1.5103424
28.97269056097374	2.3079114	1.5191811
28.990793197675597	2.3825328	1.5435455
29.00889657374923	2.4089408	1.5520763
29.027000689737125	2.4326985	1.559711
29.04510554618196	2.4615686	1.5689387
29.06321114362659	2.4642076	1.5697795
29.08131748261405	2.462254	1.5691571
29.099424563687567	2.477116	1.5738857
29.11753238739057	2.4864125	1.5768362
29.13564095426663	2.5257463	1.5892597
29.15375026485954	2.5633426	1.6010442
29.171860319713275	2.6256125	1.6203742
29.18997111937199	2.746513	1.6572607
29.20808266438002	2.746492	1.6572543
29.226194955281898	2.7618577	1.6618838
29.244307992622335	2.813922	1.6774749
29.26242177694624	2.8448095	1.6866564
29.2805363087987	2.8746576	1.6954815
29.29865158872498	2.9404273	1.7147675
29.316767617270557	2.977835	1.7256404
29.334884394981064	3.039939	1.7435421
29.353001922402367	3.0589297	1.7489796
29.37112020008047	3.0351496	1.7421681
29.389239228561596	3.0255966	1.7394242
29.407359008392152	3.2889278	1.8135401
29.42547954011872	3.6712456	1.9160495
29.44360082428809	4.213215	2.0526118
29.46172286144722	5.275926	2.2969384
29.479845652143283	6.8300185	2.6134305
29.497969196923606	8.829777	2.971494
29.516093496335728	11.18733	3.3447466
29.5342185509274	13.922126	3.7312365
29.55234436124651	16.514828	4.0638437
29.570470927841175	17.89062	4.2297306
29.588598251259686	17.621222	4.197764
29.60672633205055	16.192808	4.024029
29.624855170762405	14.150338	3.7616935
29.642984767944146	11.533208	3.3960576
29.66111512414481	8.846936	2.97438
29.67924623991366	6.5772934	2.5646234
29.697378115800138	5.0260653	2.2418888
29.71551075235387	4.180832	2.0447083
29.733644150124675	3.8206296	1.9546431
29.751778309662576	3.6579392	1.9125739
29.769913231517766	3.5419955	1.882019
29.78804891624066	3.4582932	1.8596487
29.806185364381818	3.4126399	1.8473332
29.82432257649206	3.4154172	1.8480847
29.842460553122333	3.3874323	1.8404979
29.86059929482382	3.3141098	1.8204696
29.878738802147872	3.3235576	1.8230627
29.896879075646048	3.3164098	1.8211013
29.915020115870114	3.2867863	1.8129497
29.933161923371976	3.2576509	1.8048964
29.951304498703777	3.209641	1.7915471
29.969447842417857	3.1889498	1.7857631
29.987591955066733	3.2001917	1.788908
30.005736837203123	3.1720142	1.7810149
30.023882489379943	3.195098	1.7874837
30.04202891215028	3.2650025	1.8069317
30.060176106067455	3.2278707	1.7966276
30.078324071684946	3.1601973	1.7776943
30.09647280955646	3.2322972	1.7978591
30.114622320235863	3.279219	1.8108613
30.132772604277257	3.2889638	1.81355
30.1509236622349	3.2624671	1.8062301
30.16907549466328	3.1722798	1.7810895
30.18722810211705	3.1425726	1.7727302
30.205381485151097	3.1524842	1.7755237
30.22353564432045	3.0778582	1.7543826
30.241690580180403	3.025287	1.7393352
30.25984629328638	2.943099	1.7155463
30.278002784194037	2.9306862	1.7119247
30.296160053459246	3.0102756	1.7350146
30.314318101638033	2.998623	1.7316532
30.332476929286646	2.9247744	1.7101972
30.35063653696153	2.9148805	1.7073021
30.368796925219307	2.9447002	1.7160128
30.386958094616844	2.9404566	1.7147759
30.40512004571115	2.885232	1.6985971
30.423282779059463	2.8495135	1.6880503
30.441446295219233	2.890422	1.7001241
30.459610594748067	2.8960624	1.7017821
30.47777567820382	2.8651116	1.692664
30.495941546144504	2.8594642	1.690995
30.51410819912835	2.8647082	1.6925449
30.532275637713795	2.8748844	1.6955484
30.55044386245946	2.8873193	1.6992114
30.56861287392416	2.9209247	1.7090713
30.586782672666956	2.903341	1.7039193
30.604953259247047	2.8131127	1.6772337
30.623124634223885	2.6968794	1.6422179
30.641296798157075	2.7335398	1.653342
30.659469751606462	2.7578135	1.6606666
30.677643495132074	2.7501705	1.6583638
30.695818029294152	2.7235825	1.650328
30.713993354653116	2.7364674	1.6542271
30.73216947176962	2.7668958	1.6633989
30.75034638120448	2.749063	1.6580299
30.768524083518756	2.7070184	1.6453019
30.786702579273673	2.7251925	1.6508157
30.80488186903069	2.7977893	1.6726594
30.82306195335144	2.9592073	1.7202346
30.841242832797782	3.1624265	1.7783213
30.85942450793176	3.3351545	1.8262405
30.877606979315637	3.5796773	1.8920035
30.895790247511883	3.9700866	1.9925076
30.913974313083134	4.449384	2.1093564
30.932159176592283	4.828843	2.1974628
30.95034483860237	4.919762	2.2180536
30.968531299676698	4.695721	2.1669612
30.98671856037873	4.399455	2.0974877
31.00490662127215	4.047376	2.011809
31.023095482920848	3.5277152	1.8782213
31.04128514588892	3.0817077	1.7554793
31.059475610740662	2.7803218	1.6674297
31.07766687804056	2.6370492	1.6238993
31.09585894835335	2.5308914	1.5908775
31.11405182224393	2.5039005	1.5823718
31.132245500277417	2.4921634	1.5786587
31.15043998301914	2.4241214	1.556959
31.168635271034628	2.4156728	1.5542434
31.18683136488964	2.4840498	1.5760869
31.20502826515008	2.4757216	1.5734426
31.223225972382135	2.4236114	1.5567952
31.241424487152155	2.4708967	1.5719086
31.259623810026692	2.5139055	1.58553
31.27782394157253	2.4938712	1.5791996
31.296024882356644	2.4726665	1.5724715
31.314226632946237	2.4625266	1.5692439
31.332429193908684	2.453045	1.5662199
31.350632565811598	2.440361	1.5621655
31.368836749222787	2.4991379	1.5808662
31.387041744710295	2.5559168	1.5987235
31.40524755284232	2.5833888	1.6072924
31.423454174187317	2.593035	1.6102903
31.441661609313922	2.5611465	1.6003582
31.459869858791002	2.5007799	1.5813854
31.478078923187628	2.4424994	1.5628498
31.496288803073064	2.4691527	1.5713538
31.514499499016807	2.4518287	1.5658317
31.532711011588546	2.374736	1.5410179
31.550923341358178	2.3212078	1.523551
31.56913648889584	2.3300877	1.5264624
31.587350454771844	2.3176682	1.5223889
31.605565239556732	2.3777883	1.5420079
31.62378084382127	2.398816	1.5488112
31.641997268136382	2.4338746	1.560088
31.660214513073274	2.3153548	1.521629
31.67843257920331	2.3133519	1.5209707
31.6966514670981	2.30474	1.518137
31.71487117732944	2.2800968	1.5099989
31.733091710469346	2.2564132	1.5021362
31.751313067090052	2.2351594	1.495045
31.769535247764008	2.1537426	1.4675635
31.787758253063878	2.1570053	1.4686747
31.805982083562526	2.2522938	1.5007644
31.824206739833024	2.2832413	1.5110399
31.84243222244869	2.2577806	1.5025913
31.860658531983013	2.1982188	1.4826392
31.878885669009737	2.2062244	1.4853364
31.897113634102784	2.1753607	1.4749104
31.91534242783632	2.1939723	1.4812064
31.933572050784694	2.2967112	1.5154904
31.951802503522508	2.3375669	1.5289104
31.970033786624548	2.2873156	1.5123874
31.988265900665834	2.2505074	1.5001692
32.006498846221575	2.2713299	1.5070932
32.02473262386724	2.2161064	1.4886593
32.04296723417845	2.202208	1.4839839
32.0612026777311	2.2362125	1.4953971
32.07943895510129	2.24089	1.4969603
32.097676066865304	2.2086213	1.4861431
32.115914013599685	2.1699731	1.4730829
32.13415279588115	2.2116113	1.4871488
32.152392414286666	2.2825859	1.5108229
32.1706328693934	2.173562	1.4743005
32.18887416177875	2.0917566	1.4462906
32.20711629202032	2.1751149	1.474827
32.225359260695924	2.2332141	1.4943942
32.243603068383614	2.0862393	1.444382
32.26184771566166	2.0210414	1.4216334
32.28009320310852	2.1410975	1.463249
32.2983395313029	2.2173142	1.4890649
32.31658670082372	2.112494	1.4534421
32.33483471225012	2.0534632	1.432991
32.35308356616143	2.0522075	1.4325528
32.371333263137245	2.0752761	1.4405819
32.38958380375734	2.0778146	1.4414626
32.407835188601744	2.1306052	1.4596593
32.42608741825067	2.1912608	1.4802908
32.444340493284585	2.2022855	1.48401
32.46259441428416	2.2024045	1.48405
32.48084918183028	2.1417432	1.4634696
32.49910479650405	2.0612264	1.4356972
32.51736125888683	2.063139	1.4363631
32.53561856956014	2.11551	1.4544793
32.5538767291058	2.1578765	1.4689713
32.572135738105764	2.08703	1.4446557
32.59039559714228	2.0279968	1.4240775
32.608656306797776	2.027053	1.4237461
32.62691786765491	2.009331	1.4175087
32.645180280296586	2.0317674	1.4254007
32.663443545305896	1.9952918	1.412548
32.68170766326619	1.9327302	1.3902267
32.69997263476099	1.9667038	1.4023921
32.7182384603741	2.010395	1.417884
32.7365051406895	1.9713974	1.4040647
32.75477267629144	1.9504297	1.3965778
32.77304106776434	1.9893147	1.4104307
32.79131031569289	2.0218203	1.4219073
32.809580420661966	1.9889966	1.4103179
32.827851383256714	2.0101042	1.4177815
32.84612320406245	2.0445411	1.4298745
32.86439588366476	2.0695972	1.4386095
32.88266942264945	2.1132922	1.4537166
32.9009438216025	2.0490909	1.4314646
32.9192190811102	1.9734653	1.4048008
32.937495201758985	1.9323558	1.390092
32.95577218413556	1.9155675	1.3840402
32.974050028826866	2.0007684	1.4144852
32.992328736420035	2.0476243	1.4309523
33.010608307502444	1.9613359	1.400477
33.02888874266169	1.9210706	1.3860269
33.047170042485604	1.969841	1.4035102
33.06545220756225	2.0605757	1.4354706
33.083735238479896	2.034611	1.4263979
33.10201913582707	1.928295	1.3886306
33.12030390019248	1.909669	1.3819077
33.138589532165135	2.0091228	1.4174353
33.15687603233419	1.9573423	1.3990505
33.17516340128909	1.995586	1.4126521
33.19345163961947	2.1046338	1.4507356
33.211740747915215	2.0157373	1.4197667
33.23003072676643	1.8902801	1.3748746
33.248321576763466	1.8335229	1.3540764
33.266613298496885	1.8214335	1.349605
33.28490589255747	1.9004523	1.3785689
33.30319935953626	1.9892491	1.4104074
33.32149370002451	2.044678	1.4299223
33.339788914613706	2.0646095	1.4368749
33.358085003895575	2.0607917	1.4355458
33.376381968462034	2.0387447	1.4278462
33.39467980890529	2.037809	1.4275185
33.41297852581774	2.0078466	1.416985
33.43127811979204	1.9535882	1.3977082
33.44957859142105	1.880931	1.3714703
33.467879941297866	1.8734235	1.3687305
33.486182170015844	1.9544455	1.3980148
33.50448527816853	1.8976647	1.3775575
33.522789266349754	1.8787652	1.3706806
33.541094135153514	1.9586484	1.3995172
33.55939988517411	2.0066564	1.4165651
33.57770651700602	2.0173604	1.4203382
33.59601403124398	2.0810747	1.4425931
33.61432242848296	2.1313088	1.4599003
33.632631709318154	2.0957248	1.4476619
33.650941874344994	1.9594058	1.3997878
33.66925292415916	1.9306065	1.3894627
33.68756485935654	1.993604	1.4119503
33.70587768053328	1.996866	1.4131051
33.724191388285746	1.9722584	1.4043711
33.74250598321054	1.9892411	1.4104046
33.760821465904506	1.9885768	1.410169
33.77913783696474	1.9344304	1.390838
33.79745509698852	2.0007281	1.414471
33.815773246573414	2.0169353	1.4201885
33.8340922863172	1.9789536	1.4067528
33.852412216817896	1.941223	1.3932778
33.87073303867377	1.9352149	1.39112
33.889054752483304	1.9674891	1.4026722
33.907377358845245	1.9969884	1.4131484
33.92570085835853	1.9025303	1.3793224
33.94402525162239	1.8592229	1.3635333
33.96235053923627	1.9395754	1.3926864
33.980676721799824	2.0698497	1.4386972
33.999003799912984	2.1068764	1.4515083
34.01733177417592	2.0274649	1.4238907
34.03566064518901	1.9816287	1.4077033
34.0539904135529	2.0122793	1.4185483
34.07232107986846	1.9453702	1.3947653
34.090652644736785	1.9621869	1.4007808
34.108985108759235	1.91837	1.3850523
34.12731847253742	1.9390308	1.3924909
34.14565273667313	1.9885843	1.4101717
34.16398790176847	2.099219	1.4488682
34.18232396842574	2.1795409	1.4763268
34.20066093724749	2.2106028	1.4868096
34.21899880883651	2.144096	1.4642732
34.23733758379583	2.0689332	1.4383787
34.25567726272874	2.0374665	1.4273986
34.27401784623872	2.0259736	1.423367
34.29235933492957	2.0638127	1.4365976
34.31070172940526	2.122537	1.4568928
34.32904503027003	2.1199894	1.4560183
34.347389238128386	2.0337887	1.4261097
34.36573435358502	1.9925013	1.4115598
34.38408037724492	1.9697908	1.4034923
34.402427309713296	1.9888211	1.4102557
34.42077515159559	2.0213656	1.4217474
34.43912390349752	2.038974	1.4279265
34.45747356602499	2.0590858	1.4349515
34.47582413978423	2.117539	1.4551766
34.49417562538163	2.127277	1.4585187
34.51252802342388	2.1422935	1.4636576
34.53088133451789	2.1547651	1.4679118
34.54923555927084	2.0304582	1.4249414
34.567590698290104	1.8548892	1.3619431
34.58594675218336	1.8351201	1.354666
34.6043037215585	1.834077	1.354281
34.62266160702365	1.8717868	1.3681326
34.641020409187234	1.8762598	1.3697664
34.65938012865785	1.9257687	1.3877207
34.677740766044394	2.059689	1.4351617
34.69610232195598	2.0016048	1.4147809
34.714464797002016	1.9298238	1.389181
34.73282819179208	2.0024426	1.4150769
34.751192506936064	1.9090337	1.3816779
34.76955774304408	1.817161	1.3480211
34.7879239007265	1.9233592	1.3868523
34.80629098059391	2.0459116	1.4303536
34.824658983257194	2.0726154	1.439658
34.843027909327446	2.0347598	1.42645
34.86139775941603	2.0607917	1.4355458
34.879768534134534	1.9475331	1.3955405
34.89814023409483	1.8906726	1.3750173
34.91651285990901	1.9395142	1.3926644
34.93488641218944	2.16754	1.4722568
34.95326089154871	2.099198	1.448861
34.97163629859967	1.9139925	1.3834711
34.99001263395542	1.9685075	1.4030352
35.00838989822934	1.937965	1.3921081
35.02676809203499	1.7131574	1.3088764
35.04514721598624	1.6904724	1.3001816
35.063527270697215	1.865229	1.3657339
35.081908256782256	1.8885267	1.3742367
35.10029017485597	1.7636704	1.3280325
35.11867302553321	1.8676656	1.3666257
35.137056809429104	2.091017	1.4460349
35.155441527159006	2.1167736	1.4549136
35.173827179338524	1.9684062	1.402999
35.19221376658354	1.945595	1.3948458
35.21060128951017	2.0616813	1.4358556
35.2289897487348	2.0785184	1.4417068
35.24737914487405	2.1067445	1.4514629
35.26576947854479	2.1460392	1.4649366
35.28416075036418	2.0777206	1.4414301
35.30255296094958	1.9789802	1.4067624
35.32094611091867	1.907046	1.3809583
35.33934020088932	1.8377547	1.3556381
35.35773523147969	1.888962	1.3743951
35.3761312033082	2.033902	1.4261494
35.394528116993506	2.345324	1.531445
35.41292597315452	2.5179775	1.5868136
35.431324772410434	2.0352352	1.4266167
35.449724515380666	1.77724	1.3331317
35.46812520268491	2.125982	1.4580748
35.486526834943106	1.9424614	1.3937222
35.504929412775454	1.9116085	1.3826092
35.52333293680242	2.0615518	1.4358104
35.54173740764471	2.0796316	1.4420928
35.560142825923286	1.5927786	1.2620534
35.5785491922594	1.5008236	1.2250811
35.59695650727454	2.17549	1.4749542
35.61536477159042	3.1616464	1.7781019
