0.008763373481513119	0.051685803	0.22734512
0.026290120649546365	0.18429624	0.4292974
0.043816868432600686	0.12367553	0.35167533
0.06134361724069026	0.08536854	0.29217896
0.07887036748382949	0.07867833	0.28049657
0.0963971195720331	0.21285784	0.4613652
0.11392387391531617	0.21261354	0.46110037
0.1314506309236943	0.21262462	0.46111238
0.1489773910071836	0.11923589	0.3453055
0.16650415457580078	0.15549235	0.3943252
0.18403092203956356	0.145322	0.38121122
0.20155769380849	0.11829222	0.34393635
0.2190844702925996	0.10007055	0.31633928
0.2366112519019124	0.11128951	0.33360082
0.2541380390464497	0.15357044	0.39188066
0.27166483213623416	0.16790754	0.4097652
0.28919163158128947	0.13120525	0.36222264
0.3067184377916406	0.1372589	0.37048468
0.324245251177314	0.12478946	0.3532555
0.34177207214833777	0.14778756	0.38443148
0.3592989011147415	0.16374633	0.4046558
0.37682573848655654	0.15263392	0.39068392
0.39435258467381573	0.15872785	0.39840665
0.41187944008655414	0.12942766	0.35976055
0.42940630513480854	0.15959857	0.3994979
0.446933180228618	0.16685383	0.40847746
0.4644600657780234	0.1700612	0.41238478
0.48198696219306775	0.184458	0.42948574
0.49951386988379676	0.21855515	0.46749884
0.5170407892602581	0.23942435	0.4893101
0.5345677207325025	0.2587585	0.5086831
0.5520946647105822	0.24843505	0.4984326
0.5696216216045534	0.21084459	0.45917818
0.5871485918244737	0.14798063	0.3846825
0.6046755757804043	0.13753733	0.37086025
0.6222025738824094	0.14115569	0.3757069
0.6397295865405557	0.2036384	0.45126313
0.6572566141649129	0.22003397	0.4690778
0.6747836571655547	0.19788493	0.4448426
0.6923107159525568	0.18657376	0.43194184
0.7098377909359992	0.16093054	0.4011615
0.7273648825259653	0.14692359	0.38330612
0.7448919911325411	0.114949435	0.33904195
0.762419117165817	0.10221376	0.31970888
0.7799462610358868	0.12167372	0.3488176
0.7974734231528482	0.17294937	0.41587183
0.8150006039268024	0.1987388	0.4458013
0.8325278037678551	0.22396433	0.4732487
0.8500550230861152	0.24467842	0.4946498
0.8675822622916969	0.20788318	0.45594206
0.8851095217947171	0.23300326	0.4827041
0.9026368020052984	0.19319654	0.43954128
0.9201641033335665	0.23430437	0.48404998
0.9376914261896523	0.22522736	0.47458124
0.9552187709836915	0.20549576	0.4533164
0.9727461381258234	0.21010159	0.4583684
0.990273528026193	0.19376953	0.4401926
1.0078009410949496	0.21424079	0.4628615
1.0253283777422473	0.21182577	0.46024534
1.0428558383782454	0.23263393	0.4823214
1.0603833234131086	0.25545707	0.5054276
1.0779108332570058	0.31670302	0.56276375
1.0954383683201119	0.3644612	0.60370624
1.112965929012607	0.4411003	0.6641538
1.1304935157446763	0.53798836	0.7334769
1.1480211289265108	0.5437059	0.7373642
1.1655487689683062	1.4505084	1.2043705
1.1830764362802655	1.7792289	1.3338774
1.200604131272596	2.2024744	1.4840735
1.2181318543555117	2.4112859	1.5528315
1.235659605939232	2.4362192	1.5608393
1.253187386433982	4.1071334	2.0266063
1.270715196249994	6.404019	2.5306163
1.2882430357975057	11.912368	3.4514298
1.3057709054867608	16.86681	4.106922
1.3232988057280106	22.64308	4.7584743
1.3408267369315112	27.682467	5.261413
1.358354699507526	31.045921	5.5718865
1.3758826938663256	34.93626	5.9106903
1.3934107204181858	37.140705	6.0943174
1.410938779573391	37.64203	6.13531
1.4284668717422309	38.446373	6.200514
1.4459949973350033	38.020664	6.16609
1.4635231567620117	38.087624	6.171517
1.4810513504335687	37.207497	6.099795
1.4985795787599925	36.345173	6.0286956
1.5161078421516088	35.580154	5.96491
1.5336361410187505	34.727802	5.89303
1.5511644757717598	34.885143	5.9063644
1.5686928468209842	35.456978	5.954576
1.58622125457678	36.163456	6.013606
1.6037496994495108	37.459667	6.1204305
1.621278181849548	37.565754	6.129091
1.6388067021872719	38.73706	6.2239103
1.6563352608730693	37.878002	6.1545105
1.673863858317336	36.548424	6.0455294
1.6913924949304753	35.96862	5.9973845
1.7089211711228998	34.867313	5.9048553
1.7264498873050296	34.382076	5.863623
1.7439786438872935	33.608135	5.797252
1.7615074412801288	32.896152	5.7355165
1.779036279893981	31.944016	5.6519036
1.796565160139305	30.663643	5.537476
1.814094082426564	30.132643	5.4893208
1.8316230471662298	29.739645	5.453407
1.849152054768784	29.2905	5.41207
1.8666811056447168	28.59002	5.3469634
1.8842102002045273	27.472492	5.2414207
1.901739338858724	26.786236	5.175542
1.9192685220178245	25.949396	5.094055
1.9367977500923557	25.260117	5.025944
1.9543270234928547	24.885942	4.988581
1.971856342629867	24.232285	4.92263
1.9893857079139496	23.73426	4.8717823
2.006915119755667	23.116972	4.808011
2.0244445785655945	22.60059	4.754008
2.0419740847543175	22.318613	4.724258
2.0595036387324317	21.892313	4.678922
2.0770332409105414	21.47341	4.633941
2.094562891699263	21.275036	4.612487
2.1120925915092217	20.803148	4.561047
2.129622340751053	20.437183	4.5207505
2.1471521398354043	188.65181	13.735058
2.1646819891729323	444.8173	21.090693
2.182211889174303	440.88934	20.997366
2.1997418402501974	452.9471	21.282555
2.2172718428113023	432.86667	20.805449
2.234801897268317	320.73453	17.909063
2.2523320040319548	17.275827	4.15642
2.269862163512935	16.986015	4.1214094
2.287392376121992	16.814089	4.1004987
2.304922642269869	16.357903	4.0444903
2.322452962367322	16.121794	4.0151954
2.3399833368251164	15.851302	3.9813695
2.357513766054032	15.645824	3.9554803
2.3750442504648586	15.472992	3.9335725
2.3925747904683963	15.070802	3.882113
2.410105386475459	14.825353	3.8503704
2.4276360388968707	14.409845	3.7960303
2.445166748143469	14.381981	3.7923582
2.4626975146261025	14.338851	3.7866676
2.4802283387556323	14.072832	3.7513773
2.4977592209429305	13.770367	3.7108445
2.5152901615988825	13.338301	3.6521637
2.5328211611343865	13.046833	3.61204
2.5503522199603523	12.736107	3.5687683
2.5678833384877024	12.45281	3.528854
2.5854145171273712	12.538439	3.5409658
2.6029457562903064	12.331937	3.5116858
2.620477056387469	12.162351	3.487456
2.6380084178298326	11.985944	3.4620721
2.655539841028383	11.698433	3.4202971
2.673071326394119	11.489653	3.389639
2.6906028743380523	11.19233	3.345494
2.708134485271211	10.964228	3.3112276
2.7256661596046325	10.844506	3.2930999
2.743197897749369	10.665346	3.2657843
2.760729700116486	10.555005	3.2488468
2.778261567117063	10.322086	3.2128005
2.795793499162193	10.280279	3.2062874
2.8133254966629817	10.149872	3.1858864
2.830857560030551	10.068401	3.1730745
2.8483896896760337	9.791959	3.1292105
2.865921886010578	9.491682	3.0808573
2.883454149445347	9.341504	3.0563874
2.9009864803915177	9.361511	3.0596588
2.91851887926028	9.277657	3.0459247
2.9360513464628384	9.267203	3.044208
2.953583882410413	9.034802	3.0057948
2.9711164875142373	8.945284	2.9908667
2.9886491621855606	8.879766	2.9798937
3.0061819068356455	8.699547	2.9494994
3.023714721875769	8.450796	2.9070253
3.041247607717225	8.220072	2.8670669
3.0587805647713213	8.193565	2.8624403
3.0763135934493806	8.24019	2.870573
3.0938466941627407	8.2984495	2.880703
3.1113798673227544	8.171076	2.8585093
3.1289131133407904	8.05556	2.8382318
3.1464464326282315	8.024421	2.8327408
3.1639798255964786	8.016433	2.8313305
3.1815132926569443	7.9167128	2.8136654
3.1990468342210603	7.753098	2.7844386
3.216580450700272	7.495418	2.737776
3.2341141425060416	7.4053373	2.7212749
3.251647910049847	7.3622265	2.7133424
3.2691817537431813	7.3215623	2.7058384
3.286715673997555	7.361518	2.7132118
3.3042496712244938	7.256406	2.6937716
3.32178374583554	7.178476	2.679268
3.339317898242251	7.031725	2.65174
3.3568521288562034	6.9191656	2.6304307
3.3743864380889876	6.8370314	2.6147718
3.3919208263522127	6.75014	2.5981033
3.4094552940575023	6.6896734	2.5864403
3.4269898416164972	6.578872	2.5649312
3.444524469440858	6.537713	2.5568953
3.4620591779422587	6.440413	2.537797
3.479593967532391	6.425282	2.534814
3.4971288386229658	6.28954	2.5078955
3.5146637916257086	6.2799945	2.5059917
3.5321988269523628	6.257614	2.5015223
3.5497339450146903	6.317589	2.5134814
3.5672691462244708	6.275301	2.5050552
3.5848044309934988	6.2678666	2.5035708
3.60233979973359	6.1468344	2.479281
3.619875252856575	6.1690826	2.4837637
3.6374107907743034	6.246539	2.4993076
3.6549464138986427	6.3452606	2.51898
3.6724821226414788	6.3685446	2.5235975
3.690017917414714	6.3910646	2.5280554
3.7075537986302702	6.511934	2.5518491
3.7250897667000857	6.5247493	2.554359
3.7426258220361235	6.753779	2.5988033
3.7601619650503553	7.0025334	2.64623
3.777698196154779	7.420178	2.7240005
3.7952345157614067	8.383089	2.8953564
3.8127709242822716	9.242276	3.0401113
3.830307422129425	11.480932	3.3883524
3.847844009714936	30.420023	5.5154347
3.8653806874508954	97.86409	9.892628
3.882917455749409	97.00472	9.849097
3.900454315022606	96.79026	9.838204
3.917991265682631	41.41328	6.435315
3.9355283081416506	11.092355	3.3305187
3.9530654428118495	8.928438	2.9880493
3.970602670105433	7.691972	2.7734404
3.9881399904346244	6.834545	2.6142962
4.005677404211669	6.6770353	2.583996
4.023214911848827	6.583637	2.56586
4.0407525137583855	6.557565	2.5607743
4.058290210352644	6.570947	2.563386
4.075828002043927	6.4150233	2.5327897
4.0933658892445814	6.307876	2.5115485
4.110903872366966	6.2803893	2.5060704
4.128441951823468	6.2633257	2.5026636
4.145980128026488	6.241875	2.4983745
4.163518401388452	6.1328664	2.4764624
4.181056772321807	6.1161003	2.4730752
4.1985952412390155	6.1542997	2.480786
4.216133808552567	6.204119	2.490807
4.233672474674966	6.3689933	2.5236864
4.251211240018741	6.547794	2.5588658
4.268750104996445	6.693833	2.5872443
4.286289070020643	7.524786	2.7431343
4.303828135503928	9.157987	3.0262165
4.3213673018589125	29.561565	5.4370546
4.3389065694982305	90.8974	9.534013
4.356445938834537	166.25233	12.8938875
4.3739854102805085	172.1687	13.121307
4.391524984248844	172.97758	13.152094
4.409064661152262	136.83945	11.69784
4.426604441403504	97.02251	9.85
4.444144325415337	75.73202	8.7024145
4.461684313600543	21.883516	4.677982
4.47922440637193	22.352556	4.727849
4.496764604142329	20.668522	4.5462646
4.5143049073245916	18.897413	4.3471155
4.531845316331589	16.650623	4.080518
4.5493858315762195	13.756411	3.7089636
4.566926453471405	11.464639	3.3859472
4.584467182430081	9.404206	3.0666277
4.602008018865218	8.201407	2.86381
4.619548963189798	7.4746504	2.7339807
4.637090015816834	7.0128374	2.6481762
4.654631177159353	6.798132	2.6073227
4.672172447630417	6.45674	2.5410116
4.689713827643102	6.3473597	2.5193968
4.7072553176105085	6.15642	2.4812136
4.724796917945764	6.0972757	2.4692662
4.742338629062015	5.9777117	2.444936
4.759880451372434	5.859345	2.4206083
4.777422385290215	5.80498	2.4093525
4.794964431228581	5.72092	2.3918445
4.812506589600768	5.6835966	2.3840294
4.830048860820047	5.5797925	2.3621585
4.847591245299709	5.618549	2.3703477
4.8651337434530655	5.6296754	2.3726938
4.882676355693457	5.7151628	2.3906407
4.900219082434242	5.6590743	2.378881
4.917761924088813	5.609498	2.368438
4.935304881070575	5.563675	2.3587444
4.952847953792969	5.5631824	2.35864
4.970391142669449	5.539161	2.3535423
4.9879344481135055	5.533364	2.3523104
5.005477870538642	5.4527273	2.3351076
5.023021410358394	5.4695563	2.3387082
5.040565067986324	5.515035	2.348411
5.05810884383601	5.5179553	2.3490329
5.075652738321066	5.5098715	2.3473115
5.09319675185512	5.4241395	2.3289783
5.110740884851836	5.4343057	2.3311598
5.128285137724894	5.36905	2.317121
5.145829510888007	5.4100256	2.325946
5.163374004754908	5.486779	2.3423874
5.1809186197393595	5.4476843	2.3340275
5.198463356255145	5.415866	2.3272014
5.216008214716077	5.33711	2.3102186
5.233553195535998	5.3394866	2.3107328
5.251098299128764	5.370449	2.3174229
5.268643525908272	5.3990307	2.3235815
5.286188876288432	5.4405007	2.332488
5.3037343506831895	5.3784885	2.319157
5.32127994950651	5.311896	2.304755
5.3388256731723915	5.3301325	2.308708
5.356371522094851	5.35914	2.3149817
5.373917496687938	5.33814	2.3104415
5.391463597365729	5.229012	2.2867033
5.40900982454232	5.208451	2.282203
5.426556178631843	5.245174	2.2902346
5.444102660048449	5.361304	2.315449
5.4616492692063225	5.3829975	2.3201287
5.479196006519669	5.2906322	2.3001375
5.496742872402727	5.257191	2.2928565
5.514289867269756	5.2880077	2.2995667
5.531836991535049	5.297994	2.3017373
5.549384245612924	5.2567573	2.292762
5.566931629917724	5.2770753	2.2971885
5.584479144863822	5.295237	2.3011382
5.6020267908656205	5.3817873	2.3198678
5.619574568337545	5.3417335	2.311219
5.637122477694054	5.2992	2.301999
5.654670519349629	5.2176003	2.2842066
5.672218693718784	5.1984653	2.2800143
5.689767001216059	5.2173924	2.2841613
5.707315442256021	5.2861724	2.2991679
5.724864017253266	5.2418966	2.2895188
5.7424127266224225	5.2648306	2.2945218
5.75996157077814	5.2735376	2.2964184
5.777510550135105	5.277661	2.297316
5.795059665108022	5.2662544	2.2948322
5.812608916111639	5.3286176	2.30838
5.830158303560715	5.430948	2.3304393
5.847707827870055	5.3752275	2.3184538
5.86525748945448	5.399931	2.323775
5.8828072887288485	5.520368	2.3495464
5.900357226108044	5.5581007	2.3575625
5.917907302006979	5.677059	2.382658
5.9354575168406	6.2007785	2.4901361
5.9530078710238765	6.7899613	2.6057553
5.970558364971812	7.3239007	2.7062707
5.988108999099438	7.718936	2.7782974
6.005659773821818	8.28065	2.8776119
6.023210689554039	8.095104	2.8451896
6.040761746711227	8.459116	2.9084558
6.058312945708531	7.810182	2.7946703
6.075864286961132	7.351804	2.711421
6.093415770884244	6.6535826	2.579454
6.1109673978931065	6.1049776	2.4708252
6.128519168402993	5.5367994	2.3530405
6.146071082829204	5.414634	2.3269367
6.163623141587075	5.292105	2.3004577
6.181175345091969	5.211083	2.2827797
6.198727693759281	5.1890206	2.2779422
6.216280188004435	5.2203608	2.2848108
6.233832828242885	5.246361	2.2904935
6.251385614890126	5.2440267	2.289984
6.268938548361669	5.231626	2.2872748
6.286491629073067	5.1772213	2.2753508
6.304044857439898	5.2048783	2.2814202
6.321598233877777	5.1632934	2.272288
6.339151758802344	5.1324167	2.2654839
6.356705432629277	5.056836	2.248741
6.37425925577428	4.984013	2.2324903
6.391813228653095	4.974677	2.2303984
6.409367351681486	5.0006847	2.236221
6.426921625275259	4.9759235	2.2306778
6.44447604985025	4.921928	2.2185419
6.46203062582232	4.9009266	2.2138035
6.47958535360737	4.960434	2.2272031
6.497140233621328	5.09116	2.2563598
6.514695266280161	5.1290393	2.2647383
6.532250451999859	5.0946836	2.2571406
6.549805791196454	5.061956	2.2498791
6.567361284286002	5.082256	2.254386
6.584916931684597	5.1497455	2.269305
6.602472733808367	5.18121	2.2762272
6.6200286910734665	5.1395245	2.267052
6.637584803896092	5.080627	2.2540245
6.655141072692462	5.042089	2.2454596
6.672697497878842	5.0753355	2.2528505
6.690254079871514	5.1122456	2.2610276
6.707810819086808	5.051042	2.2474523
6.725367715941078	4.9791436	2.2313995
6.742924770850719	5.0267444	2.2420402
6.760481984232151	5.128402	2.2645977
6.778039356501836	5.1641264	2.2724714
6.795596888076266	5.054834	2.2482958
6.813154579371963	4.91059	2.215985
6.830712430805492	4.892731	2.211952
6.84827044279344	4.9138384	2.216718
6.865828615752445	5.0081215	2.2378833
6.883386950099159	5.010418	2.2383964
6.900945446250287	5.0140934	2.239217
6.918504104622553	5.0410194	2.2452214
6.936062925632727	5.0615582	2.2497907
6.953621909697607	5.0927844	2.2567198
6.971181057234028	5.158256	2.2711794
6.988740368658859	5.203358	2.2810872
7.006299844389007	5.262037	2.293913
7.023859484841407	5.3602586	2.3152232
7.041419290433036	5.4017153	2.3241591
7.058979261580902	5.505019	2.3462777
7.0765393987020495	5.680012	2.3832777
7.094099702213559	6.105947	2.4710214
7.111660172532549	6.4547772	2.5406253
7.129220810076164	6.7598944	2.5999796
7.146781615261595	7.3168783	2.704973
7.16434258850606	7.5397253	2.745856
7.181903730226821	8.094461	2.8450768
7.1994650408411704	8.342124	2.8882735
7.217026520766437	8.437013	2.9046535
7.234588170419983	8.671325	2.9447112
7.252149990219215	8.601464	2.9328253
7.269711980581568	8.530407	2.920686
7.2872741419245175	8.300142	2.8809967
7.304836474665574	7.922522	2.8146975
7.322398979222286	7.5862226	2.75431
7.339961656012233	7.244253	2.691515
7.357524505453039	6.9248805	2.6315167
7.375087527962357	6.6997075	2.5883794
7.392650723957886	6.400929	2.5300057
7.410214093857353	6.024338	2.4544528
7.427777638078528	5.7261276	2.392933
7.445341357039213	5.5806656	2.3623433
7.4629052511572525	5.4698834	2.3387783
7.480469320850524	5.374465	2.3182893
7.498033566536948	5.3337855	2.309499
7.5155979886344735	5.2602077	2.2935143
7.5331625875610975	5.260582	2.2935958
7.550727363734844	5.2466187	2.29055
7.568292317573788	5.228454	2.2865813
7.585857449496025	5.2083254	2.2821755
7.603422759919705	5.1904144	2.278248
7.620988249263007	5.2257104	2.2859812
7.638553917944147	5.207835	2.2820683
7.656119766381391	5.179142	2.2757728
7.673685794993023	5.1937227	2.278974
7.691252004197388	5.2236896	2.2855392
7.70881839441285	5.281958	2.2982512
7.726384966057826	5.3093114	2.3041942
7.743951719550762	5.3129835	2.304991
7.761518655310149	5.3203325	2.3065846
7.779085773754511	5.2796545	2.29775
7.796653075302419	5.2433167	2.289829
7.814220560372475	5.241704	2.2894769
7.831788229383323	5.244961	2.2901878
7.8493560827536495	5.301211	2.3024359
7.866924120902174	5.333551	2.3094482
7.884492344247663	5.347903	2.3125534
7.9020607532089135	5.3628883	2.3157911
7.919629348204771	5.423676	2.3288786
7.937198129654115	5.4514737	2.334839
7.954767097975865	5.4714565	2.3391144
7.972336253588986	5.428845	2.3299882
7.989905596912472	5.445409	2.33354
8.007475128365371	5.4817114	2.3413055
8.025044848366756	5.538032	2.3533025
8.042614757335754	5.7118654	2.389951
8.060184855691523	5.7843595	2.4050696
8.07775514385327	5.8466706	2.417989
8.095325622240228	5.856639	2.4200494
8.112896291271687	5.876072	2.424061
8.130467151366968	5.943984	2.4380288
8.148038202945436	5.9791193	2.4452238
8.165609446426497	6.0008483	2.449663
8.183180882229594	6.007127	2.450944
8.200752510774217	5.982525	2.44592
8.218324332479893	6.000814	2.4496558
8.235896347766193	6.051295	2.459938
8.253468557052724	6.0885277	2.4674942
8.27104096075914	6.073046	2.4643552
8.288613559305137	6.078248	2.4654102
8.306186353110448	6.134512	2.4767947
8.32375934259485	6.241825	2.4983644
8.341332528178162	6.2607365	2.5021465
8.358905910280246	6.3265347	2.5152605
8.376479489321003	6.384985	2.5268528
8.394053265720377	6.42549	2.534855
8.411627239898356	6.409576	2.531714
8.42920141227497	6.3896627	2.5277781
8.44677578327029	6.3797536	2.5258174
8.464350353304427	6.3359222	2.5171258
8.48192512279754	6.340074	2.5179503
8.499500092169827	6.2859125	2.507172
8.51707526184153	6.2240868	2.494812
8.534650632232934	6.181886	2.4863398
8.552226203764365	6.1817875	2.48632
8.569801976856192	6.2079444	2.4915748
8.587377951928834	6.270746	2.5041459
8.60495412940274	6.298118	2.5096052
8.622530509698416	6.346434	2.519213
8.6401070932364	6.453515	2.540377
8.657683880437283	6.589066	2.5669177
8.675260871721695	6.7495866	2.5979967
8.692838067510303	6.9394507	2.6342838
8.710415468223834	7.0612884	2.6573086
8.727993074283043	7.2258463	2.6880934
8.745570886108737	7.2507267	2.6927173
8.763148904121765	7.2895	2.6999075
8.78072712874302	7.3451314	2.7101903
8.798305560393441	7.5813894	2.7534323
8.815884199494006	7.7323704	2.780714
8.833463046465745	7.876931	2.8065872
8.851042101729728	8.037075	2.8349736
8.86862136570707	8.427752	2.903059
8.886200838818924	8.542566	2.922767
8.903780521486505	8.619934	2.9359725
8.921360414131055	8.689284	2.9477592
8.938940517173874	8.817921	2.9694984
8.956520831036297	8.969199	2.994862
8.97410135613971	9.18665	3.0309486
8.99168209290554	9.315242	3.052088
9.009263041755265	9.569292	3.0934272
9.026844203110405	9.798199	3.1302075
9.044425577392525	9.990604	3.1607916
9.062007165023239	10.081694	3.1751683
9.079588966424197	10.336042	3.2149715
9.097170982017108	10.398101	3.2246087
9.11475321222372	11.34571	3.3683393
9.132335657465825	12.279587	3.504224
9.149918318165264	12.3316345	3.5116427
9.167501194743924	12.801669	3.5779421
9.18508428762374	12.433299	3.5260882
9.202667597226693	12.509248	3.5368414
9.220251123974803	12.21071	3.4943826
9.237834868290143	11.948736	3.4566944
9.255418830594836	11.735702	3.425741
9.273003011311046	11.31745	3.3641417
9.290587410860985	11.07429	3.3278055
9.308172029666911	10.427947	3.2292333
9.32575686815113	10.128541	3.1825368
9.343341926735997	8.96069	2.993441
9.360927205843916	8.690793	2.9480152
9.378512705897327	8.434496	2.9042203
9.396098427318728	8.156846	2.8560193
9.413684370530664	8.102936	2.8465657
9.431270535955722	8.039503	2.8354018
9.448856924016539	7.9448752	2.8186655
9.466443535135806	7.7607365	2.7858098
9.484030369736251	7.744377	2.7828722
9.501617428240658	7.7638836	2.7863746
9.519204711071852	7.8348927	2.7990878
9.536792218652714	7.9032545	2.8112729
9.55437995140617	7.9728847	2.8236296
9.571967909755191	7.9624276	2.8217773
9.589556094122802	7.9016156	2.8109813
9.60714450493207	7.9994593	2.8283315
9.624733142606116	8.037554	2.835058
9.642322007568108	8.134178	2.8520482
9.659911100241267	8.158032	2.856227
9.677500421048851	8.18679	2.8612568
9.695089970414175	8.189499	2.86173
9.712679748760609	8.204342	2.8643222
9.730269756511557	8.164583	2.8573735
9.747859994090492	8.2616625	2.8743107
9.765450461920915	8.408871	2.8998053
9.78304116042639	8.46851	2.9100704
9.800632090030527	8.400414	2.898347
9.81822325115699	8.327458	2.8857336
9.835814644229481	8.315172	2.883604
9.853406269671762	8.319948	2.884432
9.870998127907646	8.24653	2.8716772
9.888590219360985	8.175491	2.8592815
9.906182544455698	8.221642	2.8673406
9.923775103615734	8.240915	2.8706994
9.941367897265108	8.32863	2.8859367
9.958960925827878	8.339296	2.887784
9.97655418972816	8.4108715	2.9001503
9.994147689390106	8.436896	2.9046335
10.011741425237934	8.387408	2.8961022
10.029335397695904	8.446554	2.9062955
10.04692960718833	8.4104395	2.9000757
10.06452405413958	8.326637	2.8855913
10.082118738974064	8.228452	2.868528
10.099713662116246	8.208398	2.86503
10.117308823990651	8.251501	2.8725426
10.134904225021844	8.352319	2.8900378
10.152499865634445	8.396355	2.8976464
10.170095746253125	8.347328	2.8891742
10.18769186730261	8.325645	2.8854194
10.205288229207675	8.268499	2.8755
10.222884832393145	8.189929	2.8618052
10.2404816772839	8.134352	2.8520784
10.258078764304868	8.120022	2.8495653
10.275676093881035	8.175551	2.859292
10.293273666437438	8.141513	2.8533337
10.310871482399158	8.089716	2.8442426
10.32846954219134	8.074627	2.8415887
10.346067846239173	8.211918	2.8656445
10.363666394967908	8.223258	2.8676224
10.38126518880283	8.180474	2.860153
10.398864228169298	8.196444	2.8629432
10.416463513492713	8.186207	2.8611548
10.434063045198531	8.199623	2.8634984
10.451662823712262	8.120161	2.8495896
10.469262849459467	8.149177	2.8546762
10.486863122865758	8.139581	2.8529952
10.504463644356806	8.200696	2.8636858
10.522064414358338	8.130825	2.8514602
10.539665433296118	8.155024	2.8557003
10.557266701595987	8.070112	2.8407943
10.574868219683818	8.000445	2.8285058
10.592469987985552	7.8175917	2.7959957
10.610072006927185	7.690389	2.773155
10.627674276934751	7.5292625	2.7439501
10.64527679843435	7.420677	2.724092
10.662879571852143	7.310686	2.703828
10.680482597614331	7.270407	2.6963692
10.698085876147173	7.1534586	2.674595
10.715689407876988	7.062968	2.6576245
10.733293193230146	6.9756527	2.6411462
10.750897232633072	6.8571267	2.6186116
10.76850152651225	6.79999	2.6076791
10.786106075294207	6.7122664	2.590804
10.803710879405534	6.616953	2.5723438
10.821315939272877	6.514088	2.5522711
10.83892125532294	6.447098	2.5391135
10.856526827982472	6.3874006	2.5273306
10.874132657678285	6.4131756	2.532425
10.891738744837243	6.379764	2.5258195
10.909345089886271	6.3239226	2.5147412
10.926951693252343	6.251057	2.5002115
10.944558555362494	6.237252	2.4974492
10.96216567664381	6.133223	2.4765344
10.979773057523436	6.053059	2.4602966
10.997380698428573	5.946785	2.4386032
11.014988599786477	5.855493	2.4198127
11.032596762024461	5.7728024	2.4026656
11.050205185569892	5.6404643	2.3749661
11.067813870850198	5.520995	2.3496797
11.085422818292859	5.4643273	2.33759
11.10303202832541	5.4824634	2.3414662
11.120641501375454	5.4632716	2.3373642
11.138251237870636	5.3465276	2.3122559
11.155861238238671	5.2733827	2.2963848
11.173471502907317	5.240209	2.2891502
11.191082032304402	5.206125	2.2816935
11.208692826857805	5.136703	2.2664297
11.226303886995465	5.0751915	2.2528186
11.243915213145371	5.018055	2.2401016
11.261526805735578	4.98356	2.232389
11.279138665194196	4.954933	2.225968
11.296750791949393	4.86144	2.2048674
11.314363186429393	4.811839	2.1935904
11.331975849062479	4.7719574	2.1844811
11.34958878027699	4.7096615	2.1701756
11.36720198050133	4.6804957	2.1634452
11.384815450163948	4.6391263	2.1538632
11.402429189693366	4.618913	2.1491656
11.420043199518153	4.5696898	2.1376832
11.437657480066942	63.527393	7.9704075
11.455272031768422	85.235306	9.232297
11.472886855051353	107.61861	10.373939
11.490501950344528	99.20461	9.960152
11.508117318076819	84.52612	9.193809
11.52573295867715	45.90325	6.7751937
11.543348872574514	4.2003303	2.0494707
11.560965060197946	4.1866717	2.046136
11.57858152197655	4.123414	2.0306191
11.59619825833949	4.082086	2.0204172
11.613815269715985	4.0745378	2.0185485
11.631432556535323	38.650356	6.216941
11.649050119226837	83.14728	9.118513
11.666667958219929	93.5213	9.670641
11.68428607394406	107.7568	10.380597
11.701904466828756	82.549805	9.085692
11.719523137303586	65.38844	8.086312
11.737142085798196	4.5954423	2.1436982
11.754761312742286	3.7430625	1.9346995
11.772380818565619	3.7293503	1.9311526
11.790000603698015	3.7104018	1.9262403
11.80762066856935	3.67814	1.9178478
11.825241013609572	3.6147137	1.90124
11.842861639248683	3.5642672	1.8879267
11.860482545916748	3.5099459	1.873485
11.878103734043883	3.4932134	1.869014
11.895725204060282	3.5155704	1.8749855
11.91334695639619	3.5252848	1.8775742
11.930968991481919	3.5169168	1.8753444
11.948591309747824	3.457279	1.859376
11.966213911624347	3.3829944	1.8392918
11.98383679754198	3.3429408	1.828371
12.001459967931268	3.312837	1.82012
12.019083423222835	3.3182473	1.8216057
12.036707163847352	3.3138695	1.8204037
12.05433119023556	3.2846746	1.8123671
12.071955502818259	3.2635884	1.8065405
12.089580102026313	3.2532861	1.8036869
12.107204988290643	3.2653224	1.8070203
12.12483016204224	3.2224996	1.7951322
12.142455623712152	3.1682332	1.7799531
12.16008137373149	3.1067352	1.7625933
12.177707412531431	3.081054	1.7552931
12.19533374054321	3.0494418	1.746265
12.212960358198126	3.0415123	1.7439932
12.230587265927545	3.0642269	1.7504933
12.248214464162889	3.0761347	1.7538913
12.265841953335649	3.096765	1.7597628
12.283469733877375	3.0812666	1.7553537
12.301097806219685	3.0381594	1.7430316
12.31872617079425	2.9977531	1.731402
12.336354828032825	2.9895968	1.729045
12.353983778367205	2.975762	1.7250397
12.371613022229262	2.9709573	1.7236465
12.389242560050928	2.9092379	1.7056488
12.406872392264201	2.892711	1.7007972
12.424502519301143	2.8911762	1.7003459
12.442132941593874	2.9129517	1.7067372
12.459763659574586	2.9016042	1.7034096
12.477394673675532	2.826299	1.68116
12.49502598432903	2.7936606	1.6714247
12.51265759196746	2.7474098	1.6575313
12.530289497023267	2.7804785	1.6674767
12.547921699928967	2.8491182	1.6879331
12.565554201117134	2.902699	1.703731
12.583187001020404	2.8822553	1.6977206
12.600820100071486	2.8465228	1.6871642
12.618453498703152	2.8390148	1.6849376
12.636087197348235	2.832784	1.6830876
12.65372119643964	2.8312986	1.6826463
12.671355496410326	2.8360164	1.6840476
12.68899009769333	2.8753266	1.6956788
12.706625000721749	2.9231644	1.7097265
12.724260205928752	2.9600422	1.7204773
12.741895713747551	2.9584973	1.7200283
12.759531524611454	2.972887	1.7242062
12.777167638953818	2.9999907	1.7320482
12.794804057208072	3.052514	1.7471446
12.812440779807702	3.1082566	1.7630248
12.830077807186271	3.2773912	1.8103566
12.847715139777405	3.2938461	1.8148956
12.865352778014795	3.466138	1.8617567
12.882990722332197	3.5451763	1.8828639
12.90062897316344	3.657389	1.9124302
12.918267530942412	3.7221227	1.9292804
12.935906396103071	3.632353	1.9058733
12.953545569079449	3.7875044	1.9461511
12.971185050305628	3.588073	1.894221
12.988824840215775	3.5809155	1.8923306
13.006464939244115	3.5687976	1.8891262
13.024105347824943	3.4171355	1.8485496
13.041746066392617	3.4935427	1.8691021
13.05938709538157	3.3227098	1.8228302
13.077028435226296	3.387661	1.84056
13.094670086361363	3.3738513	1.8368046
13.112312049221401	3.2993596	1.8164139
13.129954324241112	3.1660616	1.779343
13.147596911855258	2.940046	1.7146562
13.165239812498685	2.915273	1.707417
13.182883026606293	2.8700871	1.6941332
13.200526554613058	2.795062	1.6718439
13.218170396954017	2.769147	1.6640754
13.235814554064284	2.7052982	1.6447791
13.253459026379034	2.6979241	1.6425359
13.271103814333523	2.696022	1.6419568
13.288748918363058	2.712585	1.6469927
13.306394338903031	2.7389712	1.6549838
13.32404007638889	2.689964	1.640111
13.341686131256164	2.7168603	1.6482902
13.359332503940449	2.692954	1.6410222
13.376979194877402	2.6843464	1.6383976
13.394626204502751	2.708892	1.6458713
13.412273533252307	2.7487187	1.6579261
13.429921181561937	2.7761052	1.6661648
13.447569149867581	2.8005903	1.6734964
13.465217438605247	2.7932518	1.6713024
13.482866048211022	2.7492955	1.6581
13.500514979121052	2.7286177	1.6518528
13.518164231771568	2.6729143	1.634905
13.535813806598844	2.666845	1.6330478
13.553463704039254	2.633691	1.6228651
13.571113924529229	2.6277852	1.6210445
13.588764468505275	2.6643255	1.6322762
13.606415336403956	2.73241	1.6530002
13.624066528661917	2.7602565	1.661402
13.641718045715882	2.797071	1.6724446
13.659369888002635	2.8377683	1.6845677
13.67702205595903	2.9689152	1.723054
13.694674550021993	3.0491083	1.7461696
13.712327370628532	3.1102018	1.7635764
13.729980518215713	3.1575809	1.7769583
13.747633993220681	3.1969764	1.788009
13.765287796080647	3.243192	1.8008864
13.7829419272329	3.3154843	1.8208472
13.800596387114801	3.3453984	1.829043
13.818251176163775	3.356676	1.8321234
13.835906294817324	3.3877637	1.8405879
13.853561743513023	3.4320848	1.8525887
13.871217522688525	3.4798064	1.8654239
13.888873632781538	3.520344	1.876258
13.906530074229858	3.5492427	1.8839434
13.92418684747135	3.5468333	1.8833038
13.941843952943948	3.5787165	1.8917496
13.959501391085665	3.5630732	1.8876104
13.977159162334578	3.5336583	1.8798027
13.994817267128846	3.4902108	1.8682106
14.012475705906693	3.389258	1.8409938
14.030134479106424	3.2606692	1.8057324
14.047793587166414	3.1455216	1.7735618
14.065453030525108	3.0623953	1.7499701
14.083112809621026	3.0416427	1.7440306
14.100772924892766	2.9822807	1.7269281
14.118433376778997	2.9415097	1.715083
14.136094165718458	2.8514106	1.688612
14.153755292149969	2.7669737	1.6634223
14.171416756512416	2.7173963	1.6484526
14.189078559244768	2.642229	1.6254935
14.20674070078606	2.5469174	1.5959065
14.224403181575408	2.4802742	1.5748886
14.242066002051999	2.4785488	1.5743407
14.259729162655093	2.4872406	1.5770987
14.277392663824022	2.4925158	1.5787704
14.295056505998208	2.4799497	1.5747856
14.312720689617128	2.4751384	1.5732572
14.330385215120348	2.469075	1.571329
14.348050082947497	2.4397826	1.5619804
14.3657152935383	2.4020011	1.549839
14.383380847332528	2.366347	1.5382936
14.401046744770051	2.382661	1.5435871
14.418712986290798	2.4194813	1.5554682
14.436379572334793	2.425089	1.5572697
14.454046503342123	2.4618304	1.569022
14.471713779752946	2.458912	1.5680918
14.489381402007504	2.4266036	1.557756
14.507049370546113	2.4028392	1.5501094
14.524717685809168	2.3934362	1.5470735
14.542386348237134	2.3987548	1.5487914
14.560055358270553	2.3761108	1.5414639
14.577724716350051	2.3859158	1.544641
14.595394422916325	2.3648543	1.5378083
14.61306447841015	2.4380102	1.5614129
14.63073488327237	2.478102	1.5741988
14.648405637943917	2.5391016	1.5934559
14.6660767428658	2.5312047	1.590976
14.683748198479094	2.5295014	1.5904406
14.701420005224954	2.5560777	1.5987738
14.719092163544628	2.6173308	1.6178167
14.73676467387942	2.6896086	1.6400026
14.754437536670727	2.7140455	1.647436
14.772110752360014	2.7461016	1.6571366
14.78978432138882	2.7279906	1.651663
14.807458244198777	2.6921504	1.6407773
14.82513252123159	2.7116017	1.6466942
14.842807152929028	2.7589822	1.6610184
14.860482139732962	2.7324877	1.6530238
14.87815748208531	2.7200918	1.64927
14.8958331804281	2.7185802	1.6488118
14.91350923520342	2.6925542	1.6409005
14.931185646853438	2.7189655	1.6489286
14.948862415820408	2.6750197	1.6355487
14.966539542546656	2.6839368	1.6382725
14.98421702747459	2.6536794	1.6290118
15.001894871046696	2.687201	1.6392684
15.019573073705542	2.6924417	1.6408662
15.037251635893766	2.6884909	1.6396618
15.054930558054092	2.6838336	1.638241
15.072609840629323	2.7159195	1.6480047
15.090289484062351	2.866574	1.693096
15.107969488796124	3.187321	1.7853069
15.125649855273691	3.6001964	1.8974184
15.14333058393817	4.121578	2.030167
15.161011675232768	5.0972033	2.2576988
15.17869312960076	6.484755	2.5465183
15.196374947485506	8.382379	2.8952339
15.214057129330447	11.50964	3.392586
15.231739675579114	16.270042	4.033614
15.249422586675102	21.242758	4.608987
15.267105863062092	24.375479	4.937153
15.284789505183847	24.575436	4.9573617
15.302473513484218	22.386362	4.731423
15.320157888407127	18.690453	4.3232455
15.337842630396578	14.511737	3.8094273
15.355527739896656	11.27572	3.3579338
15.37321321735153	8.752393	2.9584444
15.39089906320545	6.417014	2.5331826
15.408585277902748	4.888645	2.211028
15.42627186188783	3.8051195	1.9506716
15.443958815605198	3.302649	1.8173192
15.461646139499424	2.9702022	1.7234274
15.479333834015168	2.84523	1.6867809
15.497021899597165	2.7788444	1.6669866
15.514710336690234	2.7412822	1.6556818
15.53239914573928	2.6693144	1.6338036
15.550088327189297	2.5945995	1.6107761
15.567777881485336	2.546546	1.59579
15.58546780907256	2.4834359	1.5758921
15.6031581103962	2.4587834	1.5680509
15.620848785901568	2.4663062	1.5704478
15.638539836034063	2.4654508	1.5701754
15.656231261239173	2.455721	1.567074
15.673923061962451	2.427431	1.5580215
15.691615238649552	2.4456394	1.563854
15.709307791746202	2.486366	1.5768214
15.727000721698221	2.4737628	1.57282
15.744694028951498	2.452506	1.5660479
15.76238771395202	2.4598508	1.5683912
15.780081777145844	2.4554634	1.5669918
15.797776218979125	2.4167194	1.5545801
15.815471039898094	2.3936768	1.5471512
15.833166240349064	2.3920465	1.5466242
15.850861820778437	2.3807716	1.542975
15.868557781632699	2.393467	1.5470834
15.886254123358412	2.4446197	1.563528
15.903950846402232	2.434305	1.560226
15.921647951210897	2.4255023	1.5574024
15.939345438231225	2.4179611	1.5549794
15.957043307910133	2.4319465	1.5594699
15.974741560694602	2.4515488	1.5657423
15.992440197031714	2.4509537	1.5655522
16.01013921736862	2.4454432	1.5637913
16.02783862215259	2.4229226	1.556574
16.045538411830933	2.4402652	1.5621349
16.06323858685107	2.4603643	1.5685549
16.080939147660512	2.4669144	1.5706414
16.09864009470684	2.4546278	1.5667251
16.11634142843774	2.4427547	1.5629314
16.134043149300954	2.4430168	1.5630152
16.15174525774433	2.440124	1.5620897
16.169447754215817	2.4506636	1.5654595
16.18715063916342	2.438651	1.5616181
16.204853913035244	2.4252644	1.5573261
16.222557576279478	2.4462514	1.5640497
16.240261629344403	22.481691	4.741486
16.257966072678386	43.03548	6.5601435
16.275670906729868	38.13936	6.1757073
16.293376131947387	2.5276213	1.5898495
16.31108174877957	2.5491881	1.5966177
16.328787757675133	2.565729	1.6017892
16.34649415908287	2.6120732	1.6161909
16.364200953451657	2.650253	1.6279597
16.38190814123048	2.6567388	1.6299505
16.39961572286839	2.673832	1.6351856
16.41732369881455	2.7124257	1.6469444
16.43503206951817	2.7790668	1.6670533
16.45274083542859	2.8105307	1.6764637
16.47044999699522	2.8448975	1.6866823
16.488159554667558	2.9113343	1.7062633
16.505869508895184	2.9319425	1.7122916
16.523579860127786	2.920199	1.708859
16.541290608815117	2.9300196	1.71173
16.559001755407035	2.981669	1.726751
16.57671330035348	3.0369263	1.7426779
16.59442524410448	3.1257427	1.767977
16.61213758711015	3.2452564	1.8014596
16.629850329820705	3.3214424	1.8224825
16.647563472686436	3.3865721	1.8402642
16.665277016157724	3.4286916	1.8516726
16.682990960685053	3.487317	1.8674359
16.70070530671898	3.553938	1.885189
16.718420054710155	3.6092014	1.8997898
16.736135205109335	3.6184533	1.9022232
16.753850758367335	3.6255493	1.9040875
16.771566714935087	3.704539	1.9247179
16.789283075263597	3.7458682	1.9354246
16.80699983980398	3.7308335	1.9315366
16.82471700900741	3.8001804	1.9494052
16.84243458332518	3.894403	1.9734242
16.860152563208665	3.9703271	1.992568
16.87787094910932	4.0189495	2.004732
16.89558974147871	4.0886016	2.0220292
16.913308940768466	4.1939645	2.0479171
16.931028547430333	4.2761087	2.0678754
16.94874856191613	4.32842	2.0804856
16.966468984677785	4.394221	2.0962398
16.98418981616729	4.468908	2.113979
17.00191105683676	4.4941363	2.119938
17.019632707138374	4.5229754	2.1267288
17.03735476752442	4.579641	2.1400096
17.05507723844728	4.6135993	2.1479292
17.072800120359403	4.657578	2.1581423
17.090523413713353	4.6619043	2.1591444
17.108247118961785	4.638455	2.1537073
17.125971236557437	4.6401296	2.154096
17.143695766953133	4.6289496	2.1514995
17.161420710601806	4.643746	2.1549354
17.179146067956477	4.7077317	2.169731
17.19687183947025	4.723756	2.1734202
17.21459802559634	4.692841	2.1662967
17.232324626788028	4.632966	2.1524327
17.25005164349871	4.628092	2.1513
17.267779076181863	4.6111865	2.1473672
17.285506925291074	4.5931406	2.1431613
17.30323519127999	4.610909	2.1473026
17.320963874602384	4.62629	2.1508813
17.33869297571211	4.647008	2.155692
17.356422495063114	4.6224365	2.1499853
17.37415243310944	4.5480857	2.1326241
17.391882790305218	4.519249	2.1258526
17.40961356710468	4.549324	2.1329145
17.42734476396215	4.5522265	2.1335948
17.445076381332044	4.553915	2.1339903
17.462808419668868	4.6244936	2.1504636
17.48054087942723	4.7928953	2.189268
17.498273761061835	5.1102448	2.260585
17.51600706502747	5.6066637	2.3678396
17.533740791779024	6.349928	2.5199063
17.551474941771485	7.7735662	2.7881117
17.56920951545993	8.820906	2.970001
17.586944513299528	10.983092	3.314075
17.60467993574556	12.573352	3.5458922
17.622415783253373	14.130131	3.7590067
17.64015205627843	15.460896	3.9320345
17.657888755276293	16.60474	4.0748916
17.675625880702604	17.149052	4.1411414
17.69336343301311	16.927233	4.1142716
17.71110141266366	16.152065	4.0189633
17.728839820110178	15.251893	3.9053671
17.746578655808705	14.455343	3.8020184
17.764317920215372	13.029135	3.6095893
17.7820576137864	11.534116	3.3961914
17.79979773697811	9.547947	3.089975
17.81753829024692	7.6720905	2.7698538
17.835279274049356	5.9684424	2.4430397
17.85302068884201	4.939598	2.2225206
17.870762535081607	4.240107	2.0591521
17.888504813224934	3.9693096	1.9923127
17.90624752372891	3.8240948	1.9555293
17.923990667050536	3.7183073	1.9282913
17.941734243646895	3.5801613	1.8921314
17.959478253975185	3.5299478	1.8788155
17.9772226984927	3.4781642	1.8649837
17.994967577656833	3.4437718	1.8557402
18.01271289192506	3.4013274	1.8442688
18.030458641754965	3.3877156	1.8405747
18.04820482760425	3.3762693	1.8374628
18.06595144993067	3.371425	1.8361441
18.083698509192125	3.4063458	1.8456289
18.101446005846576	3.3641098	1.8341509
18.119193940352105	3.2391875	1.7997743
18.136942313166887	3.1610968	1.7779473
18.1546911247492	3.1903763	1.7861625
18.1724403755574	3.2400584	1.8000163
18.19019006604997	3.227501	1.7965246
18.207940196685467	3.1304448	1.7693063
18.225690767922575	3.100055	1.7606972
18.243441780220046	3.1212716	1.7667121
18.261193234036764	3.103772	1.7617525
18.278945129831676	3.0709052	1.7523998
18.29669746806386	3.0438297	1.7446575
18.314450249192483	3.0232635	1.7387534
18.3322034736768	2.9997704	1.7319845
18.349957141976184	3.0197299	1.7377369
18.3677112545501	3.0300634	1.7407078
18.385465811858108	2.998192	1.7315289
18.403220814359884	2.9997747	1.7319858
18.420976262515172	3.038736	1.7431971
18.43873215678387	3.0743718	1.7533886
18.456488497625923	3.127455	1.7684612
18.474245285501407	3.2638173	1.8066038
18.492002520870486	3.335258	1.8262689
18.50976020419343	3.405461	1.8453891
18.527518335930615	3.6822166	1.9189103
18.545276916542516	4.226947	2.055954
18.563035946489688	4.406573	2.0991838
18.580795426232832	4.9050713	2.2147396
18.598555356232698	4.811575	2.1935303
18.616315736950185	5.1509686	2.2695746
18.63407656884626	4.777432	2.1857338
18.65183785238201	4.9539537	2.2257478
18.669599588018617	4.625932	2.150798
18.68736177621737	4.6222816	2.1499493
18.705124417439652	4.6103745	2.1471782
18.72288751214696	4.512491	2.1242626
18.740651060800886	4.6401353	2.1540973
18.758415063863115	4.3519416	2.0861309
18.77617952179546	4.548775	2.1327858
18.793944435059814	4.270239	2.0664556
18.811709804118184	4.241365	2.0594575
18.829475629432675	4.186274	2.0460386
18.8472419114655	4.002798	2.0006993
18.86500865067897	4.1108565	2.0275247
18.88277584753551	3.7749841	1.9429319
18.90054350249763	3.788975	1.9465289
18.918311616027957	3.4775395	1.8648162
18.936080188589226	3.3758934	1.8373604
18.953849220644265	3.0713942	1.7525394
18.971618712656007	2.9025729	1.7036939
18.9893886650875	2.8522816	1.68887
19.007159078401887	8.064181	2.8397503
19.024929953062408	32.92348	5.737899
19.042701289532435	32.848324	5.7313457
19.060473088275405	25.41773	5.0415998
19.07824534975489	2.6942792	1.641426
19.096018074434568	2.6970048	1.642256
19.113791262778197	2.6803193	1.637168
19.13156491524966	2.6529124	1.6287763
19.149339032312945	2.6386938	1.6244056
19.167113614432136	2.5896153	1.6092281
19.184888662071433	2.575346	1.6047884
19.202664175695123	2.5757587	1.604917
19.220440155767623	2.6007972	1.6126987
19.238216602753447	2.6152754	1.6171813
19.2559935171172	2.6079063	1.6149013
19.27377089932361	2.56888	1.6027726
19.291548749837514	2.5362086	1.5925479
19.309327069123835	2.5164173	1.586322
19.32710585764763	2.5191824	1.5871933
19.344885115874032	2.5584104	1.5995032
19.362664844268313	2.6065497	1.6144812
19.380445043295822	2.5885184	1.6088873
19.39822571342203	2.5208938	1.5877323
19.41600685511252	2.5137722	1.585488
19.43378846883297	2.497367	1.5803059
19.451570555049173	2.4809196	1.5750935
19.469353114227037	2.475517	1.5733776
19.48713614683254	2.4868228	1.5769663
19.50491965333182	2.5150785	1.5859
19.52270363419109	2.4993231	1.5809247
19.540488089876686	2.4738536	1.5728489
19.55827302085503	2.4856143	1.5765831
19.576058427592674	2.509626	1.5841799
19.593844310556282	2.5066645	1.5832449
19.611630670212598	2.5186093	1.5870126
19.629417507028506	2.5014923	1.5816107
19.64720482147098	2.4831524	1.5758021
19.6649926140071	2.473023	1.5725847
19.682780885104084	2.493973	1.5792317
19.70056963522921	2.5308087	1.5908515
19.718358864849908	2.5442464	1.5950694
19.7361485744337	2.5437007	1.5948983
19.753938764448215	2.5403588	1.5938503
19.771729435361202	2.548855	1.5965134
19.789520587640506	2.523899	1.5886784
19.807312221754092	2.5026052	1.5819625
19.825104338170043	2.4970913	1.5802188
19.842896937356517	2.5111487	1.5846604
19.860690019781824	2.5334523	1.5916822
19.87848358591436	2.5643342	1.6013539
19.896277636222635	2.5383732	1.5932273
19.914072171175278	2.5301888	1.5906568
19.931867191241015	2.5163298	1.5862943
19.94966269688869	2.5066667	1.5832456
19.967458688587264	2.536182	1.5925394
19.985255166805807	2.5368578	1.5927516
20.00305213201348	2.5116384	1.5848149
20.020849584679578	2.49364	1.5791264
20.038647525273507	2.501745	1.5816905
20.05644595426477	2.5226831	1.5882957
20.07424487212299	2.5209599	1.587753
20.092044279317903	2.458415	1.5679333
20.109844176319353	2.4711373	1.5719851
20.127644563597304	2.4859684	1.5766954
20.145445441621817	2.4755054	1.5733739
20.16324681086307	2.422878	1.5565597
20.181048671791373	2.3991554	1.5489208
20.198851024877122	2.4114246	1.5528762
20.216653870590836	2.4111593	1.5527908
20.234457209403146	2.4001334	1.5492364
20.252261041784802	2.3792586	1.5424845
20.270065368206662	2.3886704	1.5455325
20.287870189139685	2.3918312	1.5465546
20.305675505054968	2.4026215	1.5500392
20.323481316423702	2.3815503	1.5432272
20.341287623717207	2.3901293	1.5460043
20.359094427406884	2.3626876	1.5371037
20.376901727964288	2.363521	1.5373747
20.39470952586107	2.347004	1.5319935
20.41251782156899	2.333857	1.5276966
20.430326615559935	2.3553417	1.5347122
20.448135908305886	2.3497293	1.5328827
20.465945700278965	2.340174	1.5297627
20.483755991951384	2.331909	1.527059
20.50156678379548	2.3329787	1.5274092
20.519378076283708	2.3330517	1.527433
20.537189869888635	2.3403587	1.5298231
20.55500216508294	2.340512	1.5298733
20.572814962339415	2.338552	1.5292325
20.59062826213098	2.3124104	1.5206611
20.60844206493066	2.3326616	1.5273054
20.626256371211593	2.3343415	1.5278552
20.644071181447032	2.3537035	1.5341785
20.66188649611036	2.319492	1.5229878
20.67970231567506	2.339705	1.5296094
20.697518640614742	2.3290381	1.5261186
20.715335471403122	2.339449	1.5295258
20.73315280851404	2.2843797	1.5114164
20.750970652421447	2.3221488	1.5238599
20.768789003599412	2.3077934	1.5191423
20.786607862522136	2.2856565	1.5118388
20.8044272296639	2.292054	1.5139531
20.82224710549913	2.3164618	1.5219927
20.84006749050237	2.3248675	1.5247517
20.857888385148268	3.8601956	1.964738
20.8757097899116	45.957035	6.779162
20.893531705267254	64.82805	8.051587
20.911354131690224	83.82001	9.155327
20.92917706965566	69.087585	8.311894
20.94700051963877	50.160572	7.0824127
20.96482448211493	29.438555	5.4257307
20.982648957559622	4.169617	2.041964
21.00047394644843	2.2957938	1.5151877
21.01829944925707	2.3107648	1.52012
21.036125466461375	2.2865193	1.5121241
21.053951998537297	2.2761288	1.5086844
21.071779045960906	2.2680597	1.5060079
21.089606609208378	2.2495136	1.4998379
21.10743468875603	2.2141957	1.4880174
21.12526328508028	2.1808953	1.4767854
21.143092398657675	2.2075698	1.4857893
21.16092202996488	2.2067602	1.4855168
21.17875217947867	2.1943307	1.4813273
21.19658284767596	2.1546307	1.4678661
21.21441403503377	2.1900659	1.4798871
21.232245742029225	2.2047524	1.4848409
21.2500779691396	2.2089314	1.4862474
21.26791071684227	2.1980538	1.4825835
21.28574398561475	2.1755214	1.4749649
21.30357777593465	2.190323	1.479974
21.321412088279704	2.2101276	1.4866498
21.339246923127792	2.2172644	1.4890481
21.357082280956888	2.2090044	1.486272
21.3749181622451	2.2174053	1.4890954
21.392754567470647	2.2000563	1.4832587
21.41059149711187	2.1501367	1.4663345
21.42842895164726	2.1006138	1.4493494
21.446266931555378	2.1053948	1.4509978
21.464105437314945	2.1532257	1.4673873
21.481944469404798	2.198464	1.4827218
21.49978402830388	2.2052803	1.4850186
21.51762411449127	2.1665044	1.471905
21.53546472844617	2.1042366	1.4505987
21.553305870647876	2.101464	1.4496428
21.571147541575865	2.12677	1.4583449
21.58898974170967	2.1257436	1.457993
21.60683247152899	2.0925026	1.4465485
21.62467573151363	2.0463388	1.430503
21.642519522143523	2.0659106	1.4373276
21.660363843898722	2.088898	1.445302
21.6782086972594	2.0769858	1.4411751
21.696054082705864	2.0472083	1.4308069
21.713900000718535	2.0440378	1.4296985
21.73174645177795	2.0549586	1.4335127
21.749593436364794	2.037209	1.4273083
21.767440954959845	2.0731316	1.4398373
21.785289008044032	2.0808945	1.4425306
21.803137596098388	2.0832329	1.4433409
21.820986719604086	2.0498786	1.4317397
21.838836379042412	2.0232103	1.422396
21.85668657489478	2.0072782	1.4167844
21.87453730764273	1.9979587	1.4134916
21.892388577767914	2.0093315	1.4175088
21.91024038575213	2.04269	1.4292271
21.928092732077285	2.0705981	1.4389573
21.945945617225426	2.0405896	1.4284921
21.963799041678694	2.0207632	1.4215355
21.981653005919398	31.334549	5.5977273
21.999507510429943	78.1471	8.840085
22.01736255569286	73.13375	8.551827
22.035218142190818	4.2451324	2.0603719
22.05307427040661	2.049252	1.4315209
22.07093094082315	2.0252788	1.4231229
22.088788153923474	2.0123782	1.4185832
22.106645910190746	2.0076947	1.4169314
22.12450421010827	2.0104792	1.4179137
22.142363054159464	2.0205426	1.4214579
22.16022244282787	2.014744	1.4194168
22.178082376597164	1.9833341	1.408309
22.195942855951145	1.9391987	1.3925512
22.213803881373742	1.9681787	1.402918
22.231665453349002	2.0167246	1.4201143
22.24952757236111	2.0212996	1.4217242
22.26739023889438	1.9982203	1.4135842
22.28525345343323	1.9577228	1.3991865
22.30311721646225	1.9741552	1.4050463
22.320981528466113	1.964308	1.4015378
22.33884638992964	1.9705874	1.4037762
22.356711801337788	1.9642464	1.4015157
22.37457776317561	1.9911009	1.4110638
22.392444275928337	1.9841549	1.4086003
22.410311340081282	1.960162	1.4000579
22.428178956119904	1.9615542	1.4005549
22.446047124529805	1.9439878	1.3942697
22.46391584579669	1.9468191	1.3952845
22.481785120406414	1.9499304	1.3963991
22.49965494884496	1.9637882	1.4013523
22.51752533159841	1.9785062	1.4065938
22.53539626915302	1.9853184	1.4090133
22.553267761995137	1.9717999	1.404208
22.571139810611264	1.9568987	1.3988919
22.589012415488025	1.9687136	1.4031086
22.60688557711216	1.9909139	1.4109975
22.624759295970566	2.0205142	1.421448
22.642633572550263	2.0059943	1.4163313
22.660508407338362	1.983197	1.4082602
22.67838380082217	1.9588023	1.3995723
22.696259753489077	1.9603926	1.4001402
22.714136265826614	1.9629614	1.4010572
22.73201333832246	1.9497541	1.396336
22.74989097146439	1.9420038	1.393558
22.76776916574035	1.9308639	1.3895552
22.785647921638393	1.9448153	1.3945663
22.803527239646712	1.9329357	1.3903006
22.82140712025363	1.9310412	1.3896191
22.839287563947593	1.9262612	1.3878981
22.85716857121719	1.9454757	1.394803
22.875050142551135	1.9103075	1.3821387
22.892932278438277	1.926122	1.3878479
22.910814979367604	1.9514313	1.3969364
22.928698245828222	1.9516852	1.3970273
22.946582078309387	1.9346142	1.3909041
22.96446647730047	1.9067992	1.380869
22.98235144329098	1.9062884	1.380684
23.000236976770562	1.909735	1.3819317
23.018123078229	1.8762437	1.3697605
23.03600974815619	1.8632241	1.3649997
23.053896987042194	1.8828812	1.3721812
23.071784795377173	1.9336224	1.3905475
23.08967317365145	1.955783	1.3984932
23.10756212235546	1.9864403	1.4094113
23.125451641979787	1.953798	1.3977833
23.143341733015134	1.9246926	1.3873329
23.161232395952357	1.8879035	1.37401
23.179123631282426	1.926802	1.388093
23.197015439496468	1.9633785	1.4012061
23.214907821085717	1.9888998	1.4102836
23.23280077654157	1.9790539	1.4067885
23.250694306355538	2.000796	1.414495
23.268588411019277	1.9873176	1.4097226
23.28648309102458	1.9613367	1.4004773
23.304378346863356	1.9133406	1.3832356
23.322274179027676	1.905734	1.3804833
23.340170588009723	1.9101124	1.3820682
23.358067574301852	1.9436196	1.3941376
23.37596513839651	1.98271	1.4080874
23.39386328078629	1.9966244	1.4130195
23.411762001963947	1.9632765	1.4011697
23.429661302422353	1.9839435	1.4085252
23.4475611826545	1.9478799	1.3956647
23.46546164315356	1.9417146	1.3934542
23.48336268441279	1.9213165	1.3861157
23.501264306925638	1.9314587	1.3897693
23.51916651118564	1.9097714	1.3819448
23.537069297686497	1.9406344	1.3930665
23.554972666922037	1.9497032	1.3963177
23.57287661938623	1.9511434	1.3968333
23.59078115557318	1.9274751	1.3883353
23.608686275977128	1.9435443	1.3941106
23.62659198109246	1.9410717	1.3932235
23.6444982714137	1.9431944	1.393985
23.66240514743549	1.9278485	1.3884698
23.68031260965263	1.9184421	1.3850784
23.698220658560068	1.9186184	1.3851421
23.716129294652845	1.9262027	1.387877
23.7340385184262	1.9315313	1.3897954
23.75194833037546	1.9252127	1.3875203
23.769858730996123	1.9584972	1.3994632
23.78776972078382	1.9405077	1.3930211
23.80568130023431	1.931424	1.3897568
23.823593469843495	1.9109561	1.3823733
23.841506230107424	1.9006834	1.3786527
23.859419581522275	1.8970224	1.3773243
23.87733352458438	1.8792505	1.3708576
23.89524805979019	1.9528968	1.3974608
23.913163187636318	1.9929997	1.4117364
23.931078908619508	2.0328205	1.4257702
23.948995223236633	1.9764574	1.4058653
23.966912131984735	1.9767113	1.4059557
23.98482963536096	2.0132744	1.418899
24.002747733862616	2.0580344	1.4345851
24.020666427987155	2.07256	1.4396389
24.038585718232156	2.073929	1.4401143
24.056505605095353	2.0868216	1.4445835
24.074426089074617	2.0856347	1.4441726
24.092347170667946	2.0665758	1.437559
24.110268850373515	2.0120397	1.4184638
24.128191128689586	2.0322664	1.4255759
24.146114006114626	2.066329	1.4374732
24.164037483147187	2.0565343	1.4340621
24.181961560286005	2.0225606	1.4221675
24.199886238029926	2.0134141	1.4189483
24.21781151687797	2.018202	1.4206344
24.235737397329274	2.0117342	1.4183562
24.253663879883135	2.0489466	1.4314142
24.271590965038975	2.086009	1.4443023
24.289518653296376	2.1005368	1.4493229
24.30744694515505	2.0477803	1.4310068
24.32537584111486	2.0214455	1.4217755
24.34330534167581	2.0453804	1.4301679
24.361235447338046	2.0739064	1.4401064
24.379166158601876	2.0831149	1.4433
24.39709747596772	2.072544	1.4396334
24.41502939993615	2.0496075	1.431645
24.432961931007917	2.0414655	1.4287987
24.450895069683856	2.014293	1.4192579
24.468828816465	2.0055668	1.4161804
24.4867631718525	1.984649	1.4087757
24.504698136347656	1.966349	1.4022657
24.52263371045192	1.9763873	1.4058404
24.540569894666874	2.0055532	1.4161756
24.558506689494266	1.9865044	1.4094341
24.57644409543597	2.008004	1.4170406
24.594382112994012	1.970569	1.4037696
24.61232074267057	1.968583	1.403062
24.630259984967953	1.9507756	1.3967017
24.64819984038863	1.9072163	1.3810201
24.66614030943522	1.883153	1.3722802
24.684081392610462	1.8976407	1.3775488
24.702023090417274	1.999493	1.4140342
24.7199654033587	2.0139139	1.4191244
24.737908331937927	1.9943618	1.4122187
24.755851876658305	1.9691803	1.4032749
24.773796038023324	2.0077097	1.4169368
24.79174081653661	2.0591495	1.4349737
24.809686212701962	2.126045	1.4580964
24.827632227023294	2.15945	1.4695067
24.8455788600047	2.1238587	1.4573464
24.8635261121504	2.103251	1.450259
24.88147398396475	2.1374893	1.4620155
24.899422475952303	2.1084878	1.4520633
24.917371588617698	2.0889432	1.4453177
24.935321322465768	2.1541355	1.4676974
24.953271678001478	2.2931688	1.5143212
24.97122265572994	2.486814	1.5769635
24.989174256156414	2.7669065	1.6634021
25.00712647978632	3.2627058	1.8062961
25.02507932712521	3.817112	1.9537431
25.043032798678798	4.3233547	2.0792677
25.060986894952933	4.8673196	2.2062004
25.078941616453637	5.585222	2.3633075
25.096896963687055	6.575693	2.5643115
25.114852937159508	7.7329774	2.7808232
25.132809537377444	8.195522	2.8627822
25.150766764847468	8.286897	2.8786972
25.168724620076347	7.7298594	2.7802625
25.186683103570985	6.7020307	2.588828
25.204642215838426	5.5999184	2.3664145
25.222601957385894	4.347125	2.084976
25.24056232872074	3.379017	1.8382103
25.25852333035048	2.723157	1.650199
25.276484962782778	2.3313005	1.5268596
25.294447226525435	2.1457639	1.4648426
25.312410122086423	2.0827286	1.4431661
25.330373649973843	2.051238	1.4322144
25.348337810695988	2.0037422	1.415536
25.366302604761245	1.9360578	1.391423
25.384268032678207	1.9281298	1.3885711
25.40223409495558	1.9489434	1.3960456
25.420200792102257	1.965402	1.401928
25.438168124627246	1.9499514	1.3964067
25.45613609303974	1.932322	1.3900799
25.474104697849057	1.8889114	1.3743768
25.492073939564698	1.9011494	1.3788217
25.510043818696285	1.9160397	1.3842108
25.528014335753614	1.9770572	1.4060787
25.54598549124664	1.9523469	1.3972641
25.56395728568544	1.895345	1.3767153
25.58192971958028	1.8391579	1.3561555
25.59990279344156	1.8327605	1.3537948
25.617876507779833	1.8442748	1.3580408
25.635850863105826	1.856298	1.3624603
25.653825859930386	1.879294	1.3708735
25.671801498764548	1.8507164	1.3604103
25.68977778011949	1.8400018	1.3564667
25.707754704506524	1.8503212	1.3602651
25.725732272437153	1.909147	1.3817189
25.743710484423012	1.9232574	1.3868155
25.761689340975888	1.8740358	1.3689543
25.77966884260774	1.8589875	1.363447
25.797648989830662	1.8802315	1.3712153
25.815629783156922	1.9088212	1.381601
25.83361122309895	1.8931624	1.3759223
25.85159331016929	1.8446165	1.3581666
25.869576044880695	1.7969676	1.3405102
25.887559427746034	1.8536491	1.3614879
25.90554345927836	1.8701936	1.3675503
25.92352813999086	1.8813165	1.3716109
25.94151347039689	1.8230805	1.350215
25.959499451009965	1.8171854	1.3480302
25.97748608234374	1.8096129	1.3452185
25.995473364912062	1.818642	1.3485703
26.013461299228904	1.7815831	1.3347596
26.03144988580839	1.8046049	1.3433558
26.04943912516483	1.9004495	1.3785679
26.067429017812675	1.924544	1.3872794
26.085419564266537	1.8579232	1.3630565
26.103410765041186	1.8260103	1.3512995
26.12140262065155	1.8583069	1.3631973
26.139395131612723	1.901468	1.3789372
26.157388298439948	1.8687098	1.3670076
26.17538212164861	1.8375405	1.3555591
26.193376601754295	1.8225329	1.3500122
26.211371739272714	1.8616313	1.3644161
26.229367534719746	1.8736322	1.3688068
26.247363988611433	1.8531513	1.361305
26.26536110146397	1.8288676	1.3523563
26.283358873793727	1.7882438	1.3372524
26.301357306117204	1.7665371	1.3291113
26.319356398951104	1.8071653	1.3443085
26.33735615281224	1.869784	1.3674004
26.35535656821762	1.8687621	1.3670268
26.373357645684404	1.8737553	1.3688518
26.39135938572991	1.8887314	1.3743112
26.409361788871614	1.8862876	1.3734218
26.427364855627165	1.8172435	1.3480517
26.445368586514352	1.8141972	1.3469213
26.46337298205115	1.848371	1.3595481
26.48137804275568	1.8665783	1.3662277
26.499383769146217	1.8191993	1.3487769
26.517390161741215	1.7817756	1.3348317
26.53539722105928	1.8139514	1.3468301
26.553404947619182	1.8333485	1.354012
26.571413341939856	1.8201131	1.3491156
26.589422404540397	1.8259455	1.3512756
26.60743213594006	1.7972007	1.3405972
26.62544253665827	1.778112	1.3334587
26.64345360721459	1.7979473	1.3408756
26.66146534812879	1.8060505	1.3438938
26.679477759920758	1.7830305	1.3353016
26.69749084311057	1.7708225	1.3307226
26.71550459821847	1.789224	1.3376188
26.733519025764842	1.8213717	1.3495821
26.751534126270258	1.8359841	1.3549849
26.769549900255434	1.8184301	1.3484918
26.787566348241267	1.8243144	1.3506718
26.80558347074881	1.8024442	1.3425514
26.823601268299267	1.7771952	1.3331149
26.841619741414036	1.7850354	1.3360522
26.85963889061465	1.7815632	1.3347521
26.877658716422832	1.8040946	1.3431659
26.89567921936045	1.8512549	1.3606083
26.913700399949544	1.858376	1.3632227
26.93172225871233	1.8247044	1.3508162
26.949744796171174	1.7986301	1.3411301
26.967768012848605	1.8001738	1.3417056
26.98579190926733	1.8156755	1.34747
27.003816485950225	1.8254769	1.3511021
27.021841743420318	1.8760377	1.3696853
27.039867682200814	1.862386	1.3646927
27.057894302815072	1.8267845	1.3515859
27.07592160578664	1.7992421	1.3413583
27.0939495916392	1.783849	1.3356081
27.111978260896635	1.7603756	1.3267915
27.13000761408296	1.7436203	1.3204621
27.148037651722397	1.7830836	1.3353215
27.166068374339304	1.8264537	1.3514636
27.184099782458215	1.8182074	1.3484092
27.20213187660384	1.8183502	1.3484621
27.22016465730105	1.8189723	1.3486928
27.23819812507487	1.8297176	1.3526706
27.256232280450533	1.8160421	1.3476061
27.274267123953383	1.8047054	1.3433932
27.292302656108987	1.78174	1.3348184
27.31033887744306	1.8044146	1.343285
27.32837578848146	1.8046274	1.3433642
27.34641338975026	1.770503	1.3306025
27.364451681775673	1.745116	1.3210284
27.382490665084074	1.7074986	1.3067129
27.400530340202046	1.768309	1.3297778
27.41857070765629	1.8300967	1.3528106
27.436611767973726	1.8079878	1.3446144
27.454653521681404	1.7358997	1.3175354
27.472695969306564	1.7312486	1.3157692
27.490739111376627	1.7545874	1.3246084
27.508782948419153	1.7938188	1.3393352
27.526827480961902	1.8411365	1.3568848
27.54487270953279	1.8674648	1.3665521
27.562918634659898	1.8659023	1.3659804
27.580965256871508	1.8487236	1.3596778
27.599012576696026	1.8291582	1.3524637
27.617060594662068	1.8162762	1.347693
27.63510931129842	1.8197272	1.3489727
27.65315872713401	1.7776306	1.3332782
27.67120884269797	1.7822828	1.3350216
27.68925965851958	1.8685634	1.3669541
27.707311175128307	1.8786942	1.3706547
27.725363393053787	1.8465917	1.3588935
27.74341631282583	1.8728385	1.3685169
27.7614699349744	1.9510375	1.3967954
27.77952426002968	2.1075091	1.4517263
27.797579288521973	2.1237934	1.457324
27.815635020981784	2.5830464	1.6071858
27.83369145793979	2.6595664	1.6308177
27.85174859992682	2.460924	1.5687332
27.869806447473923	2.3337054	1.527647
27.887865001112267	2.0572555	1.4343137
27.905924261373233	1.9259837	1.3877982
27.92398422878836	1.8695267	1.3673064
27.94204490388936	1.8674431	1.3665442
27.96010628720813	1.8199085	1.3490398
27.978168379276728	1.8110102	1.3457378
27.9962311806274	1.8105	1.3455483
28.014294691792568	1.8278037	1.3519629
28.0323589133048	1.8524702	1.3610548
28.050423845696887	1.8933632	1.3759954
28.068489489501758	1.9187249	1.3851805
28.086555845252523	1.8948652	1.376541
28.104622913482487	1.8341829	1.35432
28.122690694725115	1.8213798	1.349585
28.14075918951405	1.8488768	1.359734
28.15882839838312	1.8769344	1.3700125
28.176898321866304	1.9014986	1.3789483
28.1949689604978	1.9044343	1.3800124
28.213040314811945	1.9184976	1.3850983
28.23111238534327	1.9556404	1.3984421
28.249185172626493	1.9557256	1.3984725
28.267258677196473	1.9331505	1.3903779
28.285332899588294	1.9200563	1.385661
28.303407840337172	1.9385585	1.3923212
28.321483499978545	1.9162842	1.3842992
28.33955987904799	1.9492024	1.3961384
28.357636978081285	1.9959676	1.4127872
28.37571479761439	2.000598	1.4144249
28.393793338183425	2.0342202	1.426261
28.41187260032469	2.0600743	1.4352959
28.429952584574686	2.057926	1.4345473
28.448033291470065	2.0318427	1.4254272
28.46611472154769	1.9782046	1.4064866
28.484196875344566	1.9547476	1.3981229
28.502279753397914	1.9773972	1.4061996
28.52036335624511	2.0240917	1.4227058
28.538447684423716	2.0100942	1.4177779
28.556532738471482	1.986998	1.4096092
28.574618518926325	2.0222507	1.4220586
28.59270502632635	2.0270224	1.4237354
28.61079226120985	2.0116742	1.418335
28.628880224115274	2.0492938	1.4315355
28.646968915581287	2.051063	1.4321533
28.66505833614671	2.0243824	1.4228079
28.68314848635055	2.0648851	1.4369708
28.701239366732004	2.1035895	1.4503757
28.71933097783044	2.1301389	1.4594995
28.737423320185403	2.138948	1.4625143
28.75551639433665	2.127985	1.4587615
28.773610200824074	2.1051579	1.4509162
28.791704740187793	2.0876708	1.4448774
28.80980001296809	2.1128213	1.4535547
28.827896019705413	2.1659133	1.4717042
28.845992760940433	2.1721296	1.4738146
28.86409023721397	2.1429753	1.4638904
28.88218844906704	2.1576538	1.4688954
28.900287397040845	2.2053454	1.4850405
28.918387081676755	2.2814405	1.5104438
28.936487503516343	2.3413613	1.5301508
28.954588663101365	2.315268	1.5216005
28.97269056097374	2.2572122	1.5024022
28.990793197675597	2.2918916	1.5138994
29.00889657374923	2.3437474	1.5309303
29.027000689737125	2.3461328	1.5317091
29.04510554618196	2.4153678	1.5541453
29.06321114362659	2.4975934	1.5803776
29.08131748261405	2.512611	1.5851218
29.099424563687567	2.491859	1.5785623
29.11753238739057	2.4712944	1.5720351
29.13564095426663	2.4782903	1.5742587
29.15375026485954	2.50675	1.583272
29.171860319713275	2.5595357	1.599855
29.18997111937199	2.566674	1.6020843
29.20808266438002	2.6918013	1.640671
29.226194955281898	2.821532	1.6797416
29.244307992622335	2.8785934	1.6966418
29.26242177694624	2.8700168	1.6941124
29.2805363087987	2.8263478	1.6811745
29.29865158872498	2.8170462	1.6784059
29.316767617270557	2.9758613	1.7250684
29.334884394981064	2.970092	1.7233955
29.353001922402367	2.9639587	1.7216152
29.37112020008047	3.0575411	1.7485826
29.389239228561596	3.1627436	1.7784104
29.407359008392152	3.352792	1.831063
29.42547954011872	3.6734943	1.9166362
29.44360082428809	4.3273234	2.080222
29.46172286144722	5.4499946	2.3345222
29.479845652143283	6.9789433	2.641769
29.497969196923606	8.943714	2.9906044
29.516093496335728	11.31796	3.3642175
29.5342185509274	14.22257	3.7712824
29.55234436124651	16.660719	4.081754
29.570470927841175	18.025118	4.2455997
29.588598251259686	17.523314	4.1860857
29.60672633205055	16.176657	4.0220213
29.624855170762405	13.969672	3.7376025
29.642984767944146	11.362135	3.3707767
29.66111512414481	8.711911	2.9515946
29.67924623991366	6.533041	2.5559814
29.697378115800138	5.126369	2.2641487
29.71551075235387	4.2138877	2.0527756
29.733644150124675	3.7048473	1.924798
29.751778309662576	3.4780626	1.8649565
29.769913231517766	3.4095778	1.8465042
29.78804891624066	3.3295329	1.8247007
29.806185364381818	3.2356403	1.7987885
29.82432257649206	3.244095	1.8011372
29.842460553122333	3.329973	1.8248214
29.86059929482382	3.341579	1.8279986
29.878738802147872	3.303844	1.8176479
29.896879075646048	3.3105814	1.8195003
29.915020115870114	3.271814	1.8088157
29.933161923371976	3.288479	1.8134164
29.951304498703777	3.3129516	1.8201516
29.969447842417857	3.3506901	1.830489
29.987591955066733	3.310981	1.8196101
30.005736837203123	3.2468016	1.8018883
30.023882489379943	3.2162118	1.79338
30.04202891215028	3.2097008	1.7915637
30.060176106067455	3.2461545	1.8017088
30.078324071684946	3.2451377	1.8014265
30.09647280955646	3.153587	1.7758342
30.114622320235863	3.0730453	1.7530104
30.132772604277257	3.078721	1.7546284
30.1509236622349	3.125463	1.767898
30.16907549466328	3.1220236	1.7669249
30.18722810211705	3.0660877	1.7510247
30.205381485151097	3.0193615	1.737631
30.22353564432045	3.02075	1.7380306
30.241690580180403	3.0275674	1.7399906
30.25984629328638	3.0509837	1.7467065
30.278002784194037	3.0568137	1.7483746
30.296160053459246	3.0929506	1.7586787
30.314318101638033	3.0613346	1.749667
30.332476929286646	2.9544096	1.7188396
30.35063653696153	2.9041808	1.7041657
30.368796925219307	2.917218	1.7079865
30.386958094616844	2.9565673	1.7194672
30.40512004571115	2.9477043	1.716888
30.423282779059463	2.8574824	1.690409
30.441446295219233	2.7854278	1.6689601
30.459610594748067	2.7271824	1.6514183
30.47777567820382	2.7313707	1.6526859
30.495941546144504	2.7995055	1.6731722
30.51410819912835	2.8282588	1.6817428
30.532275637713795	2.869397	1.6939294
30.55044386245946	2.9044724	1.7042513
30.56861287392416	2.8963163	1.7018567
30.586782672666956	2.905942	1.7046824
30.604953259247047	2.9051566	1.704452
30.623124634223885	2.8581245	1.6905988
30.641296798157075	2.7956865	1.6720307
30.659469751606462	2.8407311	1.6854469
30.677643495132074	2.8508136	1.6884353
30.695818029294152	2.750867	1.6585737
30.713993354653116	2.6985583	1.6427289
30.73216947176962	2.736211	1.6541497
30.75034638120448	2.835098	1.683775
30.768524083518756	2.8786364	1.6966544
30.786702579273673	2.9260147	1.7105597
30.80488186903069	2.8329406	1.6831342
30.82306195335144	2.830072	1.6822817
30.841242832797782	3.0847893	1.7563568
30.85942450793176	3.388027	1.8406594
30.877606979315637	3.7556503	1.93795
30.895790247511883	4.1340675	2.0332406
30.913974313083134	4.5920734	2.1429124
30.932159176592283	4.904158	2.2145333
30.95034483860237	4.9182787	2.2177193
30.968531299676698	4.669566	2.160918
30.98671856037873	4.363778	2.088966
31.00490662127215	3.9977872	1.9994467
31.023095482920848	3.5391927	1.8812742
31.04128514588892	3.0483937	1.745965
31.059475610740662	2.6953545	1.6417534
31.07766687804056	2.5306923	1.590815
31.09585894835335	2.481638	1.5753216
31.11405182224393	2.4872856	1.577113
31.132245500277417	2.4877174	1.57725
31.15043998301914	2.504754	1.5826415
31.168635271034628	2.484839	1.5763372
31.18683136488964	2.4483423	1.564718
31.20502826515008	2.4678667	1.5709445
31.223225972382135	2.4555643	1.567024
31.241424487152155	2.4011831	1.5495751
31.259623810026692	2.4296687	1.5587394
31.27782394157253	2.4639418	1.5696948
31.296024882356644	2.4837544	1.5759932
31.314226632946237	2.4950817	1.5795827
31.332429193908684	2.5158973	1.586158
31.350632565811598	2.4487066	1.5648344
31.368836749222787	2.4966958	1.5800936
31.387041744710295	2.4951484	1.5796039
31.40524755284232	2.5495133	1.5967195
31.423454174187317	2.5864863	1.6082556
31.441661609313922	2.56372	1.6011621
31.459869858791002	2.443645	1.5632162
31.478078923187628	2.3978744	1.5485071
31.496288803073064	2.44641	1.5641004
31.514499499016807	2.470392	1.571748
31.532711011588546	2.4218783	1.5562385
31.550923341358178	2.3417354	1.530273
31.56913648889584	2.2872887	1.5123785
31.587350454771844	2.3577147	1.5354851
31.605565239556732	2.3371308	1.5287677
31.62378084382127	2.331611	1.5269613
31.641997268136382	2.3247187	1.5247028
31.660214513073274	2.3087106	1.5194441
31.67843257920331	2.392017	1.5466146
31.6966514670981	2.4175048	1.5548327
31.71487117732944	2.3634248	1.5373434
31.733091710469346	2.3610992	1.5365869
31.751313067090052	2.3149867	1.521508
31.769535247764008	2.3344502	1.5278908
31.787758253063878	2.3429146	1.5306582
31.805982083562526	2.3108304	1.5201416
31.824206739833024	2.3267589	1.5253717
31.84243222244869	2.258749	1.5029135
31.860658531983013	2.2384708	1.496152
31.878885669009737	2.2941132	1.514633
31.897113634102784	2.3166988	1.5220705
31.91534242783632	2.2976308	1.5157938
31.933572050784694	2.2558048	1.5019337
31.951802503522508	2.2123902	1.4874105
31.970033786624548	2.1991005	1.4829365
31.988265900665834	2.2270148	1.4923186
32.006498846221575	2.1769087	1.4754351
32.02473262386724	2.0890214	1.4453448
32.04296723417845	2.1389065	1.4625001
32.0612026777311	2.1963987	1.4820253
32.07943895510129	2.1878548	1.4791399
32.097676066865304	2.14904	1.4659604
32.115914013599685	2.079146	1.4419243
32.13415279588115	2.1327255	1.4603854
32.152392414286666	2.208003	1.4859351
32.1706328693934	2.1712677	1.4735222
32.18887416177875	2.1160424	1.4546623
32.20711629202032	2.1296048	1.4593166
32.225359260695924	2.1339734	1.4608126
32.243603068383614	2.1242645	1.4574857
32.26184771566166	2.1509151	1.4665998
32.28009320310852	2.2150588	1.4883074
32.2983395313029	2.1872628	1.4789398
32.31658670082372	2.1379433	1.4621707
32.33483471225012	2.093931	1.4470421
32.35308356616143	2.0248795	1.4229826
32.371333263137245	1.9879577	1.4099495
32.38958380375734	2.0178905	1.4205247
32.407835188601744	2.0512161	1.4322067
32.42608741825067	2.0795763	1.4420736
32.444340493284585	2.0949945	1.4474096
32.46259441428416	2.0806732	1.4424539
32.48084918183028	2.0844905	1.4437765
32.49910479650405	2.1469345	1.4652421
32.51736125888683	2.1371484	1.4618989
32.53561856956014	2.09911	1.4488305
32.5538767291058	2.0858834	1.4442588
32.572135738105764	2.0771413	1.4412291
32.59039559714228	2.0862436	1.4443835
32.608656306797776	2.0828767	1.4432175
32.62691786765491	2.052121	1.4325225
32.645180280296586	2.0323577	1.4256078
32.663443545305896	2.0048494	1.415927
32.68170766326619	1.9047946	1.3801429
32.69997263476099	1.9057777	1.3804991
32.7182384603741	1.9879704	1.4099541
32.7365051406895	2.05415	1.4332306
32.75477267629144	1.9995347	1.414049
32.77304106776434	2.0264015	1.4235173
32.79131031569289	2.1059828	1.4512005
32.809580420661966	2.080908	1.4425353
32.827851383256714	2.018387	1.4206995
32.84612320406245	2.0157797	1.4197816
32.86439588366476	1.9920292	1.4113927
32.88266942264945	1.9853989	1.4090419
32.9009438216025	1.9976028	1.4133657
32.9192190811102	2.0442522	1.4297734
32.937495201758985	2.0397742	1.4282067
32.95577218413556	2.0796087	1.4420848
32.974050028826866	2.012374	1.4185816
32.992328736420035	1.9681871	1.402921
33.010608307502444	1.9824553	1.4079969
33.02888874266169	2.0088694	1.4173459
33.047170042485604	1.9246491	1.3873172
33.06545220756225	1.8948601	1.3765392
33.083735238479896	1.955864	1.398522
33.10201913582707	2.0035257	1.4154595
33.12030390019248	1.9442247	1.3943546
33.138589532165135	1.9064969	1.3807595
33.15687603233419	1.9421173	1.3935987
33.17516340128909	1.9352992	1.3911504
33.19345163961947	1.9731139	1.4046757
33.211740747915215	2.0364783	1.4270523
33.23003072676643	2.0660508	1.4373764
33.248321576763466	1.9992797	1.4139589
33.266613298496885	1.9067919	1.3808664
33.28490589255747	1.9160076	1.3841993
33.30319935953626	1.9753894	1.4054855
33.32149370002451	1.9784007	1.4065564
33.339788914613706	1.8799701	1.37112
33.358085003895575	1.9703304	1.4036846
33.376381968462034	2.0884352	1.4451419
33.39467980890529	2.1014242	1.449629
33.41297852581774	2.031674	1.425368
33.43127811979204	1.9664148	1.4022892
33.44957859142105	1.8911668	1.375197
33.467879941297866	1.8718281	1.3681477
33.486182170015844	1.9126393	1.382982
33.50448527816853	1.9794255	1.4069206
33.522789266349754	2.007097	1.4167205
33.541094135153514	1.8813435	1.3716208
33.55939988517411	1.8805388	1.3713274
33.57770651700602	1.9803989	1.4072665
33.59601403124398	2.0679207	1.4380267
33.61432242848296	1.9603844	1.4001373
33.632631709318154	2.000861	1.4145179
33.650941874344994	1.9986312	1.4137295
33.66925292415916	1.9277713	1.388442
33.68756485935654	2.004715	1.4158796
33.70587768053328	2.0948064	1.4473447
33.724191388285746	2.0593894	1.4350573
33.74250598321054	1.9303108	1.3893563
33.760821465904506	1.9766475	1.405933
33.77913783696474	1.9716395	1.4041508
33.79745509698852	1.8825846	1.372073
33.815773246573414	1.8686985	1.3670034
33.8340922863172	1.990868	1.4109812
33.852412216817896	1.9821517	1.4078891
33.87073303867377	1.9852022	1.408972
33.889054752483304	1.8654811	1.3658261
33.907377358845245	1.8276536	1.3519074
33.92570085835853	1.8297666	1.3526887
33.94402525162239	1.9464349	1.3951468
33.96235053923627	1.9416764	1.3934405
33.980676721799824	1.9088901	1.3816259
33.999003799912984	1.9523866	1.3972783
34.01733177417592	2.0629182	1.4362862
34.03566064518901	2.105208	1.4509335
34.0539904135529	1.9947032	1.4123396
34.07232107986846	1.9621295	1.4007603
34.090652644736785	1.9895644	1.4105192
34.108985108759235	1.9689802	1.4032035
34.12731847253742	1.9713156	1.4040354
34.14565273667313	1.9244568	1.3872479
34.16398790176847	1.9130793	1.383141
34.18232396842574	1.868166	1.3668087
34.20066093724749	1.912272	1.3828492
34.21899880883651	2.1070247	1.4515594
34.23733758379583	2.088829	1.4452782
34.25567726272874	2.0057259	1.4162365
34.27401784623872	2.0973194	1.4482125
34.29235933492957	2.0771623	1.4412364
34.31070172940526	1.9206715	1.385883
34.32904503027003	1.8443747	1.3580775
34.347389238128386	1.9498914	1.3963852
34.36573435358502	1.9003196	1.3785208
34.38408037724492	1.7727007	1.331428
34.402427309713296	1.9308163	1.3895382
34.42077515159559	2.0092082	1.4174654
34.43912390349752	1.9349182	1.3910134
34.45747356602499	2.033836	1.4261262
34.47582413978423	2.143706	1.46414
34.49417562538163	1.9711725	1.4039845
34.51252802342388	1.9859108	1.4092234
34.53088133451789	2.1365354	1.4616892
34.54923555927084	2.189767	1.479786
34.567590698290104	2.0864358	1.44445
34.58594675218336	1.9290006	1.3888847
34.6043037215585	1.8440498	1.357958
34.62266160702365	1.9930238	1.411745
34.641020409187234	2.0298367	1.4247234
34.65938012865785	1.9955256	1.4126307
34.677740766044394	2.0663037	1.4374644
34.69610232195598	2.0612388	1.4357015
34.714464797002016	1.9267496	1.388074
34.73282819179208	1.8555187	1.3621743
34.751192506936064	1.9402355	1.3929234
34.76955774304408	1.964736	1.4016904
34.7879239007265	2.035431	1.4266853
34.80629098059391	2.0400426	1.4283006
34.824658983257194	1.8246619	1.3508004
34.843027909327446	1.8281888	1.3521053
34.86139775941603	1.9784412	1.4065708
34.879768534134534	1.9987031	1.4137549
34.89814023409483	1.8933307	1.3759836
34.91651285990901	1.9172602	1.3846517
34.93488641218944	1.9760975	1.4057373
34.95326089154871	1.930324	1.389361
34.97163629859967	1.8779477	1.3703823
34.99001263395542	2.0763433	1.4409522
35.00838989822934	2.3516598	1.5335122
35.02676809203499	2.2246547	1.4915277
35.04514721598624	1.9885074	1.4101444
35.063527270697215	2.0214708	1.4217844
35.081908256782256	2.075814	1.4407686
35.10029017485597	2.13216	1.4601917
35.11867302553321	2.1941743	1.4812746
35.137056809429104	2.0907686	1.4459491
35.155441527159006	2.0181935	1.4206314
35.173827179338524	1.9120436	1.3827666
35.19221376658354	1.9793848	1.4069061
35.21060128951017	1.9504464	1.3965838
35.2289897487348	1.9991449	1.4139112
35.24737914487405	2.0379379	1.4275637
35.26576947854479	1.948401	1.3958514
35.28416075036418	1.9456888	1.3948795
35.30255296094958	1.8970486	1.3773339
35.32094611091867	1.8471285	1.359091
35.33934020088932	2.1378133	1.4621263
35.35773523147969	2.1671045	1.4721088
35.3761312033082	1.6918665	1.3007177
35.394528116993506	1.5506829	1.2452642
35.41292597315452	1.8300148	1.3527805
35.431324772410434	2.0983279	1.4485606
35.449724515380666	2.1631978	1.4707813
35.46812520268491	2.0829098	1.443229
35.486526834943106	2.0182936	1.4206666
35.504929412775454	1.8971127	1.3773571
35.52333293680242	2.0567455	1.4341358
35.54173740764471	1.8384982	1.3559123
35.560142825923286	2.0285544	1.4242733
35.5785491922594	2.4936445	1.5791278
35.59695650727454	2.1340237	1.4608297
35.61536477159042	1.1889042	1.0903689
