0.008763373481513119	0.051685803	0.22734512
0.026290120649546365	0.18429624	0.4292974
0.043816868432600686	0.12367553	0.35167533
0.06134361724069026	0.13011776	0.3607184
0.07887036748382949	0.114003226	0.33764362
0.0963971195720331	0.16040331	0.4005038
0.11392387391531617	0.18109074	0.42554757
0.1314506309236943	0.12209015	0.34941402
0.1489773910071836	0.17759779	0.42142352
0.16650415457580078	0.20079294	0.44809926
0.18403092203956356	0.22674143	0.47617373
0.20155769380849	0.17621444	0.41977903
0.2190844702925996	0.11614314	0.34079778
0.2366112519019124	0.035376813	0.18808725
0.2541380390464497	0.043496855	0.20855899
0.27166483213623416	0.060603518	0.24617782
0.28919163158128947	0.08542249	0.29227126
0.3067184377916406	0.108530104	0.32943907
0.324245251177314	0.11370085	0.33719558
0.34177207214833777	0.14555694	0.38151926
0.3592989011147415	0.1670693	0.40874112
0.37682573848655654	0.14992984	0.38720775
0.39435258467381573	0.17754671	0.4213629
0.41187944008655414	0.14296117	0.37810206
0.42940630513480854	0.15289737	0.39102092
0.446933180228618	0.14188601	0.3766776
0.4644600657780234	0.11738438	0.34261405
0.48198696219306775	0.117881194	0.3433383
0.49951386988379676	0.14018942	0.3744188
0.5170407892602581	0.16384399	0.40477645
0.5345677207325025	0.19959241	0.44675767
0.5520946647105822	0.18090999	0.42533514
0.5696216216045534	0.15966141	0.39957654
0.5871485918244737	0.114422604	0.3382641
0.6046755757804043	0.13582616	0.368546
0.6222025738824094	0.17139336	0.41399682
0.6397295865405557	0.19302092	0.43934146
0.6572566141649129	0.22849327	0.4780097
0.6747836571655547	0.24923694	0.49923635
0.6923107159525568	0.2325251	0.48220855
0.7098377909359992	0.2175114	0.46638116
0.7273648825259653	0.18460396	0.42965564
0.7448919911325411	0.16814107	0.41005006
0.762419117165817	0.14103487	0.3755461
0.7799462610358868	0.14401719	0.37949598
0.7974734231528482	0.15067689	0.38817123
0.8150006039268024	0.20694052	0.45490715
0.8325278037678551	0.21010013	0.4583668
0.8500550230861152	0.20830096	0.4564
0.8675822622916969	0.23051758	0.48012248
0.8851095217947171	0.19359069	0.43998942
0.9026368020052984	0.17931166	0.42345208
0.9201641033335665	0.14686665	0.38323185
0.9376914261896523	0.15591489	0.3948606
0.9552187709836915	0.16358249	0.4044533
0.9727461381258234	0.21384217	0.46243072
0.990273528026193	0.2662813	0.51602453
1.0078009410949496	0.30901927	0.55589503
1.0253283777422473	0.3257504	0.57074547
1.0428558383782454	0.3101184	0.55688274
1.0603833234131086	0.2812603	0.53033984
1.0779108332570058	0.26514354	0.5149209
1.0954383683201119	0.25636905	0.506329
1.112965929012607	0.29046333	0.5389465
1.1304935157446763	0.4120337	0.6418985
1.1480211289265108	0.44283834	0.665461
1.1655487689683062	1.2677705	1.1259532
1.1830764362802655	1.5913875	1.261502
1.200604131272596	2.0551045	1.4335636
1.2181318543555117	2.3321095	1.5271245
1.235659605939232	2.3755598	1.5412852
1.253187386433982	3.920396	1.9799991
1.270715196249994	6.3752522	2.5249262
1.2882430357975057	11.907274	3.450692
1.3057709054867608	16.614113	4.076041
1.3232988057280106	22.552197	4.748915
1.3408267369315112	27.64629	5.257974
1.358354699507526	31.380747	5.601852
1.3758826938663256	35.55123	5.9624853
1.3934107204181858	37.57622	6.129945
1.410938779573391	37.831436	6.1507263
1.4284668717422309	37.9346	6.159107
1.4459949973350033	37.061	6.0877748
1.4635231567620117	36.814453	6.0674915
1.4810513504335687	35.878838	5.9898944
1.4985795787599925	35.355465	5.9460464
1.5161078421516088	35.674408	5.9728055
1.5336361410187505	35.26367	5.9383225
1.5511644757717598	35.127724	5.9268646
1.5686928468209842	36.060036	6.005001
1.58622125457678	36.40519	6.0336714
1.6037496994495108	37.807194	6.1487556
1.621278181849548	37.521854	6.1255083
1.6388067021872719	38.07556	6.17054
1.6563352608730693	37.573193	6.129698
1.673863858317336	36.79455	6.065851
1.6913924949304753	36.476902	6.039611
1.7089211711228998	35.37964	5.9480786
1.7264498873050296	34.363476	5.8620367
1.7439786438872935	33.418304	5.7808566
1.7615074412801288	32.273552	5.6809816
1.779036279893981	31.332212	5.5975184
1.796565160139305	30.29546	5.5041313
1.814094082426564	29.60464	5.4410143
1.8316230471662298	29.337772	5.4164352
1.849152054768784	28.620844	5.3498454
1.8666811056447168	28.348558	5.3243365
1.8842102002045273	27.667324	5.259974
1.901739338858724	27.186174	5.2140365
1.9192685220178245	26.533472	5.1510653
1.9367977500923557	25.25246	5.0251827
1.9543270234928547	24.554314	4.9552307
1.971856342629867	24.002853	4.8992705
1.9893857079139496	23.55243	4.8530846
2.006915119755667	23.005411	4.796396
2.0244445785655945	22.233835	4.7152767
2.0419740847543175	21.689997	4.657252
2.0595036387324317	21.310453	4.616325
2.0770332409105414	21.101297	4.593615
2.094562891699263	20.755344	4.5558033
2.1120925915092217	20.10896	4.4843016
2.129622340751053	19.602865	4.427512
2.1471521398354043	187.67657	13.69951
2.1646819891729323	443.92993	21.069645
2.182211889174303	440.12277	20.979103
2.1997418402501974	452.53003	21.272753
2.2172718428113023	432.63724	20.799934
2.234801897268317	320.78262	17.910406
2.2523320040319548	17.177597	4.1445866
2.269862163512935	16.93572	4.115303
2.287392376121992	16.526173	4.0652394
2.304922642269869	16.396204	4.0492225
2.322452962367322	16.031548	4.0039415
2.3399833368251164	15.787422	3.9733388
2.357513766054032	15.492221	3.9360158
2.3750442504648586	15.025659	3.8762944
2.3925747904683963	14.73476	3.8385882
2.410105386475459	14.491014	3.8067064
2.4276360388968707	14.1647625	3.7636104
2.445166748143469	13.811698	3.7164092
2.4626975146261025	13.558412	3.682175
2.4802283387556323	13.516585	3.6764908
2.4977592209429305	13.489693	3.6728318
2.5152901615988825	13.273746	3.643315
2.5328211611343865	13.082129	3.6169226
2.5503522199603523	12.854674	3.5853417
2.5678833384877024	12.661463	3.558295
2.5854145171273712	12.436315	3.526516
2.6029457562903064	12.245109	3.4993012
2.620477056387469	11.989009	3.4625149
2.6380084178298326	11.785995	3.4330735
2.655539841028383	11.533905	3.3961604
2.673071326394119	11.519764	3.3940778
2.6906028743380523	11.30043	3.3616114
2.708134485271211	11.144416	3.3383253
2.7256661596046325	10.817457	3.2889903
2.743197897749369	10.63071	3.2604768
2.760729700116486	10.637321	3.2614906
2.778261567117063	10.5054455	3.2412105
2.795793499162193	10.476584	3.2367551
2.8133254966629817	10.250919	3.2017057
2.830857560030551	10.017578	3.1650558
2.8483896896760337	9.8201	3.133704
2.865921886010578	9.682398	3.1116552
2.883454149445347	9.4547415	3.0748563
2.9009864803915177	9.360568	3.0595045
2.91851887926028	9.201958	3.0334728
2.9360513464628384	9.132548	3.0220106
2.953583882410413	9.001486	3.0002477
2.9711164875142373	8.941682	2.9902644
2.9886491621855606	8.785857	2.9640946
3.0061819068356455	8.633959	2.93836
3.023714721875769	8.414092	2.9007053
3.041247607717225	8.256254	2.87337
3.0587805647713213	8.200105	2.8635826
3.0763135934493806	8.193586	2.8624442
3.0938466941627407	8.07708	2.8420203
3.1113798673227544	8.0178175	2.8315752
3.1289131133407904	7.8887	2.808683
3.1464464326282315	7.863129	2.8041272
3.1639798255964786	7.8345685	2.7990298
3.1815132926569443	7.627165	2.761732
3.1990468342210603	7.477906	2.734576
3.216580450700272	7.364161	2.7136989
3.2341141425060416	7.2578554	2.6940408
3.251647910049847	7.232826	2.6893914
3.2691817537431813	7.2185073	2.686728
3.286715673997555	7.2758527	2.6973789
3.3042496712244938	7.332778	2.7079103
3.32178374583554	7.220321	2.6870656
3.339317898242251	7.1605253	2.6759157
3.3568521288562034	7.048871	2.6549711
3.3743864380889876	6.933351	2.6331258
3.3919208263522127	6.8545465	2.618119
3.4094552940575023	6.706152	2.589624
3.4269898416164972	6.6417165	2.5771527
3.444524469440858	6.579534	2.5650601
3.4620591779422587	6.5097294	2.551417
3.479593967532391	6.418627	2.533501
3.4971288386229658	6.3776693	2.5254047
3.5146637916257086	6.352833	2.5204825
3.5321988269523628	6.3308535	2.5161188
3.5497339450146903	6.3402376	2.517983
3.5672691462244708	6.401713	2.5301607
3.5848044309934988	6.3565426	2.5212185
3.60233979973359	6.260843	2.5021677
3.619875252856575	6.1516294	2.480248
3.6374107907743034	6.0915866	2.468114
3.6549464138986427	6.1840444	2.486774
3.6724821226414788	6.1930256	2.488579
3.690017917414714	6.176404	2.4852371
3.7075537986302702	6.0947304	2.4687507
3.7250897667000857	6.178839	2.485727
3.7426258220361235	6.514874	2.5524251
3.7601619650503553	6.987931	2.6434696
3.777698196154779	7.4399	2.727618
3.7952345157614067	8.474297	2.9110646
3.8127709242822716	9.298668	3.0493717
3.830307422129425	11.641939	3.4120286
3.847844009714936	30.55359	5.52753
3.8653806874508954	98.06409	9.902731
3.882917455749409	97.27345	9.86273
3.900454315022606	96.828804	9.840163
3.917991265682631	41.284275	6.425284
3.9355283081416506	10.790487	3.2848878
3.9530654428118495	8.723232	2.953512
3.970602670105433	7.632061	2.7626185
3.9881399904346244	6.686859	2.5858963
4.005677404211669	6.6116967	2.571322
4.023214911848827	6.467293	2.5430872
4.0407525137583855	6.542079	2.5577488
4.058290210352644	6.567984	2.5628078
4.075828002043927	6.500369	2.5495822
4.0933658892445814	6.340697	2.518074
4.110903872366966	6.2345347	2.496905
4.128441951823468	6.1046634	2.4707618
4.145980128026488	6.0723176	2.4642074
4.163518401388452	5.985916	2.4466133
4.181056772321807	6.0002384	2.4495385
4.1985952412390155	6.074805	2.464712
4.216133808552567	6.200918	2.4901643
4.233672474674966	6.319091	2.51378
4.251211240018741	6.4668036	2.5429912
4.268750104996445	6.52502	2.554412
4.286289070020643	7.4693494	2.733011
4.303828135503928	9.115691	3.0192204
4.3213673018589125	29.502205	5.4315934
4.3389065694982305	90.69069	9.523166
4.356445938834537	165.98706	12.883596
4.3739854102805085	171.3626	13.090553
4.391524984248844	172.25919	13.124755
4.409064661152262	136.26541	11.673278
4.426604441403504	96.701614	9.833698
4.444144325415337	75.96633	8.715867
4.461684313600543	22.017286	4.6922584
4.47922440637193	22.396275	4.73247
4.496764604142329	20.52034	4.529938
4.5143049073245916	18.590706	4.311694
4.531845316331589	16.510086	4.0632606
4.5493858315762195	13.608365	3.6889517
4.566926453471405	11.345231	3.3682683
4.584467182430081	9.347766	3.0574117
4.602008018865218	8.269796	2.8757253
4.619548963189798	7.690366	2.773151
4.637090015816834	7.183031	2.6801178
4.654631177159353	6.897784	2.6263633
4.672172447630417	6.5671053	2.5626364
4.689713827643102	6.4505687	2.539797
4.7072553176105085	6.2114162	2.4922712
4.724796917945764	5.9851108	2.4464486
4.742338629062015	5.7539053	2.39873
4.759880451372434	5.6968007	2.3867972
4.777422385290215	5.7369785	2.395199
4.794964431228581	5.7343726	2.394655
4.812506589600768	5.7213297	2.39193
4.830048860820047	5.652935	2.3775902
4.847591245299709	5.62322	2.371333
4.8651337434530655	5.6212564	2.370919
4.882676355693457	5.6044474	2.3673713
4.900219082434242	5.625445	2.371802
4.917761924088813	5.63074	2.3729181
4.935304881070575	5.475284	2.3399324
4.952847953792969	5.4422045	2.3328533
4.970391142669449	5.396758	2.3230925
4.9879344481135055	5.5066214	2.3466191
5.005477870538642	5.5819244	2.3626096
5.023021410358394	5.6482296	2.3766005
5.040565067986324	5.504326	2.34613
5.05810884383601	5.406741	2.3252401
5.075652738321066	5.423607	2.3288639
5.09319675185512	5.496349	2.3444293
5.110740884851836	5.569528	2.3599849
5.128285137724894	5.5626597	2.358529
5.145829510888007	5.5053144	2.3463407
5.163374004754908	5.4710336	2.339024
5.1809186197393595	5.4130826	2.3266032
5.198463356255145	5.3802347	2.3195333
5.216008214716077	5.3141017	2.3052335
5.233553195535998	5.263168	2.2941594
5.251098299128764	5.295724	2.301244
5.268643525908272	5.356558	2.3144238
5.286188876288432	5.3942275	2.3225477
5.3037343506831895	5.388549	2.3213248
5.32127994950651	5.3402996	2.3109088
5.3388256731723915	5.2890425	2.2997918
5.356371522094851	5.312421	2.304869
5.373917496687938	5.2570653	2.292829
5.391463597365729	5.2913265	2.3002884
5.40900982454232	5.2207475	2.2848954
5.426556178631843	5.1708913	2.2739594
5.444102660048449	5.1105776	2.2606587
5.4616492692063225	5.1200395	2.2627504
5.479196006519669	5.1717434	2.2741468
5.496742872402727	5.2191215	2.2845397
5.514289867269756	5.144893	2.2682357
5.531836991535049	5.104901	2.2594028
5.549384245612924	5.0722666	2.2521694
5.566931629917724	5.0818286	2.254291
5.584479144863822	5.0970783	2.2576709
5.6020267908656205	5.1073117	2.2599363
5.619574568337545	5.098186	2.2579162
5.637122477694054	5.1099687	2.260524
5.654670519349629	5.1334205	2.2657053
5.672218693718784	5.123288	2.2634683
5.689767001216059	5.156741	2.270846
5.707315442256021	5.246942	2.2906206
5.724864017253266	5.305849	2.303443
5.7424127266224225	5.306539	2.3035927
5.75996157077814	5.2599273	2.2934532
5.777510550135105	5.2521577	2.2917585
5.795059665108022	5.2131424	2.2832308
5.812608916111639	5.2834783	2.2985818
5.830158303560715	5.3560047	2.3143044
5.847707827870055	5.3691087	2.3171337
5.86525748945448	5.399436	2.3236687
5.8828072887288485	5.4690685	2.338604
5.900357226108044	5.5809507	2.3624036
5.917907302006979	5.646939	2.376329
5.9354575168406	6.2882185	2.507632
5.9530078710238765	6.879919	2.62296
5.970558364971812	7.3893275	2.7183318
5.988108999099438	7.7466683	2.7832837
6.005659773821818	8.263786	2.8746803
6.023210689554039	8.071079	2.8409646
6.040761746711227	8.461481	2.9088626
6.058312945708531	7.8476224	2.8013608
6.075864286961132	7.3998737	2.7202709
6.093415770884244	6.6568704	2.5800912
6.1109673978931065	6.0566664	2.4610295
6.128519168402993	5.461072	2.3368936
6.146071082829204	5.396483	2.323033
6.163623141587075	5.366112	2.316487
6.181175345091969	5.355054	2.3140988
6.198727693759281	5.333746	2.3094904
6.216280188004435	5.2951875	2.3011274
6.233832828242885	5.221535	2.2850678
6.251385614890126	5.124093	2.263646
6.268938548361669	5.068891	2.2514198
6.286491629073067	5.055688	2.2484858
6.304044857439898	5.0915346	2.256443
6.321598233877777	5.101993	2.2587593
6.339151758802344	5.057798	2.2489548
6.356705432629277	5.0490966	2.2470195
6.37425925577428	5.012425	2.2388446
6.391813228653095	5.0106835	2.2384555
6.409367351681486	4.9563985	2.2262971
6.426921625275259	4.980173	2.23163
6.44447604985025	4.9623604	2.2276356
6.46203062582232	4.949321	2.224707
6.47958535360737	4.964269	2.228064
6.497140233621328	5.0026574	2.2366621
6.514695266280161	5.046323	2.2464023
6.532250451999859	5.028047	2.2423308
6.549805791196454	5.039765	2.244942
6.567361284286002	5.06311	2.2501354
6.584916931684597	5.097063	2.2576675
6.602472733808367	5.048993	2.2469964
6.6200286910734665	5.049238	2.247051
6.637584803896092	5.0820518	2.2543406
6.655141072692462	5.086923	2.255421
6.672697497878842	5.035725	2.2440422
6.690254079871514	4.962607	2.227691
6.707810819086808	4.9005284	2.2137136
6.725367715941078	4.870783	2.206985
6.742924770850719	4.9103765	2.215937
6.760481984232151	4.9410834	2.2228549
6.778039356501836	4.9926667	2.2344277
6.795596888076266	4.9439354	2.2234962
6.813154579371963	4.8951874	2.212507
6.830712430805492	4.9572635	2.2264912
6.84827044279344	5.008618	2.2379942
6.865828615752445	5.070557	2.2517898
6.883386950099159	5.051026	2.2474487
6.900945446250287	5.0632505	2.250167
6.918504104622553	5.085321	2.2550657
6.936062925632727	5.1182055	2.262345
6.953621909697607	5.10603	2.2596526
6.971181057234028	5.1206794	2.2628918
6.988740368658859	5.1048284	2.2593868
7.006299844389007	5.1404247	2.2672505
7.023859484841407	5.253603	2.292074
7.041419290433036	5.3856416	2.3206985
7.058979261580902	5.5851064	2.363283
7.0765393987020495	5.802564	2.4088511
7.094099702213559	6.1634226	2.482624
7.111660172532549	6.4684606	2.5433168
7.129220810076164	6.7588525	2.5997794
7.146781615261595	7.3433123	2.7098546
7.16434258850606	7.6446447	2.764895
7.181903730226821	8.092363	2.844708
7.1994650408411704	8.194171	2.8625462
7.217026520766437	8.28653	2.8786333
7.234588170419983	8.485415	2.9129736
7.252149990219215	8.509319	2.9170737
7.269711980581568	8.493868	2.9144242
7.2872741419245175	8.366158	2.892431
7.304836474665574	7.9453287	2.8187459
7.322398979222286	7.4550467	2.7303932
7.339961656012233	7.128243	2.669877
7.357524505453039	6.800262	2.607731
7.375087527962357	6.569891	2.56318
7.392650723957886	6.3014708	2.510273
7.410214093857353	5.9860926	2.4466493
7.427777638078528	5.713951	2.3903873
7.445341357039213	5.5106664	2.3474808
7.4629052511572525	5.35337	2.313735
7.480469320850524	5.282529	2.2983754
7.498033566536948	5.272595	2.2962132
7.5155979886344735	5.2284007	2.2865696
7.5331625875610975	5.1733155	2.2744923
7.550727363734844	5.1321435	2.2654235
7.568292317573788	5.119456	2.2626214
7.585857449496025	5.1590853	2.271362
7.603422759919705	5.1753	2.2749286
7.620988249263007	5.202078	2.2808063
7.638553917944147	5.28997	2.2999935
7.656119766381391	5.3096633	2.3042707
7.673685794993023	5.286437	2.2992253
7.691252004197388	5.2392755	2.2889464
7.70881839441285	5.2019863	2.2807863
7.726384966057826	5.203123	2.2810354
7.743951719550762	5.1962094	2.2795196
7.761518655310149	5.242216	2.2895887
7.779085773754511	5.259002	2.2932515
7.796653075302419	5.281918	2.2982423
7.814220560372475	5.305519	2.3033712
7.831788229383323	5.325359	2.307674
7.8493560827536495	5.369646	2.3172498
7.866924120902174	5.377737	2.3189948
7.884492344247663	5.367073	2.3166945
7.9020607532089135	5.368217	2.3169413
7.919629348204771	5.3083715	2.3039904
7.937198129654115	5.322787	2.3071165
7.954767097975865	5.3303413	2.3087533
7.972336253588986	5.3176074	2.3059938
7.989905596912472	5.366135	2.316492
8.007475128365371	5.3745823	2.3183146
8.025044848366756	5.474969	2.3398652
8.042614757335754	5.627801	2.3722987
8.060184855691523	5.6797915	2.3832314
8.07775514385327	5.8177333	2.4119978
8.095325622240228	5.877004	2.4242532
8.112896291271687	5.8965282	2.4282768
8.130467151366968	5.902659	2.4295387
8.148038202945436	5.972354	2.44384
8.165609446426497	5.978578	2.4451132
8.183180882229594	6.0523157	2.4601455
8.200752510774217	6.028478	2.455296
8.218324332479893	5.9947443	2.4484167
8.235896347766193	5.940592	2.4373329
8.253468557052724	5.95767	2.4408338
8.27104096075914	5.962426	2.441808
8.288613559305137	6.0272245	2.4550407
8.306186353110448	6.056798	2.4610562
8.32375934259485	6.1827374	2.486511
8.341332528178162	6.181553	2.4862728
8.358905910280246	6.234611	2.4969203
8.376479489321003	6.1992846	2.4898362
8.394053265720377	6.289653	2.5079181
8.411627239898356	6.2966056	2.5093038
8.42920141227497	6.304286	2.5108337
8.44677578327029	6.2968674	2.509356
8.464350353304427	6.2586303	2.5017254
8.48192512279754	6.2339387	2.4967856
8.499500092169827	6.181186	2.4861991
8.51707526184153	6.167221	2.4833891
8.534650632232934	6.1946955	2.4889145
8.552226203764365	6.212822	2.4925532
8.569801976856192	6.2241616	2.494827
8.587377951928834	6.25442	2.5008838
8.60495412940274	6.3053493	2.5110455
8.622530509698416	6.3593984	2.5217848
8.6401070932364	6.512737	2.5520065
8.657683880437283	6.598624	2.5687788
8.675260871721695	6.7883086	2.6054382
8.692838067510303	6.96703	2.6395133
8.710415468223834	7.13093	2.67038
8.727993074283043	7.2008367	2.6834376
8.745570886108737	7.134489	2.6710465
8.763148904121765	7.123476	2.6689842
8.78072712874302	7.0876565	2.6622653
8.798305560393441	7.3351583	2.7083497
8.815884199494006	7.470872	2.7332895
8.833463046465745	7.6172295	2.7599328
8.851042101729728	7.715193	2.7776237
8.86862136570707	8.072017	2.8411295
8.886200838818924	8.284574	2.8782935
8.903780521486505	8.388704	2.896326
8.921360414131055	8.499743	2.915432
8.938940517173874	8.648922	2.9409049
8.956520831036297	8.799461	2.9663887
8.97410135613971	9.071992	3.0119748
8.99168209290554	9.249807	3.0413496
9.009263041755265	9.608251	3.0997179
9.026844203110405	9.846282	3.1378787
9.044425577392525	10.04422	3.1692617
9.062007165023239	10.10072	3.178163
9.079588966424197	10.379502	3.2217236
9.097170982017108	10.460745	3.2343075
9.11475321222372	11.449036	3.3836424
9.132335657465825	12.348559	3.5140517
9.149918318165264	12.461209	3.5300438
9.167501194743924	13.098411	3.6191726
9.18508428762374	12.712061	3.5653977
9.202667597226693	12.72191	3.5667787
9.220251123974803	12.263284	3.501897
9.237834868290143	11.911246	3.4512672
9.255418830594836	11.663006	3.4151144
9.273003011311046	11.179452	3.3435688
9.290587410860985	11.063604	3.3261998
9.308172029666911	10.540729	3.2466488
9.32575686815113	10.208577	3.1950865
9.343341926735997	8.824915	2.970676
9.360927205843916	8.55793	2.925394
9.378512705897327	8.392349	2.8969553
9.396098427318728	8.258549	2.873769
9.413684370530664	8.104694	2.8468745
9.431270535955722	7.9884024	2.8263762
9.448856924016539	7.906695	2.8118846
9.466443535135806	7.7986083	2.792599
9.484030369736251	7.7305684	2.78039
9.501617428240658	7.7621636	2.786066
9.519204711071852	7.759965	2.7856715
9.536792218652714	7.842539	2.8004534
9.55437995140617	7.815409	2.7956054
9.571967909755191	7.799198	2.7927043
9.589556094122802	7.8036056	2.7934935
9.60714450493207	7.910214	2.8125103
9.624733142606116	7.942974	2.8183281
9.642322007568108	7.9900193	2.8266623
9.659911100241267	7.9697156	2.8230684
9.677500421048851	8.104885	2.846908
9.695089970414175	8.202542	2.8640082
9.712679748760609	8.234631	2.8696046
9.730269756511557	8.187129	2.861316
9.747859994090492	8.210245	2.8653526
9.765450461920915	8.268313	2.8754675
9.78304116042639	8.2598715	2.873999
9.800632090030527	8.214511	2.8660967
9.81822325115699	8.301906	2.8813028
9.835814644229481	8.390945	2.8967128
9.853406269671762	8.401916	2.8986058
9.870998127907646	8.344788	2.8887346
9.888590219360985	8.264979	2.8748877
9.906182544455698	8.28263	2.877956
9.923775103615734	8.331211	2.8863838
9.941367897265108	8.3947525	2.8973699
9.958960925827878	8.375692	2.8940787
9.97655418972816	8.359885	2.8913467
9.994147689390106	8.330483	2.8862576
10.011741425237934	8.34908	2.8894775
10.029335397695904	8.34349	2.88851
10.04692960718833	8.329733	2.8861277
10.06452405413958	8.274185	2.8764884
10.082118738974064	8.267203	2.8752744
10.099713662116246	8.259201	2.8738825
10.117308823990651	8.312384	2.8831205
10.134904225021844	8.279925	2.877486
10.152499865634445	8.261912	2.8743544
10.170095746253125	8.221945	2.8673935
10.18769186730261	8.208174	2.864991
10.205288229207675	8.182664	2.8605356
10.222884832393145	8.207175	2.864817
10.2404816772839	8.252786	2.8727663
10.258078764304868	8.262869	2.8745205
10.275676093881035	8.281	2.8776727
10.293273666437438	8.216233	2.8663971
10.310871482399158	8.252855	2.8727784
10.32846954219134	8.18809	2.861484
10.346067846239173	8.211908	2.8656428
10.363666394967908	8.172139	2.8586953
10.38126518880283	8.154583	2.855623
10.398864228169298	8.185417	2.8610168
10.416463513492713	8.197188	2.8630733
10.434063045198531	8.128908	2.851124
10.451662823712262	8.132037	2.8516726
10.469262849459467	8.149097	2.8546624
10.486863122865758	8.09422	2.8450344
10.504463644356806	8.053146	2.8378067
10.522064414358338	8.008455	2.8299215
10.539665433296118	8.047186	2.8367562
10.557266701595987	7.998314	2.828129
10.574868219683818	7.9134655	2.8130882
10.592469987985552	7.8454213	2.800968
10.610072006927185	7.7587705	2.785457
10.627674276934751	7.6795635	2.7712026
10.64527679843435	7.4839554	2.7356818
10.662879571852143	7.3364906	2.7085958
10.680482597614331	7.197897	2.6828897
10.698085876147173	7.109027	2.6662757
10.715689407876988	7.0402	2.6533375
10.733293193230146	6.901209	2.627015
10.750897232633072	6.8314457	2.6137035
10.76850152651225	6.751851	2.5984325
10.786106075294207	6.668732	2.5823889
10.803710879405534	6.5554037	2.5603523
10.821315939272877	6.4966455	2.5488517
10.83892125532294	6.440829	2.5378788
10.856526827982472	6.403644	2.5305421
10.874132657678285	6.339619	2.51786
10.891738744837243	6.2891207	2.507812
10.909345089886271	6.2014503	2.490271
10.926951693252343	6.1330595	2.4765015
10.944558555362494	6.054712	2.4606323
10.96216567664381	5.9904895	2.4475477
10.979773057523436	6.0013676	2.4497688
10.997380698428573	5.9714127	2.4436474
11.014988599786477	5.9111495	2.4312856
11.032596762024461	5.78235	2.4046516
11.050205185569892	5.673079	2.3818226
11.067813870850198	5.6383533	2.3745217
11.085422818292859	5.620618	2.3707843
11.10303202832541	5.576813	2.3615277
11.120641501375454	5.4787354	2.3406699
11.138251237870636	5.346051	2.3121529
11.155861238238671	5.2658615	2.2947464
11.173471502907317	5.2044697	2.2813306
11.191082032304402	5.1339154	2.2658145
11.208692826857805	5.111768	2.260922
11.226303886995465	5.058818	2.2491815
11.243915213145371	5.011183	2.238567
11.261526805735578	4.9120636	2.2163177
11.279138665194196	4.8462005	2.2014089
11.296750791949393	4.797447	2.1903076
11.314363186429393	4.7481527	2.1790257
11.331975849062479	4.7230606	2.1732605
11.34958878027699	4.7136073	2.1710844
11.36720198050133	4.69692	2.1672378
11.384815450163948	4.6214104	2.1497467
11.402429189693366	4.611294	2.1473923
11.420043199518153	4.5201793	2.1260712
11.437657480066942	63.46672	7.9666004
11.455272031768422	85.16854	9.228681
11.472886855051353	107.52913	10.369625
11.490501950344528	99.09589	9.954692
11.508117318076819	84.45278	9.189819
11.52573295867715	45.87081	6.7727995
11.543348872574514	4.1983995	2.0489995
11.560965060197946	4.132375	2.0328243
11.57858152197655	4.077479	2.0192769
11.59619825833949	4.023774	2.0059347
11.613815269715985	4.0213056	2.0053194
11.631432556535323	38.512096	6.2058115
11.649050119226837	83.05585	9.113498
11.666667958219929	93.48469	9.668748
11.68428607394406	107.76684	10.381081
11.701904466828756	82.5927	9.088053
11.719523137303586	65.40084	8.087079
11.737142085798196	4.643037	2.1547706
11.754761312742286	3.8293965	1.9568844
11.772380818565619	3.7879899	1.946276
11.790000603698015	3.7218502	1.9292097
11.80762066856935	3.6496553	1.9104071
11.825241013609572	3.6132693	1.9008602
11.842861639248683	3.561499	1.8871934
11.860482545916748	3.4868326	1.8673062
11.878103734043883	3.463896	1.8611544
11.895725204060282	3.4496675	1.857328
11.91334695639619	3.459699	1.8600266
11.930968991481919	3.4375582	1.8540653
11.948591309747824	3.4348423	1.8533328
11.966213911624347	3.3565915	1.8321003
11.98383679754198	3.2709332	1.8085722
12.001459967931268	3.1957314	1.7876608
12.019083423222835	3.1644504	1.7788903
12.036707163847352	3.1872807	1.7852957
12.05433119023556	3.2118726	1.7921698
12.071955502818259	3.2552042	1.8042184
12.089580102026313	3.1925738	1.7867775
12.107204988290643	3.1784675	1.7828257
12.12483016204224	3.1351044	1.7706226
12.142455623712152	3.1815774	1.7836977
12.16008137373149	3.1786993	1.7828907
12.177707412531431	3.1908252	1.7862881
12.19533374054321	3.1962204	1.7877977
12.212960358198126	3.1874352	1.785339
12.230587265927545	3.1676207	1.7797811
12.248214464162889	3.090661	1.7580276
12.265841953335649	3.0404162	1.7436789
12.283469733877375	3.0140266	1.7360952
12.301097806219685	3.0459003	1.7452508
12.31872617079425	2.9980018	1.7314739
12.336354828032825	2.9375973	1.713942
12.353983778367205	2.9364774	1.7136153
12.371613022229262	2.9785876	1.7258586
12.389242560050928	3.0260203	1.739546
12.406872392264201	2.986933	1.7282746
12.424502519301143	2.9740818	1.7245526
12.442132941593874	2.9340272	1.7129003
12.459763659574586	2.9377224	1.7139785
12.477394673675532	2.9289455	1.7114162
12.49502598432903	2.8771887	1.6962278
12.51265759196746	2.8281507	1.6817107
12.530289497023267	2.8075223	1.6755663
12.547921699928967	2.8448687	1.6866739
12.565554201117134	2.8673809	1.6933342
12.583187001020404	2.8506773	1.6883949
12.600820100071486	2.8220527	1.6798966
12.618453498703152	2.7995613	1.6731889
12.636087197348235	2.7813094	1.6677258
12.65372119643964	2.8113372	1.6767043
12.671355496410326	2.835698	1.683953
12.68899009769333	2.8457077	1.6869226
12.706625000721749	2.8242636	1.6805545
12.724260205928752	2.8465106	1.6871605
12.741895713747551	2.9024885	1.7036691
12.759531524611454	2.9774835	1.7255386
12.777167638953818	3.0185394	1.7373945
12.794804057208072	3.0286472	1.7403009
12.812440779807702	3.021372	1.7382095
12.830077807186271	3.1729124	1.781267
12.847715139777405	3.203887	1.7899405
12.865352778014795	3.4728642	1.8635622
12.882990722332197	3.601176	1.8976765
12.90062897316344	3.6892948	1.9207537
12.918267530942412	3.7709458	1.9418923
12.935906396103071	3.6427119	1.908589
12.953545569079449	3.808255	1.951475
12.971185050305628	3.5734644	1.890361
12.988824840215775	3.5990515	1.8971167
13.006464939244115	3.6241684	1.9037249
13.024105347824943	3.493391	1.8690616
13.041746066392617	3.568741	1.8891112
13.05938709538157	3.4024053	1.844561
13.077028435226296	3.4393392	1.8545456
13.094670086361363	3.4100096	1.8466212
13.112312049221401	3.3070302	1.8185242
13.129954324241112	3.1688583	1.7801287
13.147596911855258	2.9000108	1.7029418
13.165239812498685	2.831786	1.6827911
13.182883026606293	2.789689	1.6702362
13.200526554613058	2.7286584	1.6518651
13.218170396954017	2.7279818	1.6516603
13.235814554064284	2.6936963	1.6412483
13.253459026379034	2.7237053	1.6503652
13.271103814333523	2.6990092	1.6428661
13.288748918363058	2.6608253	1.6312037
13.306394338903031	2.6355436	1.6234357
13.32404007638889	2.6236138	1.6197573
13.341686131256164	2.640167	1.6248591
13.359332503940449	2.599977	1.6124444
13.376979194877402	2.5940828	1.6106156
13.394626204502751	2.6221154	1.6192948
13.412273533252307	2.6675684	1.6332693
13.429921181561937	2.676523	1.6360083
13.447569149867581	2.6741617	1.6352865
13.465217438605247	2.6802409	1.6371441
13.482866048211022	2.703171	1.6441323
13.500514979121052	2.7077982	1.6455389
13.518164231771568	2.658694	1.6305503
13.535813806598844	2.6579485	1.6303216
13.553463704039254	2.6544247	1.6292405
13.571113924529229	2.6515038	1.6283439
13.588764468505275	2.6731324	1.6349717
13.606415336403956	2.7399526	1.6552802
13.624066528661917	2.7620282	1.6619351
13.641718045715882	2.7868636	1.6693902
13.659369888002635	2.7921977	1.670987
13.67702205595903	2.8763204	1.6959718
13.694674550021993	3.007843	1.7343134
13.712327370628532	3.0731082	1.7530283
13.729980518215713	3.1219954	1.766917
13.747633993220681	3.1819046	1.7837894
13.765287796080647	3.2411795	1.8003277
13.7829419272329	3.2730558	1.8091589
13.800596387114801	3.2579803	1.8049877
13.818251176163775	3.2604132	1.8056614
13.835906294817324	3.3286874	1.8244691
13.853561743513023	3.4117084	1.8470811
13.871217522688525	3.47068	1.8629761
13.888873632781538	3.483259	1.8663491
13.906530074229858	3.5185454	1.8757786
13.92418684747135	3.505436	1.872281
13.941843952943948	3.4722679	1.8634022
13.959501391085665	3.451533	1.8578302
13.977159162334578	3.4516363	1.857858
13.994817267128846	3.4552298	1.8588248
14.012475705906693	3.3719437	1.8362854
14.030134479106424	3.2206428	1.7946149
14.047793587166414	3.1360428	1.7708876
14.065453030525108	3.0860362	1.7567117
14.083112809621026	3.0696833	1.7520511
14.100772924892766	3.0278862	1.7400823
14.118433376778997	2.974444	1.7246577
14.136094165718458	2.9129357	1.7067325
14.153755292149969	2.8490064	1.6879
14.171416756512416	2.7849495	1.6688168
14.189078559244768	2.7235234	1.65031
14.20674070078606	2.6466136	1.6268415
14.224403181575408	2.5762339	1.6050651
14.242066002051999	2.549238	1.5966333
14.259729162655093	2.4961162	1.5799102
14.277392663824022	2.4971206	1.580228
14.295056505998208	2.513698	1.5854646
14.312720689617128	2.4752932	1.5733064
14.330385215120348	2.4011247	1.5495563
14.348050082947497	2.359202	1.5359694
14.3657152935383	2.381921	1.5433474
14.383380847332528	2.4023316	1.5499457
14.401046744770051	2.417068	1.5546923
14.418712986290798	2.3922434	1.5466878
14.436379572334793	2.3795903	1.542592
14.454046503342123	2.365813	1.5381199
14.471713779752946	2.389762	1.5458854
14.489381402007504	2.4097075	1.5523232
14.507049370546113	2.4266086	1.5577575
14.524717685809168	2.4440246	1.5633377
14.542386348237134	2.4617486	1.5689961
14.560055358270553	2.4506476	1.5654545
14.577724716350051	2.4883466	1.5774494
14.595394422916325	2.4616013	1.5689491
14.61306447841015	2.4705162	1.5717876
14.63073488327237	2.4732466	1.5726559
14.648405637943917	2.4895632	1.577835
14.6660767428658	2.5164378	1.5863284
14.683748198479094	2.5446756	1.5952039
14.701420005224954	2.6043315	1.6137941
14.719092163544628	2.6798246	1.637017
14.73676467387942	2.6935532	1.6412048
14.754437536670727	2.6747262	1.6354591
14.772110752360014	2.6570098	1.6300337
14.78978432138882	2.633918	1.622935
14.807458244198777	2.653269	1.6288859
14.82513252123159	2.598167	1.611883
14.842807152929028	2.6589868	1.63064
14.860482139732962	2.6436114	1.6259186
14.87815748208531	2.6618123	1.6315062
14.8958331804281	2.6824546	1.6378201
14.91350923520342	2.665491	1.6326332
14.931185646853438	2.7113822	1.6466275
14.948862415820408	2.6663237	1.6328881
14.966539542546656	2.6450891	1.626373
14.98421702747459	2.61266	1.6163725
15.001894871046696	2.6325881	1.6225252
15.019573073705542	2.6878579	1.6394688
15.037251635893766	2.6843297	1.6383924
15.054930558054092	2.6962707	1.6420325
15.072609840629323	2.694959	1.641633
15.090289484062351	2.8119757	1.6768947
15.107969488796124	3.0520396	1.7470088
15.125649855273691	3.4552352	1.8588263
15.14333058393817	3.984859	1.9962112
15.161011675232768	5.0249476	2.2416396
15.17869312960076	6.5215044	2.5537236
15.196374947485506	8.640116	2.9394073
15.214057129330447	12.054613	3.4719753
15.231739675579114	16.932114	4.114865
15.249422586675102	22.009314	4.6914086
15.267105863062092	24.74401	4.974335
15.284789505183847	24.72054	4.9719753
15.302473513484218	22.483627	4.74169
15.320157888407127	18.964085	4.3547773
15.337842630396578	14.845465	3.8529813
15.355527739896656	11.545439	3.397858
15.37321321735153	8.847396	2.9744573
15.39089906320545	6.3564897	2.521208
15.408585277902748	4.7341595	2.1758125
15.42627186188783	3.6646037	1.9143155
15.443958815605198	3.1094756	1.7633705
15.461646139499424	2.8447132	1.6866277
15.479333834015168	2.7738156	1.6654776
15.497021899597165	2.758522	1.6608799
15.514710336690234	2.6467962	1.6268977
15.53239914573928	2.5435927	1.5948645
15.550088327189297	2.479301	1.5745796
15.567777881485336	2.4543507	1.5666368
15.58546780907256	2.4499729	1.565239
15.6031581103962	2.452804	1.566143
15.620848785901568	2.4770672	1.5738702
15.638539836034063	2.466314	1.5704503
15.656231261239173	2.449882	1.5652099
15.673923061962451	2.4433784	1.563131
15.691615238649552	2.488148	1.5773864
15.709307791746202	2.4963806	1.5799938
15.727000721698221	2.5173545	1.5866174
15.744694028951498	2.4861681	1.5767587
15.76238771395202	2.4473045	1.5643862
15.780081777145844	2.414427	1.5538427
15.797776218979125	2.4250393	1.5572537
15.815471039898094	2.3982837	1.5486393
15.833166240349064	2.3855264	1.5445149
15.850861820778437	2.3666043	1.5383772
15.868557781632699	2.3807538	1.5429691
15.886254123358412	2.4020088	1.5498415
15.903950846402232	2.3840928	1.5440508
15.921647951210897	2.4082716	1.5518607
15.939345438231225	2.4040802	1.5505097
15.957043307910133	2.3736978	1.5406809
15.974741560694602	2.3444035	1.5311445
15.992440197031714	2.3423352	1.530469
16.01013921736862	2.384256	1.5441036
16.02783862215259	2.410382	1.5525405
16.045538411830933	2.4235487	1.5567751
16.06323858685107	2.391826	1.5465529
16.080939147660512	2.3720934	1.5401602
16.09864009470684	2.3783116	1.5421776
16.11634142843774	2.402075	1.5498629
16.134043149300954	2.438094	1.5614396
16.15174525774433	2.4530568	1.5662237
16.169447754215817	2.4349997	1.5604485
16.18715063916342	2.449459	1.5650748
16.204853913035244	2.4508579	1.5655216
16.222557576279478	2.4645116	1.5698763
16.240261629344403	22.414946	4.7344427
16.257966072678386	42.946476	6.553356
16.275670906729868	38.060966	6.169357
16.293376131947387	2.483158	1.575804
16.31108174877957	2.4968882	1.5801544
16.328787757675133	2.5131445	1.5852901
16.34649415908287	2.5724247	1.603878
16.364200953451657	2.5902946	1.6094393
16.38190814123048	2.590512	1.6095067
16.39961572286839	2.5773094	1.6054001
16.41732369881455	2.5700202	1.6031282
16.43503206951817	2.6288936	1.6213863
16.45274083542859	2.713411	1.6472435
16.47044999699522	2.8021147	1.6739519
16.488159554667558	2.8797388	1.6969793
16.505869508895184	2.8967211	1.7019757
16.523579860127786	2.925792	1.7104946
16.541290608815117	2.97851	1.725836
16.559001755407035	3.059435	1.749124
16.57671330035348	3.1027153	1.7614526
16.59442524410448	3.1679006	1.7798597
16.61213758711015	3.2430086	1.8008355
16.629850329820705	3.3234859	1.823043
16.647563472686436	3.3894346	1.8410417
16.665277016157724	3.4121122	1.8471904
16.682990960685053	3.4316056	1.8524593
16.70070530671898	3.4523084	1.8580389
16.718420054710155	3.4831545	1.8663211
16.736135205109335	3.5586717	1.8864442
16.753850758367335	3.619163	1.9024098
16.771566714935087	3.6572754	1.9124005
16.789283075263597	3.7257698	1.9302254
16.80699983980398	3.7845936	1.9454032
16.82471700900741	3.8558695	1.9636368
16.84243458332518	3.9219797	1.9803989
16.860152563208665	4.0109615	2.0027385
16.87787094910932	4.083885	2.0208626
16.89558974147871	4.1515574	2.037537
16.913308940768466	4.2158866	2.0532625
16.931028547430333	4.2906637	2.0713918
16.94874856191613	4.3571086	2.0873687
16.966468984677785	4.3782744	2.0924327
16.98418981616729	4.3829994	2.0935614
17.00191105683676	4.3878503	2.0947196
17.019632707138374	4.44964	2.109417
17.03735476752442	4.5071173	2.1229973
17.05507723844728	4.543846	2.13163
17.072800120359403	4.6229143	2.1500964
17.090523413713353	4.666985	2.1603205
17.108247118961785	4.6987557	2.1676614
17.125971236557437	4.6883335	2.165256
17.143695766953133	4.724487	2.1735885
17.161420710601806	4.737322	2.176539
17.179146067956477	4.7295094	2.1747434
17.19687183947025	4.669694	2.1609476
17.21459802559634	4.6475577	2.1558194
17.232324626788028	4.6726246	2.1616254
17.25005164349871	4.694103	2.1665878
17.267779076181863	4.6945515	2.1666913
17.285506925291074	4.700846	2.1681435
17.30323519127999	4.636096	2.1531596
17.320963874602384	4.5846505	2.1411798
17.33869297571211	4.5533576	2.1338599
17.356422495063114	4.5788555	2.139826
17.37415243310944	4.557206	2.1347613
17.391882790305218	4.5196486	2.1259465
17.40961356710468	4.5520115	2.1335444
17.42734476396215	4.5962253	2.1438808
17.445076381332044	4.5911074	2.1426868
17.462808419668868	4.5567174	2.134647
17.48054087942723	4.66224	2.1592221
17.498273761061835	5.050806	2.2473998
17.51600706502747	5.649272	2.3768196
17.533740791779024	6.4681997	2.5432656
17.551474941771485	8.101214	2.8462632
17.56920951545993	9.333764	3.055121
17.586944513299528	11.559782	3.399968
17.60467993574556	13.206363	3.6340559
17.622415783253373	14.927659	3.863633
17.64015205627843	16.28387	4.035328
17.657888755276293	17.23959	4.1520586
17.675625880702604	17.609606	4.19638
17.69336343301311	17.368647	4.167571
17.71110141266366	16.65094	4.0805564
17.728839820110178	15.865422	3.9831424
17.746578655808705	15.006696	3.8738477
17.764317920215372	13.341393	3.6525872
17.7820576137864	11.514345	3.3932793
17.79979773697811	9.280723	3.0464277
17.81753829024692	7.2802987	2.6982028
17.835279274049356	5.61701	2.3700233
17.85302068884201	4.6833606	2.1641073
17.870762535081607	4.144072	2.0356994
17.888504813224934	3.8673806	1.9665657
17.90624752372891	3.7028506	1.9242792
17.923990667050536	3.5912154	1.8950503
17.941734243646895	3.5764122	1.8911405
17.959478253975185	3.55648	1.8858632
17.9772226984927	3.500215	1.8708862
17.994967577656833	3.4403841	1.8548273
18.01271289192506	3.4277809	1.8514267
18.030458641754965	3.4138236	1.8476535
18.04820482760425	3.3484447	1.8298756
18.06595144993067	3.2786095	1.8106931
18.083698509192125	3.2504814	1.8029091
18.101446005846576	3.2713387	1.8086842
18.119193940352105	3.2630913	1.8064029
18.136942313166887	3.2300794	1.7972422
18.1546911247492	3.2116508	1.7921079
18.1724403755574	3.1709633	1.7807199
18.19019006604997	3.1168432	1.7654583
18.207940196685467	3.092658	1.7585955
18.225690767922575	3.1174963	1.7656432
18.243441780220046	3.1509311	1.7750863
18.261193234036764	3.1164923	1.7653589
18.278945129831676	3.0781417	1.7544633
18.29669746806386	3.0380797	1.7430089
18.314450249192483	3.0278912	1.7400837
18.3322034736768	3.0406413	1.7437434
18.349957141976184	3.0675457	1.751441
18.3677112545501	3.068745	1.7517834
18.385465811858108	3.0842013	1.7561895
18.403220814359884	3.1059465	1.7623696
18.420976262515172	3.1208143	1.7665827
18.43873215678387	3.1356418	1.7707744
18.456488497625923	3.168779	1.7801064
18.474245285501407	3.2972977	1.8158463
18.492002520870486	3.3891814	1.8409729
18.50976020419343	3.456429	1.8591474
18.527518335930615	3.7656074	1.9405173
18.545276916542516	4.356544	2.0872335
18.563035946489688	4.4853606	2.117867
18.580795426232832	4.889883	2.211308
18.598555356232698	4.766498	2.183231
18.616315736950185	5.09534	2.2572858
18.63407656884626	4.751966	2.1799004
18.65183785238201	4.911495	2.2161894
18.669599588018617	4.6734004	2.161805
18.68736177621737	4.6761703	2.1624455
18.705124417439652	4.6359	2.153114
18.72288751214696	4.4259996	2.103806
18.740651060800886	4.5647144	2.1365192
18.758415063863115	4.3065767	2.0752294
18.77617952179546	4.519394	2.1258867
18.793944435059814	4.316006	2.0774999
18.811709804118184	4.4047008	2.098738
18.829475629432675	4.356475	2.087217
18.8472419114655	4.146854	2.0363827
18.86500865067897	4.169543	2.041946
18.88277584753551	3.7866468	1.9459308
18.90054350249763	3.786114	1.9457939
18.918311616027957	3.466413	1.8618306
18.936080188589226	3.376666	1.8375707
18.953849220644265	3.0838869	1.7560999
18.971618712656007	2.9128878	1.7067184
18.9893886650875	2.8489034	1.6878695
19.007159078401887	8.061693	2.839312
19.024929953062408	32.952587	5.740434
19.042701289532435	32.88621	5.73465
19.060473088275405	25.44596	5.044399
19.07824534975489	2.7034543	1.6442184
19.096018074434568	2.6678433	1.6333534
19.113791262778197	2.6472738	1.6270444
19.13156491524966	2.6140988	1.6168175
19.149339032312945	2.6277018	1.6210188
19.167113614432136	2.602985	1.6133769
19.184888662071433	2.5859387	1.6080854
19.202664175695123	2.5630171	1.6009426
19.220440155767623	2.537689	1.5930126
19.238216602753447	2.5640678	1.6012707
19.2559935171172	2.5494664	1.5967048
19.27377089932361	2.5174801	1.5866569
19.291548749837514	2.4914548	1.5784343
19.309327069123835	2.5169754	1.5864978
19.32710585764763	2.5420914	1.5943937
19.344885115874032	2.5330453	1.5915544
19.362664844268313	2.5025063	1.5819312
19.380445043295822	2.4938598	1.579196
19.39822571342203	2.4892628	1.5777398
19.41600685511252	2.5190706	1.5871581
19.43378846883297	2.5313587	1.5910244
19.451570555049173	2.5363066	1.5925786
19.469353114227037	2.5276642	1.589863
19.48713614683254	2.512315	1.5850284
19.50491965333182	2.472725	1.57249
19.52270363419109	2.4832203	1.5758237
19.540488089876686	2.5349314	1.5921468
19.55827302085503	2.5390208	1.5934305
19.576058427592674	2.5409293	1.5940293
19.593844310556282	2.5217855	1.588013
19.611630670212598	2.5215552	1.5879406
19.629417507028506	2.553063	1.5978307
19.64720482147098	2.5549343	1.5984162
19.6649926140071	2.5609233	1.6002885
19.682780885104084	2.5460217	1.5956258
19.70056963522921	2.5492892	1.5966494
19.718358864849908	2.57687	1.6052632
19.7361485744337	2.5608811	1.6002753
19.753938764448215	2.525275	1.5891113
19.771729435361202	2.474257	1.5729771
19.789520587640506	2.5057628	1.5829601
19.807312221754092	2.544808	1.5952454
19.825104338170043	2.5601633	1.600051
19.842896937356517	2.5435183	1.5948411
19.860690019781824	2.5376582	1.5930029
19.87848358591436	2.5313876	1.5910335
19.896277636222635	2.5300653	1.5906179
19.914072171175278	2.505932	1.5830137
19.931867191241015	2.4872463	1.5771006
19.94966269688869	2.4951842	1.5796152
19.967458688587264	2.4947448	1.5794761
19.985255166805807	2.4899464	1.5779564
20.00305213201348	2.4559705	1.5671537
20.020849584679578	2.4532716	1.5662923
20.038647525273507	2.5078127	1.5836076
20.05644595426477	2.5572944	1.5991542
20.07424487212299	2.548575	1.5964257
20.092044279317903	2.480295	1.5748953
20.109844176319353	2.4384253	1.5615458
20.127644563597304	2.4081073	1.5518078
20.145445441621817	2.407765	1.5516974
20.16324681086307	2.3790677	1.5424227
20.181048671791373	2.3994412	1.549013
20.198851024877122	2.3947453	1.5474964
20.216653870590836	2.4378443	1.5613598
20.234457209403146	2.4867356	1.5769386
20.252261041784802	2.4899313	1.5779517
20.270065368206662	2.4476447	1.5644951
20.287870189139685	2.3907857	1.5462166
20.305675505054968	2.3679223	1.5388055
20.323481316423702	2.353297	1.5340459
20.341287623717207	2.3940353	1.5472671
20.359094427406884	2.397939	1.548528
20.376901727964288	2.4183276	1.5550973
20.39470952586107	2.3706098	1.5396785
20.41251782156899	2.3453827	1.5314642
20.430326615559935	2.305752	1.5184703
20.448135908305886	2.2947507	1.5148435
20.465945700278965	2.3423474	1.5304729
20.483755991951384	2.3605194	1.5363982
20.50156678379548	2.3582544	1.5356609
20.519378076283708	2.3079648	1.5191988
20.537189869888635	2.3201766	1.5232126
20.55500216508294	2.331882	1.5270501
20.572814962339415	2.354678	1.534496
20.59062826213098	2.329529	1.5262794
20.60844206493066	2.2928944	1.5142306
20.626256371211593	2.2937932	1.5145274
20.644071181447032	2.3081365	1.5192553
20.66188649611036	2.335025	1.5280789
20.67970231567506	2.339801	1.5296408
20.697518640614742	2.2911775	1.5136636
20.715335471403122	2.2933512	1.5143814
20.73315280851404	2.323482	1.5242972
20.750970652421447	2.341463	1.530184
20.768789003599412	2.368041	1.5388441
20.786607862522136	2.3780258	1.5420849
20.8044272296639	2.3608782	1.536515
20.82224710549913	2.295245	1.5150065
20.84006749050237	2.2725432	1.5074956
20.857888385148268	3.826819	1.9562256
20.8757097899116	45.94968	6.7786193
20.893531705267254	64.81491	8.050771
20.911354131690224	83.82503	9.155601
20.92917706965566	69.05386	8.309865
20.94700051963877	50.099667	7.0781116
20.96482448211493	29.350395	5.4176006
20.982648957559622	4.095802	2.0238087
21.00047394644843	2.1989183	1.482875
21.01829944925707	2.1897383	1.4797764
21.036125466461375	2.1918397	1.4804863
21.053951998537297	2.2232277	1.4910492
21.071779045960906	2.2651052	1.5050267
21.089606609208378	2.2541482	1.5013821
21.10743468875603	2.2313154	1.4937588
21.12526328508028	2.2061517	1.485312
21.143092398657675	2.2222795	1.4907312
21.16092202996488	2.2104437	1.4867561
21.17875217947867	2.19712	1.4822686
21.19658284767596	2.174347	1.4745667
21.21441403503377	2.1954126	1.4816924
21.232245742029225	2.2133803	1.4877434
21.2500779691396	2.214219	1.4880252
21.26791071684227	2.201746	1.4838282
21.28574398561475	2.190772	1.4801257
21.30357777593465	2.2046328	1.4848006
21.321412088279704	2.2069592	1.4855838
21.339246923127792	2.178507	1.4759767
21.357082280956888	2.1467211	1.4651693
21.3749181622451	2.132382	1.4602678
21.392754567470647	2.1166847	1.4548831
21.41059149711187	2.1146047	1.4541681
21.42842895164726	2.093481	1.4468867
21.446266931555378	2.0824656	1.4430751
21.464105437314945	2.0969207	1.4480748
21.481944469404798	2.156163	1.4683878
21.49978402830388	2.1774626	1.4756228
21.51762411449127	2.1466882	1.4651581
21.53546472844617	2.1179452	1.4553162
21.553305870647876	2.1475837	1.4654636
21.571147541575865	2.148843	1.4658933
21.58898974170967	2.1136887	1.453853
21.60683247152899	2.089746	1.4455954
21.62467573151363	2.052505	1.4326566
21.642519522143523	2.0550246	1.4335357
21.660363843898722	2.0958045	1.4476893
21.6782086972594	2.1039445	1.450498
21.696054082705864	2.1296172	1.4593208
21.713900000718535	2.116636	1.4548663
21.73174645177795	2.0947995	1.4473423
21.749593436364794	2.0554888	1.4336976
21.767440954959845	2.046695	1.4306275
21.785289008044032	2.058005	1.4345748
21.803137596098388	2.0586936	1.4348148
21.820986719604086	2.0327601	1.425749
21.838836379042412	1.9843875	1.408683
21.85668657489478	1.9757112	1.4056
21.87453730764273	1.9787073	1.4066653
21.892388577767914	2.003975	1.4156182
21.91024038575213	1.9984943	1.4136811
21.928092732077285	1.9785105	1.4065953
21.945945617225426	1.9881622	1.410022
21.963799041678694	1.9991612	1.413917
21.981653005919398	31.33883	5.5981097
21.999507510429943	78.117195	8.838393
22.01736255569286	73.07913	8.548634
22.035218142190818	4.1874743	2.046332
22.05307427040661	2.0299878	1.4247764
22.07093094082315	2.0190866	1.4209456
22.088788153923474	1.9666325	1.4023668
22.106645910190746	1.9496132	1.3962855
22.12450421010827	1.9898125	1.4106071
22.142363054159464	2.0288494	1.4243768
22.16022244282787	2.0028338	1.4152151
22.178082376597164	2.0247948	1.4229529
22.195942855951145	2.0418856	1.4289457
22.213803881373742	1.998038	1.4135197
22.231665453349002	1.9256003	1.38766
22.24952757236111	1.9034483	1.3796551
22.26739023889438	1.9152199	1.3839147
22.28525345343323	1.9121106	1.3827908
22.30311721646225	1.9462816	1.395092
22.320981528466113	1.984252	1.4086348
22.33884638992964	2.0143762	1.4192872
22.356711801337788	2.0026472	1.4151492
22.37457776317561	1.9757353	1.4056085
22.392444275928337	1.9623735	1.4008474
22.410311340081282	1.9799817	1.4071182
22.428178956119904	1.9859455	1.4092357
22.446047124529805	1.9538549	1.3978037
22.46391584579669	1.9038215	1.3797904
22.481785120406414	1.912705	1.3830057
22.49965494884496	1.9554983	1.3983914
22.51752533159841	1.9470052	1.3953513
22.53539626915302	1.9272926	1.3882697
22.553267761995137	1.9165387	1.3843911
22.571139810611264	1.9293168	1.3889985
22.589012415488025	1.9125124	1.3829361
22.60688557711216	1.9388294	1.3924185
22.624759295970566	1.9865222	1.4094404
22.642633572550263	1.9956009	1.4126574
22.660508407338362	1.9833236	1.4083052
22.67838380082217	1.9608516	1.4003041
22.696259753489077	1.9633019	1.4011787
22.714136265826614	1.9718211	1.4042155
22.73201333832246	1.9671017	1.402534
22.74989097146439	1.9651858	1.4018508
22.76776916574035	1.9395049	1.3926611
22.785647921638393	1.9373989	1.3919048
22.803527239646712	1.9043844	1.3799944
22.82140712025363	1.9061677	1.3806404
22.839287563947593	1.9170542	1.3845773
22.85716857121719	1.912454	1.382915
22.875050142551135	1.914769	1.3837517
22.892932278438277	1.9026827	1.3793776
22.910814979367604	1.9067055	1.380835
22.928698245828222	1.9053235	1.3803346
22.946582078309387	1.9311104	1.389644
22.96446647730047	1.9568948	1.3988905
22.98235144329098	1.9797733	1.4070442
23.000236976770562	1.997303	1.4132597
23.018123078229	1.982845	1.4081353
23.03600974815619	1.9324175	1.3901142
23.053896987042194	1.9240693	1.3871082
23.071784795377173	1.9455322	1.3948233
23.08967317365145	1.9538743	1.3978106
23.10756212235546	1.9541205	1.3978986
23.125451641979787	1.9579285	1.39926
23.143341733015134	1.9228352	1.3866633
23.161232395952357	1.897261	1.377411
23.179123631282426	1.8876679	1.3739243
23.197015439496468	1.9259133	1.3877728
23.214907821085717	1.9387162	1.3923779
23.23280077654157	1.9448276	1.3945707
23.250694306355538	1.9766774	1.4059436
23.268588411019277	1.9827604	1.4081053
23.28648309102458	1.9844599	1.4087086
23.304378346863356	1.9687892	1.4031355
23.322274179027676	1.9493243	1.3961821
23.340170588009723	1.9201096	1.3856802
23.358067574301852	1.8884463	1.3742075
23.37596513839651	1.8942134	1.3763043
23.39386328078629	1.9274564	1.3883287
23.411762001963947	1.9764948	1.4058787
23.429661302422353	1.9795417	1.4069618
23.4475611826545	1.9318058	1.3898941
23.46546164315356	1.9278976	1.3884875
23.48336268441279	1.9630295	1.4010816
23.501264306925638	1.984958	1.4088854
23.51916651118564	1.9589555	1.399627
23.537069297686497	1.9201832	1.3857068
23.554972666922037	1.9297578	1.3891573
23.57287661938623	1.936117	1.3914442
23.59078115557318	1.9541625	1.3979136
23.608686275977128	1.9723567	1.4044062
23.62659198109246	1.9725871	1.4044882
23.6444982714137	1.9587126	1.3995402
23.66240514743549	1.9560694	1.3985955
23.68031260965263	1.9180138	1.3849238
23.698220658560068	1.9450365	1.3946457
23.716129294652845	1.938815	1.3924134
23.7340385184262	1.956697	1.3988198
23.75194833037546	1.9736332	1.4048605
23.769858730996123	1.9779034	1.4063796
23.78776972078382	1.9435767	1.3941222
23.80568130023431	1.8835685	1.3724316
23.823593469843495	1.8709829	1.3678387
23.841506230107424	1.8738737	1.368895
23.859419581522275	1.8726447	1.3684461
23.87733352458438	1.8735751	1.368786
23.89524805979019	1.8343029	1.3543644
23.913163187636318	1.8942518	1.3763182
23.931078908619508	1.945468	1.3948003
23.948995223236633	2.0028887	1.4152344
23.966912131984735	2.0225282	1.4221562
23.98482963536096	2.020783	1.4215424
24.002747733862616	2.0111787	1.4181603
24.020666427987155	2.053279	1.4329267
24.038585718232156	2.1372147	1.4619216
24.056505605095353	2.121704	1.4566071
24.074426089074617	2.1560988	1.468366
24.092347170667946	2.1350145	1.4611689
24.110268850373515	2.142674	1.4637876
24.128191128689586	2.16963	1.4729664
24.146114006114626	2.135889	1.4614681
24.164037483147187	2.0975163	1.4482805
24.181961560286005	2.0669267	1.4376811
24.199886238029926	2.0647705	1.4369309
24.21781151687797	2.0818036	1.4428457
24.235737397329274	2.0943553	1.4471887
24.253663879883135	2.0950303	1.4474219
24.271590965038975	2.0825677	1.4431105
24.289518653296376	2.0379198	1.4275572
24.30744694515505	2.0300171	1.4247867
24.32537584111486	2.0374343	1.4273872
24.34330534167581	2.0618703	1.4359214
24.361235447338046	2.0665405	1.4375467
24.379166158601876	2.0850549	1.4439719
24.39709747596772	2.0867834	1.4445703
24.41502939993615	2.0067024	1.4165813
24.432961931007917	1.960002	1.4000007
24.450895069683856	1.9518944	1.3971021
24.468828816465	1.9726235	1.4045012
24.4867631718525	1.9594063	1.3997879
24.504698136347656	2.0178847	1.4205227
24.52263371045192	2.0208266	1.4215578
24.540569894666874	1.9901505	1.4107269
24.558506689494266	1.9497969	1.3963513
24.57644409543597	1.9020495	1.3791481
24.594382112994012	1.8879824	1.3740387
24.61232074267057	1.8780105	1.3704052
24.630259984967953	1.9217649	1.3862773
24.64819984038863	1.916497	1.384376
24.66614030943522	1.9373525	1.3918881
24.684081392610462	1.9401157	1.3928803
24.702023090417274	1.9849298	1.4088753
24.7199654033587	2.0152588	1.4195981
24.737908331937927	2.0375361	1.4274229
24.755851876658305	2.0255241	1.4232091
24.773796038023324	2.0400267	1.428295
24.79174081653661	2.0781732	1.441587
24.809686212701962	2.1334178	1.4606224
24.827632227023294	2.1917171	1.4804449
24.8455788600047	2.2044852	1.4847509
24.8635261121504	2.1539538	1.4676354
24.88147398396475	2.1390676	1.4625552
24.899422475952303	2.135609	1.4613723
24.917371588617698	2.1444523	1.4643949
24.935321322465768	2.2234507	1.4911239
24.953271678001478	2.3525696	1.5338088
24.97122265572994	2.605277	1.6140871
24.989174256156414	3.003641	1.7331015
25.00712647978632	3.5195642	1.8760501
25.02507932712521	4.049513	2.01234
25.043032798678798	4.550809	2.1332624
25.060986894952933	5.2119675	2.2829733
25.078941616453637	6.0086884	2.4512627
25.096896963687055	6.942254	2.6348157
25.114852937159508	7.941914	2.8181403
25.132809537377444	8.289107	2.879081
25.150766764847468	8.25303	2.8728087
25.168724620076347	7.533815	2.7447796
25.186683103570985	6.3756466	2.5250044
25.204642215838426	5.1761684	2.2751195
25.222601957385894	3.9306169	1.9825783
25.24056232872074	3.069706	1.7520577
25.25852333035048	2.5832002	1.6072338
25.276484962782778	2.2935836	1.5144582
25.294447226525435	2.1688797	1.4727117
25.312410122086423	2.0770252	1.4411888
25.330373649973843	2.0132046	1.4188744
25.348337810695988	1.9424722	1.393726
25.366302604761245	1.9159497	1.3841784
25.384268032678207	1.9463834	1.3951285
25.40223409495558	1.9712636	1.404017
25.420200792102257	1.9285406	1.3887191
25.438168124627246	1.9123969	1.3828944
25.45613609303974	1.88395	1.3725706
25.474104697849057	1.8674651	1.3665522
25.492073939564698	1.912299	1.382859
25.510043818696285	1.9681588	1.4029108
25.528014335753614	1.930691	1.3894931
25.54598549124664	1.8718864	1.368169
25.56395728568544	1.8653917	1.3657935
25.58192971958028	1.8696018	1.3673339
25.59990279344156	1.8642838	1.3653878
25.617876507779833	1.8697398	1.3673843
25.635850863105826	1.9161401	1.3842471
25.653825859930386	1.9667946	1.4024246
25.671801498764548	1.948204	1.3957808
25.68977778011949	1.876248	1.3697621
25.707754704506524	1.8618101	1.3644816
25.725732272437153	1.8768408	1.3699784
25.743710484423012	1.922871	1.3866762
25.761689340975888	1.9518604	1.39709
25.77966884260774	1.9511482	1.3968351
25.797648989830662	1.9560167	1.3985766
25.815629783156922	1.9536095	1.3977158
25.83361122309895	1.9080595	1.3813252
25.85159331016929	1.8369375	1.3553367
25.869576044880695	1.8111384	1.3457854
25.887559427746034	1.8414532	1.3570015
25.90554345927836	1.8765672	1.3698785
25.92352813999086	1.8713146	1.36796
25.94151347039689	1.8557727	1.3622675
25.959499451009965	1.8593327	1.3635736
25.97748608234374	1.9009098	1.3787348
25.995473364912062	1.9114611	1.382556
26.013461299228904	1.859563	1.363658
26.03144988580839	1.8320575	1.3535352
26.04943912516483	1.8240632	1.3505788
26.067429017812675	1.8464702	1.3588488
26.085419564266537	1.8260763	1.3513238
26.103410765041186	1.838848	1.3560413
26.12140262065155	1.86554	1.3658477
26.139395131612723	1.8765811	1.3698837
26.157388298439948	1.8770839	1.3700671
26.17538212164861	1.8063097	1.3439902
26.193376601754295	1.7975708	1.3407352
26.211371739272714	1.8049768	1.3434943
26.229367534719746	1.8880019	1.3740458
26.247363988611433	1.8899196	1.3747435
26.26536110146397	1.8658531	1.3659623
26.283358873793727	1.8468192	1.3589772
26.301357306117204	1.8515235	1.360707
26.319356398951104	1.8242718	1.350656
26.33735615281224	1.8057977	1.3437997
26.35535656821762	1.7893965	1.3376833
26.373357645684404	1.8220065	1.3498172
26.39135938572991	1.8545821	1.3618304
26.409361788871614	1.850449	1.3603121
26.427364855627165	1.8476635	1.3592879
26.445368586514352	1.8118788	1.3460605
26.46337298205115	1.7802843	1.334273
26.48137804275568	1.7771921	1.3331137
26.499383769146217	1.7754884	1.3324746
26.517390161741215	1.7801636	1.3342277
26.53539722105928	1.7720288	1.3311757
26.553404947619182	1.8240751	1.3505832
26.571413341939856	1.8644588	1.3654518
26.589422404540397	1.8536506	1.3614883
26.60743213594006	1.861388	1.364327
26.62544253665827	1.8946168	1.3764508
26.64345360721459	1.8999103	1.3783723
26.66146534812879	1.8496504	1.3600185
26.679477759920758	1.8569099	1.3626848
26.69749084311057	1.858808	1.3633811
26.71550459821847	1.8308064	1.3530729
26.733519025764842	1.7625988	1.327629
26.751534126270258	1.7545586	1.3245975
26.769549900255434	1.7827101	1.3351817
26.787566348241267	1.786665	1.3366618
26.80558347074881	1.787575	1.3370023
26.823601268299267	1.8096789	1.3452431
26.841619741414036	1.7994242	1.3414261
26.85963889061465	1.7983065	1.3410095
26.877658716422832	1.8207868	1.3493654
26.89567921936045	1.8433807	1.3577116
26.913700399949544	1.8697693	1.367395
26.93172225871233	1.8699454	1.3674594
26.949744796171174	1.8705333	1.3676745
26.967768012848605	1.8671012	1.3664191
26.98579190926733	1.8700488	1.3674972
27.003816485950225	1.8199177	1.3490433
27.021841743420318	1.8269298	1.3516396
27.039867682200814	1.8606898	1.364071
27.057894302815072	1.8328962	1.353845
27.07592160578664	1.7909753	1.3382733
27.0939495916392	1.8228669	1.3501359
27.111978260896635	1.8460469	1.3586931
27.13000761408296	1.8041253	1.3431773
27.148037651722397	1.7914985	1.3384687
27.166068374339304	1.8402176	1.3565462
27.184099782458215	1.852848	1.3611937
27.20213187660384	1.8617076	1.364444
27.22016465730105	1.8215992	1.3496664
27.23819812507487	1.7590622	1.3262964
27.256232280450533	1.8024893	1.3425682
27.274267123953383	1.8268448	1.3516083
27.292302656108987	1.8289332	1.3523806
27.31033887744306	1.8137679	1.3467621
27.32837578848146	1.8159405	1.3475684
27.34641338975026	1.7560023	1.3251424
27.364451681775673	1.7573588	1.3256541
27.382490665084074	1.7769667	1.3330292
27.400530340202046	1.8151383	1.3472707
27.41857070765629	1.8288203	1.3523388
27.436611767973726	1.8097854	1.3452827
27.454653521681404	1.8366405	1.3552271
27.472695969306564	1.8292664	1.3525038
27.490739111376627	1.8544053	1.3617655
27.508782948419153	1.8047189	1.3433982
27.526827480961902	1.8047692	1.3434169
27.54487270953279	1.8244569	1.3507246
27.562918634659898	1.8595389	1.3636491
27.580965256871508	1.8528568	1.3611968
27.599012576696026	1.866242	1.3661047
27.617060594662068	1.8995932	1.3782573
27.63510931129842	1.8707007	1.3677356
27.65315872713401	1.8350258	1.3546312
27.67120884269797	1.8741988	1.3690138
27.68925965851958	1.9345511	1.3908814
27.707311175128307	1.9133524	1.3832399
27.725363393053787	1.9183354	1.3850399
27.74341631282583	1.9109356	1.382366
27.7614699349744	1.8895731	1.3746175
27.77952426002968	2.0257063	1.4232731
27.797579288521973	2.102811	1.4501072
27.815635020981784	2.512474	1.5850786
27.83369145793979	2.564062	1.6012689
27.85174859992682	2.4526987	1.5661094
27.869806447473923	2.3607135	1.5364614
27.887865001112267	2.0306957	1.4250247
27.905924261373233	1.8839858	1.3725836
27.92398422878836	1.8781731	1.3704646
27.94204490388936	1.8589169	1.363421
27.96010628720813	1.8657575	1.3659273
27.978168379276728	1.9018952	1.3790921
27.9962311806274	1.889185	1.3744762
28.014294691792568	1.8791142	1.3708079
28.0323589133048	1.8533472	1.361377
28.050423845696887	1.8795094	1.370952
28.068489489501758	1.8912402	1.3752238
28.086555845252523	1.9110533	1.3824085
28.104622913482487	1.8929405	1.3758417
28.122690694725115	1.8719751	1.3682014
28.14075918951405	1.8516555	1.3607554
28.15882839838312	1.8915491	1.375336
28.176898321866304	1.9171513	1.3846123
28.1949689604978	1.9232459	1.3868114
28.213040314811945	1.9064558	1.3807447
28.23111238534327	1.8996588	1.3782811
28.249185172626493	1.920185	1.3857074
28.267258677196473	1.9327341	1.390228
28.285332899588294	1.9545197	1.3980414
28.303407840337172	1.9309636	1.3895912
28.321483499978545	1.9646834	1.4016716
28.33955987904799	2.0113738	1.4182291
28.357636978081285	1.9386371	1.3923495
28.37571479761439	1.8766752	1.369918
28.393793338183425	1.9101351	1.3820764
28.41187260032469	1.9346519	1.3909177
28.429952584574686	1.9901651	1.4107322
28.448033291470065	1.9902282	1.4107544
28.46611472154769	1.9908323	1.4109685
28.484196875344566	1.9845484	1.40874
28.502279753397914	2.0617673	1.4358855
28.52036335624511	2.0672858	1.4378059
28.538447684423716	2.0071673	1.4167453
28.556532738471482	1.9621218	1.4007576
28.574618518926325	1.9488934	1.3960277
28.59270502632635	1.9702454	1.4036543
28.61079226120985	2.0171623	1.4202684
28.628880224115274	2.0569665	1.4342129
28.646968915581287	2.0126462	1.4186776
28.66505833614671	1.9619914	1.400711
28.68314848635055	1.9614238	1.4005084
28.701239366732004	2.053716	1.4330791
28.71933097783044	2.0916193	1.4462432
28.737423320185403	2.0742426	1.4402231
28.75551639433665	2.1063445	1.451325
28.773610200824074	2.150111	1.4663256
28.791704740187793	2.133	1.4604794
28.80980001296809	2.1166012	1.4548544
28.827896019705413	2.1221437	1.4567579
28.845992760940433	2.1850917	1.4782056
28.86409023721397	2.2024896	1.4840788
28.88218844906704	2.1380296	1.4622003
28.900287397040845	2.1830792	1.4775248
28.918387081676755	2.2459602	1.4986528
28.936487503516343	2.2272713	1.4924046
28.954588663101365	2.2044702	1.4847459
28.97269056097374	2.30951	1.5197072
28.990793197675597	2.3472383	1.5320699
29.00889657374923	2.3407266	1.5299433
29.027000689737125	2.3545032	1.5344391
29.04510554618196	2.3462112	1.5317347
29.06321114362659	2.377879	1.5420372
29.08131748261405	2.3895054	1.5458025
29.099424563687567	2.4149094	1.5539979
29.11753238739057	2.5095828	1.5841663
29.13564095426663	2.6031008	1.6134127
29.15375026485954	2.6902874	1.6402096
29.171860319713275	2.7328887	1.6531451
29.18997111937199	2.7340739	1.6535035
29.20808266438002	2.812233	1.6769713
29.226194955281898	2.8886619	1.6996064
29.244307992622335	2.838012	1.68464
29.26242177694624	2.8620708	1.6917655
29.2805363087987	2.9344847	1.7130338
29.29865158872498	2.9054935	1.7045509
29.316767617270557	2.8693056	1.6939025
29.334884394981064	2.9090424	1.7055914
29.353001922402367	2.9439058	1.7157815
29.37112020008047	2.9838774	1.7273904
29.389239228561596	3.1094851	1.7633733
29.407359008392152	3.4051063	1.845293
29.42547954011872	3.8626828	1.9653709
29.44360082428809	4.647779	2.155871
29.46172286144722	5.89308	2.4275668
29.479845652143283	7.590776	2.7551363
29.497969196923606	9.8943	3.1455207
29.516093496335728	12.613612	3.5515647
29.5342185509274	15.511726	3.938493
29.55234436124651	17.62416	4.198114
29.570470927841175	18.560028	4.308135
29.588598251259686	18.071466	4.251055
29.60672633205055	16.402342	4.0499806
29.624855170762405	13.92732	3.7319324
29.642984767944146	10.832895	3.2913363
29.66111512414481	8.11157	2.8480818
29.67924623991366	6.053267	2.4603388
29.697378115800138	4.8167458	2.1947086
29.71551075235387	4.0973415	2.024189
29.733644150124675	3.7405455	1.934049
29.751778309662576	3.4905927	1.8683128
29.769913231517766	3.3825517	1.8391714
29.78804891624066	3.3078313	1.8187444
29.806185364381818	3.250104	1.8028045
29.82432257649206	3.2114522	1.7920525
29.842460553122333	3.2414477	1.800402
29.86059929482382	3.2828984	1.811877
29.878738802147872	3.3505805	1.8304591
29.896879075646048	3.3265355	1.8238792
29.915020115870114	3.3828719	1.8392586
29.933161923371976	3.4466193	1.8565073
29.951304498703777	3.3972635	1.8431667
29.969447842417857	3.3107364	1.8195429
29.987591955066733	3.236611	1.7990583
30.005736837203123	3.211214	1.7919861
30.023882489379943	3.2558272	1.804391
30.04202891215028	3.2494843	1.8026326
30.060176106067455	3.1955576	1.7876123
30.078324071684946	3.1287127	1.7688167
30.09647280955646	3.1529806	1.7756634
30.114622320235863	3.155452	1.7763592
30.132772604277257	3.2146552	1.792946
30.1509236622349	3.1875398	1.7853682
30.16907549466328	3.19005	1.7860711
30.18722810211705	3.1201313	1.7663894
30.205381485151097	2.999185	1.7318156
30.22353564432045	2.971135	1.723698
30.241690580180403	3.01506	1.7363929
30.25984629328638	3.054698	1.7477695
30.278002784194037	3.016121	1.7366983
30.296160053459246	2.9941566	1.7303631
30.314318101638033	2.9508967	1.7178174
30.332476929286646	2.9469051	1.7166553
30.35063653696153	2.9174538	1.7080555
30.368796925219307	2.9239364	1.7099521
30.386958094616844	2.9682298	1.7228551
30.40512004571115	2.9861991	1.7280623
30.423282779059463	2.985012	1.7277187
30.441446295219233	2.9536057	1.7186058
30.459610594748067	2.8930843	1.7009069
30.47777567820382	2.8813517	1.6974545
30.495941546144504	2.8565803	1.690142
30.51410819912835	2.8062224	1.6751783
30.532275637713795	2.7449503	1.6567892
30.55044386245946	2.7518103	1.6588582
30.56861287392416	2.8169718	1.6783837
30.586782672666956	2.9040477	1.7041267
30.604953259247047	2.867425	1.6933472
30.623124634223885	2.8428578	1.6860776
30.641296798157075	2.8310034	1.6825585
30.659469751606462	2.8502924	1.6882809
30.677643495132074	2.8288968	1.6819324
30.695818029294152	2.720368	1.6493537
30.713993354653116	2.7200341	1.6492527
30.73216947176962	2.827965	1.6816554
30.75034638120448	2.8551445	1.6897173
30.768524083518756	2.7685263	1.6638889
30.786702579273673	2.7809622	1.6676217
30.80488186903069	2.8001919	1.6733774
30.82306195335144	2.933284	1.7126833
30.841242832797782	3.1415539	1.7724429
30.85942450793176	3.4895864	1.8680434
30.877606979315637	3.8824778	1.9704005
30.895790247511883	4.3196583	2.0783787
30.913974313083134	4.789494	2.1884913
30.932159176592283	5.104989	2.2594223
30.95034483860237	4.9773483	2.230997
30.968531299676698	4.6510215	2.1566226
30.98671856037873	4.2710066	2.0666413
31.00490662127215	3.8542016	1.963212
31.023095482920848	3.3705413	1.8359034
31.04128514588892	2.907404	1.7051111
31.059475610740662	2.6095822	1.6154201
31.07766687804056	2.544558	1.595167
31.09585894835335	2.5731087	1.6040913
31.11405182224393	2.5344455	1.5919942
31.132245500277417	2.489264	1.5777402
31.15043998301914	2.3854268	1.5444827
31.168635271034628	2.3428388	1.5306334
31.18683136488964	2.3522477	1.5337039
31.20502826515008	2.3130288	1.5208645
31.223225972382135	2.3532572	1.534033
31.241424487152155	2.3732343	1.5405306
31.259623810026692	2.3789551	1.5423862
31.27782394157253	2.4351244	1.5604885
31.296024882356644	2.445161	1.563701
31.314226632946237	2.404704	1.5507108
31.332429193908684	2.3840678	1.5440427
31.350632565811598	2.402851	1.5501132
31.368836749222787	2.5079162	1.5836402
31.387041744710295	2.5820448	1.6068742
31.40524755284232	2.6218941	1.6192263
31.423454174187317	2.6338172	1.622904
31.441661609313922	2.6343572	1.6230704
31.459869858791002	2.5705683	1.6032991
31.478078923187628	2.522545	1.5882522
31.496288803073064	2.414668	1.5539203
31.514499499016807	2.3159611	1.5218282
31.532711011588546	2.2457175	1.4985719
31.550923341358178	2.2934215	1.5144047
31.56913648889584	2.3676527	1.5387179
31.587350454771844	2.3857737	1.544595
31.605565239556732	2.292968	1.5142549
31.62378084382127	2.198255	1.4826514
31.641997268136382	2.2239633	1.4912958
31.660214513073274	2.338222	1.5291246
31.67843257920331	2.3564317	1.5350673
31.6966514670981	2.3303738	1.5265561
31.71487117732944	2.3109083	1.5201672
31.733091710469346	2.2874649	1.5124367
31.751313067090052	2.355911	1.5348977
31.769535247764008	2.3915045	1.546449
31.787758253063878	2.332866	1.5273722
31.805982083562526	2.2818696	1.5105859
31.824206739833024	2.2970624	1.5156063
31.84243222244869	2.299097	1.5162773
31.860658531983013	2.3372617	1.5288105
31.878885669009737	2.3146229	1.5213884
31.897113634102784	2.2477324	1.499244
31.91534242783632	2.2895088	1.5131123
31.933572050784694	2.3065736	1.5187408
31.951802503522508	2.309245	1.5196201
31.970033786624548	2.264013	1.5046638
31.988265900665834	2.2724771	1.5074737
32.006498846221575	2.29941	1.5163805
32.02473262386724	2.277332	1.5090832
32.04296723417845	2.2841742	1.5113485
32.0612026777311	2.2955005	1.515091
32.07943895510129	2.2456322	1.4985434
32.097676066865304	2.1725368	1.4739528
32.115914013599685	2.1158366	1.4545915
32.13415279588115	2.143138	1.463946
32.152392414286666	2.193065	1.4809
32.1706328693934	2.221532	1.4904805
32.18887416177875	2.1976721	1.4824548
32.20711629202032	2.2076209	1.4858065
32.225359260695924	2.2055545	1.4851109
32.243603068383614	2.1448631	1.4645351
32.26184771566166	2.1492848	1.466044
32.28009320310852	2.191467	1.4803604
32.2983395313029	2.134407	1.460961
32.31658670082372	2.1258762	1.4580384
32.33483471225012	2.1350963	1.4611969
32.35308356616143	2.1246812	1.4576286
32.371333263137245	2.128843	1.4590555
32.38958380375734	2.0666642	1.4375898
32.407835188601744	2.0341566	1.4262387
32.42608741825067	2.1341462	1.4608717
32.444340493284585	2.1273415	1.4585409
32.46259441428416	2.1650953	1.4714262
32.48084918183028	2.1992176	1.482976
32.49910479650405	2.1579762	1.4690051
32.51736125888683	2.1323404	1.4602536
32.53561856956014	2.1485724	1.465801
32.5538767291058	2.1302278	1.45953
32.572135738105764	2.1483107	1.4657117
32.59039559714228	2.090059	1.4457036
32.608656306797776	2.071476	1.4392623
32.62691786765491	2.0468874	1.4306947
32.645180280296586	2.0734692	1.4399545
32.663443545305896	2.03018	1.4248438
32.68170766326619	2.0059655	1.4163212
32.69997263476099	2.0277765	1.4240001
32.7182384603741	2.0655959	1.4372181
32.7365051406895	2.124504	1.4575678
32.75477267629144	2.182006	1.4771614
32.77304106776434	2.1259315	1.4580574
32.79131031569289	2.061506	1.4357946
32.809580420661966	2.0116036	1.4183102
32.827851383256714	1.9599508	1.3999825
32.84612320406245	1.9922837	1.4114828
32.86439588366476	2.0300708	1.4248055
32.88266942264945	1.9981006	1.4135419
32.9009438216025	2.0299191	1.4247524
32.9192190811102	2.0140247	1.4191633
32.937495201758985	2.00421	1.4157013
32.95577218413556	1.9997883	1.4141387
32.974050028826866	1.9455038	1.3948132
32.992328736420035	1.934488	1.3908588
33.010608307502444	2.016219	1.4199362
33.02888874266169	2.0958357	1.4477001
33.047170042485604	2.0392563	1.4280254
33.06545220756225	1.9349666	1.3910308
33.083735238479896	1.9787145	1.4066678
33.10201913582707	1.9854552	1.4090618
33.12030390019248	1.9789155	1.4067394
33.138589532165135	1.9720284	1.4042892
33.15687603233419	1.9573625	1.3990577
33.17516340128909	1.9228851	1.3866813
33.19345163961947	1.9540763	1.3978828
33.211740747915215	2.006217	1.4164099
33.23003072676643	1.9387938	1.3924057
33.248321576763466	1.9109575	1.3823738
33.266613298496885	1.9748298	1.4052864
33.28490589255747	1.9820324	1.4078467
33.30319935953626	1.9366196	1.3916248
33.32149370002451	1.874814	1.3692385
33.339788914613706	1.9142237	1.3835547
33.358085003895575	1.9710526	1.4039419
33.376381968462034	1.9796131	1.4069872
33.39467980890529	2.0441496	1.4297376
33.41297852581774	1.9440933	1.3943075
33.43127811979204	1.9290724	1.3889105
33.44957859142105	1.8992954	1.3781493
33.467879941297866	1.8881631	1.3741045
33.486182170015844	1.9010091	1.3787708
33.50448527816853	1.9122987	1.3828589
33.522789266349754	1.8435739	1.3577827
33.541094135153514	1.8238097	1.350485
33.55939988517411	1.8566587	1.3625927
33.57770651700602	1.9154521	1.3839986
33.59601403124398	1.9615992	1.400571
33.61432242848296	1.9638275	1.4013664
33.632631709318154	1.8645036	1.3654683
33.650941874344994	1.8259914	1.3512925
33.66925292415916	1.8405898	1.3566834
33.68756485935654	1.891073	1.3751628
33.70587768053328	1.9092844	1.3817686
33.724191388285746	1.8823348	1.3719821
33.74250598321054	1.8774928	1.3702164
33.760821465904506	1.8873391	1.3738046
33.77913783696474	1.9029533	1.3794757
33.79745509698852	1.8975846	1.3775284
33.815773246573414	1.9207197	1.3859004
33.8340922863172	1.8876027	1.3739005
33.852412216817896	1.883237	1.3723109
33.87073303867377	1.8718178	1.3681439
33.889054752483304	1.8799237	1.371103
33.907377358845245	1.9297541	1.3891559
33.92570085835853	1.8885478	1.3742445
33.94402525162239	1.8471034	1.3590819
33.96235053923627	1.911854	1.382698
33.980676721799824	1.985135	1.4089482
33.999003799912984	2.0020027	1.4149214
34.01733177417592	1.9135162	1.383299
34.03566064518901	1.9227165	1.3866205
34.0539904135529	1.8652475	1.3657407
34.07232107986846	1.8537713	1.3615327
34.090652644736785	1.972003	1.4042802
34.108985108759235	2.088161	1.445047
34.12731847253742	2.114491	1.454129
34.14565273667313	2.0334585	1.4259938
34.16398790176847	1.9378289	1.3920592
34.18232396842574	1.8981972	1.3777508
34.20066093724749	1.9678727	1.4028089
34.21899880883651	1.9717904	1.4042046
34.23733758379583	1.9655697	1.4019878
34.25567726272874	2.0664062	1.4375
34.27401784623872	2.2886176	1.5128177
34.29235933492957	2.2256632	1.4918656
34.31070172940526	1.9354336	1.3911986
34.32904503027003	1.8069018	1.3442105
34.347389238128386	1.8727741	1.3684933
34.36573435358502	1.9167254	1.3844585
34.38408037724492	1.9776534	1.4062907
34.402427309713296	2.0841823	1.4436697
34.42077515159559	2.0245683	1.4228733
34.43912390349752	2.0369756	1.4272265
34.45747356602499	2.0005124	1.4143947
34.47582413978423	2.0139167	1.4191253
34.49417562538163	1.9953328	1.4125625
34.51252802342388	1.8947867	1.3765125
34.53088133451789	1.8502352	1.3602335
34.54923555927084	1.7529407	1.3239866
34.567590698290104	1.7995615	1.3414774
34.58594675218336	1.7546029	1.3246143
34.6043037215585	1.8928413	1.3758057
34.62266160702365	2.0624945	1.4361387
34.641020409187234	1.9583622	1.399415
34.65938012865785	1.8396419	1.356334
34.677740766044394	1.9419888	1.3935525
34.69610232195598	1.9263121	1.3879164
34.714464797002016	1.8136953	1.346735
34.73282819179208	1.8202491	1.349166
34.751192506936064	1.8706259	1.3677082
34.76955774304408	1.8160326	1.3476026
34.7879239007265	1.8543055	1.3617289
34.80629098059391	1.9548013	1.3981421
34.824658983257194	2.0554218	1.4336742
34.843027909327446	2.0522113	1.4325541
34.86139775941603	2.0096562	1.4176234
34.879768534134534	2.0596764	1.4351573
34.89814023409483	2.0175273	1.4203969
34.91651285990901	1.8497571	1.3600577
34.93488641218944	1.7840472	1.3356823
34.95326089154871	1.900773	1.3786852
34.97163629859967	1.9129196	1.3830833
34.99001263395542	1.9088296	1.381604
35.00838989822934	1.8409724	1.3568244
35.02676809203499	1.7882862	1.3372682
35.04514721598624	1.9473089	1.3954601
35.063527270697215	2.0237255	1.422577
35.081908256782256	1.9855858	1.4091082
35.10029017485597	1.8905821	1.3749844
35.11867302553321	1.8785381	1.3705977
35.137056809429104	1.9289871	1.3888798
35.155441527159006	2.1034684	1.450334
35.173827179338524	2.1010454	1.4494983
35.19221376658354	1.9540828	1.3978851
35.21060128951017	2.0806248	1.442437
35.2289897487348	2.256978	1.5023242
35.24737914487405	2.168116	1.4724524
35.26576947854479	2.0653687	1.437139
35.28416075036418	2.0857325	1.4442065
35.30255296094958	2.1635652	1.4709063
35.32094611091867	2.1252801	1.457834
35.33934020088932	2.002688	1.4151635
35.35773523147969	2.0125315	1.4186372
35.3761312033082	2.189969	1.4798545
35.394528116993506	2.339266	1.5294659
35.41292597315452	2.3319736	1.52708
35.431324772410434	2.0816405	1.4427891
35.449724515380666	1.9410172	1.393204
35.46812520268491	2.0870156	1.4446507
35.486526834943106	2.0416818	1.4288743
35.504929412775454	2.1004927	1.4493077
35.52333293680242	1.975968	1.4056913
35.54173740764471	1.7702008	1.3304889
35.560142825923286	1.6637961	1.2898822
35.5785491922594	1.5047885	1.2266982
35.59695650727454	1.1589373	1.0765395
35.61536477159042	0.8177855	0.90431494
