0.008763373481513119	0.0	0.0
0.026290120649546365	0.29253078	0.5408611
0.043816868432600686	0.251199	0.5011976
0.06134361724069026	0.21814239	0.46705717
0.07887036748382949	0.15381488	0.3921924
0.0963971195720331	0.057742476	0.24029665
0.11392387391531617	0.03776113	0.19432223
0.1314506309236943	0.0	0.0
0.1489773910071836	0.029129924	0.1706749
0.16650415457580078	0.05233466	0.2287677
0.18403092203956356	0.122032955	0.34933215
0.20155769380849	0.13692947	0.37003982
0.2190844702925996	0.16813697	0.4100451
0.2366112519019124	0.1676878	0.40949702
0.2541380390464497	0.16517767	0.40642056
0.27166483213623416	0.13369913	0.36564893
0.28919163158128947	0.14847922	0.38533002
0.3067184377916406	0.13700528	0.37014225
0.324245251177314	0.15185347	0.3896838
0.34177207214833777	0.1517145	0.38950545
0.3592989011147415	0.140456	0.3747746
0.37682573848655654	0.16806424	0.4099564
0.39435258467381573	0.20362279	0.4512458
0.41187944008655414	0.18236278	0.42703956
0.42940630513480854	0.18908828	0.43484282
0.446933180228618	0.15405665	0.39250052
0.4644600657780234	0.16819198	0.41011217
0.48198696219306775	0.15928474	0.39910492
0.49951386988379676	0.17272256	0.41559905
0.5170407892602581	0.17419949	0.41737214
0.5345677207325025	0.17586951	0.419368
0.5520946647105822	0.16480508	0.40596193
0.5696216216045534	0.17747088	0.42127293
0.5871485918244737	0.17485356	0.41815495
0.6046755757804043	0.15652744	0.3956355
0.6222025738824094	0.14968665	0.3868936
0.6397295865405557	0.1508139	0.38834766
0.6572566141649129	0.13480873	0.3671631
0.6747836571655547	0.17307693	0.41602516
0.6923107159525568	0.14351249	0.37883043
0.7098377909359992	0.16547985	0.40679216
0.7273648825259653	0.17668651	0.42034096
0.7448919911325411	0.17221393	0.41498667
0.762419117165817	0.15180708	0.3896243
0.7799462610358868	0.14842379	0.38525808
0.7974734231528482	0.14289287	0.37801173
0.8150006039268024	0.17374295	0.41682485
0.8325278037678551	0.17810918	0.42202982
0.8500550230861152	0.19324394	0.4395952
0.8675822622916969	0.17862582	0.4226415
0.8851095217947171	0.19647127	0.4432508
0.9026368020052984	0.2076564	0.4556933
0.9201641033335665	0.23594743	0.4857442
0.9376914261896523	0.21878073	0.46774003
0.9552187709836915	0.21378003	0.46236354
0.9727461381258234	0.20691308	0.454877
0.990273528026193	0.22663297	0.47605982
1.0078009410949496	0.2550879	0.5050623
1.0253283777422473	0.25342688	0.5034152
1.0428558383782454	0.26733014	0.5170398
1.0603833234131086	0.23387891	0.4836103
1.0779108332570058	0.24221471	0.49215314
1.0954383683201119	0.25666568	0.50662184
1.112965929012607	0.3224151	0.5678161
1.1304935157446763	0.4726521	0.68749696
1.1480211289265108	0.49307194	0.7021908
1.1655487689683062	1.2903893	1.1359531
1.1830764362802655	1.6186895	1.2722774
1.200604131272596	2.0932643	1.4468118
1.2181318543555117	2.5448844	1.5952694
1.235659605939232	2.4965603	1.5800507
1.253187386433982	3.8446202	1.9607704
1.270715196249994	5.9743943	2.4442575
1.2882430357975057	11.291484	3.3602803
1.3057709054867608	15.953345	3.994164
1.3232988057280106	21.951496	4.685242
1.3408267369315112	26.879019	5.184498
1.358354699507526	30.562426	5.5283294
1.3758826938663256	34.163383	5.844945
1.3934107204181858	35.958416	5.996534
1.410938779573391	36.233856	6.0194564
1.4284668717422309	36.74167	6.0614905
1.4459949973350033	36.132744	6.0110517
1.4635231567620117	36.02958	6.0024643
1.4810513504335687	35.19048	5.9321566
1.4985795787599925	34.710968	5.8916016
1.5161078421516088	34.746784	5.8946404
1.5336361410187505	33.926243	5.824624
1.5511644757717598	33.876556	5.820357
1.5686928468209842	34.4794	5.8719163
1.58622125457678	35.21948	5.9346004
1.6037496994495108	36.570644	6.0473666
1.621278181849548	36.504787	6.041919
1.6388067021872719	37.251575	6.103407
1.6563352608730693	37.15968	6.095874
1.673863858317336	36.3738	6.0310693
1.6913924949304753	35.64163	5.970061
1.7089211711228998	34.186737	5.8469424
1.7264498873050296	33.05868	5.749668
1.7439786438872935	32.05147	5.6614017
1.7615074412801288	31.311447	5.595663
1.779036279893981	30.675018	5.538503
1.796565160139305	29.895555	5.467683
1.814094082426564	28.85925	5.3720803
1.8316230471662298	28.019388	5.2933345
1.849152054768784	27.173218	5.212794
1.8666811056447168	26.873383	5.1839542
1.8842102002045273	26.102964	5.109106
1.901739338858724	25.494757	5.0492334
1.9192685220178245	24.932066	4.993202
1.9367977500923557	24.464437	4.9461536
1.9543270234928547	23.82008	4.880582
1.971856342629867	23.211266	4.817807
1.9893857079139496	22.81752	4.7767687
2.006915119755667	22.237535	4.715669
2.0244445785655945	21.719845	4.660455
2.0419740847543175	21.31197	4.616489
2.0595036387324317	21.187006	4.6029344
2.0770332409105414	20.818768	4.562759
2.094562891699263	20.311493	4.5068274
2.1120925915092217	19.71366	4.4400067
2.129622340751053	19.387983	4.4031787
2.1471521398354043	187.60547	13.696915
2.1646819891729323	443.87442	21.068327
2.182211889174303	439.8573	20.972775
2.1997418402501974	452.28864	21.267078
2.2172718428113023	432.40408	20.794329
2.234801897268317	320.39105	17.899471
2.2523320040319548	16.948889	4.116903
2.269862163512935	16.458118	4.0568604
2.287392376121992	16.127525	4.015909
2.304922642269869	15.6267605	3.9530697
2.322452962367322	15.493423	3.9361687
2.3399833368251164	15.1462145	3.8918138
2.357513766054032	15.127298	3.8893828
2.3750442504648586	14.71845	3.8364632
2.3925747904683963	14.480028	3.8052633
2.410105386475459	14.306552	3.7824004
2.4276360388968707	14.052182	3.748624
2.445166748143469	13.914056	3.730155
2.4626975146261025	13.749532	3.7080362
2.4802283387556323	13.553972	3.681572
2.4977592209429305	13.1627035	3.6280441
2.5152901615988825	12.939311	3.5971253
2.5328211611343865	12.654855	3.5573664
2.5503522199603523	12.428388	3.5253918
2.5678833384877024	12.293824	3.506255
2.5854145171273712	12.22686	3.4966927
2.6029457562903064	12.110651	3.480036
2.620477056387469	11.605155	3.4066339
2.6380084178298326	11.256681	3.3550978
2.655539841028383	10.859211	3.2953317
2.673071326394119	10.862118	3.2957728
2.6906028743380523	10.734041	3.2762847
2.708134485271211	10.647001	3.2629743
2.7256661596046325	10.492989	3.2392883
2.743197897749369	10.355984	3.2180715
2.760729700116486	10.285417	3.2070885
2.778261567117063	10.296109	3.208755
2.795793499162193	10.28312	3.2067304
2.8133254966629817	10.087184	3.1760328
2.830857560030551	9.873807	3.1422615
2.8483896896760337	9.606197	3.0993867
2.865921886010578	9.402148	3.0662923
2.883454149445347	9.302424	3.0499876
2.9009864803915177	9.094576	3.0157216
2.91851887926028	8.943183	2.9905155
2.9360513464628384	8.785405	2.9640183
2.953583882410413	8.632054	2.9380357
2.9711164875142373	8.579579	2.929092
2.9886491621855606	8.505865	2.9164817
3.0061819068356455	8.257845	2.8736467
3.023714721875769	8.133939	2.8520062
3.041247607717225	8.128831	2.8511105
3.0587805647713213	8.144861	2.8539202
3.0763135934493806	8.055107	2.8381522
3.0938466941627407	7.972273	2.8235214
3.1113798673227544	7.7805743	2.7893682
3.1289131133407904	7.674847	2.7703514
3.1464464326282315	7.6928973	2.7736073
3.1639798255964786	7.609887	2.7586024
3.1815132926569443	7.5360126	2.74518
3.1990468342210603	7.470836	2.733283
3.216580450700272	7.294327	2.7008011
3.2341141425060416	7.2106724	2.6852696
3.251647910049847	7.1878805	2.6810224
3.2691817537431813	7.128732	2.6699686
3.286715673997555	7.141573	2.672372
3.3042496712244938	7.0135245	2.648306
3.32178374583554	7.00234	2.6461935
3.339317898242251	6.859282	2.619023
3.3568521288562034	6.704252	2.589257
3.3743864380889876	6.595319	2.5681353
3.3919208263522127	6.512963	2.5520506
3.4094552940575023	6.5221944	2.5538588
3.4269898416164972	6.5628347	2.561803
3.444524469440858	6.580569	2.5652618
3.4620591779422587	6.638483	2.5765254
3.479593967532391	6.508265	2.55113
3.4971288386229658	6.359279	2.5217612
3.5146637916257086	6.224715	2.494938
3.5321988269523628	6.2334886	2.4966955
3.5497339450146903	6.190916	2.4881551
3.5672691462244708	6.174324	2.4848187
3.5848044309934988	6.1107593	2.4719949
3.60233979973359	6.1528344	2.4804907
3.619875252856575	6.198433	2.4896653
3.6374107907743034	6.195651	2.4891064
3.6549464138986427	6.1065936	2.4711523
3.6724821226414788	6.1154494	2.4729435
3.690017917414714	6.1822414	2.4864113
3.7075537986302702	6.2009296	2.4901667
3.7250897667000857	6.199415	2.4898624
3.7426258220361235	6.2817497	2.506342
3.7601619650503553	6.548759	2.5590544
3.777698196154779	7.035992	2.6525445
3.7952345157614067	7.9269257	2.8154798
3.8127709242822716	8.741129	2.95654
3.830307422129425	10.998995	3.3164732
3.847844009714936	12.545071	3.541902
3.8653806874508954	16.027853	4.00348
3.882917455749409	15.594482	3.948985
3.900454315022606	15.792277	3.97395
3.917991265682631	12.781591	3.5751352
3.9355283081416506	10.980258	3.3136473
3.9530654428118495	8.646701	2.9405272
3.970602670105433	7.2801747	2.69818
3.9881399904346244	6.381545	2.526172
4.005677404211669	6.3104753	2.512066
4.023214911848827	6.2974863	2.5094793
4.0407525137583855	6.258379	2.5016751
4.058290210352644	6.3442802	2.5187855
4.075828002043927	6.3529506	2.520506
4.0933658892445814	6.37926	2.5257196
4.110903872366966	6.2580595	2.5016115
4.128441951823468	6.2010927	2.4901993
4.145980128026488	6.112966	2.4724414
4.163518401388452	6.0852594	2.466832
4.181056772321807	6.055004	2.4606917
4.1985952412390155	6.052052	2.4600918
4.216133808552567	6.1086235	2.4715629
4.233672474674966	6.195945	2.4891655
4.251211240018741	6.3945355	2.5287418
4.268750104996445	6.493456	2.548226
4.286289070020643	7.4027133	2.7207928
4.303828135503928	9.115812	3.0192404
4.3213673018589125	29.443092	5.426149
4.3389065694982305	90.69013	9.523137
4.356445938834537	165.66734	12.871182
4.3739854102805085	171.36636	13.090697
4.391524984248844	172.45015	13.132028
4.409064661152262	136.79976	11.696143
4.426604441403504	97.10683	9.8542795
4.444144325415337	76.1223	8.72481
4.461684313600543	21.873514	4.676913
4.47922440637193	21.985252	4.6888433
4.496764604142329	19.97441	4.469274
4.5143049073245916	17.905985	4.2315464
4.531845316331589	15.9132185	3.9891376
4.5493858315762195	13.199461	3.6331062
4.566926453471405	11.1482935	3.338906
4.584467182430081	9.16261	3.0269804
4.602008018865218	8.068699	2.8405454
4.619548963189798	7.2888904	2.6997945
4.637090015816834	6.776324	2.6031373
4.654631177159353	6.5043607	2.5503647
4.672172447630417	6.3102784	2.5120268
4.689713827643102	6.155104	2.4809482
4.7072553176105085	5.9491735	2.4390926
4.724796917945764	5.7963176	2.4075544
4.742338629062015	5.650937	2.37717
4.759880451372434	5.6324835	2.3732853
4.777422385290215	5.5699415	2.3600724
4.794964431228581	5.525272	2.3505898
4.812506589600768	5.527999	2.3511696
4.830048860820047	5.5261173	2.3507695
4.847591245299709	5.616628	2.3699427
4.8651337434530655	5.56912	2.3598983
4.882676355693457	5.5578246	2.357504
4.900219082434242	5.4850645	2.3420215
4.917761924088813	5.4502025	2.3345668
4.935304881070575	5.444163	2.333273
4.952847953792969	5.3701153	2.3173509
4.970391142669449	5.3788495	2.3192346
4.9879344481135055	5.4331346	2.3309085
5.005477870538642	5.466481	2.3380508
5.023021410358394	5.4582725	2.3362947
5.040565067986324	5.425349	2.329238
5.05810884383601	5.373887	2.3181646
5.075652738321066	5.3823724	2.319994
5.09319675185512	5.3539057	2.3138509
5.110740884851836	5.4029613	2.3244271
5.128285137724894	5.3497577	2.3129544
5.145829510888007	5.3027353	2.3027668
5.163374004754908	5.2774296	2.2972658
5.1809186197393595	5.283779	2.2986472
5.198463356255145	5.3276243	2.3081646
5.216008214716077	5.2157235	2.2837958
5.233553195535998	5.1805873	2.2760904
5.251098299128764	5.140482	2.2672632
5.268643525908272	5.205259	2.2815037
5.286188876288432	5.158385	2.2712078
5.3037343506831895	5.172336	2.274277
5.32127994950651	5.1771383	2.2753327
5.3388256731723915	5.26042	2.2935605
5.356371522094851	5.211694	2.2829134
5.373917496687938	5.1744227	2.2747357
5.391463597365729	5.201096	2.2805912
5.40900982454232	5.17453	2.2747593
5.426556178631843	5.068693	2.251376
5.444102660048449	4.975025	2.2304764
5.4616492692063225	4.9938717	2.2346973
5.479196006519669	5.041496	2.2453275
5.496742872402727	5.067671	2.2511487
5.514289867269756	5.1010437	2.258549
5.531836991535049	5.100198	2.2583618
5.549384245612924	5.105149	2.2594576
5.566931629917724	5.070428	2.251761
5.584479144863822	5.007672	2.2377827
5.6020267908656205	5.0245705	2.2415555
5.619574568337545	4.964469	2.228109
5.637122477694054	5.0206213	2.2406743
5.654670519349629	5.0379963	2.244548
5.672218693718784	5.038438	2.2446465
5.689767001216059	4.963366	2.2278614
5.707315442256021	4.9558687	2.2261782
5.724864017253266	4.99346	2.234605
5.7424127266224225	5.0874906	2.2555466
5.75996157077814	5.0927143	2.2567043
5.777510550135105	5.0527325	2.2478285
5.795059665108022	5.039845	2.2449598
5.812608916111639	5.049688	2.2471511
5.830158303560715	5.2194886	2.28462
5.847707827870055	5.274965	2.296729
5.86525748945448	5.4243073	2.3290143
5.8828072887288485	5.5036664	2.3459895
5.900357226108044	5.6186266	2.3703642
5.917907302006979	5.6886806	2.3850956
5.9354575168406	6.230285	2.496054
5.9530078710238765	6.764131	2.6007943
5.970558364971812	7.153858	2.6746697
5.988108999099438	7.4681125	2.7327847
6.005659773821818	7.9398003	2.8177652
6.023210689554039	7.648078	2.7655158
6.040761746711227	8.071799	2.8410912
6.058312945708531	7.443923	2.7283554
6.075864286961132	7.0661654	2.658226
6.093415770884244	6.433033	2.5363424
6.1109673978931065	5.9838314	2.446187
6.128519168402993	5.439509	2.3322754
6.146071082829204	5.2830915	2.2984977
6.163623141587075	5.156754	2.2708488
6.181175345091969	5.062261	2.2499468
6.198727693759281	5.0409646	2.2452092
6.216280188004435	4.971493	2.2296844
6.233832828242885	4.9632635	2.2278383
6.251385614890126	4.9901667	2.2338681
6.268938548361669	5.0277476	2.242264
6.286491629073067	5.0356736	2.2440307
6.304044857439898	5.037828	2.2445107
6.321598233877777	4.9696436	2.2292697
6.339151758802344	4.880455	2.209175
6.356705432629277	4.849556	2.2021708
6.37425925577428	4.848652	2.2019656
6.391813228653095	4.87319	2.2075303
6.409367351681486	4.9130445	2.216539
6.426921625275259	4.899823	2.2135544
6.44447604985025	4.8618956	2.2049706
6.46203062582232	4.8940854	2.212258
6.47958535360737	4.940834	2.2227986
6.497140233621328	4.968621	2.2290404
6.514695266280161	4.952439	2.2254076
6.532250451999859	4.8943596	2.2123199
6.549805791196454	4.896678	2.212844
6.567361284286002	4.8856773	2.210357
6.584916931684597	4.9089737	2.2156203
6.602472733808367	4.890947	2.2115486
6.6200286910734665	4.8867755	2.2106051
6.637584803896092	4.8936415	2.2121577
6.655141072692462	4.857484	2.20397
6.672697497878842	4.8272753	2.1971061
6.690254079871514	4.7874503	2.1880243
6.707810819086808	4.809112	2.1929688
6.725367715941078	4.8781023	2.2086427
6.742924770850719	4.853375	2.2030377
6.760481984232151	4.843688	2.200838
6.778039356501836	4.856453	2.203736
6.795596888076266	4.8206873	2.1956065
6.813154579371963	4.776832	2.1855965
6.830712430805492	4.7867117	2.1878555
6.84827044279344	4.8537793	2.2031295
6.865828615752445	4.902013	2.2140489
6.883386950099159	4.9222293	2.2186098
6.900945446250287	4.910343	2.2159295
6.918504104622553	4.8927007	2.211945
6.936062925632727	4.9614	2.22742
6.953621909697607	4.96253	2.2276738
6.971181057234028	4.9889507	2.2335958
6.988740368658859	5.0115843	2.2386568
7.006299844389007	5.0900135	2.256106
7.023859484841407	5.194402	2.279123
7.041419290433036	5.3503947	2.313092
7.058979261580902	5.4332447	2.3309321
7.0765393987020495	5.6379285	2.3744323
7.094099702213559	5.9693747	2.4432304
7.111660172532549	6.3872843	2.5273077
7.129220810076164	6.7880526	2.605389
7.146781615261595	7.4250126	2.7248876
7.16434258850606	7.6124253	2.7590623
7.181903730226821	7.989557	2.8265805
7.1994650408411704	7.9699054	2.823102
7.217026520766437	8.0681505	2.840449
7.234588170419983	8.247385	2.8718262
7.252149990219215	8.260782	2.8741577
7.269711980581568	8.2081585	2.8649883
7.2872741419245175	8.062059	2.8393767
7.304836474665574	7.6165953	2.759818
7.322398979222286	7.2652254	2.695408
7.339961656012233	7.0030885	2.646335
7.357524505453039	6.7243896	2.5931427
7.375087527962357	6.513228	2.5521026
7.392650723957886	6.2459874	2.4991972
7.410214093857353	5.8404684	2.416706
7.427777638078528	5.6265926	2.372044
7.445341357039213	5.46091	2.336859
7.4629052511572525	5.331415	2.3089857
7.480469320850524	5.26512	2.294585
7.498033566536948	5.1628537	2.2721913
7.5155979886344735	5.097238	2.2577064
7.5331625875610975	5.1009417	2.2585263
7.550727363734844	5.100098	2.2583396
7.568292317573788	5.144785	2.2682118
7.585857449496025	5.126626	2.2642055
7.603422759919705	5.0493064	2.2470663
7.620988249263007	5.0435987	2.2457957
7.638553917944147	5.0633755	2.2501945
7.656119766381391	5.1106186	2.2606678
7.673685794993023	5.1365786	2.266402
7.691252004197388	5.105619	2.2595618
7.70881839441285	5.142582	2.2677262
7.726384966057826	5.157174	2.2709413
7.743951719550762	5.1738877	2.2746181
7.761518655310149	5.2135277	2.2833152
7.779085773754511	5.174737	2.2748048
7.796653075302419	5.1712127	2.27403
7.814220560372475	5.1224627	2.2632859
7.831788229383323	5.1147804	2.261588
7.8493560827536495	5.2057996	2.2816222
7.866924120902174	5.2408614	2.2892928
7.884492344247663	5.2936063	2.3007839
7.9020607532089135	5.295556	2.3012075
7.919629348204771	5.2342615	2.2878509
7.937198129654115	5.2144036	2.2835069
7.954767097975865	5.193957	2.2790253
7.972336253588986	5.224111	2.2856314
7.989905596912472	5.3180857	2.3060975
8.007475128365371	5.3574157	2.3146093
8.025044848366756	5.415737	2.3271737
8.042614757335754	5.5310173	2.3518114
8.060184855691523	5.5977273	2.3659518
8.07775514385327	5.7863464	2.4054825
8.095325622240228	5.7920523	2.4066682
8.112896291271687	5.8001394	2.4083478
8.130467151366968	5.8140264	2.4112291
8.148038202945436	5.9328837	2.4357512
8.165609446426497	6.0178986	2.4531405
8.183180882229594	6.072246	2.4641929
8.200752510774217	6.0131693	2.4521763
8.218324332479893	5.914052	2.4318824
8.235896347766193	5.823493	2.4131916
8.253468557052724	5.8098884	2.410371
8.27104096075914	5.8261952	2.4137514
8.288613559305137	5.9542193	2.440127
8.306186353110448	6.0469866	2.459062
8.32375934259485	6.139251	2.4777513
8.341332528178162	6.099592	2.4697351
8.358905910280246	6.1290298	2.4756877
8.376479489321003	6.072142	2.4641716
8.394053265720377	6.1796155	2.4858832
8.411627239898356	6.1846495	2.4868956
8.42920141227497	6.1630845	2.482556
8.44677578327029	6.1351233	2.476918
8.464350353304427	6.0594544	2.461596
8.48192512279754	6.0873857	2.4672627
8.499500092169827	6.0865617	2.4670959
8.51707526184153	6.1099997	2.4718413
8.534650632232934	6.0848994	2.466759
8.552226203764365	6.0907235	2.4679391
8.569801976856192	6.067467	2.463223
8.587377951928834	6.0352583	2.4566762
8.60495412940274	6.0525475	2.4601927
8.622530509698416	6.1511407	2.4801493
8.6401070932364	6.3401704	2.5179696
8.657683880437283	6.4834967	2.546271
8.675260871721695	6.567054	2.5626264
8.692838067510303	6.6009326	2.569228
8.710415468223834	6.740508	2.5962489
8.727993074283043	6.930029	2.632495
8.745570886108737	6.9678307	2.639665
8.763148904121765	7.025187	2.650507
8.78072712874302	7.035971	2.6525404
8.798305560393441	7.2667313	2.6956875
8.815884199494006	7.412581	2.7226055
8.833463046465745	7.5747137	2.7522197
8.851042101729728	7.6865225	2.7724578
8.86862136570707	7.9849772	2.8257701
8.886200838818924	8.167858	2.8579464
8.903780521486505	8.244351	2.8712978
8.921360414131055	8.379787	2.8947864
8.938940517173874	8.449441	2.9067922
8.956520831036297	8.594237	2.931593
8.97410135613971	8.900323	2.983341
8.99168209290554	9.08167	3.0135808
9.009263041755265	9.376538	3.0621133
9.026844203110405	9.624872	3.102398
9.044425577392525	9.809566	3.1320226
9.062007165023239	9.859004	3.1399052
9.079588966424197	10.0684395	3.1730804
9.097170982017108	10.159254	3.1873584
9.11475321222372	11.123202	3.3351464
9.132335657465825	12.007784	3.465225
9.149918318165264	12.06506	3.4734795
9.167501194743924	12.5965185	3.5491574
9.18508428762374	12.345376	3.5135987
9.202667597226693	12.292296	3.5060372
9.220251123974803	11.933731	3.4545233
9.237834868290143	11.6400795	3.411756
9.255418830594836	11.486516	3.3891764
9.273003011311046	10.979298	3.3135023
9.290587410860985	10.743626	3.2777472
9.308172029666911	10.037663	3.1682272
9.32575686815113	9.730123	3.1193144
9.343341926735997	8.541002	2.9224994
9.360927205843916	8.296293	2.8803287
9.378512705897327	8.201921	2.8638997
9.396098427318728	7.9962263	2.82776
9.413684370530664	7.907443	2.8120177
9.431270535955722	7.7565055	2.7850504
9.448856924016539	7.7108397	2.77684
9.466443535135806	7.588179	2.754665
9.484030369736251	7.58044	2.75326
9.501617428240658	7.5532126	2.7483108
9.519204711071852	7.5873265	2.7545102
9.536792218652714	7.6980634	2.7745385
9.55437995140617	7.7833853	2.789872
9.571967909755191	7.7729607	2.788003
9.589556094122802	7.727055	2.7797582
9.60714450493207	7.688063	2.7727356
9.624733142606116	7.714942	2.7775784
9.642322007568108	7.818851	2.7962208
9.659911100241267	7.9082494	2.812161
9.677500421048851	7.904725	2.8115344
9.695089970414175	7.9093966	2.812365
9.712679748760609	7.9154916	2.8134484
9.730269756511557	7.9567375	2.820769
9.747859994090492	8.021513	2.8322275
9.765450461920915	8.103677	2.8466957
9.78304116042639	8.185267	2.8609905
9.800632090030527	8.150015	2.854823
9.81822325115699	8.073775	2.841439
9.835814644229481	8.0794115	2.8424306
9.853406269671762	8.146735	2.8542485
9.870998127907646	8.196851	2.8630142
9.888590219360985	8.191449	2.8620708
9.906182544455698	8.151379	2.855062
9.923775103615734	8.185133	2.8609672
9.941367897265108	8.143741	2.853724
9.958960925827878	8.159786	2.856534
9.97655418972816	8.085426	2.8434885
9.994147689390106	8.092114	2.844664
10.011741425237934	8.054721	2.838084
10.029335397695904	8.073967	2.8414726
10.04692960718833	8.126968	2.8507838
10.06452405413958	8.181152	2.8602715
10.082118738974064	8.186499	2.8612058
10.099713662116246	8.176548	2.8594663
10.117308823990651	8.18416	2.8607972
10.134904225021844	8.19023	2.861858
10.152499865634445	8.156655	2.8559859
10.170095746253125	8.146808	2.8542614
10.18769186730261	8.110286	2.8478563
10.205288229207675	8.050483	2.8373373
10.222884832393145	8.018675	2.8317266
10.2404816772839	7.9894466	2.826561
10.258078764304868	7.957368	2.8208807
10.275676093881035	7.8571835	2.8030667
10.293273666437438	7.869904	2.8053348
10.310871482399158	7.9857016	2.8258984
10.32846954219134	8.099394	2.8459435
10.346067846239173	8.124588	2.8503664
10.363666394967908	8.101472	2.8463085
10.38126518880283	8.053882	2.8379362
10.398864228169298	8.06035	2.8390756
10.416463513492713	8.08651	2.843679
10.434063045198531	8.080548	2.8426306
10.451662823712262	8.128994	2.851139
10.469262849459467	8.155118	2.8557167
10.486863122865758	8.036781	2.8349218
10.504463644356806	7.955966	2.8206322
10.522064414358338	7.8141007	2.7953713
10.539665433296118	7.853758	2.8024557
10.557266701595987	7.760885	2.7858365
10.574868219683818	7.749299	2.7837563
10.592469987985552	7.579409	2.7530727
10.610072006927185	7.532486	2.7445376
10.627674276934751	7.449239	2.7293293
10.64527679843435	7.377666	2.716186
10.662879571852143	7.296584	2.701219
10.680482597614331	7.228032	2.6885
10.698085876147173	7.041352	2.6535544
10.715689407876988	6.8982396	2.62645
10.733293193230146	6.803011	2.6082582
10.750897232633072	6.723386	2.5929492
10.76850152651225	6.6731606	2.5832462
10.786106075294207	6.521549	2.5537324
10.803710879405534	6.432782	2.536293
10.821315939272877	6.340945	2.5181231
10.83892125532294	6.22238	2.49447
10.856526827982472	6.186459	2.4872594
10.874132657678285	6.194489	2.488873
10.891738744837243	6.186384	2.4872444
10.909345089886271	6.0879116	2.4673693
10.926951693252343	6.033193	2.456256
10.944558555362494	6.0002484	2.4495404
10.96216567664381	5.9765735	2.444703
10.979773057523436	5.914577	2.4319904
10.997380698428573	5.882922	2.4254737
11.014988599786477	5.7979555	2.4078944
11.032596762024461	5.747259	2.397344
11.050205185569892	5.6578794	2.3786297
11.067813870850198	5.562247	2.3584416
11.085422818292859	5.465839	2.3379133
11.10303202832541	5.3853693	2.3206398
11.120641501375454	5.348444	2.3126702
11.138251237870636	5.3001156	2.302198
11.155861238238671	5.2225814	2.2852967
11.173471502907317	5.154417	2.2703342
11.191082032304402	5.110139	2.2605617
11.208692826857805	5.066618	2.2509148
11.226303886995465	4.9838066	2.232444
11.243915213145371	4.92927	2.220196
11.261526805735578	4.8801184	2.209099
11.279138665194196	4.8457155	2.2012987
11.296750791949393	4.765032	2.1828952
11.314363186429393	4.735712	2.1761692
11.331975849062479	4.689409	2.1655042
11.34958878027699	4.6086965	2.1467874
11.36720198050133	4.5568366	2.1346748
11.384815450163948	4.4586143	2.1115432
11.402429189693366	4.4149737	2.101184
11.420043199518153	4.366159	2.0895355
11.437657480066942	63.37044	7.9605556
11.455272031768422	85.10823	9.225412
11.472886855051353	107.48175	10.367341
11.490501950344528	99.02317	9.951038
11.508117318076819	84.40351	9.187139
11.52573295867715	45.783268	6.7663336
11.543348872574514	4.114875	2.0285153
11.560965060197946	4.0569754	2.0141935
11.57858152197655	4.001869	2.0004673
11.59619825833949	3.9263518	1.9815024
11.613815269715985	3.873582	1.9681417
11.631432556535323	38.398228	6.1966305
11.649050119226837	82.93837	9.107051
11.666667958219929	93.36406	9.662508
11.68428607394406	107.614044	10.373719
11.701904466828756	82.42479	9.07881
11.719523137303586	65.2756	8.079331
11.737142085798196	4.527528	2.1277988
11.754761312742286	3.6842327	1.9194355
11.772380818565619	3.668364	1.9152974
11.790000603698015	3.639845	1.9078377
11.80762066856935	3.593288	1.895597
11.825241013609572	3.5742013	1.8905559
11.842861639248683	3.5767553	1.8912312
11.860482545916748	3.6008675	1.8975952
11.878103734043883	3.5356033	1.88032
11.895725204060282	3.4516644	1.8578656
11.91334695639619	3.4373393	1.8540063
11.930968991481919	3.4747696	1.8640734
11.948591309747824	3.4086106	1.8462423
11.966213911624347	3.3714328	1.8361462
11.98383679754198	3.3083873	1.8188972
12.001459967931268	3.289131	1.8135961
12.019083423222835	3.2306185	1.7973921
12.036707163847352	3.2110333	1.7919357
12.05433119023556	3.1768048	1.7823594
12.071955502818259	3.1286237	1.7687916
12.089580102026313	3.1117647	1.7640195
12.107204988290643	3.112993	1.7643676
12.12483016204224	3.1467938	1.7739204
12.142455623712152	3.147173	1.7740273
12.16008137373149	3.1088743	1.7632
12.177707412531431	3.1015668	1.7611265
12.19533374054321	3.0852847	1.7564979
12.212960358198126	3.090091	1.7578654
12.230587265927545	3.048053	1.7458674
12.248214464162889	2.9820352	1.7268571
12.265841953335649	2.9534464	1.7185594
12.283469733877375	2.9027593	1.7037486
12.301097806219685	2.871132	1.6944414
12.31872617079425	2.880067	1.6970761
12.336354828032825	2.9057827	1.7046356
12.353983778367205	2.9324698	1.7124456
12.371613022229262	2.915958	1.7076176
12.389242560050928	2.8901732	1.700051
12.406872392264201	2.8402407	1.6853014
12.424502519301143	2.8188987	1.6789576
12.442132941593874	2.7844703	1.6686733
12.459763659574586	2.7796268	1.6672213
12.477394673675532	2.7884653	1.6698698
12.49502598432903	2.8116264	1.6767905
12.51265759196746	2.8256748	1.6809744
12.530289497023267	2.8260975	1.6811001
12.547921699928967	2.7935052	1.6713783
12.565554201117134	2.7992134	1.673085
12.583187001020404	2.764292	1.662616
12.600820100071486	2.7598922	1.6612923
12.618453498703152	2.7388873	1.6549584
12.636087197348235	2.733348	1.653284
12.65372119643964	2.7179334	1.6486156
12.671355496410326	2.7152271	1.6477946
12.68899009769333	2.7563822	1.6602356
12.706625000721749	2.7827532	1.6681587
12.724260205928752	2.8412478	1.6856002
12.741895713747551	2.853011	1.6890858
12.759531524611454	2.9454768	1.7162391
12.777167638953818	2.944407	1.7159275
12.794804057208072	2.9591286	1.7202117
12.812440779807702	2.9710348	1.7236689
12.830077807186271	3.1376443	1.7713397
12.847715139777405	3.165046	1.7790576
12.865352778014795	3.3285058	1.8244193
12.882990722332197	3.3862314	1.8401716
12.90062897316344	3.434707	1.8532963
12.918267530942412	3.5421908	1.8820709
12.935906396103071	3.4737928	1.8638114
12.953545569079449	3.6627436	1.9138296
12.971185050305628	3.52708	1.8780522
12.988824840215775	3.5802102	1.8921443
13.006464939244115	3.5598164	1.8867476
13.024105347824943	3.3791623	1.8382498
13.041746066392617	3.4162178	1.8483013
13.05938709538157	3.2488472	1.8024559
13.077028435226296	3.277836	1.8104795
13.094670086361363	3.2301528	1.7972625
13.112312049221401	3.1350162	1.7705977
13.129954324241112	3.0433497	1.74452
13.147596911855258	2.8075342	1.6755698
13.165239812498685	2.7743769	1.6656461
13.182883026606293	2.703143	1.6441238
13.200526554613058	2.681223	1.637444
13.218170396954017	2.6592348	1.6307161
13.235814554064284	2.684317	1.6383885
13.253459026379034	2.6754758	1.6356882
13.271103814333523	2.6156085	1.6172843
13.288748918363058	2.600917	1.6127359
13.306394338903031	2.6245837	1.6200567
13.32404007638889	2.62777	1.6210397
13.341686131256164	2.6164293	1.6175381
13.359332503940449	2.5990365	1.6121527
13.376979194877402	2.6071515	1.6146677
13.394626204502751	2.6617062	1.6314737
13.412273533252307	2.6634235	1.6319999
13.429921181561937	2.668068	1.6334221
13.447569149867581	2.6690598	1.6337258
13.465217438605247	2.661796	1.6315012
13.482866048211022	2.6207302	1.6188669
13.500514979121052	2.615991	1.6174026
13.518164231771568	2.6197941	1.6185778
13.535813806598844	2.637171	1.6239369
13.553463704039254	2.6450083	1.6263481
13.571113924529229	2.6576786	1.6302388
13.588764468505275	2.652447	1.6286335
13.606415336403956	2.6786742	1.6366656
13.624066528661917	2.688445	1.6396478
13.641718045715882	2.7381527	1.6547364
13.659369888002635	2.7981973	1.6727813
13.67702205595903	2.870559	1.6942724
13.694674550021993	2.9736807	1.7244364
13.712327370628532	3.0447145	1.7449111
13.729980518215713	3.124487	1.7676219
13.747633993220681	3.1983836	1.7884026
13.765287796080647	3.1979418	1.788279
13.7829419272329	3.2100813	1.79167
13.800596387114801	3.2189567	1.7941451
13.818251176163775	3.25186	1.8032914
13.835906294817324	3.3153982	1.8208236
13.853561743513023	3.3524663	1.8309741
13.871217522688525	3.3618128	1.8335247
13.888873632781538	3.3797078	1.8383982
13.906530074229858	3.4253538	1.8507711
13.92418684747135	3.4599354	1.8600901
13.941843952943948	3.440256	1.8547927
13.959501391085665	3.399915	1.8438858
13.977159162334578	3.356094	1.8319645
13.994817267128846	3.2786233	1.810697
14.012475705906693	3.1508565	1.7750652
14.030134479106424	3.0950382	1.7592721
14.047793587166414	3.0233467	1.7387774
14.065453030525108	3.0030923	1.7329433
14.083112809621026	2.9555187	1.7191622
14.100772924892766	2.8949142	1.7014447
14.118433376778997	2.848896	1.6878673
14.136094165718458	2.764917	1.6628039
14.153755292149969	2.7200358	1.6492531
14.171416756512416	2.6416144	1.6253045
14.189078559244768	2.622575	1.6194366
14.20674070078606	2.577708	1.6055242
14.224403181575408	2.5718231	1.6036905
14.242066002051999	2.4898827	1.5779362
14.259729162655093	2.4531233	1.566245
14.277392663824022	2.4239128	1.556892
14.295056505998208	2.4346113	1.5603241
14.312720689617128	2.419101	1.5553459
14.330385215120348	2.4010634	1.5495365
14.348050082947497	2.3766456	1.5416373
14.3657152935383	2.3666203	1.5383824
14.383380847332528	2.3612735	1.5366436
14.401046744770051	2.3648992	1.5378228
14.418712986290798	2.3686683	1.5390478
14.436379572334793	2.3991246	1.5489107
14.454046503342123	2.3901432	1.5460088
14.471713779752946	2.3913891	1.5464118
14.489381402007504	2.3552992	1.5346984
14.507049370546113	2.3882027	1.5453811
14.524717685809168	2.4189503	1.5552975
14.542386348237134	2.420815	1.5558969
14.560055358270553	2.4210384	1.5559686
14.577724716350051	2.4022112	1.5499068
14.595394422916325	2.409888	1.5523814
14.61306447841015	2.4372296	1.561163
14.63073488327237	2.4635909	1.569583
14.648405637943917	2.4769154	1.5738219
14.6660767428658	2.4664488	1.5704932
14.683748198479094	2.452805	1.5661434
14.701420005224954	2.484727	1.5763017
14.719092163544628	2.5684326	1.602633
14.73676467387942	2.6345985	1.6231446
14.754437536670727	2.6442068	1.6261017
14.772110752360014	2.6294336	1.6215528
14.78978432138882	2.6467917	1.6268964
14.807458244198777	2.6966388	1.6421446
14.82513252123159	2.7078707	1.6455609
14.842807152929028	2.7196023	1.6491216
14.860482139732962	2.701291	1.6435605
14.87815748208531	2.664677	1.6323838
14.8958331804281	2.648107	1.6273005
14.91350923520342	2.5924678	1.6101142
14.931185646853438	2.579909	1.6062095
14.948862415820408	2.5575404	1.5992312
14.966539542546656	2.6003022	1.6125453
14.98421702747459	2.6243217	1.6199758
15.001894871046696	2.6257746	1.6204242
15.019573073705542	2.6359565	1.6235629
15.037251635893766	2.6142812	1.6168739
15.054930558054092	2.625842	1.620445
15.072609840629323	2.6205406	1.6188084
15.090289484062351	2.714965	1.6477151
15.107969488796124	2.8944025	1.7012943
15.125649855273691	3.098497	1.7602547
15.14333058393817	3.479479	1.8653362
15.161011675232768	4.083724	2.0208225
15.17869312960076	4.7867064	2.1878543
15.196374947485506	5.5469656	2.3551996
15.214057129330447	6.915857	2.6298018
15.231739675579114	9.004552	3.0007586
15.249422586675102	13.347587	3.653435
15.267105863062092	17.686426	4.2055235
15.284789505183847	24.587372	4.9585657
15.302473513484218	29.231037	5.4065733
15.320157888407127	33.280125	5.768893
15.337842630396578	32.435863	5.695249
15.355527739896656	29.952566	5.4728937
15.37321321735153	23.410404	4.83843
15.39089906320545	15.98586	3.9982321
15.408585277902748	10.265415	3.2039688
15.42627186188783	6.4259896	2.5349536
15.443958815605198	4.622974	2.1501102
15.461646139499424	3.8316166	1.9574516
15.479333834015168	3.4116113	1.8470547
15.497021899597165	3.0942445	1.7590464
15.514710336690234	2.8589966	1.6908568
15.53239914573928	2.6985538	1.6427275
15.550088327189297	2.6003613	1.6125636
15.567777881485336	2.5696766	1.6030211
15.58546780907256	2.5481822	1.5963026
15.6031581103962	2.507376	1.5834696
15.620848785901568	2.4762251	1.5736026
15.638539836034063	2.4628093	1.569334
15.656231261239173	2.4734938	1.5727345
15.673923061962451	2.438018	1.5614154
15.691615238649552	2.405071	1.5508292
15.709307791746202	2.3770032	1.5417533
15.727000721698221	2.3635983	1.5373999
15.744694028951498	2.370191	1.5395424
15.76238771395202	2.3651516	1.537905
15.780081777145844	2.3514953	1.5334586
15.797776218979125	2.3604314	1.5363696
15.815471039898094	2.3810134	1.5430533
15.833166240349064	2.4167926	1.5546037
15.850861820778437	2.406404	1.5512588
15.868557781632699	2.3942595	1.5473394
15.886254123358412	2.3943312	1.5473627
15.903950846402232	2.4343145	1.560229
15.921647951210897	2.464299	1.5698086
15.939345438231225	2.4892883	1.5777478
15.957043307910133	2.5198116	1.5873915
15.974741560694602	2.55911	1.5997218
15.992440197031714	2.5179396	1.5868016
16.01013921736862	2.493927	1.5792172
16.02783862215259	2.4515147	1.5657314
16.045538411830933	2.4318583	1.5594417
16.06323858685107	2.4323702	1.5596058
16.080939147660512	2.4111156	1.5527767
16.09864009470684	2.4049969	1.5508052
16.11634142843774	2.422136	1.5563214
16.134043149300954	2.4515896	1.5657552
16.15174525774433	2.417979	1.5549852
16.169447754215817	2.3857925	1.5446011
16.18715063916342	2.3786588	1.5422901
16.204853913035244	2.3815136	1.5432154
16.222557576279478	2.4076657	1.5516654
16.240261629344403	22.389963	4.7318034
16.257966072678386	42.935963	6.552554
16.275670906729868	38.060875	6.1693497
16.293376131947387	2.4992871	1.5809134
16.31108174877957	2.5345645	1.5920316
16.328787757675133	2.546969	1.5959226
16.34649415908287	2.527806	1.5899075
16.364200953451657	2.5370204	1.5928026
16.38190814123048	2.5503542	1.5969828
16.39961572286839	2.5807493	1.6064711
16.41732369881455	2.6321726	1.6223972
16.43503206951817	2.6387482	1.6244224
16.45274083542859	2.6829698	1.6379774
16.47044999699522	2.7693748	1.6641439
16.488159554667558	2.8502276	1.6882617
16.505869508895184	2.8978887	1.7023187
16.523579860127786	2.9301405	1.7117653
16.541290608815117	2.9706142	1.723547
16.559001755407035	3.0213566	1.738205
16.57671330035348	3.1371193	1.7711915
16.59442524410448	3.2427936	1.8007758
16.61213758711015	3.3661723	1.8347131
16.629850329820705	3.39428	1.8423572
16.647563472686436	3.4078422	1.8460342
16.665277016157724	3.3653557	1.8344905
16.682990960685053	3.3577619	1.8324196
16.70070530671898	3.4195645	1.8492064
16.718420054710155	3.4362946	1.8537245
16.736135205109335	3.4570541	1.8593155
16.753850758367335	3.4917023	1.8686098
16.771566714935087	3.5880084	1.8942039
16.789283075263597	3.6986017	1.9231749
16.80699983980398	3.7556255	1.9379436
16.82471700900741	3.7880406	1.946289
16.84243458332518	3.8187757	1.9541688
16.860152563208665	3.8805141	1.969902
16.87787094910932	3.94699	1.9867033
16.89558974147871	4.065024	2.0161905
16.913308940768466	4.1217413	2.0302072
16.931028547430333	4.1556883	2.0385506
16.94874856191613	4.160712	2.0397823
16.966468984677785	4.206286	2.050923
16.98418981616729	4.297277	2.0729876
17.00191105683676	4.3660126	2.0895007
17.019632707138374	4.3980327	2.0971487
17.03735476752442	4.400133	2.0976493
17.05507723844728	4.4474115	2.1088886
17.072800120359403	4.461075	2.1121256
17.090523413713353	4.4902477	2.1190205
17.108247118961785	4.5350804	2.1295729
17.125971236557437	4.592973	2.1431222
17.143695766953133	4.637095	2.1533916
17.161420710601806	4.658304	2.1583104
17.179146067956477	4.6690035	2.1607876
17.19687183947025	4.626283	2.1508796
17.21459802559634	4.5551453	2.1342785
17.232324626788028	4.5314755	2.1287262
17.25005164349871	4.486241	2.118075
17.267779076181863	4.454555	2.1105816
17.285506925291074	4.4872	2.1183012
17.30323519127999	4.5226617	2.126655
17.320963874602384	4.570405	2.1378505
17.33869297571211	4.5694394	2.1376247
17.356422495063114	4.5419245	2.131179
17.37415243310944	4.5151186	2.1248808
17.391882790305218	4.46588	2.113263
17.40961356710468	4.3975983	2.0970452
17.42734476396215	4.4085917	2.0996647
17.445076381332044	4.5167828	2.1252725
17.462808419668868	4.5990787	2.1445463
17.48054087942723	4.698437	2.167588
17.498273761061835	4.815916	2.1945195
17.51600706502747	5.1586432	2.2712648
17.533740791779024	5.774432	2.403005
17.551474941771485	6.728043	2.5938473
17.56920951545993	8.582592	2.9296062
17.586944513299528	9.819856	3.1336648
17.60467993574556	12.543819	3.5417254
17.622415783253373	15.179662	3.8961086
17.64015205627843	17.870762	4.227382
17.657888755276293	20.090097	4.4821978
17.675625880702604	21.431572	4.6294246
17.69336343301311	20.051268	4.4778643
17.71110141266366	18.062344	4.2499814
17.728839820110178	15.395096	3.9236584
17.746578655808705	12.363981	3.5162454
17.764317920215372	10.228011	3.198126
17.7820576137864	8.604563	2.9333534
17.79979773697811	7.1892233	2.6812727
17.81753829024692	5.960432	2.4413996
17.835279274049356	5.1169877	2.262076
17.85302068884201	4.438227	2.10671
17.870762535081607	4.044028	2.0109768
17.888504813224934	3.8397467	1.9595271
17.90624752372891	3.6845486	1.9195178
17.923990667050536	3.5973794	1.896676
17.941734243646895	3.5198271	1.8761202
17.959478253975185	3.433037	1.8528457
17.9772226984927	3.3579452	1.8324697
17.994967577656833	3.3356159	1.8263669
18.01271289192506	3.3242738	1.8232591
18.030458641754965	3.313472	1.8202945
18.04820482760425	3.2775276	1.8103943
18.06595144993067	3.2838387	1.8121365
18.083698509192125	3.2248096	1.7957755
18.101446005846576	3.1963274	1.7878276
18.119193940352105	3.1695707	1.7803289
18.136942313166887	3.184153	1.7844195
18.1546911247492	3.190344	1.7861534
18.1724403755574	3.1581666	1.7771231
18.19019006604997	3.1420338	1.7725782
18.207940196685467	3.1321263	1.7697815
18.225690767922575	3.1055412	1.7622546
18.243441780220046	3.0862901	1.7567841
18.261193234036764	3.042376	1.7442409
18.278945129831676	3.004413	1.7333243
18.29669746806386	2.9704332	1.7234945
18.314450249192483	3.0024848	1.7327679
18.3322034736768	3.0706606	1.7523301
18.349957141976184	3.087263	1.7570609
18.3677112545501	3.0644436	1.7505553
18.385465811858108	3.0366995	1.7426128
18.403220814359884	3.0447567	1.7449231
18.420976262515172	3.0644715	1.7505631
18.43873215678387	3.077155	1.7541822
18.456488497625923	3.122978	1.767195
18.474245285501407	3.1940715	1.7871965
18.492002520870486	3.2715888	1.8087534
18.50976020419343	3.3154738	1.8208443
18.527518335930615	3.6003454	1.8974576
18.545276916542516	4.2172894	2.0536041
18.563035946489688	4.422641	2.1030076
18.580795426232832	4.836369	2.1991746
18.598555356232698	4.695901	2.1670027
18.616315736950185	4.976459	2.2307978
18.63407656884626	4.6264634	2.1509216
18.65183785238201	4.8284125	2.1973648
18.669599588018617	4.6505356	2.15651
18.68736177621737	4.6176705	2.1488767
18.705124417439652	4.588832	2.142156
18.72288751214696	4.4091744	2.0998034
18.740651060800886	4.534143	2.1293528
18.758415063863115	4.268986	2.0661526
18.77617952179546	4.401899	2.0980704
18.793944435059814	4.1639266	2.0405703
18.811709804118184	4.1478314	2.0366225
18.829475629432675	4.126544	2.0313897
18.8472419114655	3.9462025	1.9865052
18.86500865067897	4.060986	2.015189
18.88277584753551	3.77253	1.9423002
18.90054350249763	3.7391236	1.9336814
18.918311616027957	3.39222	1.8417981
18.936080188589226	3.2829714	1.8118972
18.953849220644265	2.9977455	1.7313999
18.971618712656007	2.8504536	1.6883286
18.9893886650875	2.801311	1.6737118
19.007159078401887	7.970601	2.8232253
19.024929953062408	32.82223	5.7290688
19.042701289532435	32.782467	5.7255974
19.060473088275405	25.326984	5.0325923
19.07824534975489	2.6020837	1.6130975
19.096018074434568	2.5920372	1.6099805
19.113791262778197	2.5664735	1.6020217
19.13156491524966	2.5447433	1.5952252
19.149339032312945	2.5773263	1.6054053
19.167113614432136	2.572136	1.603788
19.184888662071433	2.5587668	1.5996146
19.202664175695123	2.5440817	1.5950178
19.220440155767623	2.508599	1.5838557
19.238216602753447	2.4538682	1.5664828
19.2559935171172	2.4184473	1.5551357
19.27377089932361	2.452524	1.5660536
19.291548749837514	2.4745116	1.573058
19.309327069123835	2.4935534	1.5790989
19.32710585764763	2.4954884	1.5797114
19.344885115874032	2.5237727	1.5886387
19.362664844268313	2.523881	1.5886728
19.380445043295822	2.519159	1.5871859
19.39822571342203	2.4972003	1.5802532
19.41600685511252	2.481986	1.5754321
19.43378846883297	2.4553437	1.5669537
19.451570555049173	2.461732	1.5689907
19.469353114227037	2.4951353	1.5795997
19.48713614683254	2.5248804	1.5889872
19.50491965333182	2.5385377	1.5932789
19.52270363419109	2.519223	1.587206
19.540488089876686	2.5337315	1.5917699
19.55827302085503	2.514435	1.585697
19.576058427592674	2.5005705	1.5813192
19.593844310556282	2.4456751	1.5638654
19.611630670212598	2.4488897	1.5648929
19.629417507028506	2.4384618	1.5615575
19.64720482147098	2.4668546	1.5706223
19.6649926140071	2.4559114	1.5671347
19.682780885104084	2.4664648	1.5704982
19.70056963522921	2.4564998	1.5673225
19.718358864849908	2.4394937	1.5618879
19.7361485744337	2.4587502	1.5680403
19.753938764448215	2.504498	1.5825605
19.771729435361202	2.5198545	1.587405
19.789520587640506	2.4781468	1.574213
19.807312221754092	2.4647772	1.569961
19.825104338170043	2.483006	1.5757557
19.842896937356517	2.4912913	1.5783825
19.860690019781824	2.4938064	1.579179
19.87848358591436	2.4904895	1.5781285
19.896277636222635	2.4733648	1.5726935
19.914072171175278	2.4827716	1.5756813
19.931867191241015	2.462522	1.5692425
19.94966269688869	2.4728673	1.5725353
19.967458688587264	2.4255197	1.557408
19.985255166805807	2.4068656	1.5514076
20.00305213201348	2.386376	1.5447899
20.020849584679578	2.4070346	1.551462
20.038647525273507	2.420727	1.5558686
20.05644595426477	2.4384027	1.5615386
20.07424487212299	2.4513295	1.5656722
20.092044279317903	2.4540558	1.5665426
20.109844176319353	2.4321172	1.5595247
20.127644563597304	2.4010534	1.5495332
20.145445441621817	2.4024777	1.5499928
20.16324681086307	2.3996077	1.5490667
20.181048671791373	2.4009557	1.5495018
20.198851024877122	2.3921013	1.546642
20.216653870590836	2.386181	1.5447268
20.234457209403146	2.3759737	1.5414194
20.252261041784802	2.3398752	1.5296651
20.270065368206662	2.326842	1.525399
20.287870189139685	2.3206944	1.5233825
20.305675505054968	2.365286	1.5379487
20.323481316423702	2.3792164	1.5424709
20.341287623717207	2.3442974	1.5311098
20.359094427406884	2.3235643	1.5243242
20.376901727964288	2.3050492	1.5182388
20.39470952586107	2.3539917	1.5342724
20.41251782156899	2.3746138	1.5409782
20.430326615559935	2.3422167	1.5304302
20.448135908305886	2.285759	1.5118726
20.465945700278965	2.2761497	1.5086914
20.483755991951384	2.3245509	1.5246478
20.50156678379548	2.302937	1.5175431
20.519378076283708	2.281884	1.5105906
20.537189869888635	2.2608616	1.5036162
20.55500216508294	2.2923486	1.5140504
20.572814962339415	2.2873216	1.5123893
20.59062826213098	2.3028984	1.5175303
20.60844206493066	2.3227298	1.5240505
20.626256371211593	2.302688	1.517461
20.644071181447032	2.300598	1.5167722
20.66188649611036	2.2925506	1.5141171
20.67970231567506	2.3036	1.5177616
20.697518640614742	2.3143892	1.5213116
20.715335471403122	2.3580258	1.5355865
20.73315280851404	2.383514	1.5438633
20.750970652421447	2.3516448	1.5335073
20.768789003599412	2.293268	1.514354
20.786607862522136	2.2896488	1.5131586
20.8044272296639	2.2726498	1.507531
20.82224710549913	2.2604961	1.5034946
20.84006749050237	2.2403283	1.4967726
20.857888385148268	3.7811227	1.9445109
20.8757097899116	45.891796	6.7743483
20.893531705267254	64.78346	8.048818
20.911354131690224	83.8197	9.15531
20.92917706965566	69.04322	8.309225
20.94700051963877	50.08455	7.077044
20.96482448211493	29.345913	5.4171867
20.982648957559622	4.1084356	2.0269277
21.00047394644843	2.2338643	1.4946117
21.01829944925707	2.214855	1.4882389
21.036125466461375	2.2191684	1.4896873
21.053951998537297	2.182517	1.4773345
21.071779045960906	2.1510093	1.466632
21.089606609208378	2.1034362	1.4503227
21.10743468875603	2.1354587	1.4613209
21.12526328508028	2.1484516	1.4657598
21.143092398657675	2.1838286	1.4777783
21.16092202996488	2.2303338	1.4934303
21.17875217947867	2.230012	1.4933225
21.19658284767596	2.2007065	1.4834778
21.21441403503377	2.1534956	1.4674793
21.232245742029225	2.1352224	1.46124
21.2500779691396	2.1370876	1.4618781
21.26791071684227	2.1395478	1.4627193
21.28574398561475	2.119635	1.4558966
21.30357777593465	2.1506615	1.4665134
21.321412088279704	2.155725	1.4682387
21.339246923127792	2.141872	1.4635136
21.357082280956888	2.0827224	1.443164
21.3749181622451	2.0619328	1.4359431
21.392754567470647	2.053652	1.4330568
21.41059149711187	2.069832	1.4386911
21.42842895164726	2.0513742	1.432262
21.446266931555378	2.061023	1.4356264
21.464105437314945	2.0740948	1.4401718
21.481944469404798	2.0813334	1.4426827
21.49978402830388	2.0893893	1.445472
21.51762411449127	2.0852542	1.4440409
21.53546472844617	2.0833995	1.4433986
21.553305870647876	2.1093488	1.4523597
21.571147541575865	2.0858226	1.4442377
21.58898974170967	2.0465477	1.430576
21.60683247152899	2.0212364	1.4217019
21.62467573151363	2.047384	1.4308683
21.642519522143523	2.0520043	1.4324819
21.660363843898722	2.0380251	1.4275942
21.6782086972594	2.0502038	1.4318533
21.696054082705864	2.0474958	1.4309074
21.713900000718535	2.0301235	1.424824
21.73174645177795	2.0308015	1.425062
21.749593436364794	2.0344853	1.4263538
21.767440954959845	2.0130224	1.4188102
21.785289008044032	2.015427	1.4196573
21.803137596098388	2.0175555	1.4204068
21.820986719604086	2.0083835	1.4171745
21.838836379042412	1.9839127	1.4085144
21.85668657489478	1.9716804	1.4041654
21.87453730764273	1.9827296	1.4080943
21.892388577767914	1.9831358	1.4082385
21.91024038575213	1.9786477	1.4066441
21.928092732077285	1.999888	1.414174
21.945945617225426	1.9882803	1.410064
21.963799041678694	1.9760892	1.4057344
21.981653005919398	31.26708	5.591697
21.999507510429943	78.05967	8.835138
22.01736255569286	73.02085	8.545224
22.035218142190818	4.1509776	2.0373948
22.05307427040661	1.9709502	1.4039054
22.07093094082315	1.9376113	1.3919811
22.088788153923474	1.9616973	1.400606
22.106645910190746	1.9838172	1.4084804
22.12450421010827	1.9852258	1.4089804
22.142363054159464	1.9646186	1.4016485
22.16022244282787	1.9575953	1.399141
22.178082376597164	1.9383259	1.3922378
22.195942855951145	1.9541876	1.3979226
22.213803881373742	1.9803329	1.407243
22.231665453349002	1.9930487	1.4117538
22.24952757236111	1.9661703	1.402202
22.26739023889438	1.9389379	1.3924575
22.28525345343323	1.9374938	1.3919388
22.30311721646225	1.928752	1.3887951
22.320981528466113	1.9149344	1.3838116
22.33884638992964	1.9027814	1.3794134
22.356711801337788	1.8933152	1.3759779
22.37457776317561	1.917817	1.3848526
22.392444275928337	1.9363962	1.3915446
22.410311340081282	1.9492079	1.3961403
22.428178956119904	1.9300491	1.3892621
22.446047124529805	1.9390945	1.3925138
22.46391584579669	1.956067	1.3985946
22.481785120406414	1.9765357	1.4058932
22.49965494884496	1.9708158	1.4038575
22.51752533159841	1.9589533	1.3996261
22.53539626915302	1.9370639	1.3917844
22.553267761995137	1.9268037	1.3880936
22.571139810611264	1.9426603	1.3937935
22.589012415488025	1.9332504	1.3904138
22.60688557711216	1.9320632	1.3899868
22.624759295970566	1.9397295	1.3927417
22.642633572550263	1.9764633	1.4058675
22.660508407338362	1.9766135	1.4059209
22.67838380082217	1.938237	1.3922058
22.696259753489077	1.9220641	1.3863852
22.714136265826614	1.9208789	1.3859577
22.73201333832246	1.9144865	1.3836497
22.74989097146439	1.902246	1.3792193
22.76776916574035	1.8703706	1.367615
22.785647921638393	1.8585502	1.3632865
22.803527239646712	1.8780001	1.3704015
22.82140712025363	1.9252754	1.387543
22.839287563947593	1.9140917	1.383507
22.85716857121719	1.9044068	1.3800025
22.875050142551135	1.9025685	1.3793362
22.892932278438277	1.9096558	1.3819029
22.910814979367604	1.9016427	1.3790007
22.928698245828222	1.8945258	1.3764178
22.946582078309387	1.8982108	1.3777556
22.96446647730047	1.8958914	1.3769138
22.98235144329098	1.8935527	1.3760642
23.000236976770562	1.8809239	1.3714678
23.018123078229	1.8601637	1.3638781
23.03600974815619	1.8890388	1.374423
23.053896987042194	1.8973807	1.3774544
23.071784795377173	1.8993194	1.378158
23.08967317365145	1.8897585	1.3746848
23.10756212235546	1.8961542	1.3770092
23.125451641979787	1.8797935	1.3710556
23.143341733015134	1.891361	1.3752676
23.161232395952357	1.906197	1.3806509
23.179123631282426	1.9043723	1.37999
23.197015439496468	1.9110687	1.3824141
23.214907821085717	1.9422647	1.3936516
23.23280077654157	1.9334455	1.3904839
23.250694306355538	1.9570987	1.3989635
23.268588411019277	1.9511592	1.396839
23.28648309102458	1.9241658	1.387143
23.304378346863356	1.9046257	1.3800818
23.322274179027676	1.9281459	1.388577
23.340170588009723	1.939767	1.3927552
23.358067574301852	1.929132	1.388932
23.37596513839651	1.8944979	1.3764076
23.39386328078629	1.8980608	1.3777013
23.411762001963947	1.9011523	1.3788228
23.429661302422353	1.9142123	1.3835506
23.4475611826545	1.9041932	1.379925
23.46546164315356	1.9038165	1.3797885
23.48336268441279	1.9122707	1.3828487
23.501264306925638	1.8752648	1.3694031
23.51916651118564	1.8749276	1.36928
23.537069297686497	1.8854748	1.3731259
23.554972666922037	1.8907875	1.3750591
23.57287661938623	1.894494	1.3764062
23.59078115557318	1.8868508	1.373627
23.608686275977128	1.889209	1.374485
23.62659198109246	1.9003749	1.3785409
23.6444982714137	1.9109205	1.3823605
23.66240514743549	1.9220284	1.3863724
23.68031260965263	1.9119283	1.382725
23.698220658560068	1.9509895	1.3967782
23.716129294652845	1.9266391	1.3880342
23.7340385184262	1.913431	1.3832682
23.75194833037546	1.8600441	1.3638344
23.769858730996123	1.8550638	1.3620073
23.78776972078382	1.850767	1.3604289
23.80568130023431	1.8968365	1.3772569
23.823593469843495	1.9298874	1.3892039
23.841506230107424	1.9069147	1.3809109
23.859419581522275	1.8842163	1.3726676
23.87733352458438	1.8745239	1.3691325
23.89524805979019	1.8800817	1.3711607
23.913163187636318	1.9221992	1.386434
23.931078908619508	1.9617378	1.4006205
23.948995223236633	1.9982758	1.4136038
23.966912131984735	1.9672766	1.4025964
23.98482963536096	1.9653227	1.4018997
24.002747733862616	1.9645401	1.4016205
24.020666427987155	1.9887244	1.4102213
24.038585718232156	2.0458767	1.4303415
24.056505605095353	2.0764773	1.4409987
24.074426089074617	2.1332693	1.4605715
24.092347170667946	2.1246262	1.4576098
24.110268850373515	2.133729	1.4607289
24.128191128689586	2.1375222	1.4620267
24.146114006114626	2.0940714	1.4470906
24.164037483147187	2.0622907	1.4360678
24.181961560286005	2.0431678	1.4293942
24.199886238029926	2.0140047	1.4191563
24.21781151687797	2.0192173	1.4209917
24.235737397329274	2.0265794	1.4235798
24.253663879883135	2.0443013	1.4297906
24.271590965038975	1.9967963	1.4130805
24.289518653296376	1.960578	1.4002064
24.30744694515505	1.992706	1.4116324
24.32537584111486	2.0581443	1.4346234
24.34330534167581	2.0617018	1.4358628
24.361235447338046	2.060048	1.4352868
24.379166158601876	2.030674	1.4250172
24.39709747596772	2.0581644	1.4346304
24.41502939993615	2.0431805	1.4293987
24.432961931007917	2.0075476	1.4168795
24.450895069683856	1.964393	1.401568
24.468828816465	1.9243089	1.3871946
24.4867631718525	1.9051546	1.3802733
24.504698136347656	1.937021	1.391769
24.52263371045192	1.9874494	1.4097693
24.540569894666874	2.0000038	1.414215
24.558506689494266	1.9650601	1.401806
24.57644409543597	1.9212731	1.3860999
24.594382112994012	1.8977288	1.3775808
24.61232074267057	1.9189303	1.3852546
24.630259984967953	1.9692662	1.4033054
24.64819984038863	1.9646485	1.4016591
24.66614030943522	1.9434631	1.3940815
24.684081392610462	1.9036058	1.3797122
24.702023090417274	1.9395074	1.3926619
24.7199654033587	1.9806707	1.407363
24.737908331937927	2.0119488	1.4184319
24.755851876658305	1.9897735	1.4105933
24.773796038023324	1.9662652	1.4022357
24.79174081653661	2.0354767	1.4267013
24.809686212701962	2.0610394	1.4356321
24.827632227023294	2.1048613	1.450814
24.8455788600047	2.085411	1.4440953
24.8635261121504	2.1030583	1.4501926
24.88147398396475	2.0751047	1.4405224
24.899422475952303	2.142331	1.4636704
24.917371588617698	2.1407866	1.4631428
24.935321322465768	2.1676402	1.4722908
24.953271678001478	2.2197158	1.489871
24.97122265572994	2.4663901	1.5704745
24.989174256156414	2.8192081	1.6790497
25.00712647978632	3.4226644	1.8500445
25.02507932712521	4.385474	2.0941525
25.043032798678798	5.8091154	2.4102106
25.060986894952933	7.3579726	2.7125583
25.078941616453637	8.9225	2.9870553
25.096896963687055	9.857955	3.139738
25.114852937159508	10.548455	3.2478385
25.132809537377444	10.356107	3.2180905
25.150766764847468	9.635448	3.104102
25.168724620076347	8.377606	2.8944094
25.186683103570985	7.1653485	2.676817
25.204642215838426	5.822678	2.4130225
25.222601957385894	4.5910525	2.1426742
25.24056232872074	3.5192015	1.8759534
25.25852333035048	2.8270838	1.6813934
25.276484962782778	2.389803	1.5458988
25.294447226525435	2.1650038	1.4713951
25.312410122086423	2.0534782	1.4329963
25.330373649973843	2.0116928	1.4183415
25.348337810695988	1.9875299	1.4097978
25.366302604761245	1.9401866	1.3929058
25.384268032678207	1.910267	1.3821241
25.40223409495558	1.9001291	1.3784517
25.420200792102257	1.9215438	1.3861976
25.438168124627246	1.9386015	1.3923367
25.45613609303974	1.956388	1.3987094
25.474104697849057	1.9315351	1.3897967
25.492073939564698	1.904972	1.3802072
25.510043818696285	1.8687308	1.3670152
25.528014335753614	1.9052693	1.380315
25.54598549124664	1.9273918	1.3883053
25.56395728568544	1.9520426	1.3971552
25.58192971958028	1.9314082	1.3897511
25.59990279344156	1.8704357	1.3676387
25.617876507779833	1.8535309	1.3614444
25.635850863105826	1.8602487	1.3639094
25.653825859930386	1.8296106	1.352631
25.671801498764548	1.8611808	1.364251
25.68977778011949	1.8198824	1.3490301
25.707754704506524	1.8057977	1.3437997
25.725732272437153	1.8123323	1.346229
25.743710484423012	1.8627635	1.364831
25.761689340975888	1.8688159	1.3670464
25.77966884260774	1.8718566	1.3681581
25.797648989830662	1.838797	1.3560225
25.815629783156922	1.8213319	1.3495673
25.83361122309895	1.8230128	1.3501899
25.85159331016929	1.8048904	1.3434621
25.869576044880695	1.8140054	1.3468502
25.887559427746034	1.7950145	1.3397815
25.90554345927836	1.7973531	1.340654
25.92352813999086	1.8278012	1.351962
25.94151347039689	1.818019	1.3483393
25.959499451009965	1.8305377	1.3529737
25.97748608234374	1.7973014	1.3406347
25.995473364912062	1.7993597	1.3414022
26.013461299228904	1.8222611	1.3499116
26.03144988580839	1.867907	1.366714
26.04943912516483	1.9148115	1.3837671
26.067429017812675	1.8647945	1.3655748
26.085419564266537	1.7921102	1.3386972
26.103410765041186	1.7703404	1.3305414
26.12140262065155	1.8048204	1.343436
26.139395131612723	1.8423957	1.3573488
26.157388298439948	1.886516	1.373505
26.17538212164861	1.8425727	1.357414
26.193376601754295	1.7989885	1.3412638
26.211371739272714	1.8422793	1.3573059
26.229367534719746	1.9068846	1.3808999
26.247363988611433	1.8789382	1.3707436
26.26536110146397	1.8126469	1.3463458
26.283358873793727	1.8156807	1.347472
26.301357306117204	1.8328501	1.353828
26.319356398951104	1.8237967	1.3504802
26.33735615281224	1.7932317	1.339116
26.35535656821762	1.7632953	1.3278913
26.373357645684404	1.7885181	1.3373549
26.39135938572991	1.7965013	1.3403362
26.409361788871614	1.7979795	1.3408875
26.427364855627165	1.8132023	1.346552
26.445368586514352	1.8280487	1.3520535
26.46337298205115	1.8133045	1.3465899
26.48137804275568	1.7721742	1.3312304
26.499383769146217	1.7899005	1.3378717
26.517390161741215	1.8183315	1.3484552
26.53539722105928	1.8199595	1.3490587
26.553404947619182	1.7728226	1.3314738
26.571413341939856	1.7815522	1.334748
26.589422404540397	1.8192412	1.3487924
26.60743213594006	1.8147998	1.3471451
26.62544253665827	1.81985	1.3490181
26.64345360721459	1.7923974	1.3388045
26.66146534812879	1.845959	1.3586607
26.679477759920758	1.8994768	1.3782151
26.69749084311057	1.883612	1.3724475
26.71550459821847	1.8240745	1.3505831
26.733519025764842	1.7950761	1.3398045
26.751534126270258	1.8022238	1.3424693
26.769549900255434	1.8243152	1.3506721
26.787566348241267	1.846184	1.3587435
26.80558347074881	1.8234786	1.3503624
26.823601268299267	1.7822231	1.3349993
26.841619741414036	1.8070617	1.34427
26.85963889061465	1.7868283	1.336723
26.877658716422832	1.7876906	1.3370454
26.89567921936045	1.7907714	1.3381971
26.913700399949544	1.8415129	1.3570236
26.93172225871233	1.8186274	1.348565
26.949744796171174	1.7906458	1.3381501
26.967768012848605	1.7872645	1.3368862
26.98579190926733	1.7800533	1.3341863
27.003816485950225	1.7931435	1.3390831
27.021841743420318	1.7779056	1.3333813
27.039867682200814	1.7433786	1.3203707
27.057894302815072	1.7086434	1.3071508
27.07592160578664	1.7583992	1.3260465
27.0939495916392	1.7882141	1.3372412
27.111978260896635	1.7665657	1.3291222
27.13000761408296	1.7733757	1.3316816
27.148037651722397	1.8162484	1.3476826
27.166068374339304	1.8423663	1.357338
27.184099782458215	1.823294	1.3502941
27.20213187660384	1.8060179	1.3438816
27.22016465730105	1.8052872	1.3436098
27.23819812507487	1.829348	1.3525339
27.256232280450533	1.839275	1.3561988
27.274267123953383	1.8150436	1.3472356
27.292302656108987	1.7809583	1.3345255
27.31033887744306	1.7860867	1.3364456
27.32837578848146	1.7879133	1.3371288
27.34641338975026	1.7694937	1.3302232
27.364451681775673	1.7830839	1.3353217
27.382490665084074	1.8185102	1.3485215
27.400530340202046	1.7895715	1.3377486
27.41857070765629	1.7626255	1.3276391
27.436611767973726	1.8084587	1.3447895
27.454653521681404	1.8524152	1.3610346
27.472695969306564	1.8482782	1.359514
27.490739111376627	1.8001704	1.3417042
27.508782948419153	1.7997866	1.3415612
27.526827480961902	1.8051653	1.3435644
27.54487270953279	1.814835	1.3471581
27.562918634659898	1.8187158	1.3485978
27.580965256871508	1.8488663	1.3597302
27.599012576696026	1.8604668	1.3639894
27.617060594662068	1.8485433	1.3596114
27.63510931129842	1.798876	1.3412218
27.65315872713401	1.8004444	1.3418064
27.67120884269797	1.8147054	1.34711
27.68925965851958	1.8171171	1.3480048
27.707311175128307	1.8228289	1.3501219
27.725363393053787	1.8768135	1.3699684
27.74341631282583	1.8974419	1.3774766
27.7614699349744	1.8756301	1.3695365
27.77952426002968	2.0504906	1.4319534
27.797579288521973	2.0962245	1.4478345
27.815635020981784	2.5955331	1.6110659
27.83369145793979	2.691698	1.6406395
27.85174859992682	2.5375571	1.5929712
27.869806447473923	2.388179	1.5453734
27.887865001112267	2.0339227	1.4261566
27.905924261373233	1.9072922	1.3810475
27.92398422878836	1.8935843	1.3760756
27.94204490388936	1.877243	1.3701252
27.96010628720813	1.8491888	1.3598489
27.978168379276728	1.8326286	1.3537462
27.9962311806274	1.8483044	1.3595235
28.014294691792568	1.856738	1.3626218
28.0323589133048	1.8364067	1.3551408
28.050423845696887	1.7787371	1.333693
28.068489489501758	1.7617544	1.3273109
28.086555845252523	1.8207057	1.3493353
28.104622913482487	1.8995705	1.378249
28.122690694725115	1.9473357	1.3954697
28.14075918951405	1.9827359	1.4080966
28.15882839838312	2.0072103	1.4167604
28.176898321866304	1.9631565	1.4011269
28.1949689604978	1.9353136	1.3911555
28.213040314811945	1.9490163	1.3960718
28.23111238534327	1.9409484	1.3931792
28.249185172626493	1.8931473	1.375917
28.267258677196473	1.9004992	1.3785859
28.285332899588294	1.950904	1.3967477
28.303407840337172	1.988568	1.4101659
28.321483499978545	1.9704713	1.4037348
28.33955987904799	1.9409057	1.3931639
28.357636978081285	1.9307748	1.3895233
28.37571479761439	1.9552045	1.3982862
28.393793338183425	2.0078268	1.416978
28.41187260032469	2.0221715	1.4220308
28.429952584574686	2.0046513	1.4158571
28.448033291470065	2.0061917	1.416401
28.46611472154769	1.9592464	1.3997308
28.484196875344566	1.9718766	1.4042352
28.502279753397914	1.9902995	1.4107797
28.52036335624511	1.9903919	1.4108125
28.538447684423716	1.9884918	1.410139
28.556532738471482	1.9717892	1.4042041
28.574618518926325	2.0016868	1.4148098
28.59270502632635	1.9947268	1.4123479
28.61079226120985	1.9839995	1.4085451
28.628880224115274	1.9594928	1.3998189
28.646968915581287	2.0354838	1.4267038
28.66505833614671	2.0978198	1.4483852
28.68314848635055	2.117205	1.4550618
28.701239366732004	2.1009648	1.4494705
28.71933097783044	2.0439517	1.4296684
28.737423320185403	1.9795038	1.4069483
28.75551639433665	1.973458	1.4047983
28.773610200824074	2.0628724	1.4362704
28.791704740187793	2.1729794	1.4741029
28.80980001296809	2.1328998	1.460445
28.827896019705413	2.0941625	1.4471221
28.845992760940433	2.121718	1.4566118
28.86409023721397	2.1948724	1.4815102
28.88218844906704	2.2065098	1.4854325
28.900287397040845	2.2315323	1.4938314
28.918387081676755	2.248113	1.4993708
28.936487503516343	2.3014598	1.5170563
28.954588663101365	2.3390322	1.5293895
28.97269056097374	2.3113348	1.5203075
28.990793197675597	2.276973	1.5089642
29.00889657374923	2.3192663	1.5229138
29.027000689737125	2.3428867	1.5306491
29.04510554618196	2.3845606	1.5442022
29.06321114362659	2.4034843	1.5503175
29.08131748261405	2.3991816	1.5489292
29.099424563687567	2.439429	1.5618671
29.11753238739057	2.4686432	1.5711917
29.13564095426663	2.4616554	1.5689664
29.15375026485954	2.5032883	1.5821784
29.171860319713275	2.583358	1.6072828
29.18997111937199	2.6449368	1.6263262
29.20808266438002	2.6965804	1.6421268
29.226194955281898	2.7651277	1.6628673
29.244307992622335	2.8095136	1.6761603
29.26242177694624	2.8538713	1.6893405
29.2805363087987	2.9153168	1.7074299
29.29865158872498	2.9282358	1.7112088
29.316767617270557	2.950013	1.7175602
29.334884394981064	2.9612763	1.7208359
29.353001922402367	2.9491563	1.7173108
29.37112020008047	3.031255	1.74105
29.389239228561596	3.1746943	1.7817671
29.407359008392152	3.3852553	1.8399063
29.42547954011872	3.701004	1.9237994
29.44360082428809	4.1311073	2.0325127
29.46172286144722	5.007544	2.2377543
29.479845652143283	6.7029185	2.5889995
29.497969196923606	9.426643	3.070284
29.516093496335728	13.341165	3.652556
29.5342185509274	17.029327	4.1266603
29.55234436124651	20.241346	4.499038
29.570470927841175	21.909515	4.68076
29.588598251259686	21.708717	4.659261
29.60672633205055	19.760042	4.4452267
29.624855170762405	16.425627	4.052854
29.642984767944146	12.938328	3.5969887
29.66111512414481	9.600137	3.0984087
29.67924623991366	7.075231	2.6599307
29.697378115800138	5.342735	2.3114357
29.71551075235387	4.353025	2.0863905
29.733644150124675	3.7989693	1.9490944
29.751778309662576	3.5464284	1.8831964
29.769913231517766	3.4642286	1.8612438
29.78804891624066	3.358182	1.8325343
29.806185364381818	3.3927968	1.8419546
29.82432257649206	3.378987	1.8382021
29.842460553122333	3.3422043	1.8281697
29.86059929482382	3.3306782	1.8250146
29.878738802147872	3.3827848	1.8392348
29.896879075646048	3.362219	1.8336354
29.915020115870114	3.3526206	1.8310163
29.933161923371976	3.3002188	1.8166504
29.951304498703777	3.3015957	1.8170294
29.969447842417857	3.2434468	1.8009572
29.987591955066733	3.18369	1.7842898
30.005736837203123	3.155824	1.7764639
30.023882489379943	3.179578	1.7831371
30.04202891215028	3.1772153	1.7824745
30.060176106067455	3.2230747	1.7952924
30.078324071684946	3.1865716	1.7850971
30.09647280955646	3.1606154	1.777812
30.114622320235863	3.1890943	1.7858036
30.132772604277257	3.2343142	1.79842
30.1509236622349	3.2045178	1.7901167
30.16907549466328	3.0738218	1.7532318
30.18722810211705	3.0547538	1.7477854
30.205381485151097	3.038769	1.7432065
30.22353564432045	2.9750915	1.7248453
30.241690580180403	2.976134	1.7251476
30.25984629328638	3.0396748	1.7434663
30.278002784194037	3.0168655	1.7369126
30.296160053459246	2.974422	1.7246512
30.314318101638033	2.9920356	1.7297502
30.332476929286646	3.0130308	1.7358084
30.35063653696153	3.0244262	1.7390877
30.368796925219307	2.991224	1.7295156
30.386958094616844	2.9094973	1.7057248
30.40512004571115	2.8416393	1.6857163
30.423282779059463	2.8819668	1.6976357
30.441446295219233	2.8984933	1.7024962
30.459610594748067	2.8150694	1.6778169
30.47777567820382	2.8224902	1.6800269
30.495941546144504	2.854798	1.6896148
30.51410819912835	2.8970041	1.7020588
30.532275637713795	2.867029	1.6932303
30.55044386245946	2.8825161	1.6977974
30.56861287392416	2.9034982	1.7039654
30.586782672666956	2.8770907	1.6961989
30.604953259247047	2.795664	1.6720239
30.623124634223885	2.745909	1.6570785
30.641296798157075	2.777444	1.6665665
30.659469751606462	2.7541513	1.6595635
30.677643495132074	2.7557201	1.6600362
30.695818029294152	2.7763565	1.6662402
30.713993354653116	2.7776248	1.6666207
30.73216947176962	2.7423697	1.6560102
30.75034638120448	2.7564588	1.6602587
30.768524083518756	2.7617438	1.6618495
30.786702579273673	2.7458844	1.657071
30.80488186903069	2.8452072	1.6867743
30.82306195335144	3.010799	1.7351654
30.841242832797782	3.3473368	1.8295728
30.85942450793176	3.6893766	1.920775
30.877606979315637	3.9718397	1.9929475
30.895790247511883	4.308274	2.075638
30.913974313083134	4.716918	2.1718466
30.932159176592283	5.175063	2.2748766
30.95034483860237	5.5955567	2.3654928
30.968531299676698	5.5784187	2.3618677
30.98671856037873	5.2296457	2.2868419
31.00490662127215	4.7767224	2.1855714
31.023095482920848	4.3783517	2.092451
31.04128514588892	3.8349242	1.9582963
31.059475610740662	3.2631524	1.8064197
31.07766687804056	2.8514812	1.688633
31.09585894835335	2.6303754	1.6218432
31.11405182224393	2.5419586	1.5943521
31.132245500277417	2.4954457	1.579698
31.15043998301914	2.4600613	1.5684583
31.168635271034628	2.3786278	1.5422801
31.18683136488964	2.3017323	1.5171461
31.20502826515008	2.3482525	1.5324008
31.223225972382135	2.4030778	1.5501864
31.241424487152155	2.402532	1.5500103
31.259623810026692	2.366831	1.5384508
31.27782394157253	2.3340724	1.5277671
31.296024882356644	2.3843355	1.5441294
31.314226632946237	2.443016	1.5630151
31.332429193908684	2.5033503	1.5821979
31.350632565811598	2.5124073	1.5850575
31.368836749222787	2.508762	1.5839071
31.387041744710295	2.5328112	1.5914809
31.40524755284232	2.5523708	1.597614
31.423454174187317	2.5361013	1.5925142
31.441661609313922	2.5101259	1.5843377
31.459869858791002	2.4338167	1.5600694
31.478078923187628	2.4258487	1.5575136
31.496288803073064	2.369335	1.5392644
31.514499499016807	2.3653007	1.5379534
31.532711011588546	2.3477437	1.5322349
31.550923341358178	2.3116536	1.5204123
31.56913648889584	2.3073056	1.5189818
31.587350454771844	2.309066	1.5195612
31.605565239556732	2.309247	1.5196207
31.62378084382127	2.334279	1.5278348
31.641997268136382	2.3044631	1.5180458
31.660214513073274	2.2554746	1.5018238
31.67843257920331	2.2166693	1.4888483
31.6966514670981	2.2289999	1.4929836
31.71487117732944	2.261033	1.5036732
31.733091710469346	2.2467008	1.4988998
31.751313067090052	2.2707655	1.5069059
31.769535247764008	2.3612072	1.536622
31.787758253063878	2.367317	1.5386088
31.805982083562526	2.2914093	1.5137402
31.824206739833024	2.245343	1.4984468
31.84243222244869	2.2483318	1.4994438
31.860658531983013	2.2565548	1.5021833
31.878885669009737	2.2481265	1.4993753
31.897113634102784	2.2535186	1.5011724
31.91534242783632	2.2338574	1.4946095
31.933572050784694	2.2325253	1.4941638
31.951802503522508	2.2596433	1.503211
31.970033786624548	2.314852	1.5214638
31.988265900665834	2.3085816	1.5194017
32.006498846221575	2.2636313	1.5045369
32.02473262386724	2.1936734	1.4811054
32.04296723417845	2.1802082	1.4765528
32.0612026777311	2.158076	1.4690392
32.07943895510129	2.13969	1.4627678
32.097676066865304	2.1464152	1.4650649
32.115914013599685	2.111428	1.4530754
32.13415279588115	2.1330454	1.4604949
32.152392414286666	2.1565363	1.468515
32.1706328693934	2.1649225	1.4713676
32.18887416177875	2.1109881	1.452924
32.20711629202032	2.1234224	1.4571967
32.225359260695924	2.1603284	1.4698056
32.243603068383614	2.1723154	1.4738777
32.26184771566166	2.1034315	1.4503212
32.28009320310852	2.0622723	1.4360614
32.2983395313029	2.0656698	1.4372438
32.31658670082372	2.0431886	1.4294015
32.33483471225012	2.02195	1.4219528
32.35308356616143	2.0607088	1.435517
32.371333263137245	2.104321	1.4506278
32.38958380375734	2.0750182	1.4404924
32.407835188601744	2.0207407	1.4215276
32.42608741825067	1.9871302	1.409656
32.444340493284585	1.977111	1.4060978
32.46259441428416	2.0625951	1.4361738
32.48084918183028	2.1745648	1.4746406
32.49910479650405	2.2169197	1.4889324
32.51736125888683	2.1401527	1.462926
32.53561856956014	2.0661635	1.4374156
32.5538767291058	2.0433679	1.4294642
32.572135738105764	2.0986583	1.4486747
32.59039559714228	2.1462777	1.465018
32.608656306797776	2.077607	1.4413906
32.62691786765491	1.9649432	1.4017643
32.645180280296586	1.9414787	1.3933696
32.663443545305896	2.0397425	1.4281955
32.68170766326619	2.0960095	1.4477601
32.69997263476099	1.9751954	1.4054165
32.7182384603741	1.892642	1.3757333
32.7365051406895	2.0435221	1.4295181
32.75477267629144	2.07715	1.4412322
32.77304106776434	1.9259137	1.3877729
32.79131031569289	1.8290585	1.3524269
32.809580420661966	1.945937	1.3949685
32.827851383256714	2.0645185	1.4368433
32.84612320406245	2.1180215	1.4553424
32.86439588366476	2.1342103	1.4608936
32.88266942264945	2.0642984	1.4367666
32.9009438216025	1.9609312	1.4003326
32.9192190811102	1.9481394	1.3957577
32.937495201758985	1.9834807	1.408361
32.95577218413556	1.9555626	1.3984143
32.974050028826866	1.9450612	1.3946545
32.992328736420035	2.0325441	1.4256732
33.010608307502444	2.0898936	1.4456464
33.02888874266169	2.1333587	1.4606022
33.047170042485604	2.0749416	1.4404658
33.06545220756225	1.9992102	1.4139344
33.083735238479896	2.0147986	1.419436
33.10201913582707	2.0433874	1.429471
33.12030390019248	1.998205	1.4135787
33.138589532165135	1.9778129	1.4063474
33.15687603233419	1.9782645	1.4065078
33.17516340128909	1.9962685	1.4128937
33.19345163961947	1.9973412	1.4132732
33.211740747915215	1.9687704	1.4031287
33.23003072676643	1.9042085	1.3799306
33.248321576763466	1.8826865	1.3721102
33.266613298496885	1.9178611	1.3848686
33.28490589255747	1.9201896	1.385709
33.30319935953626	1.8829851	1.3722191
33.32149370002451	1.8303399	1.3529005
33.339788914613706	1.9331836	1.3903897
33.358085003895575	1.9873598	1.4097375
33.376381968462034	2.0543494	1.4333001
33.39467980890529	2.0017915	1.4148468
33.41297852581774	1.9588332	1.3995832
33.43127811979204	1.906319	1.3806951
33.44957859142105	1.8580279	1.3630949
33.467879941297866	1.831769	1.3534286
33.486182170015844	1.8818526	1.3718064
33.50448527816853	1.919769	1.3855573
33.522789266349754	2.034335	1.4263011
33.541094135153514	2.0204465	1.4214242
33.55939988517411	1.8700018	1.36748
33.57770651700602	1.8314523	1.3533115
33.59601403124398	1.8273363	1.3517901
33.61432242848296	1.9887111	1.4102167
33.632631709318154	2.0654538	1.4371687
33.650941874344994	1.9745908	1.4052013
33.66925292415916	1.8696424	1.3673487
33.68756485935654	1.9304194	1.3893954
33.70587768053328	1.84482	1.3582416
33.724191388285746	1.8077528	1.344527
33.74250598321054	1.8768167	1.3699696
33.760821465904506	1.9395058	1.3926615
33.77913783696474	1.9448578	1.3945816
33.79745509698852	2.0108697	1.4180514
33.815773246573414	1.9991636	1.4139178
33.8340922863172	1.9780158	1.4064195
33.852412216817896	1.963192	1.4011395
33.87073303867377	2.039687	1.428176
33.889054752483304	2.0092223	1.4174703
33.907377358845245	1.9401194	1.3928816
33.92570085835853	1.896792	1.3772408
33.94402525162239	1.9151547	1.3838911
33.96235053923627	1.9923738	1.4115148
33.980676721799824	1.9889038	1.410285
33.999003799912984	1.9414121	1.3933456
34.01733177417592	1.9567484	1.3988382
34.03566064518901	2.0630524	1.436333
34.0539904135529	2.1077657	1.4518147
34.07232107986846	2.068689	1.4382938
34.090652644736785	1.9810407	1.4074944
34.108985108759235	2.0011368	1.4146154
34.12731847253742	1.972227	1.4043599
34.14565273667313	1.8720247	1.3682195
34.16398790176847	1.7797543	1.3340743
34.18232396842574	1.7379571	1.318316
34.20066093724749	1.8074887	1.3444288
34.21899880883651	1.925491	1.3876206
34.23733758379583	1.9054152	1.3803678
34.25567726272874	1.9253958	1.3875864
34.27401784623872	1.9221499	1.3864162
34.29235933492957	1.9075193	1.3811297
34.31070172940526	1.897876	1.3776342
34.32904503027003	2.05031	1.4318904
34.347389238128386	2.1681871	1.4724765
34.36573435358502	2.0692365	1.4384841
34.38408037724492	1.9853586	1.4090276
34.402427309713296	1.9141867	1.3835413
34.42077515159559	1.8563709	1.3624871
34.43912390349752	1.756271	1.3252437
34.45747356602499	1.8208929	1.3494047
34.47582413978423	1.8621668	1.3646123
34.49417562538163	1.9028724	1.3794464
34.51252802342388	1.8733069	1.368688
34.53088133451789	1.835628	1.3548535
34.54923555927084	1.8337123	1.3541464
34.567590698290104	1.8660744	1.3660433
34.58594675218336	1.9816159	1.4076988
34.6043037215585	2.0077305	1.416944
34.62266160702365	1.9236721	1.386965
34.641020409187234	1.9862771	1.4093534
34.65938012865785	2.0123577	1.418576
34.677740766044394	2.0256128	1.4232403
34.69610232195598	1.9625123	1.4008969
34.714464797002016	1.9233009	1.3868313
34.73282819179208	1.9305809	1.3894534
34.751192506936064	1.9048501	1.3801631
34.76955774304408	2.0279381	1.4240569
34.7879239007265	2.1489387	1.4659258
34.80629098059391	2.1037717	1.4504385
34.824658983257194	1.9690766	1.4032379
34.843027909327446	1.8403975	1.3566124
34.86139775941603	1.8601432	1.3638706
34.879768534134534	1.9688439	1.403155
34.89814023409483	1.8762007	1.3697448
34.91651285990901	1.7480434	1.3221359
34.93488641218944	1.8652688	1.3657484
34.95326089154871	2.049925	1.4317559
34.97163629859967	1.9226619	1.3866009
34.99001263395542	1.9592258	1.3997234
35.00838989822934	1.9791894	1.4068366
35.02676809203499	1.9328662	1.3902756
35.04514721598624	1.9179738	1.3849093
35.063527270697215	2.0545192	1.4333594
35.081908256782256	2.1531885	1.4673747
35.10029017485597	2.236013	1.4953303
35.11867302553321	2.1630616	1.4707351
35.137056809429104	1.9663055	1.4022502
35.155441527159006	1.9592191	1.399721
35.173827179338524	2.0571587	1.4342798
35.19221376658354	2.1339679	1.4608107
35.21060128951017	2.0342891	1.426285
35.2289897487348	2.0405457	1.4284767
35.24737914487405	2.1688933	1.4727163
35.26576947854479	2.019151	1.4209683
35.28416075036418	1.8510116	1.3605189
35.30255296094958	1.7387105	1.3186017
35.32094611091867	1.6875546	1.2990592
35.33934020088932	1.9484154	1.3958565
35.35773523147969	2.160799	1.4699657
35.3761312033082	2.131572	1.4599904
35.394528116993506	1.8574727	1.3628913
35.41292597315452	1.6933695	1.3012953
35.431324772410434	1.852711	1.3611432
35.449724515380666	2.5281389	1.5900122
35.46812520268491	2.6269479	1.6207862
35.486526834943106	1.9972646	1.4132462
35.504929412775454	1.8072898	1.3443547
35.52333293680242	2.277421	1.5091126
35.54173740764471	2.1048577	1.4508128
35.560142825923286	1.6993937	1.303608
35.5785491922594	1.5630531	1.2502213
35.59695650727454	1.7846189	1.3358963
35.61536477159042	2.8436186	1.6863033
