0.008763373481513119	0.0	0.0
0.026290120649546365	0.0	0.0
0.043816868432600686	0.0	0.0
0.06134361724069026	0.011486674	0.1071759
0.07887036748382949	0.11725312	0.34242243
0.0963971195720331	0.16731444	0.40904087
0.11392387391531617	0.13712268	0.3703008
0.1314506309236943	0.1303964	0.3611044
0.1489773910071836	0.090608336	0.3010122
0.16650415457580078	0.06991392	0.2644124
0.18403092203956356	0.08393115	0.28970873
0.20155769380849	0.11354609	0.336966
0.2190844702925996	0.1871011	0.43255183
0.2366112519019124	0.16765559	0.40945768
0.2541380390464497	0.1123099	0.3351267
0.27166483213623416	0.09346023	0.30571267
0.28919163158128947	0.09180508	0.30299354
0.3067184377916406	0.15611318	0.3951116
0.324245251177314	0.16810872	0.41001064
0.34177207214833777	0.18685956	0.43227255
0.3592989011147415	0.19309852	0.43942976
0.37682573848655654	0.20918176	0.45736393
0.39435258467381573	0.19520247	0.44181722
0.41187944008655414	0.16469678	0.4058285
0.42940630513480854	0.14225739	0.37717023
0.446933180228618	0.167504	0.40927252
0.4644600657780234	0.16347013	0.4043144
0.48198696219306775	0.15443955	0.392988
0.49951386988379676	0.15043123	0.38785467
0.5170407892602581	0.15874833	0.39843234
0.5345677207325025	0.12665689	0.35588887
0.5520946647105822	0.12285658	0.35050902
0.5696216216045534	0.109163366	0.3303988
0.5871485918244737	0.19053037	0.43649784
0.6046755757804043	0.23085047	0.48046902
0.6222025738824094	0.21922854	0.46821848
0.6397295865405557	0.17233923	0.41513762
0.6572566141649129	0.11952151	0.34571883
0.6747836571655547	0.14080937	0.37524575
0.6923107159525568	0.18258876	0.42730406
0.7098377909359992	0.20792827	0.45599154
0.7273648825259653	0.25396848	0.50395286
0.7448919911325411	0.22949116	0.47905236
0.762419117165817	0.22713216	0.47658384
0.7799462610358868	0.18049535	0.42484745
0.7974734231528482	0.18863027	0.43431586
0.8150006039268024	0.18290414	0.42767292
0.8325278037678551	0.21200831	0.46044362
0.8500550230861152	0.26093948	0.51082236
0.8675822622916969	0.25221452	0.50220966
0.8851095217947171	0.20432313	0.45202115
0.9026368020052984	0.20017429	0.4474084
0.9201641033335665	0.18786255	0.43343112
0.9376914261896523	0.21676415	0.46557936
0.9552187709836915	0.2111874	0.4595513
0.9727461381258234	0.21641704	0.46520644
0.990273528026193	0.22330725	0.47255397
1.0078009410949496	0.25590095	0.5058665
1.0253283777422473	0.24578309	0.49576515
1.0428558383782454	0.24443299	0.49440163
1.0603833234131086	0.27651238	0.52584445
1.0779108332570058	0.31862405	0.5644679
1.0954383683201119	0.3646169	0.60383517
1.112965929012607	0.39766258	0.6306049
1.1304935157446763	0.5197738	0.7209534
1.1480211289265108	0.54089326	0.73545444
1.1655487689683062	1.4192673	1.1913301
1.1830764362802655	1.6737736	1.2937441
1.200604131272596	2.0034578	1.4154356
1.2181318543555117	2.2582698	1.5027541
1.235659605939232	2.273977	1.5079712
1.253187386433982	3.9114254	1.9777324
1.270715196249994	6.4939	2.5483131
1.2882430357975057	11.875736	3.446119
1.3057709054867608	16.494913	4.061393
1.3232988057280106	22.061779	4.6969967
1.3408267369315112	26.474783	5.145365
1.358354699507526	30.363607	5.5103183
1.3758826938663256	34.561226	5.8788795
1.3934107204181858	36.962276	6.079661
1.410938779573391	37.463795	6.1207676
1.4284668717422309	38.041836	6.1678066
1.4459949973350033	37.901394	6.1564107
1.4635231567620117	38.044064	6.167987
1.4810513504335687	37.18149	6.097663
1.4985795787599925	36.419983	6.0348973
1.5161078421516088	35.694916	5.974522
1.5336361410187505	35.031162	5.918713
1.5511644757717598	35.071785	5.9221435
1.5686928468209842	35.827316	5.9855924
1.58622125457678	36.606617	6.05034
1.6037496994495108	37.67625	6.1380982
1.621278181849548	37.445568	6.1192784
1.6388067021872719	38.171	6.1782684
1.6563352608730693	37.770428	6.145765
1.673863858317336	36.62854	6.0521517
1.6913924949304753	35.79397	5.982806
1.7089211711228998	34.64012	5.885586
1.7264498873050296	34.086628	5.8383756
1.7439786438872935	33.093227	5.7526712
1.7615074412801288	32.06359	5.6624722
1.779036279893981	31.208694	5.5864744
1.796565160139305	30.303776	5.5048866
1.814094082426564	29.660017	5.446101
1.8316230471662298	29.096172	5.394087
1.849152054768784	27.959772	5.2877
1.8666811056447168	27.4801	5.2421465
1.8842102002045273	26.762768	5.1732745
1.901739338858724	26.539322	5.151633
1.9192685220178245	26.102196	5.1090307
1.9367977500923557	25.304598	5.0303674
1.9543270234928547	24.704952	4.9704075
1.971856342629867	23.875109	4.886216
1.9893857079139496	23.54805	4.8526335
2.006915119755667	23.00017	4.7958493
2.0244445785655945	22.495623	4.742955
2.0419740847543175	22.17616	4.709157
2.0595036387324317	21.68466	4.656679
2.0770332409105414	21.15079	4.5989985
2.094562891699263	20.667265	4.5461264
2.1120925915092217	20.031239	4.475627
2.129622340751053	19.766415	4.445944
2.1471521398354043	187.91272	13.708126
2.1646819891729323	444.4987	21.083138
2.182211889174303	440.53583	20.988945
2.1997418402501974	452.87695	21.280907
2.2172718428113023	432.88724	20.805943
2.234801897268317	320.84293	17.912088
2.2523320040319548	17.249254	4.153222
2.269862163512935	16.69493	4.0859427
2.287392376121992	16.313843	4.0390396
2.304922642269869	16.065039	4.0081215
2.322452962367322	15.962235	3.9952767
2.3399833368251164	15.735848	3.9668436
2.357513766054032	15.496476	3.9365563
2.3750442504648586	15.273231	3.908098
2.3925747904683963	15.022559	3.8758945
2.410105386475459	14.7247715	3.837287
2.4276360388968707	14.393616	3.793892
2.445166748143469	14.224812	3.7715795
2.4626975146261025	13.992963	3.740717
2.4802283387556323	13.723727	3.704555
2.4977592209429305	13.530369	3.678365
2.5152901615988825	13.144575	3.6255448
2.5328211611343865	12.881503	3.589081
2.5503522199603523	12.723301	3.5669737
2.5678833384877024	12.512285	3.5372708
2.5854145171273712	12.472568	3.5316522
2.6029457562903064	12.170049	3.4885597
2.620477056387469	12.083662	3.4761562
2.6380084178298326	11.928457	3.45376
2.655539841028383	11.636955	3.4112983
2.673071326394119	11.368095	3.3716607
2.6906028743380523	11.07019	3.3271897
2.708134485271211	10.911607	3.3032722
2.7256661596046325	10.989097	3.3149807
2.743197897749369	10.791737	3.2850778
2.760729700116486	10.576813	3.2522013
2.778261567117063	10.206529	3.1947658
2.795793499162193	10.021403	3.16566
2.8133254966629817	9.847285	3.1380384
2.830857560030551	9.7288475	3.11911
2.8483896896760337	9.593942	3.0974088
2.865921886010578	9.479824	3.0789323
2.883454149445347	9.356224	3.0587945
2.9009864803915177	9.338925	3.0559654
2.91851887926028	9.384799	3.063462
2.9360513464628384	9.421706	3.0694797
2.953583882410413	9.296651	3.049041
2.9711164875142373	9.139615	3.0231795
2.9886491621855606	8.74756	2.9576273
3.0061819068356455	8.638898	2.9392002
3.023714721875769	8.478594	2.9118025
3.041247607717225	8.403215	2.89883
3.0587805647713213	8.306177	2.8820438
3.0763135934493806	8.313231	2.8832674
3.0938466941627407	8.248005	2.871934
3.1113798673227544	8.059645	2.8389513
3.1289131133407904	7.9653935	2.8223028
3.1464464326282315	7.8581114	2.8032322
3.1639798255964786	7.8661366	2.8046634
3.1815132926569443	7.7397704	2.7820442
3.1990468342210603	7.4933276	2.7373943
3.216580450700272	7.442234	2.728046
3.2341141425060416	7.4171524	2.723445
3.251647910049847	7.5267587	2.7434938
3.2691817537431813	7.453233	2.730061
3.286715673997555	7.3338385	2.708106
3.3042496712244938	7.2010517	2.6834776
3.32178374583554	7.0897474	2.662658
3.339317898242251	6.993595	2.6445405
3.3568521288562034	6.906647	2.62805
3.3743864380889876	6.9004593	2.6268725
3.3919208263522127	6.930587	2.6326008
3.4094552940575023	6.799877	2.6076574
3.4269898416164972	6.6335087	2.5755599
3.444524469440858	6.489163	2.5473835
3.4620591779422587	6.483469	2.5462656
3.479593967532391	6.5222154	2.5538628
3.4971288386229658	6.5083313	2.5511432
3.5146637916257086	6.4052653	2.5308626
3.5321988269523628	6.2959127	2.5091658
3.5497339450146903	6.3086605	2.5117047
3.5672691462244708	6.3119836	2.512366
3.5848044309934988	6.3594913	2.5218031
3.60233979973359	6.4165993	2.5331006
3.619875252856575	6.443803	2.5384645
3.6374107907743034	6.361613	2.5222237
3.6549464138986427	6.245637	2.4991271
3.6724821226414788	6.1625795	2.4824543
3.690017917414714	6.2192593	2.4938443
3.7075537986302702	6.2964783	2.5092785
3.7250897667000857	6.4050384	2.5308177
3.7426258220361235	6.5630074	2.5618367
3.7601619650503553	6.805353	2.6087072
3.777698196154779	7.2613893	2.6946964
3.7952345157614067	8.289171	2.879092
3.8127709242822716	9.122253	3.0203068
3.830307422129425	11.310761	3.3631475
3.847844009714936	30.150635	5.490959
3.8653806874508954	97.74553	9.886634
3.882917455749409	96.9727	9.847472
3.900454315022606	96.75846	9.836588
3.917991265682631	41.31741	6.427862
3.9355283081416506	10.974543	3.3127847
3.9530654428118495	8.845078	2.9740677
3.970602670105433	7.6364317	2.7634094
3.9881399904346244	6.7094755	2.5902655
4.005677404211669	6.562295	2.5616977
4.023214911848827	6.474413	2.5444868
4.0407525137583855	6.537262	2.556807
4.058290210352644	6.564374	2.5621035
4.075828002043927	6.4725237	2.5441155
4.0933658892445814	6.4395657	2.5376298
4.110903872366966	6.345767	2.5190806
4.128441951823468	6.2845716	2.5069048
4.145980128026488	6.3266478	2.5152829
4.163518401388452	6.237493	2.4974973
4.181056772321807	6.1764345	2.4852433
4.1985952412390155	6.1717634	2.4843035
4.216133808552567	6.1654267	2.4830277
4.233672474674966	6.281398	2.5062716
4.251211240018741	6.549668	2.559232
4.268750104996445	6.7683387	2.601603
4.286289070020643	7.7165303	2.7778645
4.303828135503928	9.380217	3.0627139
4.3213673018589125	29.662956	5.446371
4.3389065694982305	90.80441	9.529135
4.356445938834537	165.92249	12.88109
4.3739854102805085	171.27089	13.08705
4.391524984248844	172.0851	13.118121
4.409064661152262	136.24323	11.672327
4.426604441403504	96.70798	9.834022
4.444144325415337	75.68609	8.699775
4.461684313600543	21.588112	4.646301
4.47922440637193	21.884022	4.678036
4.496764604142329	20.314054	4.5071115
4.5143049073245916	18.716866	4.326299
4.531845316331589	16.637495	4.0789084
4.5493858315762195	13.9017	3.7284985
4.566926453471405	11.438109	3.3820274
4.584467182430081	9.424784	3.069981
4.602008018865218	8.254705	2.8731003
4.619548963189798	7.5515914	2.7480159
4.637090015816834	7.0096426	2.647573
4.654631177159353	6.777224	2.60331
4.672172447630417	6.559505	2.5611532
4.689713827643102	6.418978	2.5335703
4.7072553176105085	6.178153	2.485589
4.724796917945764	5.970621	2.4434855
4.742338629062015	5.8697004	2.4227464
4.759880451372434	5.7574544	2.3994696
4.777422385290215	5.7237687	2.3924398
4.794964431228581	5.74574	2.3970273
4.812506589600768	5.7439504	2.396654
4.830048860820047	5.738506	2.3955178
4.847591245299709	5.686857	2.3847132
4.8651337434530655	5.592163	2.3647754
4.882676355693457	5.5724173	2.360597
4.900219082434242	5.4992	2.3450372
4.917761924088813	5.5177426	2.3489876
4.935304881070575	5.476866	2.3402705
4.952847953792969	5.5288596	2.3513527
4.970391142669449	5.5388823	2.353483
4.9879344481135055	5.5412154	2.3539786
5.005477870538642	5.466956	2.3381524
5.023021410358394	5.4748764	2.3398454
5.040565067986324	5.4339457	2.3310826
5.05810884383601	5.3964825	2.323033
5.075652738321066	5.347353	2.3124344
5.09319675185512	5.2640915	2.2943609
5.110740884851836	5.274654	2.2966614
5.128285137724894	5.3434334	2.3115869
5.145829510888007	5.4349027	2.3312879
5.163374004754908	5.437604	2.331867
5.1809186197393595	5.324423	2.307471
5.198463356255145	5.2721477	2.2961159
5.216008214716077	5.253864	2.292131
5.233553195535998	5.2869935	2.2993462
5.251098299128764	5.281365	2.298122
5.268643525908272	5.284302	2.2987611
5.286188876288432	5.2945366	2.300986
5.3037343506831895	5.275557	2.296858
5.32127994950651	5.2762923	2.297018
5.3388256731723915	5.3032265	2.3028736
5.356371522094851	5.2927756	2.3006034
5.373917496687938	5.2698407	2.2956133
5.391463597365729	5.191679	2.2785256
5.40900982454232	5.1872473	2.2775528
5.426556178631843	5.1587667	2.271292
5.444102660048449	5.1759915	2.2750804
5.4616492692063225	5.27241	2.2961729
5.479196006519669	5.268556	2.2953336
5.496742872402727	5.286588	2.2992582
5.514289867269756	5.20052	2.280465
5.531836991535049	5.117605	2.2622125
5.549384245612924	5.078631	2.2535818
5.566931629917724	5.101312	2.2586083
5.584479144863822	5.1507487	2.269526
5.6020267908656205	5.1811047	2.276204
5.619574568337545	5.169071	2.273559
5.637122477694054	5.1644425	2.272541
5.654670519349629	5.210575	2.2826684
5.672218693718784	5.135047	2.2660642
5.689767001216059	5.1757703	2.275032
5.707315442256021	5.179997	2.2759607
5.724864017253266	5.220191	2.2847738
5.7424127266224225	5.2370253	2.2884548
5.75996157077814	5.2823267	2.2983313
5.777510550135105	5.3206143	2.3066456
5.795059665108022	5.215917	2.2838383
5.812608916111639	5.20097	2.2805636
5.830158303560715	5.260909	2.293667
5.847707827870055	5.2823396	2.2983341
5.86525748945448	5.334967	2.3097548
5.8828072887288485	5.3806167	2.3196156
5.900357226108044	5.5246286	2.350453
5.917907302006979	5.663544	2.37982
5.9354575168406	6.271739	2.504344
5.9530078710238765	6.8528905	2.6178026
5.970558364971812	7.257396	2.6939554
5.988108999099438	7.541708	2.746217
6.005659773821818	8.154304	2.8555741
6.023210689554039	7.9942174	2.8274047
6.040761746711227	8.500922	2.9156342
6.058312945708531	7.8881354	2.8085825
6.075864286961132	7.4475565	2.729021
6.093415770884244	6.76417	2.600802
6.1109673978931065	6.2321057	2.4964185
6.128519168402993	5.663641	2.3798406
6.146071082829204	5.489312	2.3429282
6.163623141587075	5.377861	2.3190215
6.181175345091969	5.302136	2.3026366
6.198727693759281	5.283262	2.2985346
6.216280188004435	5.246414	2.2905052
6.233832828242885	5.204276	2.2812881
6.251385614890126	5.188827	2.2778997
6.268938548361669	5.1767387	2.2752447
6.286491629073067	5.1338096	2.2657912
6.304044857439898	5.1783624	2.2756016
6.321598233877777	5.0849023	2.2549727
6.339151758802344	5.0328584	2.2434032
6.356705432629277	4.934199	2.2213056
6.37425925577428	4.903725	2.2144356
6.391813228653095	4.846857	2.2015579
6.409367351681486	4.874098	2.207736
6.426921625275259	4.923808	2.2189655
6.44447604985025	5.034318	2.2437286
6.46203062582232	5.1070004	2.2598674
6.47958535360737	5.111765	2.2609212
6.497140233621328	5.085213	2.2550418
6.514695266280161	5.074226	2.2526042
6.532250451999859	5.1087627	2.2602572
6.549805791196454	5.081923	2.254312
6.567361284286002	5.0754576	2.2528777
6.584916931684597	5.063274	2.250172
6.602472733808367	5.072542	2.2522304
6.6200286910734665	4.998079	2.2356384
6.637584803896092	4.9910855	2.2340736
6.655141072692462	4.95763	2.2265737
6.672697497878842	4.93821	2.2222083
6.690254079871514	4.9085393	2.2155223
6.707810819086808	4.9080405	2.2154098
6.725367715941078	4.965893	2.2284284
6.742924770850719	5.046444	2.2464292
6.760481984232151	5.061424	2.2497609
6.778039356501836	5.120114	2.2627668
6.795596888076266	5.1717305	2.274144
6.813154579371963	5.1643367	2.2725177
6.830712430805492	5.0848613	2.2549636
6.84827044279344	5.0766535	2.253143
6.865828615752445	5.059991	2.2494423
6.883386950099159	5.1798644	2.2759316
6.900945446250287	5.1365914	2.2664049
6.918504104622553	5.0600724	2.2494605
6.936062925632727	5.0321193	2.2432384
6.953621909697607	4.9765663	2.2308218
6.971181057234028	5.0833535	2.2546294
6.988740368658859	5.128758	2.264676
7.006299844389007	5.2413716	2.2894042
7.023859484841407	5.317461	2.305962
7.041419290433036	5.403205	2.3244796
7.058979261580902	5.494477	2.3440301
7.0765393987020495	5.6279025	2.3723202
7.094099702213559	5.9524484	2.439764
7.111660172532549	6.3746233	2.5248017
7.129220810076164	6.767549	2.6014514
7.146781615261595	7.349855	2.7110615
7.16434258850606	7.57025	2.7514088
7.181903730226821	8.081118	2.8427308
7.1994650408411704	8.208457	2.8650405
7.217026520766437	8.262796	2.8745081
7.234588170419983	8.412244	2.9003868
7.252149990219215	8.382152	2.8951945
7.269711980581568	8.332065	2.8865316
7.2872741419245175	8.152877	2.8553243
7.304836474665574	7.7345347	2.7811031
7.322398979222286	7.443299	2.728241
7.339961656012233	7.172245	2.6781046
7.357524505453039	6.8000736	2.607695
7.375087527962357	6.481869	2.5459516
7.392650723957886	6.1945806	2.4888914
7.410214093857353	5.9154286	2.4321654
7.427777638078528	5.7542706	2.398806
7.445341357039213	5.6215262	2.3709757
7.4629052511572525	5.5323	2.3520842
7.480469320850524	5.516652	2.3487554
7.498033566536948	5.438554	2.3320708
7.5155979886344735	5.3881245	2.3212335
7.5331625875610975	5.274294	2.2965832
7.550727363734844	5.199965	2.2803433
7.568292317573788	5.179373	2.2758236
7.585857449496025	5.1522474	2.2698562
7.603422759919705	5.1837935	2.2767947
7.620988249263007	5.1856875	2.2772105
7.638553917944147	5.208812	2.2822824
7.656119766381391	5.2697625	2.2955964
7.673685794993023	5.261965	2.2938974
7.691252004197388	5.278848	2.2975745
7.70881839441285	5.28078	2.2979949
7.726384966057826	5.304026	2.3030472
7.743951719550762	5.341523	2.3111734
7.761518655310149	5.3759327	2.3186057
7.779085773754511	5.3714066	2.3176296
7.796653075302419	5.390397	2.321723
7.814220560372475	5.398015	2.3233628
7.831788229383323	5.409266	2.3257828
7.8493560827536495	5.418465	2.3277597
7.866924120902174	5.369367	2.3171895
7.884492344247663	5.342968	2.311486
7.9020607532089135	5.293427	2.3007448
7.919629348204771	5.2849174	2.298895
7.937198129654115	5.360238	2.3152187
7.954767097975865	5.4625983	2.3372202
7.972336253588986	5.4569483	2.3360112
7.989905596912472	5.532967	2.352226
8.007475128365371	5.543755	2.354518
8.025044848366756	5.5546937	2.3568397
8.042614757335754	5.595127	2.365402
8.060184855691523	5.6149745	2.3695939
8.07775514385327	5.77146	2.4023864
8.095325622240228	5.778829	2.4039195
8.112896291271687	5.8061748	2.4096005
8.130467151366968	5.8956532	2.4280965
8.148038202945436	5.9337683	2.4359326
8.165609446426497	5.974218	2.4442213
8.183180882229594	6.0339866	2.4564173
8.200752510774217	6.042734	2.4581974
8.218324332479893	6.0058904	2.4506917
8.235896347766193	5.959606	2.4412305
8.253468557052724	5.9649777	2.4423304
8.27104096075914	5.98317	2.4460518
8.288613559305137	6.035682	2.4567626
8.306186353110448	6.104098	2.4706473
8.32375934259485	6.243997	2.498799
8.341332528178162	6.2766795	2.5053303
8.358905910280246	6.232126	2.4964228
8.376479489321003	6.1858864	2.4871442
8.394053265720377	6.188187	2.4876068
8.411627239898356	6.2275867	2.4955134
8.42920141227497	6.2817316	2.5063384
8.44677578327029	6.344046	2.518739
8.464350353304427	6.3201966	2.5140002
8.48192512279754	6.2717423	2.5043447
8.499500092169827	6.2100935	2.4920058
8.51707526184153	6.171667	2.484284
8.534650632232934	6.1107807	2.4719994
8.552226203764365	6.1521435	2.4803514
8.569801976856192	6.2698727	2.5039713
8.587377951928834	6.3786535	2.5255997
8.60495412940274	6.369328	2.5237527
8.622530509698416	6.3230014	2.5145578
8.6401070932364	6.375901	2.5250547
8.657683880437283	6.5162735	2.5526993
8.675260871721695	6.703347	2.5890822
8.692838067510303	6.845475	2.616386
8.710415468223834	6.9672627	2.6395574
8.727993074283043	7.1264687	2.6695447
8.745570886108737	7.2188096	2.6867843
8.763148904121765	7.3186183	2.7052946
8.78072712874302	7.2416515	2.6910317
8.798305560393441	7.5143356	2.7412288
8.815884199494006	7.635061	2.7631614
8.833463046465745	7.857779	2.803173
8.851042101729728	8.00337	2.829023
8.86862136570707	8.268595	2.8755164
8.886200838818924	8.401176	2.8984783
8.903780521486505	8.390094	2.896566
8.921360414131055	8.446418	2.9062722
8.938940517173874	8.567874	2.927093
8.956520831036297	8.773261	2.9619691
8.97410135613971	9.071745	3.0119338
8.99168209290554	9.234348	3.0388072
9.009263041755265	9.48531	3.079823
9.026844203110405	9.6893635	3.1127741
9.044425577392525	9.896434	3.1458597
9.062007165023239	9.922339	3.1499746
9.079588966424197	10.187392	3.1917694
9.097170982017108	10.34055	3.2156727
9.11475321222372	11.420964	3.3794918
9.132335657465825	12.34457	3.513484
9.149918318165264	12.37226	3.5174224
9.167501194743924	12.948901	3.598458
9.18508428762374	12.593582	3.5487437
9.202667597226693	12.471537	3.5315063
9.220251123974803	12.131781	3.4830706
9.237834868290143	11.8244	3.4386625
9.255418830594836	11.715262	3.4227564
9.273003011311046	11.29133	3.3602574
9.290587410860985	11.04156	3.3228843
9.308172029666911	10.341832	3.2158718
9.32575686815113	10.008366	3.1636002
9.343341926735997	8.77464	2.9622018
9.360927205843916	8.503291	2.9160404
9.378512705897327	8.342287	2.8883018
9.396098427318728	8.211221	2.8655229
9.413684370530664	8.117428	2.84911
9.431270535955722	7.9764686	2.8242643
9.448856924016539	7.8779197	2.8067632
9.466443535135806	7.8107257	2.7947676
9.484030369736251	7.8984203	2.810413
9.501617428240658	7.857868	2.803189
9.519204711071852	7.815518	2.7956247
9.536792218652714	7.768472	2.7871978
9.55437995140617	7.7352686	2.781235
9.571967909755191	7.7950163	2.7919557
9.589556094122802	7.8583937	2.8032827
9.60714450493207	7.8962326	2.8100235
9.624733142606116	7.9703045	2.8231728
9.642322007568108	8.046241	2.8365896
9.659911100241267	8.086283	2.843639
9.677500421048851	8.075618	2.8417633
9.695089970414175	8.045842	2.8365195
9.712679748760609	8.043391	2.8360872
9.730269756511557	8.086967	2.8437593
9.747859994090492	8.171597	2.8586004
9.765450461920915	8.232104	2.8691645
9.78304116042639	8.21006	2.8653202
9.800632090030527	8.154216	2.8555589
9.81822325115699	8.081515	2.8428006
9.835814644229481	8.13286	2.851817
9.853406269671762	8.211006	2.8654854
9.870998127907646	8.275561	2.8767276
9.888590219360985	8.252949	2.8727946
9.906182544455698	8.266826	2.8752089
9.923775103615734	8.333243	2.8867357
9.941367897265108	8.357688	2.8909667
9.958960925827878	8.426037	2.9027636
9.97655418972816	8.363903	2.8920414
9.994147689390106	8.362916	2.8918707
10.011741425237934	8.35706	2.8908582
10.029335397695904	8.3340645	2.886878
10.04692960718833	8.358622	2.891128
10.06452405413958	8.245958	2.8715777
10.082118738974064	8.263922	2.874704
10.099713662116246	8.251089	2.8724709
10.117308823990651	8.215445	2.8662596
10.134904225021844	8.202181	2.863945
10.152499865634445	8.200123	2.8635857
10.170095746253125	8.225913	2.8680851
10.18769186730261	8.271571	2.876034
10.205288229207675	8.298071	2.8806372
10.222884832393145	8.226712	2.8682246
10.2404816772839	8.150356	2.854883
10.258078764304868	8.122822	2.8500564
10.275676093881035	8.109166	2.8476598
10.293273666437438	8.143038	2.8536007
10.310871482399158	8.142039	2.853426
10.32846954219134	8.173257	2.8588908
10.346067846239173	8.1920395	2.8621738
10.363666394967908	8.108368	2.8475196
10.38126518880283	8.121461	2.8498178
10.398864228169298	8.174607	2.859127
10.416463513492713	8.245864	2.8715613
10.434063045198531	8.258287	2.8737235
10.451662823712262	8.284373	2.8782587
10.469262849459467	8.30284	2.881465
10.486863122865758	8.155315	2.8557513
10.504463644356806	8.026403	2.8330908
10.522064414358338	7.916573	2.8136406
10.539665433296118	7.8667865	2.8047793
10.557266701595987	7.8258176	2.7974663
10.574868219683818	7.718912	2.7782931
10.592469987985552	7.6030436	2.7573617
10.610072006927185	7.553832	2.7484236
10.627674276934751	7.4924293	2.7372303
10.64527679843435	7.3433595	2.7098634
10.662879571852143	7.210505	2.6852384
10.680482597614331	7.1114874	2.6667373
10.698085876147173	7.0683975	2.6586459
10.715689407876988	7.022456	2.6499918
10.733293193230146	6.9690695	2.6398995
10.750897232633072	6.9116955	2.6290104
10.76850152651225	6.846351	2.6165533
10.786106075294207	6.807018	2.6090262
10.803710879405534	6.7236304	2.5929964
10.821315939272877	6.556751	2.5606153
10.83892125532294	6.4212337	2.5340154
10.856526827982472	6.329824	2.5159142
10.874132657678285	6.336356	2.517212
10.891738744837243	6.2536607	2.500732
10.909345089886271	6.16192	2.4823215
10.926951693252343	6.066468	2.46302
10.944558555362494	6.0030317	2.4501085
10.96216567664381	5.945543	2.4383483
10.979773057523436	5.9382634	2.4368553
10.997380698428573	5.9231977	2.433762
11.014988599786477	5.869759	2.4227586
11.032596762024461	5.8118205	2.4107718
11.050205185569892	5.7286363	2.393457
11.067813870850198	5.6368113	2.374197
11.085422818292859	5.5143437	2.348264
11.10303202832541	5.4486513	2.3342347
11.120641501375454	5.3985467	2.3234773
11.138251237870636	5.325377	2.3076777
11.155861238238671	5.272705	2.2962372
11.173471502907317	5.235683	2.2881615
11.191082032304402	5.204261	2.2812848
11.208692826857805	5.0770216	2.2532246
11.226303886995465	4.9532585	2.2255917
11.243915213145371	4.911305	2.2161465
11.261526805735578	4.9057713	2.2148976
11.279138665194196	4.8874288	2.210753
11.296750791949393	4.8716125	2.2071729
11.314363186429393	4.817321	2.1948395
11.331975849062479	4.7591715	2.1815526
11.34958878027699	4.6846657	2.164409
11.36720198050133	4.6106834	2.1472502
11.384815450163948	4.604727	2.1458628
11.402429189693366	4.513457	2.1244898
11.420043199518153	4.4798193	2.1165583
11.437657480066942	63.43803	7.9647994
11.455272031768422	85.21057	9.230957
11.472886855051353	107.58554	10.372345
11.490501950344528	99.17632	9.958731
11.508117318076819	84.49019	9.1918545
11.52573295867715	45.893974	6.774509
11.543348872574514	4.229676	2.0566175
11.560965060197946	4.210752	2.0520117
11.57858152197655	4.1415014	2.035068
11.59619825833949	4.062621	2.0155945
11.613815269715985	3.9992878	1.9998219
11.631432556535323	38.475986	6.2029014
11.649050119226837	83.01019	9.110993
11.666667958219929	93.416275	9.66521
11.68428607394406	107.67753	10.376779
11.701904466828756	82.5361	9.084938
11.719523137303586	65.40626	8.087414
11.737142085798196	4.6120563	2.14757
11.754761312742286	3.7120001	1.9266552
11.772380818565619	3.708723	1.9258045
11.790000603698015	3.67404	1.9167786
11.80762066856935	3.6220522	1.903169
11.825241013609572	3.594323	1.89587
11.842861639248683	3.5774324	1.8914101
11.860482545916748	3.5094507	1.8733528
11.878103734043883	3.504528	1.8720385
11.895725204060282	3.4890137	1.8678901
11.91334695639619	3.4163501	1.8483372
11.930968991481919	3.352358	1.8309445
11.948591309747824	3.3321257	1.8254111
11.966213911624347	3.3689244	1.835463
11.98383679754198	3.4015918	1.8443404
12.001459967931268	3.3584628	1.832611
12.019083423222835	3.320113	1.8221177
12.036707163847352	3.290376	1.8139393
12.05433119023556	3.2529366	1.8035899
12.071955502818259	3.2040076	1.7899742
12.089580102026313	3.1771004	1.7824422
12.107204988290643	3.2088177	1.7913173
12.12483016204224	3.1975358	1.7881655
12.142455623712152	3.1688182	1.7801175
12.16008137373149	3.131294	1.7695463
12.177707412531431	3.1183088	1.7658734
12.19533374054321	3.0724895	1.7528518
12.212960358198126	3.0423534	1.7442343
12.230587265927545	3.0227344	1.7386013
12.248214464162889	3.00095	1.7323251
12.265841953335649	3.0175402	1.7371068
12.283469733877375	2.9888	1.7288146
12.301097806219685	2.970729	1.7235804
12.31872617079425	2.9692318	1.723146
12.336354828032825	2.980627	1.7264493
12.353983778367205	2.9736915	1.7244395
12.371613022229262	2.931104	1.7120467
12.389242560050928	2.9150484	1.7073513
12.406872392264201	2.9125223	1.7066114
12.424502519301143	2.9010334	1.7032421
12.442132941593874	2.891019	1.7002997
12.459763659574586	2.881674	1.6975495
12.477394673675532	2.9010227	1.7032388
12.49502598432903	2.9168804	1.7078876
12.51265759196746	2.8830464	1.6979536
12.530289497023267	2.8761609	1.6959248
12.547921699928967	2.837304	1.6844299
12.565554201117134	2.8070755	1.6754329
12.583187001020404	2.772748	1.6651571
12.600820100071486	2.7760894	1.6661601
12.618453498703152	2.7953444	1.6719283
12.636087197348235	2.7933497	1.6713318
12.65372119643964	2.8163092	1.6781863
12.671355496410326	2.8330588	1.6831692
12.68899009769333	2.883443	1.6980704
12.706625000721749	2.9237516	1.7098981
12.724260205928752	2.939835	1.7145947
12.741895713747551	2.9009686	1.703223
12.759531524611454	2.971948	1.7239338
12.777167638953818	3.0492744	1.7462171
12.794804057208072	3.1449509	1.7734009
12.812440779807702	3.166275	1.779403
12.830077807186271	3.2759228	1.8099511
12.847715139777405	3.2782357	1.8105899
12.865352778014795	3.461913	1.8606217
12.882990722332197	3.621893	1.9031272
12.90062897316344	3.7589629	1.9388045
12.918267530942412	3.8573432	1.964012
12.935906396103071	3.6689785	1.9154577
12.953545569079449	3.767582	1.941026
12.971185050305628	3.5482707	1.8836854
12.988824840215775	3.575334	1.8908554
13.006464939244115	3.5821307	1.8926518
13.024105347824943	3.455173	1.8588096
13.041746066392617	3.5135643	1.8744504
13.05938709538157	3.32194	1.822619
13.077028435226296	3.3254583	1.823584
13.094670086361363	3.2355928	1.7987753
13.112312049221401	3.1596003	1.7775265
13.129954324241112	3.0985014	1.760256
13.147596911855258	2.9332926	1.7126858
13.165239812498685	2.8909712	1.7002857
13.182883026606293	2.811513	1.6767566
13.200526554613058	2.7620971	1.6619558
13.218170396954017	2.7382624	1.6547695
13.235814554064284	2.711449	1.6466478
13.253459026379034	2.6995287	1.6430242
13.271103814333523	2.680791	1.637312
13.288748918363058	2.6991096	1.6428967
13.306394338903031	2.709469	1.6460465
13.32404007638889	2.7006083	1.6433527
13.341686131256164	2.7239392	1.650436
13.359332503940449	2.7351506	1.6538291
13.376979194877402	2.7104516	1.6463449
13.394626204502751	2.6960938	1.6419786
13.412273533252307	2.6873481	1.6393133
13.429921181561937	2.711216	1.646577
13.447569149867581	2.7266128	1.6512458
13.465217438605247	2.7664433	1.6632628
13.482866048211022	2.7593176	1.6611193
13.500514979121052	2.7687602	1.6639591
13.518164231771568	2.7410884	1.6556233
13.535813806598844	2.735512	1.6539383
13.553463704039254	2.7060308	1.6450018
13.571113924529229	2.73067	1.6524739
13.588764468505275	2.7494514	1.658147
13.606415336403956	2.7752092	1.6658959
13.624066528661917	2.7828307	1.6681819
13.641718045715882	2.8091621	1.6760556
13.659369888002635	2.8224914	1.6800272
13.67702205595903	2.8510902	1.6885172
13.694674550021993	2.9270074	1.7108499
13.712327370628532	3.015112	1.7364078
13.729980518215713	3.1130075	1.7643718
13.747633993220681	3.1952734	1.7875328
13.765287796080647	3.2657192	1.8071301
13.7829419272329	3.353918	1.8313706
13.800596387114801	3.3932168	1.8420687
13.818251176163775	3.4050715	1.8452836
13.835906294817324	3.4262476	1.8510126
13.853561743513023	3.4348133	1.8533249
13.871217522688525	3.4432738	1.8556061
13.888873632781538	3.4594767	1.8599669
13.906530074229858	3.5170226	1.8753726
13.92418684747135	3.5563588	1.8858311
13.941843952943948	3.5615487	1.8872066
13.959501391085665	3.51435	1.8746599
13.977159162334578	3.4545593	1.8586445
13.994817267128846	3.4084582	1.8462011
14.012475705906693	3.3539248	1.8313724
14.030134479106424	3.2695422	1.8081876
14.047793587166414	3.1786354	1.7828728
14.065453030525108	3.0493324	1.7462338
14.083112809621026	2.9954734	1.7307436
14.100772924892766	2.9520206	1.7181445
14.118433376778997	2.9516442	1.718035
14.136094165718458	2.9313552	1.71212
14.153755292149969	2.87108	1.6944262
14.171416756512416	2.7775764	1.6666063
14.189078559244768	2.7015965	1.6436534
14.20674070078606	2.592054	1.6099857
14.224403181575408	2.543987	1.5949881
14.242066002051999	2.4992204	1.5808923
14.259729162655093	2.4599872	1.5684346
14.277392663824022	2.4416072	1.5625644
14.295056505998208	2.4164207	1.554484
14.312720689617128	2.423366	1.5567164
14.330385215120348	2.4229498	1.5565827
14.348050082947497	2.4154596	1.5541749
14.3657152935383	2.4432058	1.5630758
14.383380847332528	2.459091	1.5681489
14.401046744770051	2.4593582	1.5682341
14.418712986290798	2.447193	1.5643506
14.436379572334793	2.4008107	1.5494549
14.454046503342123	2.379703	1.5426286
14.471713779752946	2.373145	1.5405016
14.489381402007504	2.3805346	1.5428982
14.507049370546113	2.4088235	1.5520386
14.524717685809168	2.3814933	1.5432087
14.542386348237134	2.3911288	1.5463275
14.560055358270553	2.392692	1.5468329
14.577724716350051	2.450596	1.565438
14.595394422916325	2.4670432	1.5706824
14.61306447841015	2.4896598	1.5778656
14.63073488327237	2.4903884	1.5780964
14.648405637943917	2.4932656	1.5790077
14.6660767428658	2.493486	1.5790776
14.683748198479094	2.5224707	1.5882288
14.701420005224954	2.5891664	1.6090887
14.719092163544628	2.5715256	1.6035976
14.73676467387942	2.6271822	1.6208584
14.754437536670727	2.6685107	1.6335577
14.772110752360014	2.723948	1.6504388
14.78978432138882	2.7324438	1.6530105
14.807458244198777	2.742988	1.6561968
14.82513252123159	2.7150435	1.6477389
14.842807152929028	2.7345867	1.6536586
14.860482139732962	2.6988335	1.6428126
14.87815748208531	2.6817882	1.6376166
14.8958331804281	2.6880605	1.6395305
14.91350923520342	2.655653	1.6296175
14.931185646853438	2.7036471	1.6442771
14.948862415820408	2.6816096	1.6375622
14.966539542546656	2.6943862	1.6414586
14.98421702747459	2.6348226	1.6232136
15.001894871046696	2.6647673	1.6324115
15.019573073705542	2.676673	1.636054
15.037251635893766	2.698026	1.6425669
15.054930558054092	2.722329	1.6499481
15.072609840629323	2.7656732	1.6630313
15.090289484062351	2.8250256	1.6807812
15.107969488796124	3.0519426	1.746981
15.125649855273691	3.506833	1.872654
15.14333058393817	4.0863357	2.0214686
15.161011675232768	5.2178216	2.2842553
15.17869312960076	6.8096986	2.60954
15.196374947485506	9.033033	3.0055006
15.214057129330447	12.509672	3.5369015
15.231739675579114	17.331413	4.163101
15.249422586675102	22.194338	4.7110868
15.267105863062092	24.686192	4.96852
15.284789505183847	24.261806	4.9256277
15.302473513484218	21.589296	4.646428
15.320157888407127	17.968904	4.2389746
15.337842630396578	13.86289	3.7232902
15.355527739896656	10.829544	3.2908273
15.37321321735153	8.341743	2.8882077
15.39089906320545	6.0888247	2.4675543
15.408585277902748	4.556082	2.1344981
15.42627186188783	3.5798922	1.8920603
15.443958815605198	3.1350155	1.7705975
15.461646139499424	2.914913	1.7073116
15.479333834015168	2.8167953	1.6783311
15.497021899597165	2.759545	1.6611879
15.514710336690234	2.658774	1.6305747
15.53239914573928	2.568102	1.6025299
15.550088327189297	2.5268314	1.589601
15.567777881485336	2.5227022	1.5883017
15.58546780907256	2.5265856	1.5895237
15.6031581103962	2.5207312	1.587681
15.620848785901568	2.5018327	1.5817183
15.638539836034063	2.4696743	1.5715197
15.656231261239173	2.4507568	1.5654893
15.673923061962451	2.4397423	1.5619675
15.691615238649552	2.420951	1.5559405
15.709307791746202	2.3766441	1.5416368
15.727000721698221	2.3616307	1.5367599
15.744694028951498	2.3906102	1.5461599
15.76238771395202	2.4174	1.554799
15.780081777145844	2.459723	1.5683504
15.797776218979125	2.4088695	1.5520533
15.815471039898094	2.3856316	1.544549
15.833166240349064	2.3561842	1.5349867
15.850861820778437	2.3835735	1.5438826
15.868557781632699	2.4239259	1.5568962
15.886254123358412	2.4184542	1.555138
15.903950846402232	2.368298	1.5389276
15.921647951210897	2.3682358	1.5389073
15.939345438231225	2.4098232	1.5523605
15.957043307910133	2.4209096	1.5559273
15.974741560694602	2.4338531	1.5600811
15.992440197031714	2.4471874	1.5643489
16.01013921736862	2.4566607	1.5673739
16.02783862215259	2.4534392	1.5663458
16.045538411830933	2.4701211	1.571662
16.06323858685107	2.4486663	1.5648215
16.080939147660512	2.4231522	1.5566478
16.09864009470684	2.4037964	1.5504181
16.11634142843774	2.415209	1.5540943
16.134043149300954	2.4355497	1.5606248
16.15174525774433	2.4337685	1.5600541
16.169447754215817	2.435901	1.5607373
16.18715063916342	2.4342594	1.5602113
16.204853913035244	2.4715598	1.5721195
16.222557576279478	2.4952574	1.5796384
16.240261629344403	22.449675	4.7381086
16.257966072678386	43.004826	6.5578065
16.275670906729868	38.10191	6.1726747
16.293376131947387	2.5061905	1.5830952
16.31108174877957	2.5104473	1.5844392
16.328787757675133	2.5603008	1.600094
16.34649415908287	2.5772738	1.605389
16.364200953451657	2.5789332	1.6059058
16.38190814123048	2.5927844	1.6102126
16.39961572286839	2.6440601	1.6260567
16.41732369881455	2.6814468	1.6375123
16.43503206951817	2.6860044	1.6389034
16.45274083542859	2.6853526	1.6387045
16.47044999699522	2.747671	1.6576099
16.488159554667558	2.8394828	1.6850765
16.505869508895184	2.9247894	1.7102016
16.523579860127786	2.955296	1.7190975
16.541290608815117	2.9751875	1.7248732
16.559001755407035	3.004445	1.7333335
16.57671330035348	3.0581105	1.7487454
16.59442524410448	3.1133168	1.7644594
16.61213758711015	3.187168	1.7852641
16.629850329820705	3.288445	1.8134071
16.647563472686436	3.338306	1.8271031
16.665277016157724	3.3433068	1.8284712
16.682990960685053	3.346309	1.8292919
16.70070530671898	3.4364128	1.8537564
16.718420054710155	3.4973857	1.8701298
16.736135205109335	3.5678766	1.8888824
16.753850758367335	3.590604	1.8948889
16.771566714935087	3.6395159	1.9077516
16.789283075263597	3.6820703	1.9188721
16.80699983980398	3.797655	1.9487573
16.82471700900741	3.8785295	1.9693983
16.84243458332518	3.9372303	1.9842455
16.860152563208665	3.9520485	1.987976
16.87787094910932	4.02647	2.0066066
16.89558974147871	4.125868	2.0312233
16.913308940768466	4.202864	2.050089
16.931028547430333	4.282377	2.0693905
16.94874856191613	4.3216195	2.0788505
16.966468984677785	4.380397	2.0929399
16.98418981616729	4.3790417	2.092616
17.00191105683676	4.4913554	2.1192818
17.019632707138374	4.5609636	2.1356413
17.03735476752442	4.5912027	2.1427093
17.05507723844728	4.626845	2.1510103
17.072800120359403	4.6429114	2.1547415
17.090523413713353	4.6522064	2.1568973
17.108247118961785	4.5995116	2.1446471
17.125971236557437	4.6311803	2.1520178
17.143695766953133	4.6416936	2.154459
17.161420710601806	4.6612153	2.158985
17.179146067956477	4.6483226	2.1559968
17.19687183947025	4.6446214	2.1551383
17.21459802559634	4.6403294	2.1541424
17.232324626788028	4.6364408	2.1532395
17.25005164349871	4.6526656	2.1570039
17.267779076181863	4.675104	2.162199
17.285506925291074	4.6494617	2.156261
17.30323519127999	4.6045322	2.1458173
17.320963874602384	4.616122	2.1485162
17.33869297571211	4.593614	2.143272
17.356422495063114	4.5951633	2.1436331
17.37415243310944	4.575108	2.13895
17.391882790305218	4.5648007	2.1365395
17.40961356710468	4.523595	2.1268744
17.42734476396215	4.505448	2.1226041
17.445076381332044	4.505618	2.1226442
17.462808419668868	4.570856	2.1379561
17.48054087942723	4.72057	2.1726873
17.498273761061835	5.0565796	2.248684
17.51600706502747	5.6565194	2.3783438
17.533740791779024	6.5051126	2.5505123
17.551474941771485	8.312915	2.8832126
17.56920951545993	9.618309	3.1013398
17.586944513299528	11.81463	3.4372416
17.60467993574556	13.354508	3.654382
17.622415783253373	14.870423	3.8562188
17.64015205627843	16.123535	4.0154123
17.657888755276293	17.006073	4.1238422
17.675625880702604	17.373833	4.168193
17.69336343301311	17.231188	4.1510468
17.71110141266366	16.597876	4.074049
17.728839820110178	15.83335	3.9791143
17.746578655808705	15.028632	3.876678
17.764317920215372	13.40073	3.6607008
17.7820576137864	11.583771	3.403494
17.79979773697811	9.183184	3.030377
17.81753829024692	7.139274	2.671942
17.835279274049356	5.5413637	2.35401
17.85302068884201	4.6771045	2.1626613
17.870762535081607	4.128825	2.0319512
17.888504813224934	3.8469052	1.961353
17.90624752372891	3.6895971	1.9208324
17.923990667050536	3.618616	1.902266
17.941734243646895	3.5551617	1.8855137
17.959478253975185	3.56182	1.8872784
17.9772226984927	3.5544987	1.8853378
17.994967577656833	3.4740522	1.863881
18.01271289192506	3.4454756	1.8561993
18.030458641754965	3.431247	1.8523625
18.04820482760425	3.4066522	1.8457118
18.06595144993067	3.3682098	1.8352684
18.083698509192125	3.3119519	1.8198769
18.101446005846576	3.2629764	1.8063711
18.119193940352105	3.2103071	1.791733
18.136942313166887	3.2024124	1.7895285
18.1546911247492	3.1736336	1.7814695
18.1724403755574	3.1551056	1.7762617
18.19019006604997	3.1477404	1.7741872
18.207940196685467	3.1563988	1.7766256
18.225690767922575	3.151128	1.7751417
18.243441780220046	3.1721714	1.781059
18.261193234036764	3.1342368	1.7703776
18.278945129831676	3.1053889	1.7622113
18.29669746806386	3.05722	1.7484908
18.314450249192483	3.0406213	1.7437377
18.3322034736768	3.0703883	1.7522523
18.349957141976184	3.0562823	1.7482226
18.3677112545501	3.0464072	1.745396
18.385465811858108	3.0686815	1.7517653
18.403220814359884	3.0845003	1.7562746
18.420976262515172	3.1026328	1.7614292
18.43873215678387	3.1252527	1.7678385
18.456488497625923	3.1692371	1.7802352
18.474245285501407	3.220312	1.7945228
18.492002520870486	3.2552025	1.8042179
18.50976020419343	3.341096	1.8278666
18.527518335930615	3.681326	1.9186782
18.545276916542516	4.3421707	2.0837877
18.563035946489688	4.509187	2.1234846
18.580795426232832	4.913712	2.2166893
18.598555356232698	4.7435136	2.1779609
18.616315736950185	5.070552	2.2517886
18.63407656884626	4.734002	2.1757762
18.65183785238201	4.950037	2.2248678
18.669599588018617	4.6878123	2.1651356
18.68736177621737	4.7081194	2.16982
18.705124417439652	4.6862917	2.1647844
18.72288751214696	4.5297337	2.128317
18.740651060800886	4.6570272	2.1580145
18.758415063863115	4.3456755	2.0846283
18.77617952179546	4.500894	2.121531
18.793944435059814	4.2454724	2.0604544
18.811709804118184	4.2966995	2.072848
18.829475629432675	4.2620926	2.0644836
18.8472419114655	4.0276685	2.0069053
18.86500865067897	4.0871053	2.0216591
18.88277584753551	3.733644	1.932264
18.90054350249763	3.7870946	1.9460459
18.918311616027957	3.4833734	1.8663797
18.936080188589226	3.4090428	1.8463594
18.953849220644265	3.0926948	1.758606
18.971618712656007	2.9069998	1.7049927
18.9893886650875	2.847516	1.6874585
19.007159078401887	8.022468	2.832396
19.024929953062408	32.91111	5.7368207
19.042701289532435	32.84833	5.7313466
19.060473088275405	25.403538	5.040192
19.07824534975489	2.692934	1.6410161
19.096018074434568	2.6853852	1.6387146
19.113791262778197	2.6604824	1.6310985
19.13156491524966	2.5892787	1.6091236
19.149339032312945	2.537374	1.5929137
19.167113614432136	2.5256824	1.5892396
19.184888662071433	2.5028982	1.5820551
19.202664175695123	2.4873714	1.5771403
19.220440155767623	2.5064268	1.5831698
19.238216602753447	2.5346322	1.5920528
19.2559935171172	2.5398993	1.5937061
19.27377089932361	2.5324166	1.5913569
19.291548749837514	2.4872508	1.5771021
19.309327069123835	2.5102043	1.5843624
19.32710585764763	2.5297697	1.5905249
19.344885115874032	2.5654461	1.601701
19.362664844268313	2.530022	1.5906043
19.380445043295822	2.5237405	1.5886285
19.39822571342203	2.5353403	1.5922751
19.41600685511252	2.511023	1.5846208
19.43378846883297	2.4807036	1.575025
19.451570555049173	2.4675107	1.5708312
19.469353114227037	2.4570084	1.5674847
19.48713614683254	2.471074	1.5719651
19.50491965333182	2.4900353	1.5779846
19.52270363419109	2.5307255	1.5908254
19.540488089876686	2.5349944	1.5921665
19.55827302085503	2.5222583	1.588162
19.576058427592674	2.520471	1.5875992
19.593844310556282	2.5044045	1.5825311
19.611630670212598	2.5027266	1.5820009
19.629417507028506	2.4902751	1.5780605
19.64720482147098	2.4764595	1.5736771
19.6649926140071	2.5070555	1.5833684
19.682780885104084	2.492979	1.578917
19.70056963522921	2.4640603	1.5697325
19.718358864849908	2.4701388	1.5716676
19.7361485744337	2.5009604	1.5814425
19.753938764448215	2.5087702	1.5839097
19.771729435361202	2.5106664	1.5845083
19.789520587640506	2.5506835	1.597086
19.807312221754092	2.5696056	1.602999
19.825104338170043	2.5495944	1.5967449
19.842896937356517	2.5375004	1.5929533
19.860690019781824	2.5494454	1.5966983
19.87848358591436	2.5544097	1.598252
19.896277636222635	2.5343347	1.5919594
19.914072171175278	2.5258822	1.5893024
19.931867191241015	2.5422683	1.5944492
19.94966269688869	2.5545785	1.5983049
19.967458688587264	2.5291007	1.5903146
19.985255166805807	2.500175	1.5811942
20.00305213201348	2.4855182	1.5765526
20.020849584679578	2.4797502	1.5747223
20.038647525273507	2.433393	1.5599337
20.05644595426477	2.4517612	1.5658101
20.07424487212299	2.4809818	1.5751133
20.092044279317903	2.515775	1.5861194
20.109844176319353	2.504104	1.5824361
20.127644563597304	2.4753478	1.5733238
20.145445441621817	2.4199195	1.555609
20.16324681086307	2.3971503	1.5482733
20.181048671791373	2.385821	1.5446104
20.198851024877122	2.3705702	1.5396656
20.216653870590836	2.3730464	1.5404695
20.234457209403146	2.404179	1.5505415
20.252261041784802	2.4102044	1.5524833
20.270065368206662	2.4246287	1.557122
20.287870189139685	2.412888	1.5533473
20.305675505054968	2.3743925	1.5409064
20.323481316423702	2.3793907	1.5425274
20.341287623717207	2.3810182	1.5430548
20.359094427406884	2.3911352	1.5463296
20.376901727964288	2.4291563	1.558575
20.39470952586107	2.450274	1.5653352
20.41251782156899	2.4516628	1.5657786
20.430326615559935	2.399781	1.5491227
20.448135908305886	2.356482	1.5350838
20.465945700278965	2.3149054	1.5214813
20.483755991951384	2.3092978	1.5196373
20.50156678379548	2.3144677	1.5213375
20.519378076283708	2.325635	1.5250033
20.537189869888635	2.328404	1.5259109
20.55500216508294	2.3471634	1.5320455
20.572814962339415	2.350108	1.5330062
20.59062826213098	2.3229966	1.524138
20.60844206493066	2.3157904	1.5217721
20.626256371211593	2.317453	1.5223182
20.644071181447032	2.2928503	1.5142161
20.66188649611036	2.2709315	1.506961
20.67970231567506	2.2736511	1.507863
20.697518640614742	2.3023639	1.5173542
20.715335471403122	2.3025844	1.5174268
20.73315280851404	2.2975688	1.5157733
20.750970652421447	2.2821183	1.5106682
20.768789003599412	2.276889	1.5089364
20.786607862522136	2.2654705	1.505148
20.8044272296639	2.3086429	1.5194219
20.82224710549913	2.3121486	1.520575
20.84006749050237	2.2907813	1.5135328
20.857888385148268	3.8398445	1.959552
20.8757097899116	45.933537	6.7774286
20.893531705267254	64.7842	8.048863
20.911354131690224	83.85255	9.157104
20.92917706965566	69.139534	8.315019
20.94700051963877	50.182175	7.0839376
20.96482448211493	29.391928	5.4214325
20.982648957559622	4.125316	2.0310874
21.00047394644843	2.2513216	1.5004405
21.01829944925707	2.2563503	1.5021152
21.036125466461375	2.2896492	1.5131587
21.053951998537297	2.2495914	1.4998637
21.071779045960906	2.214146	1.4880006
21.089606609208378	2.2305782	1.493512
21.10743468875603	2.2323673	1.4941108
21.12526328508028	2.2254272	1.4917866
21.143092398657675	2.2010283	1.4835863
21.16092202996488	2.1936657	1.4811028
21.17875217947867	2.2124581	1.4874334
21.19658284767596	2.2178168	1.4892336
21.21441403503377	2.2174695	1.489117
21.232245742029225	2.1734526	1.4742634
21.2500779691396	2.1930976	1.480911
21.26791071684227	2.2140245	1.4879599
21.28574398561475	2.2336302	1.4945334
21.30357777593465	2.1891372	1.4795734
21.321412088279704	2.1810148	1.476826
21.339246923127792	2.1520836	1.4669982
21.357082280956888	2.144882	1.4645416
21.3749181622451	2.1574848	1.4688379
21.392754567470647	2.2056935	1.4851577
21.41059149711187	2.208473	1.4860932
21.42842895164726	2.1589763	1.4693456
21.446266931555378	2.124342	1.4575123
21.464105437314945	2.1164865	1.4548149
21.481944469404798	2.102516	1.4500055
21.49978402830388	2.0860403	1.444313
21.51762411449127	2.0910983	1.446063
21.53546472844617	2.0585709	1.434772
21.553305870647876	2.0583408	1.4346919
21.571147541575865	2.068688	1.4382935
21.58898974170967	2.0981069	1.4484843
21.60683247152899	2.1150248	1.4543124
21.62467573151363	2.1178806	1.455294
21.642519522143523	2.087565	1.4448408
21.660363843898722	2.081613	1.4427797
21.6782086972594	2.1007774	1.4494059
21.696054082705864	2.093761	1.4469835
21.713900000718535	2.0533812	1.4329624
21.73174645177795	2.0429199	1.4293075
21.749593436364794	2.0812232	1.4426445
21.767440954959845	2.1335704	1.4606746
21.785289008044032	2.1083946	1.4520313
21.803137596098388	2.0706472	1.4389744
21.820986719604086	2.0224369	1.422124
21.838836379042412	2.0263336	1.4234934
21.85668657489478	1.9860755	1.409282
21.87453730764273	2.010629	1.4179665
21.892388577767914	2.0339544	1.4261677
21.91024038575213	2.05567	1.4337608
21.928092732077285	2.0598838	1.4352295
21.945945617225426	2.0234234	1.4224709
21.963799041678694	1.9823056	1.4079437
21.981653005919398	31.25962	5.5910306
21.999507510429943	78.060326	8.8351755
22.01736255569286	73.052025	8.547048
22.035218142190818	4.1949186	2.04815
22.05307427040661	2.030009	1.4247838
22.07093094082315	1.9706444	1.4037964
22.088788153923474	1.9279791	1.3885169
22.106645910190746	1.9425464	1.3937526
22.12450421010827	1.9911467	1.41108
22.142363054159464	1.9675757	1.4027029
22.16022244282787	1.9712126	1.4039989
22.178082376597164	1.9810421	1.407495
22.195942855951145	1.9765253	1.4058895
22.213803881373742	1.9698658	1.403519
22.231665453349002	1.935022	1.3910507
22.24952757236111	1.9487898	1.3959906
22.26739023889438	1.9413726	1.3933315
22.28525345343323	1.9418154	1.3934903
22.30311721646225	1.9561177	1.3986127
22.320981528466113	1.9817911	1.4077611
22.33884638992964	1.9878012	1.409894
22.356711801337788	1.9824517	1.4079956
22.37457776317561	1.9525434	1.3973343
22.392444275928337	1.9361334	1.39145
22.410311340081282	1.966231	1.4022236
22.428178956119904	1.9776889	1.4063033
22.446047124529805	1.9767224	1.4059596
22.46391584579669	1.9492365	1.3961506
22.481785120406414	1.9368715	1.3917153
22.49965494884496	1.9436057	1.3941326
22.51752533159841	1.9677731	1.4027734
22.53539626915302	1.9826354	1.4080609
22.553267761995137	1.9660897	1.4021732
22.571139810611264	1.9498699	1.3963774
22.589012415488025	1.9320828	1.3899938
22.60688557711216	1.9300972	1.3892794
22.624759295970566	1.9490271	1.3960756
22.642633572550263	1.9302262	1.3893259
22.660508407338362	1.8953577	1.37672
22.67838380082217	1.880173	1.371194
22.696259753489077	1.9116719	1.3826323
22.714136265826614	1.9389982	1.3924792
22.73201333832246	1.9269972	1.3881632
22.74989097146439	1.9176558	1.3847945
22.76776916574035	1.892275	1.3755999
22.785647921638393	1.9004661	1.3785739
22.803527239646712	1.9133426	1.3832363
22.82140712025363	1.9138732	1.3834281
22.839287563947593	1.9164448	1.3843572
22.85716857121719	1.9193503	1.3854061
22.875050142551135	1.9323575	1.3900926
22.892932278438277	1.9408888	1.3931578
22.910814979367604	1.9461248	1.3950357
22.928698245828222	1.9451382	1.3946822
22.946582078309387	1.9245007	1.3872638
22.96446647730047	1.9444962	1.394452
22.98235144329098	1.9448818	1.3945901
23.000236976770562	1.9151336	1.3838835
23.018123078229	1.8803827	1.3712704
23.03600974815619	1.8823057	1.3719715
23.053896987042194	1.9175518	1.3847569
23.071784795377173	1.9560231	1.398579
23.08967317365145	1.9639667	1.401416
23.10756212235546	1.9740374	1.4050044
23.125451641979787	1.9321262	1.3900094
23.143341733015134	1.9112551	1.3824815
23.161232395952357	1.9521956	1.39721
23.179123631282426	2.0167983	1.4201403
23.197015439496468	2.0293264	1.4245443
23.214907821085717	1.9802685	1.4072201
23.23280077654157	1.9321996	1.3900359
23.250694306355538	1.942623	1.3937801
23.268588411019277	1.9730763	1.4046624
23.28648309102458	1.9835175	1.4083741
23.304378346863356	1.9485111	1.3958908
23.322274179027676	1.937624	1.3919857
23.340170588009723	1.944345	1.3943977
23.358067574301852	1.9811041	1.407517
23.37596513839651	1.9662261	1.4022218
23.39386328078629	1.9692382	1.4032955
23.411762001963947	1.9596486	1.3998744
23.429661302422353	1.9606847	1.4002445
23.4475611826545	1.9493353	1.396186
23.46546164315356	1.9412721	1.3932954
23.48336268441279	1.9549433	1.3981929
23.501264306925638	1.9717203	1.4041796
23.51916651118564	1.9838215	1.408482
23.537069297686497	1.9757063	1.4055982
23.554972666922037	1.9743769	1.4051253
23.57287661938623	1.9355737	1.391249
23.59078115557318	1.9155611	1.384038
23.608686275977128	1.9274842	1.3883387
23.62659198109246	1.9646574	1.4016623
23.6444982714137	1.9595754	1.3998483
23.66240514743549	1.9491183	1.3961083
23.68031260965263	1.9369977	1.3917606
23.698220658560068	1.9593441	1.3997657
23.716129294652845	1.9550654	1.3982365
23.7340385184262	1.9581287	1.3993316
23.75194833037546	1.912983	1.3831062
23.769858730996123	1.8485615	1.3596182
23.78776972078382	1.8554221	1.3621389
23.80568130023431	1.9037619	1.3797687
23.823593469843495	1.9604874	1.400174
23.841506230107424	1.9447049	1.3945267
23.859419581522275	1.923375	1.386858
23.87733352458438	1.9073254	1.3810595
23.89524805979019	1.8951948	1.3766607
23.913163187636318	1.8720002	1.3682106
23.931078908619508	1.8712567	1.3679389
23.948995223236633	1.9376255	1.3919861
23.966912131984735	1.9992203	1.4139378
23.98482963536096	2.0345874	1.4263896
24.002747733862616	1.9913125	1.4111388
24.020666427987155	2.036737	1.427143
24.038585718232156	2.0954785	1.4475768
24.056505605095353	2.1225607	1.4569011
24.074426089074617	2.1416523	1.4634385
24.092347170667946	2.1141927	1.4540263
24.110268850373515	2.0738814	1.4400977
24.128191128689586	2.046731	1.4306401
24.146114006114626	2.0306447	1.4250069
24.164037483147187	2.0426598	1.4292165
24.181961560286005	2.0416832	1.4288749
24.199886238029926	2.008046	1.4170554
24.21781151687797	2.0180483	1.4205803
24.235737397329274	2.0299296	1.424756
24.253663879883135	2.016239	1.4199433
24.271590965038975	2.0142584	1.4192457
24.289518653296376	2.0516956	1.4323741
24.30744694515505	2.0932674	1.4468129
24.32537584111486	2.0912175	1.4461043
24.34330534167581	2.0750558	1.4405054
24.361235447338046	2.0591445	1.4349719
24.379166158601876	2.0048304	1.4159204
24.39709747596772	2.0114982	1.418273
24.41502939993615	2.0015337	1.4147557
24.432961931007917	2.0304694	1.4249454
24.450895069683856	2.0034442	1.4154308
24.468828816465	1.9443213	1.3943892
24.4867631718525	1.9059755	1.3805707
24.504698136347656	1.9805759	1.4073293
24.52263371045192	2.0440967	1.4297191
24.540569894666874	2.0074565	1.4168473
24.558506689494266	1.936216	1.3914797
24.57644409543597	1.944861	1.3945827
24.594382112994012	1.9438651	1.3942256
24.61232074267057	1.9589751	1.3996339
24.630259984967953	2.0022953	1.4150249
24.64819984038863	2.0014977	1.414743
24.66614030943522	1.9590192	1.3996496
24.684081392610462	1.954916	1.3981831
24.702023090417274	1.989443	1.4104761
24.7199654033587	1.9742832	1.4050919
24.737908331937927	1.942562	1.3937582
24.755851876658305	1.9712421	1.4040093
24.773796038023324	2.0457115	1.4302837
24.79174081653661	2.1014862	1.4496504
24.809686212701962	2.1178668	1.4552892
24.827632227023294	2.1099775	1.4525762
24.8455788600047	2.0680242	1.4380627
24.8635261121504	2.0820737	1.4429393
24.88147398396475	2.0755224	1.4406674
24.899422475952303	2.1194305	1.4558264
24.917371588617698	2.1350272	1.4611732
24.935321322465768	2.2018323	1.4838573
24.953271678001478	2.3217409	1.523726
24.97122265572994	2.5948768	1.6108621
24.989174256156414	2.986577	1.7281716
25.00712647978632	3.532843	1.8795859
25.02507932712521	4.0701427	2.0174594
25.043032798678798	4.6722293	2.161534
25.060986894952933	5.4416413	2.3327327
25.078941616453637	6.235389	2.497076
25.096896963687055	7.131085	2.6704092
25.114852937159508	8.049578	2.8371778
25.132809537377444	8.277118	2.876998
25.150766764847468	8.165111	2.8574657
25.168724620076347	7.360475	2.7130196
25.186683103570985	6.269529	2.5039027
25.204642215838426	5.046953	2.2465425
25.222601957385894	3.7678285	1.9410895
25.24056232872074	2.8931546	1.7009276
25.25852333035048	2.404257	1.5505667
25.276484962782778	2.1548882	1.4679537
25.294447226525435	2.045673	1.4302702
25.312410122086423	2.0009165	1.4145375
25.330373649973843	1.8991433	1.3780941
25.348337810695988	1.9240942	1.3871173
25.366302604761245	1.9710233	1.4039314
25.384268032678207	1.9678735	1.4028091
25.40223409495558	1.9408283	1.3931361
25.420200792102257	1.9747044	1.4052417
25.438168124627246	2.020026	1.4212762
25.45613609303974	1.9977148	1.4134054
25.474104697849057	1.9243767	1.3872191
25.492073939564698	1.9036812	1.3797395
25.510043818696285	1.9274302	1.3883191
25.528014335753614	1.8621986	1.364624
25.54598549124664	1.7935611	1.339239
25.56395728568544	1.7608494	1.32697
25.58192971958028	1.8146567	1.3470919
25.59990279344156	1.8459173	1.3586454
25.617876507779833	1.8574102	1.3628684
25.635850863105826	1.8394171	1.3562511
25.653825859930386	1.8041418	1.3431834
25.671801498764548	1.8025738	1.3425996
25.68977778011949	1.8092569	1.3450862
25.707754704506524	1.8287456	1.3523113
25.725732272437153	1.8467032	1.3589345
25.743710484423012	1.8439295	1.3579136
25.761689340975888	1.8611522	1.3642405
25.77966884260774	1.8565726	1.3625611
25.797648989830662	1.851629	1.3607458
25.815629783156922	1.8339238	1.3542244
25.83361122309895	1.8692433	1.3672028
25.85159331016929	1.8870186	1.373688
25.869576044880695	1.8995048	1.3782252
25.887559427746034	1.8926085	1.3757211
25.90554345927836	1.9094646	1.3818338
25.92352813999086	1.8703272	1.3675991
25.94151347039689	1.8672554	1.3664756
25.959499451009965	1.8518994	1.3608451
25.97748608234374	1.8520911	1.3609155
25.995473364912062	1.835736	1.3548933
26.013461299228904	1.8614714	1.3643575
26.03144988580839	1.9161007	1.3842329
26.04943912516483	1.9234817	1.3868964
26.067429017812675	1.8870097	1.3736848
26.085419564266537	1.8832111	1.3723015
26.103410765041186	1.9407254	1.3930992
26.12140262065155	1.9341923	1.3907524
26.139395131612723	1.8796405	1.3709998
26.157388298439948	1.8465791	1.3588889
26.17538212164861	1.8279333	1.3520108
26.193376601754295	1.8428737	1.3575249
26.211371739272714	1.8463653	1.3588103
26.229367534719746	1.8301331	1.3528241
26.247363988611433	1.8026105	1.3426133
26.26536110146397	1.8014892	1.3421956
26.283358873793727	1.8001817	1.3417085
26.301357306117204	1.8007312	1.3419132
26.319356398951104	1.802683	1.3426403
26.33735615281224	1.8348566	1.3545688
26.35535656821762	1.8146435	1.347087
26.373357645684404	1.851169	1.3605767
26.39135938572991	1.8280196	1.3520428
26.409361788871614	1.8064588	1.3440456
26.427364855627165	1.8020532	1.3424058
26.445368586514352	1.8291694	1.3524679
26.46337298205115	1.8157983	1.3475156
26.48137804275568	1.7659523	1.3288914
26.499383769146217	1.7237223	1.312906
26.517390161741215	1.7612624	1.3271257
26.53539722105928	1.7862065	1.3364904
26.553404947619182	1.8225546	1.3500202
26.571413341939856	1.7955452	1.3399795
26.589422404540397	1.7864182	1.3365695
26.60743213594006	1.7488391	1.3224368
26.62544253665827	1.7964181	1.3403052
26.64345360721459	1.8525509	1.3610845
26.66146534812879	1.840328	1.3565869
26.679477759920758	1.7989899	1.3412642
26.69749084311057	1.7970157	1.3405281
26.71550459821847	1.8494996	1.359963
26.733519025764842	1.8712935	1.3679523
26.751534126270258	1.8817291	1.3717613
26.769549900255434	1.8381443	1.3557818
26.787566348241267	1.8159875	1.3475858
26.80558347074881	1.813662	1.3467227
26.823601268299267	1.7974169	1.3406777
26.841619741414036	1.7736133	1.3317708
26.85963889061465	1.7493767	1.3226401
26.877658716422832	1.7694839	1.3302195
26.89567921936045	1.749869	1.3228261
26.913700399949544	1.7464781	1.3215438
26.93172225871233	1.7682604	1.3297595
26.949744796171174	1.8229749	1.3501759
26.967768012848605	1.8228196	1.3501184
26.98579190926733	1.7853397	1.336166
27.003816485950225	1.7704462	1.3305812
27.021841743420318	1.816147	1.3476449
27.039867682200814	1.8173857	1.3481045
27.057894302815072	1.8218455	1.3497576
27.07592160578664	1.8039777	1.3431224
27.0939495916392	1.8131522	1.3465334
27.111978260896635	1.8004185	1.3417968
27.13000761408296	1.7984871	1.3410769
27.148037651722397	1.8435236	1.3577642
27.166068374339304	1.8563074	1.3624637
27.184099782458215	1.8048544	1.3434486
27.20213187660384	1.8146017	1.3470715
27.22016465730105	1.8417617	1.3571153
27.23819812507487	1.8318679	1.3534652
27.256232280450533	1.8597225	1.3637165
27.274267123953383	1.8814569	1.371662
27.292302656108987	1.8607534	1.3640944
27.31033887744306	1.8254192	1.3510808
27.32837578848146	1.8500278	1.3601573
27.34641338975026	1.8231597	1.3502443
27.364451681775673	1.7948779	1.3397305
27.382490665084074	1.8043686	1.3432679
27.400530340202046	1.8404336	1.3566258
27.41857070765629	1.8569144	1.3626865
27.436611767973726	1.8135496	1.346681
27.454653521681404	1.826707	1.3515573
27.472695969306564	1.8417517	1.3571116
27.490739111376627	1.8216103	1.3496704
27.508782948419153	1.8530838	1.3612802
27.526827480961902	1.8737044	1.3688332
27.54487270953279	1.8463159	1.3587921
27.562918634659898	1.8292103	1.352483
27.580965256871508	1.8465211	1.3588676
27.599012576696026	1.8716613	1.3680867
27.617060594662068	1.859542	1.3636502
27.63510931129842	1.8472878	1.3591497
27.65315872713401	1.8197085	1.3489656
27.67120884269797	1.8320383	1.3535281
27.68925965851958	1.8838538	1.3725356
27.707311175128307	1.9029522	1.3794754
27.725363393053787	1.8651085	1.3656898
27.74341631282583	1.8788332	1.3707054
27.7614699349744	1.9387811	1.3924012
27.77952426002968	2.096302	1.4478612
27.797579288521973	2.1304243	1.4595973
27.815635020981784	2.5718336	1.6036937
27.83369145793979	2.656275	1.6298083
27.85174859992682	2.503871	1.5823624
27.869806447473923	2.4147403	1.5539435
27.887865001112267	2.0864542	1.4444563
27.905924261373233	1.9145162	1.3836604
27.92398422878836	1.8331939	1.3539549
27.94204490388936	1.8075331	1.3444453
27.96010628720813	1.8424473	1.3573678
27.978168379276728	1.8646188	1.3655105
27.9962311806274	1.8793973	1.3709111
28.014294691792568	1.9090222	1.3816737
28.0323589133048	1.8556963	1.3622395
28.050423845696887	1.8429569	1.3575555
28.068489489501758	1.8531306	1.3612974
28.086555845252523	1.8786904	1.3706533
28.104622913482487	1.8507509	1.3604231
28.122690694725115	1.8388383	1.3560377
28.14075918951405	1.8741362	1.3689909
28.15882839838312	1.9327185	1.3902224
28.176898321866304	1.9112632	1.3824844
28.1949689604978	1.9023217	1.3792468
28.213040314811945	1.9187568	1.385192
28.23111238534327	1.9703355	1.4036864
28.249185172626493	1.9875059	1.4097893
28.267258677196473	1.9278117	1.3884566
28.285332899588294	1.9062974	1.3806874
28.303407840337172	1.9045367	1.3800496
28.321483499978545	1.9320471	1.389981
28.33955987904799	1.9470601	1.395371
28.357636978081285	1.9176948	1.3848085
28.37571479761439	1.9381497	1.3921745
28.393793338183425	1.9364171	1.3915521
28.41187260032469	1.9347649	1.3909583
28.429952584574686	1.9237115	1.3869793
28.448033291470065	1.914383	1.3836123
28.46611472154769	1.9653364	1.4019046
28.484196875344566	2.0210228	1.4216268
28.502279753397914	2.046324	1.4304978
28.52036335624511	2.0277338	1.4239852
28.538447684423716	1.9991348	1.4139076
28.556532738471482	1.9994336	1.4140133
28.574618518926325	2.0020854	1.4149507
28.59270502632635	2.0190516	1.4209334
28.61079226120985	2.0230365	1.4223349
28.628880224115274	2.0087626	1.4173082
28.646968915581287	1.9847237	1.4088023
28.66505833614671	1.980514	1.4073074
28.68314848635055	1.9749534	1.4053303
28.701239366732004	2.022787	1.4222472
28.71933097783044	2.0915608	1.4462229
28.737423320185403	2.1109843	1.4529227
28.75551639433665	2.09457	1.4472629
28.773610200824074	2.130348	1.4595711
28.791704740187793	2.1690707	1.4727765
28.80980001296809	2.1353095	1.4612699
28.827896019705413	2.1610746	1.4700594
28.845992760940433	2.1704228	1.4732355
28.86409023721397	2.2329564	1.494308
28.88218844906704	2.24111	1.4970337
28.900287397040845	2.2544074	1.5014684
28.918387081676755	2.2817268	1.5105386
28.936487503516343	2.3096604	1.5197567
28.954588663101365	2.3237014	1.5243691
28.97269056097374	2.3383489	1.5291661
28.990793197675597	2.3172333	1.5222461
29.00889657374923	2.3211057	1.5235175
29.027000689737125	2.344463	1.5311639
29.04510554618196	2.4064534	1.5512748
29.06321114362659	2.5156095	1.5860673
29.08131748261405	2.5257893	1.5892732
29.099424563687567	2.4755313	1.5733821
29.11753238739057	2.503671	1.5822992
29.13564095426663	2.5295851	1.590467
29.15375026485954	2.5541236	1.5981625
29.171860319713275	2.5820475	1.6068751
29.18997111937199	2.675302	1.635635
29.20808266438002	2.8042057	1.6745763
29.226194955281898	2.844223	1.6864824
29.244307992622335	2.8664198	1.6930504
29.26242177694624	2.870452	1.6942408
29.2805363087987	2.8758304	1.6958274
29.29865158872498	2.8669276	1.6932003
29.316767617270557	2.8555708	1.6898434
29.334884394981064	2.9233587	1.7097832
29.353001922402367	3.006089	1.7338077
29.37112020008047	3.1277952	1.7685574
29.389239228561596	3.2337453	1.7982618
29.407359008392152	3.491155	1.8684633
29.42547954011872	3.9609046	1.9902022
29.44360082428809	4.77891	2.1860719
29.46172286144722	6.117159	2.473289
29.479845652143283	7.96762	2.8226972
29.497969196923606	10.357666	3.2183328
29.516093496335728	13.058972	3.61372
29.5342185509274	15.835379	3.9793692
29.55234436124651	17.626335	4.198373
29.570470927841175	18.062958	4.250054
29.588598251259686	17.12477	4.1382084
29.60672633205055	15.377117	3.9213667
29.624855170762405	12.985893	3.6035945
29.642984767944146	10.215341	3.1961446
29.66111512414481	7.71895	2.7782998
29.67924623991366	5.731246	2.3940022
29.697378115800138	4.613518	2.14791
29.71551075235387	3.9791348	1.9947768
29.733644150124675	3.630199	1.9053081
29.751778309662576	3.4928057	1.868905
29.769913231517766	3.422285	1.849942
29.78804891624066	3.33227	1.8254507
29.806185364381818	3.3180249	1.8215446
29.82432257649206	3.3710763	1.8360491
29.842460553122333	3.3982563	1.843436
29.86059929482382	3.3488865	1.8299963
29.878738802147872	3.274574	1.8095784
29.896879075646048	3.2271302	1.7964215
29.915020115870114	3.2193046	1.794242
29.933161923371976	3.2399783	1.799994
29.951304498703777	3.2948315	1.8151671
29.969447842417857	3.2975361	1.8159119
29.987591955066733	3.2435455	1.8009846
30.005736837203123	3.2061532	1.7905734
30.023882489379943	3.1830654	1.7841147
30.04202891215028	3.2075713	1.7909694
30.060176106067455	3.1412692	1.7723626
30.078324071684946	3.08771	1.7571881
30.09647280955646	3.0590746	1.749021
30.114622320235863	3.1315238	1.7696112
30.132772604277257	3.1643298	1.7788563
30.1509236622349	3.1485434	1.7744135
30.16907549466328	3.1431653	1.7728975
30.18722810211705	3.1137722	1.7645884
30.205381485151097	3.041811	1.7440789
30.22353564432045	2.974851	1.7247756
30.241690580180403	3.051045	1.746724
30.25984629328638	3.1246748	1.7676749
30.278002784194037	3.079044	1.7547206
30.296160053459246	3.0094237	1.7347691
30.314318101638033	2.9508164	1.7177941
30.332476929286646	2.9243133	1.7100624
30.35063653696153	2.8896968	1.6999109
30.368796925219307	2.847038	1.6873168
30.386958094616844	2.8980849	1.7023762
30.40512004571115	2.8957362	1.7016863
30.423282779059463	2.8533058	1.6891731
30.441446295219233	2.848873	1.6878605
30.459610594748067	2.872182	1.6947513
30.47777567820382	2.8918722	1.7005506
30.495941546144504	2.8430662	1.6861395
30.51410819912835	2.7968009	1.6723639
30.532275637713795	2.8674982	1.6933689
30.55044386245946	2.952079	1.7181616
30.56861287392416	2.9075942	1.7051669
30.586782672666956	2.861404	1.6915685
30.604953259247047	2.8310874	1.6825836
30.623124634223885	2.7988389	1.672973
30.641296798157075	2.7916074	1.6708103
30.659469751606462	2.7897089	1.6702422
30.677643495132074	2.7547607	1.6597472
30.695818029294152	2.729621	1.6521565
30.713993354653116	2.7212725	1.6496279
30.73216947176962	2.774665	1.6657326
30.75034638120448	2.8007138	1.6735333
30.768524083518756	2.8317726	1.6827872
30.786702579273673	2.8616557	1.6916429
30.80488186903069	2.8670492	1.6932364
30.82306195335144	2.9549637	1.7190008
30.841242832797782	3.2091227	1.7914025
30.85942450793176	3.5440419	1.8825626
30.877606979315637	3.9165678	1.979032
30.895790247511883	4.2929053	2.0719328
30.913974313083134	4.6468897	2.1556644
30.932159176592283	4.857258	2.2039187
30.95034483860237	4.652857	2.1570482
30.968531299676698	4.33286	2.0815523
30.98671856037873	4.07521	2.018715
31.00490662127215	3.8239038	1.9554805
31.023095482920848	3.31926	1.8218836
31.04128514588892	2.9145105	1.7071937
31.059475610740662	2.6602542	1.6310285
31.07766687804056	2.5937212	1.6105034
31.09585894835335	2.5463405	1.5957257
31.11405182224393	2.4984758	1.5806568
31.132245500277417	2.4712112	1.5720086
31.15043998301914	2.4808137	1.5750599
31.168635271034628	2.5679839	1.602493
31.18683136488964	2.5522912	1.5975891
31.20502826515008	2.5375788	1.592978
31.223225972382135	2.4641545	1.5697626
31.241424487152155	2.4565969	1.5673535
31.259623810026692	2.467611	1.5708631
31.27782394157253	2.469135	1.5713482
31.296024882356644	2.4390025	1.5617306
31.314226632946237	2.402859	1.5501158
31.332429193908684	2.4187307	1.5552269
31.350632565811598	2.4223435	1.556388
31.368836749222787	2.4741187	1.5729332
31.387041744710295	2.5114722	1.5847626
31.40524755284232	2.587176	1.6084701
31.423454174187317	2.6415014	1.6252697
31.441661609313922	2.6381676	1.6242437
31.459869858791002	2.6089482	1.6152239
31.478078923187628	2.4877687	1.5772662
31.496288803073064	2.3580155	1.5355831
31.514499499016807	2.3015838	1.5170971
31.532711011588546	2.3160486	1.521857
31.550923341358178	2.346112	1.5317023
31.56913648889584	2.3415642	1.530217
31.587350454771844	2.3042257	1.5179676
31.605565239556732	2.272869	1.5076038
31.62378084382127	2.256193	1.5020629
31.641997268136382	2.2844687	1.5114459
31.660214513073274	2.29149	1.5137669
31.67843257920331	2.265143	1.5050392
31.6966514670981	2.2534478	1.5011488
31.71487117732944	2.2652788	1.5050843
31.733091710469346	2.3099346	1.5198469
31.751313067090052	2.2982137	1.5159861
31.769535247764008	2.3673737	1.5386273
31.787758253063878	2.4099064	1.5523874
31.805982083562526	2.3472447	1.5320721
31.824206739833024	2.2704673	1.506807
31.84243222244869	2.2905211	1.5134468
31.860658531983013	2.2957494	1.5151731
31.878885669009737	2.2842824	1.5113842
31.897113634102784	2.2542243	1.5014074
31.91534242783632	2.2182364	1.4893745
31.933572050784694	2.1866155	1.4787209
31.951802503522508	2.1441216	1.4642819
31.970033786624548	2.145651	1.4648042
31.988265900665834	2.1797416	1.4763948
32.006498846221575	2.1662703	1.4718255
32.02473262386724	2.151593	1.466831
32.04296723417845	2.1633747	1.4708415
32.0612026777311	2.1626453	1.4705936
32.07943895510129	2.1759777	1.4751196
32.097676066865304	2.1857064	1.4784135
32.115914013599685	2.1358876	1.4614676
32.13415279588115	2.1919596	1.4805268
32.152392414286666	2.234696	1.49489
32.1706328693934	2.2308614	1.4936068
32.18887416177875	2.193178	1.4809382
32.20711629202032	2.1921835	1.4806024
32.225359260695924	2.17451	1.474622
32.243603068383614	2.2093155	1.4863766
32.26184771566166	2.1997535	1.4831566
32.28009320310852	2.1610272	1.4700433
32.2983395313029	2.1130147	1.4536213
32.31658670082372	2.1469634	1.4652519
32.33483471225012	2.1332858	1.4605772
32.35308356616143	2.1220899	1.4567394
32.371333263137245	2.100429	1.4492857
32.38958380375734	2.1275399	1.4586089
32.407835188601744	2.174978	1.4747807
32.42608741825067	2.1602848	1.4697907
32.444340493284585	2.1636188	1.4709245
32.46259441428416	2.168149	1.4724636
32.48084918183028	2.0860994	1.4443336
32.49910479650405	2.0409772	1.4286277
32.51736125888683	1.9579202	1.3992571
32.53561856956014	2.0327473	1.4257444
32.5538767291058	2.1223407	1.4568255
32.572135738105764	2.1013203	1.4495932
32.59039559714228	2.0020876	1.4149514
32.608656306797776	2.0311837	1.425196
32.62691786765491	2.0909677	1.4460179
32.645180280296586	2.0708458	1.4390434
32.663443545305896	2.0574114	1.434368
32.68170766326619	2.1170921	1.455023
32.69997263476099	2.1061976	1.4512745
32.7182384603741	2.0908952	1.4459928
32.7365051406895	2.0394425	1.4280906
32.75477267629144	1.9973323	1.4132701
32.77304106776434	1.9506946	1.3966727
32.79131031569289	1.9461715	1.3950526
32.809580420661966	1.9773564	1.406185
32.827851383256714	1.9566227	1.3987933
32.84612320406245	1.930783	1.3895262
32.86439588366476	1.9243944	1.3872254
32.88266942264945	2.0053864	1.4161166
32.9009438216025	2.1445968	1.4644442
32.9192190811102	2.167158	1.472127
32.937495201758985	2.076879	1.4411381
32.95577218413556	1.981098	1.4075148
32.974050028826866	1.917808	1.3848494
32.992328736420035	1.9761174	1.4057444
33.010608307502444	2.095526	1.4475932
33.02888874266169	2.116839	1.454936
33.047170042485604	2.081512	1.4427446
33.06545220756225	2.0479193	1.4310553
33.083735238479896	2.0301847	1.4248455
33.10201913582707	2.0238802	1.4226315
33.12030390019248	2.005933	1.4163097
33.138589532165135	1.9556547	1.3984473
33.15687603233419	1.9104186	1.3821789
33.17516340128909	1.8683274	1.3668678
33.19345163961947	1.8827024	1.372116
33.211740747915215	1.9084163	1.3814543
33.23003072676643	2.0181298	1.420609
33.248321576763466	2.044916	1.4300056
33.266613298496885	1.9975047	1.413331
33.28490589255747	1.9736942	1.4048823
33.30319935953626	1.9422829	1.3936582
33.32149370002451	1.8400916	1.3564998
33.339788914613706	1.8314356	1.3533055
33.358085003895575	1.9137347	1.383378
33.376381968462034	1.9647732	1.4017037
33.39467980890529	1.824174	1.3506199
33.41297852581774	1.8767221	1.369935
33.43127811979204	1.9040709	1.3798808
33.44957859142105	1.8960336	1.3769654
33.467879941297866	1.9474208	1.3955002
33.486182170015844	1.9085184	1.3814914
33.50448527816853	1.8687862	1.3670355
33.522789266349754	1.8906797	1.3750199
33.541094135153514	1.7961673	1.3402116
33.55939988517411	1.7857074	1.3363036
33.57770651700602	1.8583169	1.363201
33.59601403124398	1.9374554	1.3919251
33.61432242848296	1.9416715	1.3934387
33.632631709318154	1.9277176	1.3884227
33.650941874344994	1.9790013	1.4067698
33.66925292415916	2.0091474	1.417444
33.68756485935654	2.0206602	1.4214993
33.70587768053328	1.9031808	1.3795582
33.724191388285746	1.8363587	1.3551232
33.74250598321054	1.8910096	1.3751398
33.760821465904506	1.8804399	1.3712913
33.77913783696474	1.8666699	1.3662612
33.79745509698852	1.9152076	1.3839103
33.815773246573414	1.9557624	1.3984858
33.8340922863172	1.9543204	1.3979701
33.852412216817896	1.8812371	1.371582
33.87073303867377	1.7929876	1.3390249
33.889054752483304	1.9093316	1.3817856
33.907377358845245	1.9871911	1.4096776
33.92570085835853	1.8642623	1.3653799
33.94402525162239	1.8756562	1.369546
33.96235053923627	1.9444696	1.3944424
33.980676721799824	2.0583634	1.4346998
33.999003799912984	2.022251	1.4220587
34.01733177417592	1.8155242	1.3474139
34.03566064518901	1.9055154	1.3804041
34.0539904135529	1.9299049	1.3892102
34.07232107986846	1.9909695	1.4110172
34.090652644736785	1.9103247	1.3821449
34.108985108759235	1.8280473	1.3520529
34.12731847253742	1.8005164	1.3418332
34.14565273667313	1.9732313	1.4047176
34.16398790176847	1.927222	1.3882443
34.18232396842574	1.9277896	1.3884486
34.20066093724749	2.071872	1.4393998
34.21899880883651	2.09714	1.4481505
34.23733758379583	2.0250838	1.4230543
34.25567726272874	2.0712955	1.4391996
34.27401784623872	2.063241	1.4363986
34.29235933492957	1.9787214	1.4066703
34.31070172940526	1.9709766	1.4039147
34.32904503027003	1.9572194	1.3990066
34.347389238128386	1.8265787	1.3515098
34.36573435358502	1.8745269	1.3691336
34.38408037724492	2.0066404	1.4165593
34.402427309713296	2.2434735	1.4978229
34.42077515159559	2.1876023	1.4790546
34.43912390349752	2.0325773	1.4256848
34.45747356602499	1.9069868	1.380937
34.47582413978423	1.8176535	1.3482038
34.49417562538163	1.8787568	1.3706775
34.51252802342388	1.9395092	1.3926626
34.53088133451789	1.8082516	1.3447125
34.54923555927084	1.8076944	1.3445053
34.567590698290104	1.9503409	1.396546
34.58594675218336	1.9113537	1.3825172
34.6043037215585	1.9736452	1.4048648
34.62266160702365	2.1016078	1.4496924
34.641020409187234	1.9699523	1.4035499
34.65938012865785	1.8943657	1.3763596
34.677740766044394	2.039553	1.4281292
34.69610232195598	2.1354327	1.4613119
34.714464797002016	2.0240772	1.4227006
34.73282819179208	2.0231268	1.4223666
34.751192506936064	2.0175745	1.4204135
34.76955774304408	2.0247502	1.4229372
34.7879239007265	1.9013689	1.3789014
34.80629098059391	1.936345	1.3915261
34.824658983257194	1.9268775	1.3881202
34.843027909327446	1.8521343	1.3609314
34.86139775941603	2.054798	1.4334567
34.879768534134534	2.2647758	1.5049171
34.89814023409483	2.3359938	1.5283958
34.91651285990901	2.2808197	1.5102383
34.93488641218944	2.264977	1.504984
34.95326089154871	2.0771954	1.4412478
34.97163629859967	1.920083	1.3856707
34.99001263395542	2.0216897	1.4218613
35.00838989822934	2.2232187	1.4910462
35.02676809203499	2.156994	1.4686708
35.04514721598624	1.880414	1.3712819
35.063527270697215	1.8266907	1.3515512
35.081908256782256	1.8883946	1.3741887
35.10029017485597	1.86087	1.364137
35.11867302553321	1.9523257	1.3972565
35.137056809429104	1.9121085	1.3827901
35.155441527159006	1.8673075	1.3664947
35.173827179338524	1.8879979	1.3740443
35.19221376658354	2.0446875	1.4299257
35.21060128951017	2.2163045	1.4887258
35.2289897487348	2.155034	1.4680034
35.24737914487405	2.0112722	1.4181933
35.26576947854479	1.8580784	1.3631135
35.28416075036418	1.9116852	1.382637
35.30255296094958	1.9847186	1.4088004
35.32094611091867	2.0292044	1.4245014
35.33934020088932	2.096849	1.44805
35.35773523147969	2.0984495	1.4486026
35.3761312033082	2.0453706	1.4301646
35.394528116993506	2.0618966	1.4359306
35.41292597315452	2.0353909	1.4266713
35.431324772410434	1.9560868	1.3986018
35.449724515380666	2.0007322	1.4144725
35.46812520268491	2.0284982	1.4242536
35.486526834943106	2.1789358	1.4761219
35.504929412775454	1.6842691	1.2977939
35.52333293680242	1.6762676	1.2947075
35.54173740764471	1.730205	1.3153726
35.560142825923286	2.1640103	1.4710575
35.5785491922594	2.5261564	1.5893887
35.59695650727454	2.471626	1.5721406
35.61536477159042	1.7820303	1.3349271
