0.008763373481513119	0.0	0.0
0.026290120649546365	0.11242709	0.3353015
0.043816868432600686	0.121336736	0.34833422
0.06134361724069026	0.18105187	0.4255019
0.07887036748382949	0.20149375	0.44888055
0.0963971195720331	0.16988717	0.41217372
0.11392387391531617	0.14594209	0.3820237
0.1314506309236943	0.12449491	0.35283837
0.1489773910071836	0.0808379	0.28432006
0.16650415457580078	0.07303283	0.27024588
0.18403092203956356	0.061727624	0.24845044
0.20155769380849	0.1025591	0.32024848
0.2190844702925996	0.15430848	0.3928212
0.2366112519019124	0.15355685	0.39186332
0.2541380390464497	0.2061973	0.45408952
0.27166483213623416	0.22464983	0.4739724
0.28919163158128947	0.21525027	0.46395072
0.3067184377916406	0.14883263	0.38578832
0.324245251177314	0.12212223	0.34945992
0.34177207214833777	0.11167278	0.33417478
0.3592989011147415	0.15515548	0.3938978
0.37682573848655654	0.17978862	0.42401487
0.39435258467381573	0.19733742	0.44422677
0.41187944008655414	0.17410699	0.4172613
0.42940630513480854	0.18821925	0.43384242
0.446933180228618	0.18802477	0.43361825
0.4644600657780234	0.19673611	0.44354945
0.48198696219306775	0.18693902	0.43236443
0.49951386988379676	0.16080593	0.40100613
0.5170407892602581	0.14247848	0.37746322
0.5345677207325025	0.13267322	0.36424336
0.5520946647105822	0.12916133	0.35939023
0.5696216216045534	0.15691881	0.3961298
0.5871485918244737	0.1829196	0.427691
0.6046755757804043	0.17744464	0.4212418
0.6222025738824094	0.17650062	0.42011976
0.6397295865405557	0.12547661	0.35422677
0.6572566141649129	0.11531829	0.33958548
0.6747836571655547	0.15496437	0.39365515
0.6923107159525568	0.16726005	0.40897438
0.7098377909359992	0.17674951	0.42041588
0.7273648825259653	0.16129076	0.40161023
0.7448919911325411	0.1727612	0.4156455
0.762419117165817	0.19021654	0.4361382
0.7799462610358868	0.19756651	0.44448453
0.7974734231528482	0.2154272	0.46414137
0.8150006039268024	0.24953133	0.49953112
0.8325278037678551	0.28744873	0.53614247
0.8500550230861152	0.22542733	0.47479188
0.8675822622916969	0.19814745	0.44513756
0.8851095217947171	0.22611754	0.47551817
0.9026368020052984	0.25664943	0.5066058
0.9201641033335665	0.28837913	0.5370094
0.9376914261896523	0.23010299	0.47969052
0.9552187709836915	0.2000057	0.44721997
0.9727461381258234	0.17786047	0.42173508
0.990273528026193	0.20550416	0.45332566
1.0078009410949496	0.22585253	0.47523946
1.0253283777422473	0.26038292	0.5102773
1.0428558383782454	0.25358015	0.5035674
1.0603833234131086	0.2654929	0.51526004
1.0779108332570058	0.29699463	0.5449721
1.0954383683201119	0.33398834	0.5779172
1.112965929012607	0.40386084	0.6355005
1.1304935157446763	0.5294628	0.72764194
1.1480211289265108	0.58569795	0.76530904
1.1655487689683062	1.5881042	1.2602
1.1830764362802655	1.9776827	1.406301
1.200604131272596	2.3204827	1.523313
1.2181318543555117	2.4950712	1.5795795
1.235659605939232	2.5099554	1.5842838
1.253187386433982	4.085588	2.0212836
1.270715196249994	6.6905575	2.5866113
1.2882430357975057	12.216815	3.4952562
1.3057709054867608	17.200527	4.1473517
1.3232988057280106	22.746956	4.7693768
1.3408267369315112	27.74205	5.267072
1.358354699507526	31.37483	5.601324
1.3758826938663256	35.76661	5.9805193
1.3934107204181858	38.04001	6.1676583
1.410938779573391	38.362904	6.1937795
1.4284668717422309	38.72249	6.2227397
1.4459949973350033	38.129356	6.174897
1.4635231567620117	37.587563	6.13087
1.4810513504335687	36.740887	6.061426
1.4985795787599925	35.97489	5.997907
1.5161078421516088	35.86151	5.988448
1.5336361410187505	35.316772	5.9427915
1.5511644757717598	35.34004	5.944749
1.5686928468209842	35.56572	5.9637003
1.58622125457678	36.20559	6.017108
1.6037496994495108	37.38559	6.1143756
1.621278181849548	37.85552	6.1526837
1.6388067021872719	38.98569	6.243852
1.6563352608730693	38.33206	6.191289
1.673863858317336	37.003258	6.08303
1.6913924949304753	36.14196	6.0118184
1.7089211711228998	34.789097	5.898228
1.7264498873050296	34.126812	5.841816
1.7439786438872935	33.12938	5.7558126
1.7615074412801288	32.254036	5.6792636
1.779036279893981	31.512238	5.6135764
1.796565160139305	30.6711	5.5381494
1.814094082426564	30.263353	5.501214
1.8316230471662298	29.633284	5.443646
1.849152054768784	29.021246	5.387137
1.8666811056447168	28.440807	5.3329926
1.8842102002045273	27.273928	5.2224445
1.901739338858724	26.616266	5.1590953
1.9192685220178245	25.844608	5.0837593
1.9367977500923557	25.312485	5.0311513
1.9543270234928547	24.973593	4.997359
1.971856342629867	24.351025	4.9346757
1.9893857079139496	23.976978	4.8966293
2.006915119755667	23.501299	4.8478136
2.0244445785655945	22.835873	4.7786894
2.0419740847543175	22.083273	4.699284
2.0595036387324317	21.390322	4.624967
2.0770332409105414	20.914604	4.573249
2.094562891699263	20.622253	4.541173
2.1120925915092217	20.336842	4.509639
2.129622340751053	20.256966	4.500774
2.1471521398354043	188.41449	13.726416
2.1646819891729323	444.54047	21.084127
2.182211889174303	440.5176	20.988512
2.1997418402501974	452.8329	21.279871
2.2172718428113023	432.70648	20.801598
2.234801897268317	320.7361	17.909107
2.2523320040319548	17.202627	4.147605
2.269862163512935	17.002539	4.1234136
2.287392376121992	16.892263	4.1100197
2.304922642269869	16.657383	4.0813456
2.322452962367322	16.28175	4.035065
2.3399833368251164	15.788516	3.9734766
2.357513766054032	15.439982	3.9293742
2.3750442504648586	15.191721	3.8976557
2.3925747904683963	15.008972	3.8741415
2.410105386475459	14.888804	3.8586013
2.4276360388968707	14.454747	3.80194
2.445166748143469	14.192735	3.7673247
2.4626975146261025	13.912567	3.7299554
2.4802283387556323	13.833168	3.7192967
2.4977592209429305	13.668894	3.6971467
2.5152901615988825	13.512849	3.6759827
2.5328211611343865	13.12076	3.622259
2.5503522199603523	12.762526	3.5724678
2.5678833384877024	12.561303	3.5441928
2.5854145171273712	12.307239	3.5081675
2.6029457562903064	12.133607	3.4833326
2.620477056387469	11.7879095	3.4333525
2.6380084178298326	11.534604	3.3962634
2.655539841028383	11.464047	3.38586
2.673071326394119	11.349057	3.3688362
2.6906028743380523	11.186389	3.344606
2.708134485271211	11.023462	3.32016
2.7256661596046325	10.994559	3.3158045
2.743197897749369	10.85489	3.294676
2.760729700116486	10.786601	3.284296
2.778261567117063	10.594106	3.2548587
2.795793499162193	10.324227	3.2131336
2.8133254966629817	10.136259	3.1837492
2.830857560030551	9.837177	3.1364274
2.8483896896760337	9.810049	3.1320999
2.865921886010578	9.781347	3.1275146
2.883454149445347	9.865916	3.1410055
2.9009864803915177	9.583026	3.0956464
2.91851887926028	9.304586	3.050342
2.9360513464628384	8.959448	2.9932337
2.953583882410413	8.818835	2.9696524
2.9711164875142373	8.907405	2.9845276
2.9886491621855606	8.888656	2.9813848
3.0061819068356455	8.828407	2.9712636
3.023714721875769	8.569493	2.9273696
3.041247607717225	8.307862	2.8823361
3.0587805647713213	8.174507	2.8591094
3.0763135934493806	8.206189	2.8646448
3.0938466941627407	8.19407	2.8625286
3.1113798673227544	8.097622	2.845632
3.1289131133407904	8.044022	2.8361983
3.1464464326282315	8.026594	2.8331244
3.1639798255964786	7.938847	2.817596
3.1815132926569443	7.8424773	2.8004425
3.1990468342210603	7.7771854	2.7887607
3.216580450700272	7.671646	2.7697737
3.2341141425060416	7.5409145	2.7460725
3.251647910049847	7.4674163	2.7326574
3.2691817537431813	7.37725	2.7161093
3.286715673997555	7.3402557	2.7092907
3.3042496712244938	7.3342147	2.7081754
3.32178374583554	7.245076	2.691668
3.339317898242251	7.0739136	2.659683
3.3568521288562034	6.8732924	2.6216965
3.3743864380889876	6.715627	2.5914528
3.3919208263522127	6.7426186	2.5966554
3.4094552940575023	6.6752563	2.5836518
3.4269898416164972	6.676801	2.5839508
3.444524469440858	6.5880175	2.5667133
3.4620591779422587	6.554222	2.5601215
3.479593967532391	6.4934254	2.5482202
3.4971288386229658	6.466009	2.5428348
3.5146637916257086	6.502608	2.5500212
3.5321988269523628	6.5180583	2.5530488
3.5497339450146903	6.5217214	2.553766
3.5672691462244708	6.472274	2.5440664
3.5848044309934988	6.3960266	2.5290368
3.60233979973359	6.256152	2.5012302
3.619875252856575	6.199712	2.489922
3.6374107907743034	6.1967416	2.4893255
3.6549464138986427	6.2747803	2.5049512
3.6724821226414788	6.351895	2.5202966
3.690017917414714	6.367497	2.52339
3.7075537986302702	6.369568	2.5238004
3.7250897667000857	6.4105415	2.5319047
3.7426258220361235	6.523005	2.5540175
3.7601619650503553	6.9358244	2.6335952
3.777698196154779	7.494891	2.73768
3.7952345157614067	8.723147	2.9534974
3.8127709242822716	9.483634	3.079551
3.830307422129425	11.435872	3.3816967
3.847844009714936	30.17553	5.4932256
3.8653806874508954	97.62992	9.880785
3.882917455749409	96.99203	9.848453
3.900454315022606	96.92424	9.845011
3.917991265682631	41.45964	6.438916
3.9355283081416506	11.142059	3.3379724
3.9530654428118495	8.992959	2.9988263
3.970602670105433	7.877153	2.8066266
3.9881399904346244	6.8592954	2.6190257
4.005677404211669	6.7075286	2.5898898
4.023214911848827	6.611353	2.5712552
4.0407525137583855	6.5774803	2.5646598
4.058290210352644	6.571637	2.5635204
4.075828002043927	6.4509683	2.5398757
4.0933658892445814	6.4658923	2.5428119
4.110903872366966	6.4248695	2.5347326
4.128441951823468	6.3570757	2.5213242
4.145980128026488	6.341188	2.5181715
4.163518401388452	6.2820964	2.506411
4.181056772321807	6.285984	2.5071864
4.1985952412390155	6.3096952	2.5119107
4.216133808552567	6.3122396	2.512417
4.233672474674966	6.3306394	2.516076
4.251211240018741	6.523552	2.5541246
4.268750104996445	6.7808914	2.6040144
4.286289070020643	7.7187247	2.7782593
4.303828135503928	9.323855	3.053499
4.3213673018589125	29.649635	5.445148
4.3389065694982305	90.90675	9.534503
4.356445938834537	166.1613	12.890357
4.3739854102805085	171.92592	13.112052
4.391524984248844	172.69167	13.14122
4.409064661152262	136.84598	11.698118
4.426604441403504	97.05961	9.851884
4.444144325415337	76.079956	8.722383
4.461684313600543	22.005762	4.69103
4.47922440637193	22.31997	4.7244015
4.496764604142329	20.682894	4.547845
4.5143049073245916	18.938763	4.351869
4.531845316331589	16.851156	4.1050158
4.5493858315762195	13.912096	3.7298923
4.566926453471405	11.493752	3.3902435
4.584467182430081	9.546279	3.0897052
4.602008018865218	8.4044695	2.8990464
4.619548963189798	7.6510997	2.766062
4.637090015816834	7.206901	2.6845672
4.654631177159353	6.8528476	2.6177945
4.672172447630417	6.722277	2.5927355
4.689713827643102	6.6092653	2.5708492
4.7072553176105085	6.4663477	2.5429015
4.724796917945764	6.176537	2.485264
4.742338629062015	5.9478416	2.4388196
4.759880451372434	5.875707	2.4239857
4.777422385290215	5.86061	2.4208696
4.794964431228581	5.8831253	2.4255154
4.812506589600768	5.804991	2.409355
4.830048860820047	5.763134	2.400653
4.847591245299709	5.6923995	2.385875
4.8651337434530655	5.6628256	2.3796692
4.882676355693457	5.598104	2.3660312
4.900219082434242	5.5873446	2.3637564
4.917761924088813	5.60758	2.368033
4.935304881070575	5.64453	2.3758218
4.952847953792969	5.655414	2.3781114
4.970391142669449	5.4990296	2.345001
4.9879344481135055	5.415075	2.3270314
5.005477870538642	5.367349	2.316754
5.023021410358394	5.393951	2.322488
5.040565067986324	5.4324446	2.3307605
5.05810884383601	5.472723	2.3393853
5.075652738321066	5.4853992	2.342093
5.09319675185512	5.4709177	2.3389993
5.110740884851836	5.420196	2.3281314
5.128285137724894	5.4061127	2.325105
5.145829510888007	5.3949385	2.3227007
5.163374004754908	5.378515	2.3191626
5.1809186197393595	5.3449674	2.3119185
5.198463356255145	5.3492665	2.312848
5.216008214716077	5.393826	2.3224611
5.233553195535998	5.3701982	2.3173687
5.251098299128764	5.415643	2.3271534
5.268643525908272	5.316161	2.3056803
5.286188876288432	5.2741995	2.2965624
5.3037343506831895	5.315011	2.3054307
5.32127994950651	5.343799	2.3116658
5.3388256731723915	5.334967	2.3097548
5.356371522094851	5.277947	2.2973783
5.373917496687938	5.208488	2.2822113
5.391463597365729	5.23342	2.2876668
5.40900982454232	5.2136054	2.283332
5.426556178631843	5.19101	2.2783787
5.444102660048449	5.2135267	2.283315
5.4616492692063225	5.2609034	2.293666
5.479196006519669	5.3317738	2.3090634
5.496742872402727	5.313044	2.3050041
5.514289867269756	5.3299136	2.3086605
5.531836991535049	5.3539367	2.3138576
5.549384245612924	5.3914466	2.3219488
5.566931629917724	5.3571906	2.3145607
5.584479144863822	5.2530503	2.2919533
5.6020267908656205	5.174793	2.274817
5.619574568337545	5.1385264	2.2668319
5.637122477694054	5.133987	2.2658303
5.654670519349629	5.163498	2.2723331
5.672218693718784	5.161591	2.2719135
5.689767001216059	5.1017165	2.258698
5.707315442256021	5.139161	2.2669718
5.724864017253266	5.1123657	2.261054
5.7424127266224225	5.2023125	2.2808578
5.75996157077814	5.148506	2.269032
5.777510550135105	5.100678	2.2584682
5.795059665108022	5.104211	2.2592502
5.812608916111639	5.2079644	2.2820964
5.830158303560715	5.347271	2.3124168
5.847707827870055	5.3530245	2.3136604
5.86525748945448	5.403451	2.3245325
5.8828072887288485	5.5772104	2.3616118
5.900357226108044	5.6888456	2.3851302
5.917907302006979	5.7988896	2.4080884
5.9354575168406	6.333438	2.5166323
5.9530078710238765	6.851522	2.6175413
5.970558364971812	7.344577	2.710088
5.988108999099438	7.7052836	2.7758393
6.005659773821818	8.31564	2.883685
6.023210689554039	8.066089	2.840086
6.040761746711227	8.418364	2.9014416
6.058312945708531	7.638031	2.7636988
6.075864286961132	7.1970973	2.6827407
6.093415770884244	6.5258627	2.5545769
6.1109673978931065	6.0958753	2.4689827
6.128519168402993	5.5704947	2.3601894
6.146071082829204	5.450691	2.3346715
6.163623141587075	5.2940216	2.300874
6.181175345091969	5.315587	2.3055556
6.198727693759281	5.3193784	2.3063776
6.216280188004435	5.344388	2.3117933
6.233832828242885	5.330697	2.3088303
6.251385614890126	5.324207	2.3074243
6.268938548361669	5.2976737	2.3016677
6.286491629073067	5.1731358	2.274453
6.304044857439898	5.127212	2.2643347
6.321598233877777	5.0606437	2.2495875
6.339151758802344	5.0671177	2.251026
6.356705432629277	5.0860877	2.2552357
6.37425925577428	5.0543466	2.2481873
6.391813228653095	5.048247	2.2468305
6.409367351681486	5.0678153	2.251181
6.426921625275259	5.0836973	2.2547057
6.44447604985025	5.0798545	2.2538533
6.46203062582232	5.013671	2.2391229
6.47958535360737	5.003104	2.236762
6.497140233621328	4.99663	2.2353144
6.514695266280161	4.9872923	2.2332246
6.532250451999859	5.043324	2.2457347
6.549805791196454	5.0729833	2.2523284
6.567361284286002	5.1423388	2.2676725
6.584916931684597	5.2061725	2.281704
6.602472733808367	5.1818376	2.276365
6.6200286910734665	5.1894946	2.2780461
6.637584803896092	5.1364727	2.2663789
6.655141072692462	5.1235404	2.2635238
6.672697497878842	5.071564	2.2520134
6.690254079871514	5.0241847	2.2414694
6.707810819086808	5.0285006	2.2424319
6.725367715941078	5.087318	2.2555084
6.742924770850719	5.1613574	2.271862
6.760481984232151	5.20749	2.2819924
6.778039356501836	5.158963	2.2713351
6.795596888076266	5.055916	2.2485363
6.813154579371963	5.0313663	2.2430708
6.830712430805492	4.977367	2.2310014
6.84827044279344	5.0937886	2.2569423
6.865828615752445	5.136593	2.2664053
6.883386950099159	5.1206603	2.2628877
6.900945446250287	5.1273217	2.264359
6.918504104622553	5.080273	2.253946
6.936062925632727	5.1223226	2.263255
6.953621909697607	5.0886755	2.2558093
6.971181057234028	5.0898547	2.2560706
6.988740368658859	5.0868425	2.255403
7.006299844389007	5.2038565	2.2811964
7.023859484841407	5.306432	2.3035693
7.041419290433036	5.4428787	2.3329978
7.058979261580902	5.5430555	2.3543694
7.0765393987020495	5.723966	2.392481
7.094099702213559	6.140663	2.4780362
7.111660172532549	6.580159	2.5651822
7.129220810076164	6.9168544	2.6299913
7.146781615261595	7.5010366	2.738802
7.16434258850606	7.722799	2.7789924
7.181903730226821	8.237536	2.870111
7.1994650408411704	8.278883	2.8773048
7.217026520766437	8.3891325	2.8964
7.234588170419983	8.585458	2.9300952
7.252149990219215	8.493816	2.9144154
7.269711980581568	8.415474	2.9009435
7.2872741419245175	8.252408	2.8727005
7.304836474665574	7.9020658	2.8110614
7.322398979222286	7.617364	2.7599573
7.339961656012233	7.310238	2.7037451
7.357524505453039	6.995122	2.6448293
7.375087527962357	6.70377	2.589164
7.392650723957886	6.3541775	2.5207493
7.410214093857353	6.0083685	2.4511974
7.427777638078528	5.7594604	2.3998876
7.445341357039213	5.6389446	2.3746462
7.4629052511572525	5.532861	2.3522034
7.480469320850524	5.45131	2.334804
7.498033566536948	5.370832	2.3175056
7.5155979886344735	5.2700725	2.2956638
7.5331625875610975	5.2287464	2.2866452
7.550727363734844	5.191724	2.2785354
7.568292317573788	5.236112	2.2882552
7.585857449496025	5.223478	2.285493
7.603422759919705	5.224632	2.2857454
7.620988249263007	5.279283	2.297669
7.638553917944147	5.385722	2.320716
7.656119766381391	5.374979	2.3184001
7.673685794993023	5.399196	2.323617
7.691252004197388	5.3401566	2.3108778
7.70881839441285	5.3119373	2.304764
7.726384966057826	5.3015814	2.3025162
7.743951719550762	5.2947316	2.3010285
7.761518655310149	5.305815	2.3034356
7.779085773754511	5.298804	2.301913
7.796653075302419	5.2841225	2.298722
7.814220560372475	5.2877994	2.2995214
7.831788229383323	5.265464	2.2946599
7.8493560827536495	5.316605	2.3057764
7.866924120902174	5.381133	2.319727
7.884492344247663	5.383299	2.3201938
7.9020607532089135	5.4047437	2.3248105
7.919629348204771	5.3906074	2.321768
7.937198129654115	5.4198265	2.328052
7.954767097975865	5.3941417	2.322529
7.972336253588986	5.4233236	2.328803
7.989905596912472	5.4690228	2.3385942
8.007475128365371	5.497498	2.3446743
8.025044848366756	5.51433	2.348261
8.042614757335754	5.6467547	2.37629
8.060184855691523	5.713301	2.3902514
8.07775514385327	5.8946934	2.427899
8.095325622240228	5.902408	2.4294872
8.112896291271687	5.9164305	2.4323714
8.130467151366968	5.9597926	2.4412687
8.148038202945436	6.02238	2.4540539
8.165609446426497	6.1072154	2.4712782
8.183180882229594	6.1354465	2.4769833
8.200752510774217	6.1069455	2.4712236
8.218324332479893	6.125871	2.4750497
8.235896347766193	6.0926538	2.4683301
8.253468557052724	6.1278605	2.4754515
8.27104096075914	6.053653	2.4604173
8.288613559305137	6.0641584	2.462551
8.306186353110448	6.1161823	2.4730916
8.32375934259485	6.286336	2.5072567
8.341332528178162	6.3372464	2.5173888
8.358905910280246	6.406942	2.5311937
8.376479489321003	6.3139954	2.5127664
8.394053265720377	6.4133387	2.532457
8.411627239898356	6.409332	2.5316658
8.42920141227497	6.3652177	2.5229383
8.44677578327029	6.3054247	2.5110605
8.464350353304427	6.2404695	2.4980931
8.48192512279754	6.2187667	2.4937456
8.499500092169827	6.1607957	2.482095
8.51707526184153	6.1549277	2.4809127
8.534650632232934	6.2495832	2.4999166
8.552226203764365	6.252316	2.5004632
8.569801976856192	6.2882996	2.5076482
8.587377951928834	6.2999706	2.5099742
8.60495412940274	6.3589787	2.5217016
8.622530509698416	6.454499	2.5405705
8.6401070932364	6.586896	2.566495
8.657683880437283	6.699185	2.5882783
8.675260871721695	6.809141	2.6094332
8.692838067510303	6.884666	2.6238647
8.710415468223834	7.070203	2.6589854
8.727993074283043	7.1939387	2.6821518
8.745570886108737	7.1575594	2.6753616
8.763148904121765	7.2177415	2.6865854
8.78072712874302	7.2843604	2.6989555
8.798305560393441	7.6396446	2.7639906
8.815884199494006	7.7805443	2.7893627
8.833463046465745	7.9217105	2.8145533
8.851042101729728	7.9925466	2.8271093
8.86862136570707	8.198362	2.8632782
8.886200838818924	8.285474	2.87845
8.903780521486505	8.336698	2.887334
8.921360414131055	8.456922	2.9080787
8.938940517173874	8.586794	2.9303231
8.956520831036297	8.739326	2.956235
8.97410135613971	9.017174	3.002861
8.99168209290554	9.275567	3.0455816
9.009263041755265	9.743415	3.1214445
9.026844203110405	10.014833	3.164622
9.044425577392525	10.130949	3.1829152
9.062007165023239	10.091773	3.1767552
9.079588966424197	10.2564	3.2025614
9.097170982017108	10.34703	3.2166798
9.11475321222372	11.426566	3.3803203
9.132335657465825	12.395246	3.5206883
9.149918318165264	12.49489	3.5348113
9.167501194743924	12.968157	3.6011326
9.18508428762374	12.626372	3.5533607
9.202667597226693	12.588372	3.5480096
9.220251123974803	12.134555	3.4834688
9.237834868290143	11.851566	3.4426105
9.255418830594836	11.706825	3.4215238
9.273003011311046	11.227275	3.3507125
9.290587410860985	11.022404	3.3200006
9.308172029666911	10.326646	3.2135098
9.32575686815113	10.100847	3.178183
9.343341926735997	8.970184	2.9950266
9.360927205843916	8.776632	2.9625382
9.378512705897327	8.624549	2.9367583
9.396098427318728	8.331817	2.8864887
9.413684370530664	8.115792	2.848823
9.431270535955722	7.9662232	2.82245
9.448856924016539	7.918836	2.8140426
9.466443535135806	7.837857	2.7996173
9.484030369736251	7.766923	2.78692
9.501617428240658	7.724571	2.7793112
9.519204711071852	7.7807364	2.7893972
9.536792218652714	7.8605027	2.8036587
9.55437995140617	7.8573046	2.8030884
9.571967909755191	7.8654776	2.8045459
9.589556094122802	7.9250836	2.8151524
9.60714450493207	8.04869	2.8370214
9.624733142606116	8.02013	2.8319833
9.642322007568108	8.024089	2.8326824
9.659911100241267	8.027894	2.8333538
9.677500421048851	8.089643	2.8442297
9.695089970414175	8.138702	2.8528411
9.712679748760609	8.112053	2.8481667
9.730269756511557	8.155913	2.855856
9.747859994090492	8.22878	2.8685849
9.765450461920915	8.29959	2.8809009
9.78304116042639	8.333183	2.8867254
9.800632090030527	8.366283	2.892453
9.81822325115699	8.396212	2.8976216
9.835814644229481	8.426557	2.9028533
9.853406269671762	8.3961115	2.8976045
9.870998127907646	8.326643	2.8855922
9.888590219360985	8.313279	2.8832757
9.906182544455698	8.385557	2.8957827
9.923775103615734	8.408345	2.8997147
9.941367897265108	8.424254	2.9024565
9.958960925827878	8.4512005	2.907095
9.97655418972816	8.436449	2.9045565
9.994147689390106	8.522673	2.9193616
10.011741425237934	8.541413	2.9225698
10.029335397695904	8.588406	2.9305983
10.04692960718833	8.5397	2.9222765
10.06452405413958	8.515458	2.9181259
10.082118738974064	8.4701805	2.9103575
10.099713662116246	8.3842945	2.8955646
10.117308823990651	8.35124	2.8898513
10.134904225021844	8.385788	2.8958225
10.152499865634445	8.353323	2.8902116
10.170095746253125	8.313466	2.8833082
10.18769186730261	8.255145	2.8731768
10.205288229207675	8.228362	2.8685122
10.222884832393145	8.1956835	2.8628104
10.2404816772839	8.168015	2.8579738
10.258078764304868	8.144201	2.8538046
10.275676093881035	8.1863	2.8611712
10.293273666437438	8.123408	2.8501594
10.310871482399158	8.070706	2.8408988
10.32846954219134	8.074906	2.841638
10.346067846239173	8.099587	2.8459773
10.363666394967908	8.14802	2.8544736
10.38126518880283	8.215235	2.866223
10.398864228169298	8.310749	2.882837
10.416463513492713	8.334626	2.8869753
10.434063045198531	8.304171	2.8816957
10.451662823712262	8.302153	2.8813455
10.469262849459467	8.261283	2.8742447
10.486863122865758	8.167857	2.8579464
10.504463644356806	8.156759	2.856004
10.522064414358338	8.114528	2.848601
10.539665433296118	8.075922	2.8418167
10.557266701595987	7.994198	2.8274012
10.574868219683818	7.869578	2.8052769
10.592469987985552	7.842793	2.8004987
10.610072006927185	7.7362337	2.7814085
10.627674276934751	7.644016	2.7647812
10.64527679843435	7.519291	2.7421327
10.662879571852143	7.4012384	2.7205217
10.680482597614331	7.2871256	2.6994677
10.698085876147173	7.1347547	2.671096
10.715689407876988	7.0966363	2.6639512
10.733293193230146	7.018135	2.6491764
10.750897232633072	6.9863257	2.6431658
10.76850152651225	6.8904934	2.624975
10.786106075294207	6.8163853	2.6108208
10.803710879405534	6.7434034	2.5968063
10.821315939272877	6.7157645	2.5914793
10.83892125532294	6.5461926	2.5585527
10.856526827982472	6.4122725	2.5322466
10.874132657678285	6.3261585	2.5151856
10.891738744837243	6.324792	2.5149138
10.909345089886271	6.217458	2.493483
10.926951693252343	6.115018	2.4728563
10.944558555362494	6.0348735	2.456598
10.96216567664381	6.00023	2.4495366
10.979773057523436	5.9773536	2.4448626
10.997380698428573	5.9544506	2.4401743
11.014988599786477	5.8363953	2.4158633
11.032596762024461	5.805052	2.4093676
11.050205185569892	5.7570643	2.3993883
11.067813870850198	5.6789575	2.3830564
11.085422818292859	5.5666995	2.3593855
11.10303202832541	5.4887424	2.3428066
11.120641501375454	5.462486	2.337196
11.138251237870636	5.4292946	2.3300846
11.155861238238671	5.3868637	2.3209617
11.173471502907317	5.3241167	2.3074048
11.191082032304402	5.212473	2.2830842
11.208692826857805	5.1598835	2.2715378
11.226303886995465	5.0636206	2.250249
11.243915213145371	4.9674983	2.2287886
11.261526805735578	4.915989	2.217203
11.279138665194196	4.908282	2.2154644
11.296750791949393	4.8719816	2.2072566
11.314363186429393	4.8190403	2.1952312
11.331975849062479	4.786458	2.1877975
11.34958878027699	4.6898117	2.1655972
11.36720198050133	4.679384	2.1631885
11.384815450163948	4.621358	2.1497345
11.402429189693366	4.5860224	2.1415
11.420043199518153	4.5156593	2.125008
11.437657480066942	63.458282	7.9660707
11.455272031768422	85.20235	9.230512
11.472886855051353	107.62539	10.374266
11.490501950344528	99.235954	9.961724
11.508117318076819	84.58115	9.196801
11.52573295867715	45.94028	6.777926
11.543348872574514	4.213105	2.052585
11.560965060197946	4.147104	2.036444
11.57858152197655	4.1104817	2.0274322
11.59619825833949	4.071759	2.0178602
11.613815269715985	4.042559	2.0106115
11.631432556535323	38.485065	6.2036333
11.649050119226837	82.99124	9.109953
11.666667958219929	93.437904	9.666328
11.68428607394406	107.7679	10.381132
11.701904466828756	82.59475	9.088165
11.719523137303586	65.370865	8.085225
11.737142085798196	4.559324	2.1352572
11.754761312742286	3.6623306	1.9137217
11.772380818565619	3.6692986	1.9155413
11.790000603698015	3.6879756	1.9204103
11.80762066856935	3.6630502	1.9139097
11.825241013609572	3.650663	1.9106708
11.842861639248683	3.6163285	1.9016646
11.860482545916748	3.5777283	1.8914884
11.878103734043883	3.5738368	1.8904594
11.895725204060282	3.5447307	1.8827455
11.91334695639619	3.4921844	1.8687388
11.930968991481919	3.411619	1.8470569
11.948591309747824	3.3914871	1.8415991
11.966213911624347	3.4012775	1.8442553
11.98383679754198	3.4053915	1.8453703
12.001459967931268	3.3557255	1.831864
12.019083423222835	3.3240368	1.8231941
12.036707163847352	3.2926621	1.8145694
12.05433119023556	3.280777	1.8112916
12.071955502818259	3.2187479	1.7940869
12.089580102026313	3.1872501	1.7852871
12.107204988290643	3.1538587	1.7759106
12.12483016204224	3.1297288	1.769104
12.142455623712152	3.1369271	1.7711372
12.16008137373149	3.09924	1.7604659
12.177707412531431	3.1117504	1.7640154
12.19533374054321	3.1032367	1.7616006
12.212960358198126	3.1400702	1.7720243
12.230587265927545	3.129942	1.7691642
12.248214464162889	3.1309195	1.7694404
12.265841953335649	3.0421855	1.7441862
12.283469733877375	3.0234814	1.7388161
12.301097806219685	2.9871938	1.72835
12.31872617079425	3.0034664	1.7330512
12.336354828032825	3.00317	1.7329657
12.353983778367205	3.0316522	1.7411641
12.371613022229262	3.0136085	1.7359748
12.389242560050928	2.9757018	1.7250223
12.406872392264201	2.9413815	1.7150456
12.424502519301143	2.9374518	1.7138996
12.442132941593874	2.9321756	1.7123597
12.459763659574586	2.9243786	1.7100815
12.477394673675532	2.9340053	1.7128938
12.49502598432903	2.9154372	1.7074652
12.51265759196746	2.9060624	1.7047176
12.530289497023267	2.8967726	1.7019907
12.547921699928967	2.878412	1.6965884
12.565554201117134	2.8794818	1.6969036
12.583187001020404	2.8685	1.6936647
12.600820100071486	2.8006384	1.6735108
12.618453498703152	2.7532053	1.6592785
12.636087197348235	2.753756	1.6594445
12.65372119643964	2.7670505	1.6634454
12.671355496410326	2.7829742	1.6682249
12.68899009769333	2.7903805	1.6704432
12.706625000721749	2.8342419	1.6835207
12.724260205928752	2.9456391	1.7162864
12.741895713747551	3.0122056	1.7355707
12.759531524611454	3.0741458	1.7533243
12.777167638953818	3.0284586	1.7402467
12.794804057208072	3.013213	1.7358608
12.812440779807702	3.055672	1.7480481
12.830077807186271	3.2109704	1.791918
12.847715139777405	3.2284741	1.7967955
12.865352778014795	3.4341354	1.853142
12.882990722332197	3.5328825	1.8795964
12.90062897316344	3.637108	1.9071203
12.918267530942412	3.7489052	1.936209
12.935906396103071	3.7056208	1.9249989
12.953545569079449	3.857472	1.9640448
12.971185050305628	3.6594408	1.9129665
12.988824840215775	3.6066458	1.8991171
13.006464939244115	3.564761	1.8880575
13.024105347824943	3.4247162	1.8505989
13.041746066392617	3.5131001	1.8743266
13.05938709538157	3.3696666	1.8356651
13.077028435226296	3.3722193	1.8363603
13.094670086361363	3.2896857	1.8137491
13.112312049221401	3.1766691	1.7823212
13.129954324241112	3.066561	1.7511599
13.147596911855258	2.8960936	1.7017913
13.165239812498685	2.8989577	1.7026325
13.182883026606293	2.8863416	1.6989237
13.200526554613058	2.8253615	1.6808811
13.218170396954017	2.7894416	1.6701622
13.235814554064284	2.7730272	1.6652409
13.253459026379034	2.7967033	1.6723347
13.271103814333523	2.765798	1.6630689
13.288748918363058	2.7036164	1.6442677
13.306394338903031	2.653843	1.6290619
13.32404007638889	2.6427832	1.6256639
13.341686131256164	2.6524143	1.6286235
13.359332503940449	2.655229	1.6294874
13.376979194877402	2.6506262	1.6280744
13.394626204502751	2.7077367	1.6455202
13.412273533252307	2.713	1.6471187
13.429921181561937	2.7425776	1.656073
13.447569149867581	2.7624795	1.6620709
13.465217438605247	2.786444	1.6692644
13.482866048211022	2.7780938	1.6667615
13.500514979121052	2.7893012	1.6701201
13.518164231771568	2.7697232	1.6642486
13.535813806598844	2.7532938	1.6593052
13.553463704039254	2.7219522	1.649834
13.571113924529229	2.7262323	1.6511306
13.588764468505275	2.733762	1.6534092
13.606415336403956	2.7823534	1.6680388
13.624066528661917	2.8122346	1.6769719
13.641718045715882	2.8959074	1.7017366
13.659369888002635	2.9541566	1.718766
13.67702205595903	3.0152268	1.7364409
13.694674550021993	3.0337307	1.7417608
13.712327370628532	3.0751765	1.7536181
13.729980518215713	3.137171	1.7712061
13.747633993220681	3.2386165	1.7996156
13.765287796080647	3.3005984	1.8167549
13.7829419272329	3.3153498	1.8208102
13.800596387114801	3.331048	1.8251159
13.818251176163775	3.369897	1.8357279
13.835906294817324	3.3951654	1.8425975
13.853561743513023	3.479002	1.8652083
13.871217522688525	3.4690619	1.8625418
13.888873632781538	3.4902554	1.8682225
13.906530074229858	3.5019515	1.8713502
13.92418684747135	3.5667782	1.8885915
13.941843952943948	3.5849261	1.89339
13.959501391085665	3.555545	1.8856153
13.977159162334578	3.4810107	1.8657467
13.994817267128846	3.4338028	1.8530523
14.012475705906693	3.2975616	1.8159189
14.030134479106424	3.232858	1.798015
14.047793587166414	3.114045	1.7646657
14.065453030525108	3.0731657	1.7530447
14.083112809621026	3.0206935	1.7380142
14.100772924892766	2.9894454	1.7290013
14.118433376778997	2.9144666	1.7071809
14.136094165718458	2.838492	1.6847825
14.153755292149969	2.8088531	1.6759634
14.171416756512416	2.8015344	1.6737785
14.189078559244768	2.7704122	1.6644555
14.20674070078606	2.7057457	1.6449151
14.224403181575408	2.6011553	1.6128098
14.242066002051999	2.5277112	1.5898777
14.259729162655093	2.476542	1.5737033
14.277392663824022	2.4667933	1.5706029
14.295056505998208	2.461796	1.5690112
14.312720689617128	2.425411	1.557373
14.330385215120348	2.42469	1.5571417
14.348050082947497	2.442771	1.5629367
14.3657152935383	2.4608529	1.5687106
14.383380847332528	2.4443283	1.5634347
14.401046744770051	2.4557235	1.5670748
14.418712986290798	2.4398572	1.5620042
14.436379572334793	2.439677	1.5619465
14.454046503342123	2.3973947	1.5483522
14.471713779752946	2.3813055	1.5431479
14.489381402007504	2.3879657	1.5453044
14.507049370546113	2.3818896	1.5433371
14.524717685809168	2.348017	1.5323241
14.542386348237134	2.3319163	1.5270613
14.560055358270553	2.386016	1.5446734
14.577724716350051	2.4791145	1.5745205
14.595394422916325	2.4732819	1.5726671
14.61306447841015	2.4948776	1.5795182
14.63073488327237	2.4900217	1.5779803
14.648405637943917	2.5382218	1.5931798
14.6660767428658	2.5074682	1.5834987
14.683748198479094	2.5258782	1.5893011
14.701420005224954	2.5533602	1.5979238
14.719092163544628	2.6483383	1.6273715
14.73676467387942	2.7136247	1.6473083
14.754437536670727	2.7281635	1.6517153
14.772110752360014	2.7047882	1.644624
14.78978432138882	2.674754	1.6354675
14.807458244198777	2.7203164	1.6493381
14.82513252123159	2.7249758	1.65075
14.842807152929028	2.709768	1.6461374
14.860482139732962	2.6363902	1.6236964
14.87815748208531	2.647255	1.6270387
14.8958331804281	2.653427	1.6289343
14.91350923520342	2.644825	1.6262918
14.931185646853438	2.6882503	1.6395885
14.948862415820408	2.69565	1.6418436
14.966539542546656	2.7172525	1.6484091
14.98421702747459	2.680596	1.6372526
15.001894871046696	2.694342	1.641445
15.019573073705542	2.7037327	1.6443031
15.037251635893766	2.6782308	1.63653
15.054930558054092	2.719256	1.6490166
15.072609840629323	2.7933948	1.6713452
15.090289484062351	2.9341547	1.7129375
15.107969488796124	3.188296	1.78558
15.125649855273691	3.5963514	1.8964049
15.14333058393817	4.180066	2.044521
15.161011675232768	5.213277	2.28326
15.17869312960076	6.5430164	2.5579321
15.196374947485506	8.371413	2.8933394
15.214057129330447	11.431279	3.3810174
15.231739675579114	16.182554	4.0227547
15.249422586675102	21.268929	4.611825
15.267105863062092	24.399866	4.939622
15.284789505183847	24.564634	4.956272
15.302473513484218	22.296835	4.7219524
15.320157888407127	18.570726	4.3093767
15.337842630396578	14.407114	3.7956705
15.355527739896656	11.2065935	3.347625
15.37321321735153	8.755078	2.958898
15.39089906320545	6.456009	2.5408678
15.408585277902748	4.863245	2.2052767
15.42627186188783	3.772697	1.9423431
15.443958815605198	3.252065	1.8033483
15.461646139499424	2.9852343	1.7277831
15.479333834015168	2.8423088	1.6859148
15.497021899597165	2.7839508	1.6685176
15.514710336690234	2.743617	1.6563867
15.53239914573928	2.7183	1.6487268
15.550088327189297	2.682049	1.6376963
15.567777881485336	2.6665168	1.6329473
15.58546780907256	2.6387439	1.6244211
15.6031581103962	2.603505	1.613538
15.620848785901568	2.5652883	1.6016518
15.638539836034063	2.52299	1.5883923
15.656231261239173	2.5144744	1.5857095
15.673923061962451	2.4875963	1.5772115
15.691615238649552	2.4784036	1.5742946
15.709307791746202	2.4408514	1.5623225
15.727000721698221	2.4527614	1.5661294
15.744694028951498	2.4761043	1.5735642
15.76238771395202	2.4651504	1.5700797
15.780081777145844	2.4095805	1.5522823
15.797776218979125	2.3668551	1.5384587
15.815471039898094	2.3576431	1.5354619
15.833166240349064	2.3652623	1.5379409
15.850861820778437	2.3769906	1.5417492
15.868557781632699	2.3947976	1.5475134
15.886254123358412	2.4053266	1.5509115
15.903950846402232	2.4046888	1.5507059
15.921647951210897	2.3967412	1.5481412
15.939345438231225	2.4161313	1.5543909
15.957043307910133	2.411921	1.5530361
15.974741560694602	2.4293823	1.5586476
15.992440197031714	2.4175382	1.5548434
16.01013921736862	2.4364808	1.5609231
16.02783862215259	2.446612	1.5641649
16.045538411830933	2.449508	1.5650904
16.06323858685107	2.44636	1.5640844
16.080939147660512	2.439388	1.561854
16.09864009470684	2.433333	1.5599144
16.11634142843774	2.3934865	1.5470897
16.134043149300954	2.380056	1.542743
16.15174525774433	2.3924825	1.5467652
16.169447754215817	2.4203343	1.5557424
16.18715063916342	2.4338417	1.5600774
16.204853913035244	2.4285464	1.5583794
16.222557576279478	2.4253666	1.5573589
16.240261629344403	22.405615	4.733457
16.257966072678386	42.964184	6.554707
16.275670906729868	38.06093	6.169354
16.293376131947387	2.5222464	1.5881581
16.31108174877957	2.5720134	1.6037498
16.328787757675133	2.6179616	1.6180116
16.34649415908287	2.6032343	1.6134541
16.364200953451657	2.6167347	1.6176325
16.38190814123048	2.6407452	1.625037
16.39961572286839	2.6557186	1.6296376
16.41732369881455	2.701913	1.6437497
16.43503206951817	2.7262945	1.6511495
16.45274083542859	2.7604098	1.6614481
16.47044999699522	2.8177845	1.6786258
16.488159554667558	2.876349	1.6959802
16.505869508895184	2.9083257	1.7053814
16.523579860127786	2.9071333	1.7050318
16.541290608815117	2.9630558	1.7213529
16.559001755407035	3.0455873	1.745161
16.57671330035348	3.1115413	1.7639562
16.59442524410448	3.1951244	1.7874911
16.61213758711015	3.248948	1.8024839
16.629850329820705	3.2798808	1.8110441
16.647563472686436	3.2856703	1.8126417
16.665277016157724	3.3239727	1.8231765
16.682990960685053	3.4025042	1.8445878
16.70070530671898	3.438535	1.8543288
16.718420054710155	3.4805512	1.8656236
16.736135205109335	3.5209067	1.8764079
16.753850758367335	3.5875113	1.8940727
16.771566714935087	3.6760917	1.9173137
16.789283075263597	3.757777	1.9384986
16.80699983980398	3.795657	1.9482446
16.82471700900741	3.8034258	1.9502374
16.84243458332518	3.914583	1.9785305
16.860152563208665	4.006001	2.0014997
16.87787094910932	4.0742683	2.0184817
16.89558974147871	4.1647673	2.0407763
16.913308940768466	4.269317	2.0662327
16.931028547430333	4.31028	2.0761213
16.94874856191613	4.370717	2.090626
16.966468984677785	4.415393	2.1012836
16.98418981616729	4.465467	2.1131651
17.00191105683676	4.499907	2.1212983
17.019632707138374	4.5121207	2.1241753
17.03735476752442	4.5558414	2.1344416
17.05507723844728	4.610683	2.1472502
17.072800120359403	4.6683187	2.1606293
17.090523413713353	4.7142878	2.171241
17.108247118961785	4.7152133	2.1714542
17.125971236557437	4.6883726	2.165265
17.143695766953133	4.713048	2.1709557
17.161420710601806	4.7306757	2.1750116
17.179146067956477	4.8025403	2.19147
17.19687183947025	4.786819	2.18788
17.21459802559634	4.7528005	2.1800919
17.232324626788028	4.7274237	2.174264
17.25005164349871	4.722902	2.1732237
17.267779076181863	4.725381	2.173794
17.285506925291074	4.648073	2.155939
17.30323519127999	4.5608845	2.1356227
17.320963874602384	4.519631	2.1259425
17.33869297571211	4.5704994	2.1378727
17.356422495063114	4.6192403	2.1492417
17.37415243310944	4.632783	2.15239
17.391882790305218	4.5939136	2.1433418
17.40961356710468	4.561245	2.1357071
17.42734476396215	4.524553	2.1270995
17.445076381332044	4.5353875	2.1296449
17.462808419668868	4.5896926	2.1423569
17.48054087942723	4.7720003	2.184491
17.498273761061835	5.05334	2.2479634
17.51600706502747	5.544634	2.3547046
17.533740791779024	6.2420683	2.498413
17.551474941771485	7.655888	2.7669275
17.56920951545993	8.771855	2.961732
17.586944513299528	10.9291525	3.3059268
17.60467993574556	12.565381	3.544768
17.622415783253373	14.26892	3.7774224
17.64015205627843	15.61987	3.952198
17.657888755276293	16.6428	4.079559
17.675625880702604	17.029839	4.1267223
17.69336343301311	16.832539	4.102748
17.71110141266366	16.217978	4.027155
17.728839820110178	15.4071245	3.925191
17.746578655808705	14.553177	3.8148627
17.764317920215372	13.079389	3.6165438
17.7820576137864	11.584638	3.4036212
17.79979773697811	9.58892	3.0965981
17.81753829024692	7.7258377	2.779539
17.835279274049356	5.9922237	2.447902
17.85302068884201	4.871777	2.2072103
17.870762535081607	4.174161	2.0430763
17.888504813224934	3.90564	1.9762691
17.90624752372891	3.7343113	1.9324366
17.923990667050536	3.629255	1.9050604
17.941734243646895	3.5277925	1.8782419
17.959478253975185	3.4902864	1.8682308
17.9772226984927	3.4365547	1.8537947
17.994967577656833	3.4218855	1.849834
18.01271289192506	3.3949282	1.8425331
18.030458641754965	3.40501	1.8452669
18.04820482760425	3.4351149	1.8534063
18.06595144993067	3.4205794	1.8494809
18.083698509192125	3.346768	1.8294173
18.101446005846576	3.2976592	1.8159457
18.119193940352105	3.2662241	1.8072698
18.136942313166887	3.2285748	1.7968235
18.1546911247492	3.148958	1.7745304
18.1724403755574	3.1406996	1.7722019
18.19019006604997	3.1543036	1.7760359
18.207940196685467	3.1639152	1.7787398
18.225690767922575	3.1342227	1.7703736
18.243441780220046	3.0829024	1.7558196
18.261193234036764	3.1019704	1.7612412
18.278945129831676	3.1265087	1.7681936
18.29669746806386	3.1221805	1.7669693
18.314450249192483	3.0619714	1.749849
18.3322034736768	3.032998	1.7415504
18.349957141976184	3.043707	1.7446222
18.3677112545501	3.0693018	1.7519423
18.385465811858108	3.0807986	1.7552204
18.403220814359884	3.0787737	1.7546434
18.420976262515172	3.1038787	1.7617829
18.43873215678387	3.1694927	1.7803069
18.456488497625923	3.1872885	1.7852979
18.474245285501407	3.225524	1.7959744
18.492002520870486	3.2499928	1.8027736
18.50976020419343	3.3167408	1.8211921
18.527518335930615	3.6364276	1.906942
18.545276916542516	4.3093395	2.0758948
18.563035946489688	4.494274	2.1199703
18.580795426232832	4.984323	2.2325597
18.598555356232698	4.845969	2.2013562
18.616315736950185	5.1459074	2.2684593
18.63407656884626	4.70958	2.1701567
18.65183785238201	4.8998017	2.2135496
18.669599588018617	4.6932745	2.1663966
18.68736177621737	4.6984906	2.1676002
18.705124417439652	4.676924	2.1626198
18.72288751214696	4.505983	2.12273
18.740651060800886	4.6590514	2.1584835
18.758415063863115	4.3489027	2.0854023
18.77617952179546	4.465815	2.1132476
18.793944435059814	4.199022	2.0491514
18.811709804118184	4.2459536	2.0605712
18.829475629432675	4.2624297	2.0645652
18.8472419114655	4.057683	2.014369
18.86500865067897	4.152369	2.0377362
18.88277584753551	3.8589067	1.9644101
18.90054350249763	3.8823516	1.9703684
18.918311616027957	3.5022914	1.871441
18.936080188589226	3.3669446	1.8349236
18.953849220644265	3.0863678	1.7568061
18.971618712656007	2.9193373	1.7086068
18.9893886650875	2.8682854	1.6936014
19.007159078401887	8.039284	2.8353631
19.024929953062408	32.926598	5.73817
19.042701289532435	32.858944	5.732272
19.060473088275405	25.416904	5.041518
19.07824534975489	2.6697419	1.6339345
19.096018074434568	2.6627977	1.6318082
19.113791262778197	2.6390104	1.6245031
19.13156491524966	2.642795	1.6256676
19.149339032312945	2.6342149	1.6230265
19.167113614432136	2.5965116	1.6113695
19.184888662071433	2.5648146	1.6015038
19.202664175695123	2.5631955	1.6009983
19.220440155767623	2.5839055	1.6074531
19.238216602753447	2.5831542	1.6072195
19.2559935171172	2.54085	1.5940044
19.27377089932361	2.5334353	1.591677
19.291548749837514	2.5422843	1.5944542
19.309327069123835	2.5630355	1.6009483
19.32710585764763	2.5319867	1.5912218
19.344885115874032	2.5063195	1.583136
19.362664844268313	2.5519202	1.597473
19.380445043295822	2.575355	1.6047913
19.39822571342203	2.5726266	1.603941
19.41600685511252	2.5131729	1.585299
19.43378846883297	2.5002947	1.5812321
19.451570555049173	2.4807475	1.5750389
19.469353114227037	2.4614632	1.5689051
19.48713614683254	2.4712164	1.5720103
19.50491965333182	2.4845648	1.5762502
19.52270363419109	2.5406334	1.5939364
19.540488089876686	2.5606172	1.6001929
19.55827302085503	2.5511532	1.5972329
19.576058427592674	2.4890487	1.5776719
19.593844310556282	2.447178	1.5643458
19.611630670212598	2.4441786	1.5633869
19.629417507028506	2.5018091	1.5817108
19.64720482147098	2.5483415	1.5963526
19.6649926140071	2.5789747	1.6059186
19.682780885104084	2.5369813	1.5927905
19.70056963522921	2.4987223	1.5807347
19.718358864849908	2.4881501	1.5773871
19.7361485744337	2.494229	1.5793128
19.753938764448215	2.5113125	1.5847121
19.771729435361202	2.533322	1.5916413
19.789520587640506	2.5286555	1.5901747
19.807312221754092	2.5223608	1.5881943
19.825104338170043	2.5221586	1.5881306
19.842896937356517	2.5380723	1.5931329
19.860690019781824	2.5333738	1.5916575
19.87848358591436	2.5260477	1.5893545
19.896277636222635	2.523848	1.5886624
19.914072171175278	2.515892	1.5861564
19.931867191241015	2.5096586	1.5841902
19.94966269688869	2.475255	1.5732943
19.967458688587264	2.4382894	1.5615023
19.985255166805807	2.4661632	1.5704023
20.00305213201348	2.4889143	1.5776293
20.020849584679578	2.4853885	1.5765115
20.038647525273507	2.4791381	1.5745279
20.05644595426477	2.4586442	1.5680064
20.07424487212299	2.4500964	1.5652784
20.092044279317903	2.4626331	1.5692779
20.109844176319353	2.4998217	1.5810825
20.127644563597304	2.5284665	1.5901152
20.145445441621817	2.499248	1.580901
20.16324681086307	2.4412534	1.5624511
20.181048671791373	2.3970804	1.5482508
20.198851024877122	2.3893292	1.5457455
20.216653870590836	2.3710124	1.5398092
20.234457209403146	2.3693113	1.5392567
20.252261041784802	2.3607156	1.5364621
20.270065368206662	2.4005508	1.5493711
20.287870189139685	2.3833368	1.543806
20.305675505054968	2.3999836	1.549188
20.323481316423702	2.3971162	1.5482624
20.341287623717207	2.376692	1.5416523
20.359094427406884	2.3583431	1.5356898
20.376901727964288	2.3480833	1.5323457
20.39470952586107	2.3599808	1.5362229
20.41251782156899	2.339216	1.5294496
20.430326615559935	2.3499267	1.5329471
20.448135908305886	2.3608894	1.5365186
20.465945700278965	2.3576741	1.5354719
20.483755991951384	2.3259711	1.5251135
20.50156678379548	2.319686	1.5230515
20.519378076283708	2.335381	1.5281954
20.537189869888635	2.3847504	1.5442637
20.55500216508294	2.3972359	1.548301
20.572814962339415	2.3943734	1.5473763
20.59062826213098	2.3453972	1.531469
20.60844206493066	2.3666713	1.538399
20.626256371211593	2.364307	1.5376303
20.644071181447032	2.376907	1.5417222
20.66188649611036	2.3410947	1.5300636
20.67970231567506	2.3579223	1.5355527
20.697518640614742	2.3581915	1.5356404
20.715335471403122	2.3513315	1.5334052
20.73315280851404	2.3343394	1.5278546
20.750970652421447	2.3203793	1.5232791
20.768789003599412	2.3265634	1.5253077
20.786607862522136	2.3278809	1.5257394
20.8044272296639	2.292394	1.5140654
20.82224710549913	2.2931373	1.5143108
20.84006749050237	2.285232	1.5116984
20.857888385148268	3.8262248	1.9560739
20.8757097899116	45.90486	6.7753124
20.893531705267254	64.78096	8.048662
20.911354131690224	83.8153	9.155069
20.92917706965566	69.08692	8.311854
20.94700051963877	50.12041	7.079577
20.96482448211493	29.380888	5.420414
20.982648957559622	4.1637692	2.0405316
21.00047394644843	2.2997186	1.5164824
21.01829944925707	2.2840466	1.5113063
21.036125466461375	2.250884	1.5002947
21.053951998537297	2.243627	1.4978741
21.071779045960906	2.2582211	1.5027379
21.089606609208378	2.2829542	1.5109448
21.10743468875603	2.2530742	1.5010244
21.12526328508028	2.2442381	1.4980781
21.143092398657675	2.2520158	1.5006717
21.16092202996488	2.2492623	1.4997541
21.17875217947867	2.2058175	1.4851995
21.19658284767596	2.2011912	1.4836411
21.21441403503377	2.2281506	1.4926991
21.232245742029225	2.2255719	1.4918351
21.2500779691396	2.2212548	1.4903874
21.26791071684227	2.2214236	1.4904441
21.28574398561475	2.191843	1.4804875
21.30357777593465	2.2181826	1.4893564
21.321412088279704	2.226994	1.4923116
21.339246923127792	2.2309096	1.493623
21.357082280956888	2.1832173	1.4775714
21.3749181622451	2.151127	1.4666721
21.392754567470647	2.1387885	1.4624597
21.41059149711187	2.1620414	1.4703882
21.42842895164726	2.1626782	1.4706048
21.446266931555378	2.164389	1.4711862
21.464105437314945	2.1570702	1.4686967
21.481944469404798	2.1964889	1.4820557
21.49978402830388	2.213776	1.4878764
21.51762411449127	2.216899	1.4889255
21.53546472844617	2.1758134	1.4750639
21.553305870647876	2.1261675	1.4581383
21.571147541575865	2.082525	1.4430957
21.58898974170967	2.058839	1.4348655
21.60683247152899	2.1039443	1.450498
21.62467573151363	2.0976238	1.4483175
21.642519522143523	2.1145475	1.4541484
21.660363843898722	2.1356623	1.4613905
21.6782086972594	2.1354356	1.461313
21.696054082705864	2.1195114	1.4558542
21.713900000718535	2.1058764	1.4511638
21.73174645177795	2.1204672	1.4561824
21.749593436364794	2.0839436	1.4435871
21.767440954959845	2.0763578	1.4409573
21.785289008044032	2.0465362	1.430572
21.803137596098388	2.0399716	1.4282757
21.820986719604086	2.0364027	1.4270258
21.838836379042412	2.0429142	1.4293054
21.85668657489478	2.059505	1.4350976
21.87453730764273	2.0492113	1.4315066
21.892388577767914	2.0265472	1.4235685
21.91024038575213	2.012367	1.4185792
21.928092732077285	2.0085642	1.4172382
21.945945617225426	2.043465	1.4294981
21.963799041678694	2.0242999	1.422779
21.981653005919398	31.35659	5.5996957
21.999507510429943	78.18821	8.84241
22.01736255569286	73.117	8.550848
22.035218142190818	4.1745896	2.0431812
22.05307427040661	1.9672607	1.4025908
22.07093094082315	1.9677703	1.4027724
22.088788153923474	1.955049	1.3982307
22.106645910190746	1.9660004	1.4021413
22.12450421010827	1.9480836	1.3957376
22.142363054159464	1.9659773	1.4021331
22.16022244282787	1.9884341	1.4101185
22.178082376597164	1.9956361	1.4126699
22.195942855951145	2.003147	1.4153258
22.213803881373742	1.9913224	1.4111422
22.231665453349002	1.9962054	1.4128714
22.24952757236111	1.9860771	1.4092824
22.26739023889438	1.961563	1.4005581
22.28525345343323	1.9288788	1.3888408
22.30311721646225	1.9177839	1.3848407
22.320981528466113	1.9238942	1.3870451
22.33884638992964	1.9367987	1.3916892
22.356711801337788	1.9895327	1.4105079
22.37457776317561	2.0270257	1.4237366
22.392444275928337	2.010059	1.4177655
22.410311340081282	1.9483217	1.395823
22.428178956119904	1.9290279	1.3888944
22.446047124529805	1.9404417	1.3929974
22.46391584579669	1.9298563	1.3891927
22.481785120406414	1.9302659	1.38934
22.49965494884496	1.9069114	1.3809096
22.51752533159841	1.9278126	1.388457
22.53539626915302	1.9573185	1.399042
22.553267761995137	1.9460886	1.3950227
22.571139810611264	1.9140338	1.3834862
22.589012415488025	1.881935	1.3718363
22.60688557711216	1.9106951	1.3822789
22.624759295970566	1.9870532	1.4096287
22.642633572550263	2.015286	1.4196076
22.660508407338362	2.0038068	1.4155588
22.67838380082217	1.9476877	1.3955958
22.696259753489077	1.9523376	1.3972608
22.714136265826614	1.9557651	1.3984867
22.73201333832246	1.9490916	1.3960987
22.74989097146439	1.9511547	1.3968374
22.76776916574035	1.9423606	1.3936859
22.785647921638393	1.950142	1.3964748
22.803527239646712	1.9262643	1.3878993
22.82140712025363	1.9525754	1.3973459
22.839287563947593	1.9623418	1.4008361
22.85716857121719	1.9512907	1.3968861
22.875050142551135	1.9795121	1.4069513
22.892932278438277	1.983845	1.4084903
22.910814979367604	1.9520731	1.3971661
22.928698245828222	1.9207982	1.3859286
22.946582078309387	1.9132591	1.3832061
22.96446647730047	1.9294088	1.3890316
22.98235144329098	1.9326522	1.3901986
23.000236976770562	1.9278831	1.3884823
23.018123078229	1.9355606	1.3912443
23.03600974815619	1.940139	1.3928888
23.053896987042194	1.9527218	1.3973982
23.071784795377173	1.9122293	1.3828338
23.08967317365145	1.896396	1.377097
23.10756212235546	1.9179255	1.3848919
23.125451641979787	1.9731716	1.4046962
23.143341733015134	1.9906192	1.4108931
23.161232395952357	2.0005963	1.4144244
23.179123631282426	1.9977992	1.4134352
23.197015439496468	1.9714336	1.4040775
23.214907821085717	1.9334725	1.3904936
23.23280077654157	1.9261361	1.387853
23.250694306355538	1.9700638	1.4035896
23.268588411019277	1.9974004	1.4132942
23.28648309102458	2.011809	1.4183825
23.304378346863356	1.959454	1.399805
23.322274179027676	1.9289942	1.3888824
23.340170588009723	1.9319509	1.3899463
23.358067574301852	1.9426131	1.3937765
23.37596513839651	1.9569423	1.3989075
23.39386328078629	1.9587967	1.3995702
23.411762001963947	1.9227117	1.3866189
23.429661302422353	1.9258013	1.3877324
23.4475611826545	1.9712154	1.4039998
23.46546164315356	1.9661757	1.4022039
23.48336268441279	1.9514003	1.3969253
23.501264306925638	1.9270977	1.3881994
23.51916651118564	1.9521077	1.3971784
23.537069297686497	1.9668105	1.4024302
23.554972666922037	1.9412493	1.3932872
23.57287661938623	1.9432763	1.3940145
23.59078115557318	1.9731977	1.4047055
23.608686275977128	1.9446545	1.3945087
23.62659198109246	1.9695638	1.4034115
23.6444982714137	1.9351664	1.3911026
23.66240514743549	1.9173218	1.384674
23.68031260965263	1.8629184	1.3648877
23.698220658560068	1.895589	1.3768039
23.716129294652845	1.919647	1.3855133
23.7340385184262	1.9189203	1.3852509
23.75194833037546	1.9016101	1.3789889
23.769858730996123	1.9371189	1.3918042
23.78776972078382	1.985858	1.4092047
23.80568130023431	1.9620533	1.4007331
23.823593469843495	1.9041023	1.3798921
23.841506230107424	1.905348	1.3803434
23.859419581522275	1.9115903	1.3826027
23.87733352458438	1.9573435	1.399051
23.89524805979019	1.9651293	1.4018307
23.913163187636318	1.9866211	1.4094754
23.931078908619508	1.9638323	1.401368
23.948995223236633	1.9807905	1.4074056
23.966912131984735	1.9663458	1.4022645
23.98482963536096	2.0088646	1.4173442
24.002747733862616	1.9953616	1.4125726
24.020666427987155	2.0419095	1.428954
24.038585718232156	2.0638895	1.4366243
24.056505605095353	2.0927684	1.4466404
24.074426089074617	2.1475062	1.4654372
24.092347170667946	2.1349595	1.46115
24.110268850373515	2.1202621	1.456112
24.128191128689586	2.0817156	1.4428152
24.146114006114626	2.05334	1.432948
24.164037483147187	2.0581641	1.4346303
24.181961560286005	2.0889244	1.4453112
24.199886238029926	2.096378	1.4478874
24.21781151687797	2.0533872	1.4329644
24.235737397329274	2.0939057	1.4470334
24.253663879883135	2.089758	1.4455996
24.271590965038975	2.094142	1.4471151
24.289518653296376	2.0715218	1.4392782
24.30744694515505	2.0886922	1.4452308
24.32537584111486	2.0779338	1.441504
24.34330534167581	2.071199	1.4391661
24.361235447338046	2.0878177	1.4449283
24.379166158601876	2.0661077	1.4373962
24.39709747596772	2.045643	1.4302598
24.41502939993615	2.0411599	1.4286916
24.432961931007917	2.0438294	1.4296256
24.450895069683856	2.01342	1.4189503
24.468828816465	2.004773	1.4159
24.4867631718525	2.0028892	1.4152347
24.504698136347656	1.982761	1.4081055
24.52263371045192	1.9968473	1.4130985
24.540569894666874	2.0191643	1.4209731
24.558506689494266	1.9808855	1.4074394
24.57644409543597	1.9194913	1.385457
24.594382112994012	1.8940823	1.3762566
24.61232074267057	1.9321653	1.3900235
24.630259984967953	1.9402672	1.3929348
24.64819984038863	1.9251655	1.3875034
24.66614030943522	1.934492	1.3908602
24.684081392610462	1.9288051	1.3888143
24.702023090417274	1.9407282	1.3931003
24.7199654033587	1.9633173	1.4011842
24.737908331937927	2.0060291	1.4163436
24.755851876658305	1.9977919	1.4134327
24.773796038023324	1.9973294	1.413269
24.79174081653661	2.0247355	1.422932
24.809686212701962	2.0803716	1.4423493
24.827632227023294	2.0788305	1.441815
24.8455788600047	2.076811	1.4411145
24.8635261121504	2.1116657	1.4531572
24.88147398396475	2.1182888	1.4554342
24.899422475952303	2.1218019	1.4566406
24.917371588617698	2.1247745	1.4576606
24.935321322465768	2.1748953	1.4747527
24.953271678001478	2.2963333	1.5153657
24.97122265572994	2.4955063	1.5797172
24.989174256156414	2.8073905	1.675527
25.00712647978632	3.2130566	1.7925001
25.02507932712521	3.7351608	1.9326564
25.043032798678798	4.258608	2.0636394
25.060986894952933	4.8715696	2.2071633
25.078941616453637	5.5195794	2.3493786
25.096896963687055	6.4026847	2.5303526
25.114852937159508	7.55749	2.749089
25.132809537377444	8.153307	2.8553996
25.150766764847468	8.239288	2.8704162
25.168724620076347	7.6996284	2.7748203
25.186683103570985	6.691334	2.5867612
25.204642215838426	5.5831985	2.3628793
25.222601957385894	4.3239403	2.0794086
25.24056232872074	3.3469312	1.829462
25.25852333035048	2.74039	1.6554123
25.276484962782778	2.3555238	1.5347716
25.294447226525435	2.1350465	1.4611799
25.312410122086423	2.030843	1.4250765
25.330373649973843	1.9837127	1.4084433
25.348337810695988	1.9608511	1.400304
25.366302604761245	1.9591631	1.3997011
25.384268032678207	1.9411665	1.3932575
25.40223409495558	1.9194322	1.3854357
25.420200792102257	1.925457	1.3876084
25.438168124627246	1.9446319	1.3945006
25.45613609303974	1.8876423	1.373915
25.474104697849057	1.8737245	1.3688406
25.492073939564698	1.8232436	1.3502754
25.510043818696285	1.8565332	1.3625466
25.528014335753614	1.8497454	1.3600534
25.54598549124664	1.8864375	1.3734764
25.56395728568544	1.8998393	1.3783466
25.58192971958028	1.8747759	1.3692245
25.59990279344156	1.8929269	1.3758368
25.617876507779833	1.8907534	1.3750467
25.635850863105826	1.9195269	1.3854699
25.653825859930386	1.9011207	1.3788114
25.671801498764548	1.8972473	1.377406
25.68977778011949	1.8702959	1.3675876
25.707754704506524	1.8795646	1.3709722
25.725732272437153	1.85711	1.3627583
25.743710484423012	1.8539958	1.3616152
25.761689340975888	1.862941	1.3648959
25.77966884260774	1.851002	1.3605154
25.797648989830662	1.8959287	1.3769273
25.815629783156922	1.9147266	1.3837365
25.83361122309895	1.9160552	1.3842164
25.85159331016929	1.8498021	1.3600743
25.869576044880695	1.8459815	1.358669
25.887559427746034	1.8866282	1.3735459
25.90554345927836	1.8734964	1.3687572
25.92352813999086	1.8416923	1.3570896
25.94151347039689	1.8311727	1.3532083
25.959499451009965	1.8757559	1.3695824
25.97748608234374	1.8743287	1.3690612
25.995473364912062	1.8597947	1.363743
26.013461299228904	1.8126054	1.3463303
26.03144988580839	1.8125684	1.3463166
26.04943912516483	1.858189	1.363154
26.067429017812675	1.8258232	1.3512303
26.085419564266537	1.78401	1.3356684
26.103410765041186	1.7669283	1.3292586
26.12140262065155	1.8057072	1.3437661
26.139395131612723	1.8232081	1.3502623
26.157388298439948	1.8437576	1.3578503
26.17538212164861	1.8549899	1.3619801
26.193376601754295	1.8594353	1.3636111
26.211371739272714	1.8584969	1.363267
26.229367534719746	1.8397677	1.3563803
26.247363988611433	1.8385293	1.3559238
26.26536110146397	1.8559285	1.3623247
26.283358873793727	1.8799596	1.3711162
26.301357306117204	1.8507464	1.3604214
26.319356398951104	1.8406867	1.3567191
26.33735615281224	1.8514328	1.3606737
26.35535656821762	1.846079	1.3587049
26.373357645684404	1.8562002	1.3624244
26.39135938572991	1.8702551	1.3675727
26.409361788871614	1.8473365	1.3591676
26.427364855627165	1.8466104	1.3589004
26.445368586514352	1.8286586	1.3522791
26.46337298205115	1.7845451	1.3358686
26.48137804275568	1.7792754	1.3338948
26.499383769146217	1.7792238	1.3338755
26.517390161741215	1.8084675	1.3447927
26.53539722105928	1.8153937	1.3473655
26.553404947619182	1.7935964	1.3392522
26.571413341939856	1.8065802	1.3440908
26.589422404540397	1.8308731	1.3530976
26.60743213594006	1.8645416	1.3654822
26.62544253665827	1.8422154	1.3572824
26.64345360721459	1.8021665	1.3424479
26.66146534812879	1.7947176	1.3396707
26.679477759920758	1.8261209	1.3513404
26.69749084311057	1.875391	1.3694491
26.71550459821847	1.8966439	1.3771869
26.733519025764842	1.8692238	1.3671956
26.751534126270258	1.8628007	1.3648446
26.769549900255434	1.8620226	1.3645595
26.787566348241267	1.8008604	1.3419614
26.80558347074881	1.7862388	1.3365024
26.823601268299267	1.8078116	1.3445488
26.841619741414036	1.8183188	1.3484505
26.85963889061465	1.8608955	1.3641465
26.877658716422832	1.8380219	1.3557366
26.89567921936045	1.7924157	1.3388113
26.913700399949544	1.7825276	1.3351133
26.93172225871233	1.8298849	1.3527324
26.949744796171174	1.8496562	1.3600206
26.967768012848605	1.8647369	1.3655537
26.98579190926733	1.8558338	1.3622899
27.003816485950225	1.8146725	1.3470978
27.021841743420318	1.8309846	1.3531388
27.039867682200814	1.8364291	1.3551491
27.057894302815072	1.8416928	1.3570899
27.07592160578664	1.8034135	1.3429123
27.0939495916392	1.7967414	1.3404258
27.111978260896635	1.8267059	1.3515569
27.13000761408296	1.8092659	1.3450896
27.148037651722397	1.8229432	1.3501642
27.166068374339304	1.8067589	1.3441573
27.184099782458215	1.8277267	1.3519344
27.20213187660384	1.7954872	1.339958
27.22016465730105	1.8180982	1.3483688
27.23819812507487	1.8254015	1.3510742
27.256232280450533	1.8175337	1.3481594
27.274267123953383	1.7984327	1.3410566
27.292302656108987	1.8218285	1.3497512
27.31033887744306	1.8490316	1.359791
27.32837578848146	1.8449998	1.3583077
27.34641338975026	1.7928472	1.3389724
27.364451681775673	1.7671254	1.3293327
27.382490665084074	1.7904414	1.3380737
27.400530340202046	1.799891	1.3416002
27.41857070765629	1.7739928	1.3319132
27.436611767973726	1.7863947	1.3365607
27.454653521681404	1.7834067	1.3354425
27.472695969306564	1.8393286	1.3562185
27.490739111376627	1.8521287	1.3609294
27.508782948419153	1.8489517	1.3597616
27.526827480961902	1.8124367	1.3462677
27.54487270953279	1.8061945	1.3439474
27.562918634659898	1.8042707	1.3432314
27.580965256871508	1.7871946	1.33686
27.599012576696026	1.7729319	1.331515
27.617060594662068	1.7482667	1.3222203
27.63510931129842	1.8045317	1.3433286
27.65315872713401	1.8359216	1.3549619
27.67120884269797	1.8249732	1.3509157
27.68925965851958	1.8216959	1.3497021
27.707311175128307	1.8632897	1.3650237
27.725363393053787	1.8690139	1.3671188
27.74341631282583	1.8824884	1.372038
27.7614699349744	1.931181	1.3896694
27.77952426002968	2.1351535	1.4612164
27.797579288521973	2.1902218	1.4799398
27.815635020981784	2.6493773	1.6276908
27.83369145793979	2.6908777	1.6403894
27.85174859992682	2.4961855	1.5799321
27.869806447473923	2.2871976	1.5123484
27.887865001112267	1.8974829	1.3774915
27.905924261373233	1.7766002	1.3328917
27.92398422878836	1.8323513	1.3536438
27.94204490388936	1.920529	1.3858315
27.96010628720813	1.9269714	1.3881539
27.978168379276728	1.8778857	1.3703597
27.9962311806274	1.8046173	1.3433604
28.014294691792568	1.7679442	1.3296406
28.0323589133048	1.8424404	1.3573653
28.050423845696887	1.9109483	1.3823705
28.068489489501758	1.917751	1.3848288
28.086555845252523	1.869518	1.3673033
28.104622913482487	1.8470012	1.3590442
28.122690694725115	1.8597062	1.3637104
28.14075918951405	1.8785248	1.3705928
28.15882839838312	1.9015441	1.3789649
28.176898321866304	1.9193033	1.3853892
28.1949689604978	1.9240882	1.3871151
28.213040314811945	1.8938483	1.3761716
28.23111238534327	1.8706663	1.367723
28.249185172626493	1.9359723	1.3913922
28.267258677196473	1.9546489	1.3980876
28.285332899588294	1.9667301	1.4024016
28.303407840337172	1.9554532	1.3983752
28.321483499978545	1.9694667	1.4033769
28.33955987904799	1.9623698	1.4008461
28.357636978081285	1.8992639	1.3781378
28.37571479761439	1.8448738	1.3582613
28.393793338183425	1.8441846	1.3580076
28.41187260032469	1.9084882	1.3814805
28.429952584574686	1.9517794	1.397061
28.448033291470065	1.9636331	1.401297
28.46611472154769	2.0078213	1.4169761
28.484196875344566	2.027981	1.424072
28.502279753397914	2.0057049	1.4162291
28.52036335624511	2.006685	1.4165751
28.538447684423716	2.0199883	1.421263
28.556532738471482	1.9946404	1.4123174
28.574618518926325	1.9996723	1.4140977
28.59270502632635	2.013077	1.4188294
28.61079226120985	2.023944	1.4226538
28.628880224115274	2.0104775	1.4179131
28.646968915581287	2.0620112	1.4359705
28.66505833614671	2.1281028	1.4588019
28.68314848635055	2.1152136	1.4543774
28.701239366732004	2.0675225	1.4378883
28.71933097783044	2.0455384	1.4302232
28.737423320185403	2.087456	1.4448031
28.75551639433665	2.102006	1.4498296
28.773610200824074	2.0946121	1.4472774
28.791704740187793	2.1008646	1.449436
28.80980001296809	2.092064	1.4463968
28.827896019705413	2.148129	1.4656497
28.845992760940433	2.2108483	1.4868922
28.86409023721397	2.204816	1.4848623
28.88218844906704	2.189162	1.4795817
28.900287397040845	2.1955755	1.4817474
28.918387081676755	2.210926	1.4869183
28.936487503516343	2.2628644	1.504282
28.954588663101365	2.3077786	1.5191375
28.97269056097374	2.3272362	1.5255282
28.990793197675597	2.3101792	1.5199274
29.00889657374923	2.3692873	1.539249
29.027000689737125	2.4401815	1.562108
29.04510554618196	2.4176564	1.5548815
29.06321114362659	2.4721622	1.5723112
29.08131748261405	2.5239449	1.5886928
29.099424563687567	2.5781164	1.6056514
29.11753238739057	2.575047	1.6046953
29.13564095426663	2.6082613	1.6150112
29.15375026485954	2.5888848	1.6090012
29.171860319713275	2.6265633	1.6206676
29.18997111937199	2.6457806	1.6265856
29.20808266438002	2.6906054	1.6403065
29.226194955281898	2.7792518	1.6671088
29.244307992622335	2.8592987	1.6909461
29.26242177694624	2.8853824	1.6986413
29.2805363087987	2.8477426	1.6875256
29.29865158872498	2.8850074	1.6985309
29.316767617270557	2.9183056	1.7083049
29.334884394981064	2.9157634	1.7075607
29.353001922402367	2.8906448	1.7001896
29.37112020008047	2.998165	1.731521
29.389239228561596	3.0925229	1.7585571
29.407359008392152	3.295785	1.8154297
29.42547954011872	3.685915	1.9198737
29.44360082428809	4.309479	2.0759284
29.46172286144722	5.3209524	2.306719
29.479845652143283	6.7886205	2.605498
29.497969196923606	8.827358	2.971087
29.516093496335728	11.220708	3.3497324
29.5342185509274	13.922674	3.73131
29.55234436124651	16.381323	4.0473847
29.570470927841175	17.736687	4.2114944
29.588598251259686	17.302492	4.1596265
29.60672633205055	15.989027	3.9986281
29.624855170762405	13.838771	3.7200499
29.642984767944146	11.222363	3.3499796
29.66111512414481	8.763029	2.9602413
29.67924623991366	6.660825	2.5808573
29.697378115800138	5.125809	2.264025
29.71551075235387	4.241439	2.0594754
29.733644150124675	3.8150103	1.9532051
29.751778309662576	3.542918	1.882264
29.769913231517766	3.4004376	1.8440275
29.78804891624066	3.393272	1.8420836
29.806185364381818	3.4279416	1.8514701
29.82432257649206	3.496263	1.8698297
29.842460553122333	3.4955196	1.8696309
29.86059929482382	3.4044068	1.8451035
29.878738802147872	3.3547277	1.8315916
29.896879075646048	3.275149	1.8097373
29.915020115870114	3.2995286	1.8164605
29.933161923371976	3.3283634	1.8243803
29.951304498703777	3.2956762	1.8153998
29.969447842417857	3.298107	1.8160691
29.987591955066733	3.2220068	1.794995
30.005736837203123	3.197581	1.7881781
30.023882489379943	3.1867402	1.7851443
30.04202891215028	3.2150908	1.7930675
30.060176106067455	3.265415	1.8070459
30.078324071684946	3.3091638	1.8191108
30.09647280955646	3.2704573	1.8084406
30.114622320235863	3.2050755	1.7902725
30.132772604277257	3.150393	1.7749346
30.1509236622349	3.107837	1.7629058
30.16907549466328	3.0627508	1.7500716
30.18722810211705	3.0752726	1.7536455
30.205381485151097	3.1193504	1.7661682
30.22353564432045	3.100452	1.76081
30.241690580180403	3.0580125	1.7487174
30.25984629328638	3.0122895	1.7355949
30.278002784194037	3.009862	1.7348953
30.296160053459246	3.022665	1.7385813
30.314318101638033	2.9953485	1.7307075
30.332476929286646	2.958876	1.7201383
30.35063653696153	2.9348025	1.7131265
30.368796925219307	2.9624336	1.7211721
30.386958094616844	2.922947	1.7096628
30.40512004571115	2.8951793	1.7015226
30.423282779059463	2.8784893	1.6966112
30.441446295219233	2.8270135	1.6813725
30.459610594748067	2.8581364	1.6906024
30.47777567820382	2.879071	1.6967826
30.495941546144504	2.844681	1.6866182
30.51410819912835	2.8208704	1.6795447
30.532275637713795	2.84059	1.685405
30.55044386245946	2.8024583	1.6740545
30.56861287392416	2.775241	1.6659055
30.586782672666956	2.7461061	1.657138
30.604953259247047	2.7271883	1.6514201
30.623124634223885	2.7633946	1.6623461
30.641296798157075	2.842053	1.6858389
30.659469751606462	2.8902261	1.7000664
30.677643495132074	2.8713825	1.6945155
30.695818029294152	2.7969332	1.6724035
30.713993354653116	2.744777	1.6567369
30.73216947176962	2.7426145	1.6560841
30.75034638120448	2.773554	1.6653991
30.768524083518756	2.838451	1.6847702
30.786702579273673	2.8551881	1.6897302
30.80488186903069	2.8624175	1.6918681
30.82306195335144	2.9121373	1.7064985
30.841242832797782	3.0398338	1.7435119
30.85942450793176	3.330999	1.8251024
30.877606979315637	3.714855	1.9273959
30.895790247511883	4.09728	2.024174
30.913974313083134	4.53067	2.1285372
30.932159176592283	4.8085346	2.192837
30.95034483860237	4.769525	2.1839242
30.968531299676698	4.483248	2.1173682
30.98671856037873	4.2317543	2.0571227
31.00490662127215	3.9218225	1.9803592
31.023095482920848	3.4926386	1.8688602
31.04128514588892	3.0341384	1.7418778
31.059475610740662	2.6844208	1.6384202
31.07766687804056	2.5875123	1.6085746
31.09585894835335	2.5834625	1.6073153
31.11405182224393	2.4857104	1.5766135
31.132245500277417	2.4452603	1.5637329
31.15043998301914	2.4518585	1.5658412
31.168635271034628	2.4761937	1.5735925
31.18683136488964	2.4434404	1.5631508
31.20502826515008	2.422222	1.5563489
31.223225972382135	2.4298143	1.5587862
31.241424487152155	2.416335	1.5544565
31.259623810026692	2.4141276	1.5537463
31.27782394157253	2.4028993	1.5501288
31.296024882356644	2.4001236	1.5492332
31.314226632946237	2.394907	1.5475487
31.332429193908684	2.46187	1.5690347
31.350632565811598	2.510155	1.5843469
31.368836749222787	2.528009	1.5899714
31.387041744710295	2.5081227	1.5837053
31.40524755284232	2.55601	1.5987526
31.423454174187317	2.577258	1.6053841
31.441661609313922	2.50573	1.5829498
31.459869858791002	2.4477437	1.5645267
31.478078923187628	2.4226553	1.5564882
31.496288803073064	2.4349527	1.5604335
31.514499499016807	2.4377337	1.5613244
31.532711011588546	2.398599	1.5487411
31.550923341358178	2.3445957	1.5312072
31.56913648889584	2.3412573	1.5301168
31.587350454771844	2.3626697	1.5370978
31.605565239556732	2.4110186	1.5527455
31.62378084382127	2.4034429	1.5503042
31.641997268136382	2.367463	1.5386562
31.660214513073274	2.3804748	1.5428787
31.67843257920331	2.4395204	1.5618964
31.6966514670981	2.4393818	1.5618521
31.71487117732944	2.4227254	1.5565107
31.733091710469346	2.373453	1.5406015
31.751313067090052	2.3483918	1.5324464
31.769535247764008	2.3151586	1.5215645
31.787758253063878	2.2998555	1.5165274
31.805982083562526	2.2843192	1.5113964
31.824206739833024	2.2620828	1.5040222
31.84243222244869	2.2728772	1.5076065
31.860658531983013	2.2436996	1.4978983
31.878885669009737	2.1885684	1.4793811
31.897113634102784	2.2389917	1.4963261
31.91534242783632	2.2839606	1.5112778
31.933572050784694	2.2070997	1.4856311
31.951802503522508	2.152292	1.4670691
31.970033786624548	2.165415	1.471535
31.988265900665834	2.2192388	1.4897109
32.006498846221575	2.2732794	1.5077398
32.02473262386724	2.316681	1.5220647
32.04296723417845	2.2865593	1.5121373
32.0612026777311	2.1808667	1.4767758
32.07943895510129	2.1898916	1.4798282
32.097676066865304	2.3078773	1.5191699
32.115914013599685	2.3101172	1.519907
32.13415279588115	2.2852218	1.511695
32.152392414286666	2.2538419	1.5012801
32.1706328693934	2.2398887	1.4966258
32.18887416177875	2.166975	1.4720649
32.20711629202032	2.1444433	1.4643918
32.225359260695924	2.072469	1.4396073
32.243603068383614	2.0732257	1.43987
32.26184771566166	2.107993	1.4518929
32.28009320310852	2.110946	1.4529095
32.2983395313029	2.132976	1.4604712
32.31658670082372	2.1770482	1.4754823
32.33483471225012	2.2340038	1.4946585
32.35308356616143	2.173717	1.4743531
32.371333263137245	2.0810804	1.442595
32.38958380375734	2.0416102	1.4288492
32.407835188601744	2.0778913	1.4414893
32.42608741825067	2.098694	1.4486871
32.444340493284585	2.0689604	1.4383881
32.46259441428416	2.1110263	1.4529371
32.48084918183028	2.1400495	1.4628907
32.49910479650405	2.130796	1.4597247
32.51736125888683	2.084311	1.4437143
32.53561856956014	2.0309544	1.4251156
32.5538767291058	1.973171	1.4046961
32.572135738105764	1.9855283	1.4090878
32.59039559714228	2.0614352	1.4357699
32.608656306797776	2.0481768	1.4311453
32.62691786765491	2.0338833	1.4261428
32.645180280296586	2.0265255	1.4235609
32.663443545305896	1.9659077	1.4021083
32.68170766326619	1.9716032	1.4041378
32.69997263476099	2.022107	1.422008
32.7182384603741	2.071036	1.4391094
32.7365051406895	2.0481184	1.4311248
32.75477267629144	2.0497022	1.431678
32.77304106776434	2.0353713	1.4266644
32.79131031569289	1.9872425	1.4096959
32.809580420661966	1.9306014	1.3894608
32.827851383256714	1.8959218	1.3769248
32.84612320406245	1.9375355	1.3919538
32.86439588366476	1.9326222	1.3901879
32.88266942264945	1.9408915	1.3931588
32.9009438216025	2.0061755	1.4163953
32.9192190811102	2.0247273	1.4229292
32.937495201758985	2.0359316	1.4268607
32.95577218413556	2.0162504	1.4199473
32.974050028826866	1.9246519	1.3873183
32.992328736420035	1.8796083	1.370988
33.010608307502444	1.9442475	1.3943628
33.02888874266169	1.973359	1.404763
33.047170042485604	1.950947	1.3967631
33.06545220756225	1.8945893	1.3764408
33.083735238479896	1.872992	1.368573
33.10201913582707	1.8468373	1.3589839
33.12030390019248	1.9784917	1.4065887
33.138589532165135	2.116623	1.4548619
33.15687603233419	2.12078	1.4562898
33.17516340128909	2.0785184	1.4417068
33.19345163961947	2.0786457	1.4417509
33.211740747915215	2.0293856	1.4245651
33.23003072676643	1.9336951	1.3905736
33.248321576763466	2.0185034	1.4207405
33.266613298496885	2.0486262	1.4313023
33.28490589255747	1.9626372	1.4009415
33.30319935953626	1.9328543	1.3902713
33.32149370002451	2.0768423	1.4411254
33.339788914613706	2.0480874	1.4311141
33.358085003895575	2.0035014	1.4154509
33.376381968462034	1.9923681	1.4115127
33.39467980890529	2.046022	1.4303923
33.41297852581774	2.0313938	1.4252697
33.43127811979204	2.0191052	1.4209522
33.44957859142105	2.0001767	1.414276
33.467879941297866	1.9276001	1.3883804
33.486182170015844	1.9426837	1.3938019
33.50448527816853	1.9673582	1.4026254
33.522789266349754	1.9616346	1.4005836
33.541094135153514	1.988817	1.4102542
33.55939988517411	1.9972428	1.4132384
33.57770651700602	1.9196237	1.3855048
33.59601403124398	1.871902	1.3681747
33.61432242848296	1.9441979	1.3943449
33.632631709318154	1.9411463	1.3932502
33.650941874344994	1.8834062	1.3723725
33.66925292415916	1.8691891	1.367183
33.68756485935654	1.8879019	1.3740094
33.70587768053328	1.8590019	1.3634522
33.724191388285746	1.8720722	1.3682369
33.74250598321054	1.8936975	1.3761169
33.760821465904506	1.8874712	1.3738527
33.77913783696474	1.8608224	1.3641196
33.79745509698852	1.9716911	1.4041692
33.815773246573414	2.095909	1.4477255
33.8340922863172	2.0063467	1.4164556
33.852412216817896	1.905334	1.3803383
33.87073303867377	1.8270922	1.3516997
33.889054752483304	1.8509998	1.3605145
33.907377358845245	1.9092448	1.3817543
33.92570085835853	2.0516424	1.4323555
33.94402525162239	2.1500478	1.4663041
33.96235053923627	2.1597414	1.4696059
33.980676721799824	2.1146796	1.4541938
33.999003799912984	2.204313	1.4846929
34.01733177417592	2.2139916	1.4879488
34.03566064518901	2.0285232	1.4242623
34.0539904135529	1.919199	1.3853515
34.07232107986846	1.8902866	1.374877
34.090652644736785	1.8694754	1.3672876
34.108985108759235	1.959686	1.3998879
34.12731847253742	1.9736897	1.4048806
34.14565273667313	1.9120315	1.3827623
34.16398790176847	1.897423	1.3774698
34.18232396842574	1.9763159	1.405815
34.20066093724749	1.9264877	1.3879797
34.21899880883651	1.9242734	1.3871818
34.23733758379583	1.9438071	1.3942049
34.25567726272874	1.9519782	1.3971322
34.27401784623872	2.0589201	1.4348937
34.29235933492957	2.152685	1.4672031
34.31070172940526	2.1075146	1.4517281
34.32904503027003	2.035157	1.4265893
34.347389238128386	1.98092	1.4074516
34.36573435358502	1.9418658	1.3935084
34.38408037724492	1.8527143	1.3611444
34.402427309713296	1.8307257	1.3530431
34.42077515159559	1.7787365	1.3336928
34.43912390349752	1.76835	1.3297932
34.45747356602499	1.9466432	1.3952216
34.47582413978423	2.069878	1.4387071
34.49417562538163	2.1127322	1.453524
34.51252802342388	2.137428	1.4619945
34.53088133451789	2.1467323	1.4651731
34.54923555927084	2.0676522	1.4379333
34.567590698290104	2.02255	1.4221638
34.58594675218336	1.9652245	1.4018646
34.6043037215585	1.9940078	1.4120934
34.62266160702365	1.8961873	1.3770212
34.641020409187234	1.8883233	1.3741628
34.65938012865785	1.9883355	1.4100835
34.677740766044394	2.074693	1.4403795
34.69610232195598	2.1404612	1.4630315
34.714464797002016	2.1315908	1.4599968
34.73282819179208	1.982336	1.4079546
34.751192506936064	1.7965286	1.3403465
34.76955774304408	1.7303476	1.3154268
34.7879239007265	1.7344719	1.3169935
34.80629098059391	1.8204094	1.3492255
34.824658983257194	1.7952559	1.3398716
34.843027909327446	1.7457169	1.3212558
34.86139775941603	1.8759589	1.3696564
34.879768534134534	1.9360738	1.3914287
34.89814023409483	1.942408	1.393703
34.91651285990901	2.135315	1.4612716
34.93488641218944	2.239615	1.4965343
34.95326089154871	2.1424177	1.4636999
34.97163629859967	1.9123515	1.382878
34.99001263395542	1.8623594	1.3646829
35.00838989822934	1.7841722	1.3357291
35.02676809203499	1.7722585	1.331262
35.04514721598624	1.6727431	1.2933457
35.063527270697215	1.8503993	1.3602939
35.081908256782256	1.935836	1.3913432
35.10029017485597	1.8743113	1.3690549
35.11867302553321	1.8641435	1.3653364
35.137056809429104	2.0064938	1.4165076
35.155441527159006	2.022813	1.4222564
35.173827179338524	1.9669187	1.4024688
35.19221376658354	1.7290114	1.3149188
35.21060128951017	1.7569704	1.3255076
35.2289897487348	2.1070254	1.4515597
35.24737914487405	1.9997306	1.4141183
35.26576947854479	1.5821226	1.2578245
35.28416075036418	1.5172468	1.2317657
35.30255296094958	1.6987324	1.3033543
35.32094611091867	1.915974	1.3841871
35.33934020088932	1.9060923	1.380613
35.35773523147969	1.8370297	1.3553706
35.3761312033082	1.8961262	1.376999
35.394528116993506	1.9754353	1.4055017
35.41292597315452	1.7942427	1.3394935
35.431324772410434	1.8293251	1.3525255
35.449724515380666	2.1485374	1.465789
35.46812520268491	2.3707986	1.5397397
35.486526834943106	2.383794	1.543954
35.504929412775454	2.3099844	1.5198632
35.52333293680242	2.3303845	1.5265597
35.54173740764471	1.9088734	1.3816198
35.560142825923286	1.3052394	1.1424707
35.5785491922594	0.94851494	0.9739173
35.59695650727454	0.75016177	0.8661188
35.61536477159042	0.42420965	0.6513138
