0.008763373481513119	0.0	0.0
0.026290120649546365	0.11242709	0.3353015
0.043816868432600686	0.12596065	0.35490936
0.06134361724069026	0.2134665	0.46202433
0.07887036748382949	0.34184638	0.5846763
0.0963971195720331	0.23399436	0.48372963
0.11392387391531617	0.2116222	0.46002412
0.1314506309236943	0.12630098	0.3553885
0.1489773910071836	0.14494805	0.38072044
0.16650415457580078	0.18331163	0.42814907
0.18403092203956356	0.16857056	0.41057345
0.20155769380849	0.20609343	0.45397514
0.2190844702925996	0.23213208	0.48180085
0.2366112519019124	0.21582147	0.4645659
0.2541380390464497	0.1430973	0.37828204
0.27166483213623416	0.13168095	0.3628787
0.28919163158128947	0.10504429	0.32410538
0.3067184377916406	0.15137736	0.38907245
0.324245251177314	0.14630066	0.3824927
0.34177207214833777	0.18162307	0.42617258
0.3592989011147415	0.19781762	0.44476694
0.37682573848655654	0.16229534	0.40285897
0.39435258467381573	0.114096686	0.337782
0.41187944008655414	0.10280165	0.32062697
0.42940630513480854	0.111346446	0.33368614
0.446933180228618	0.11052999	0.3324605
0.4644600657780234	0.107674606	0.32813808
0.48198696219306775	0.095030606	0.30827034
0.49951386988379676	0.12925509	0.35952064
0.5170407892602581	0.15927988	0.39909884
0.5345677207325025	0.21574196	0.4644803
0.5520946647105822	0.22003472	0.46907857
0.5696216216045534	0.21084262	0.45917603
0.5871485918244737	0.18021056	0.42451215
0.6046755757804043	0.18976206	0.43561688
0.6222025738824094	0.22150415	0.47064227
0.6397295865405557	0.27060997	0.52020186
0.6572566141649129	0.22033845	0.46940222
0.6747836571655547	0.17998011	0.42424062
0.6923107159525568	0.15553464	0.3943788
0.7098377909359992	0.15003742	0.38734666
0.7273648825259653	0.17296876	0.41589513
0.7448919911325411	0.22541848	0.47478256
0.762419117165817	0.24341705	0.49337313
0.7799462610358868	0.24561529	0.4955959
0.7974734231528482	0.20920764	0.45739222
0.8150006039268024	0.202272	0.44974658
0.8325278037678551	0.20181149	0.44923434
0.8500550230861152	0.2200651	0.46911097
0.8675822622916969	0.22112471	0.47023898
0.8851095217947171	0.2397069	0.48959872
0.9026368020052984	0.24945952	0.49945924
0.9201641033335665	0.22564815	0.47502437
0.9376914261896523	0.19132714	0.43740958
0.9552187709836915	0.16966833	0.41190815
0.9727461381258234	0.18741094	0.43290985
0.990273528026193	0.20678216	0.45473307
1.0078009410949496	0.21731931	0.4661752
1.0253283777422473	0.22159094	0.47073448
1.0428558383782454	0.24273534	0.49268177
1.0603833234131086	0.26235944	0.51221037
1.0779108332570058	0.34611163	0.5883125
1.0954383683201119	0.3620486	0.6017047
1.112965929012607	0.4195049	0.64769197
1.1304935157446763	0.55196285	0.74294204
1.1480211289265108	0.5962457	0.7721695
1.1655487689683062	1.3913308	1.1795468
1.1830764362802655	1.6115369	1.2694632
1.200604131272596	1.9951857	1.4125104
1.2181318543555117	2.259702	1.5032305
1.235659605939232	2.2976475	1.5157993
1.253187386433982	3.8373814	1.9589236
1.270715196249994	6.382524	2.5263658
1.2882430357975057	12.066909	3.4737456
1.3057709054867608	16.931887	4.114837
1.3232988057280106	22.755114	4.770232
1.3408267369315112	27.768654	5.269597
1.358354699507526	31.266226	5.591621
1.3758826938663256	35.64883	5.970664
1.3934107204181858	37.77449	6.1460958
1.410938779573391	37.96105	6.161254
1.4284668717422309	38.355625	6.193192
1.4459949973350033	37.83712	6.1511884
1.4635231567620117	37.7647	6.145299
1.4810513504335687	36.9794	6.081069
1.4985795787599925	36.44848	6.0372577
1.5161078421516088	36.176945	6.014727
1.5336361410187505	35.531887	5.960863
1.5511644757717598	35.38291	5.948354
1.5686928468209842	35.920155	5.9933424
1.58622125457678	36.351883	6.029252
1.6037496994495108	37.440647	6.1188765
1.621278181849548	37.611664	6.132835
1.6388067021872719	38.44798	6.2006435
1.6563352608730693	37.716366	6.141365
1.673863858317336	36.54367	6.045136
1.6913924949304753	35.373745	5.947583
1.7089211711228998	34.250538	5.852396
1.7264498873050296	33.847404	5.817852
1.7439786438872935	33.15337	5.7578964
1.7615074412801288	32.203644	5.6748257
1.779036279893981	31.47935	5.6106462
1.796565160139305	30.576672	5.529618
1.814094082426564	29.751421	5.4544864
1.8316230471662298	28.81024	5.367517
1.849152054768784	27.946737	5.2864676
1.8666811056447168	27.430782	5.2374406
1.8842102002045273	26.656628	5.163006
1.901739338858724	26.357597	5.133965
1.9192685220178245	25.866068	5.0858693
1.9367977500923557	25.409767	5.04081
1.9543270234928547	24.842823	4.9842577
1.971856342629867	24.180054	4.9173217
1.9893857079139496	23.236885	4.820465
2.006915119755667	22.66355	4.760625
2.0244445785655945	22.27953	4.7201195
2.0419740847543175	22.083792	4.6993394
2.0595036387324317	21.780478	4.666956
2.0770332409105414	21.261446	4.6110134
2.094562891699263	20.83231	4.5642424
2.1120925915092217	20.279531	4.50328
2.129622340751053	19.933064	4.464646
2.1471521398354043	188.02444	13.7122
2.1646819891729323	444.36337	21.079927
2.182211889174303	440.51645	20.988483
2.1997418402501974	452.97058	21.283106
2.2172718428113023	432.92514	20.806852
2.234801897268317	321.032	17.917366
2.2523320040319548	17.333185	4.1633143
2.269862163512935	16.781252	4.096493
2.287392376121992	16.417364	4.0518346
2.304922642269869	16.227625	4.0283527
2.322452962367322	16.175438	4.02187
2.3399833368251164	15.927041	3.9908698
2.357513766054032	15.579197	3.9470491
2.3750442504648586	15.222254	3.9015708
2.3925747904683963	14.926962	3.8635426
2.410105386475459	14.689103	3.8326366
2.4276360388968707	14.413755	3.7965453
2.445166748143469	14.17936	3.7655492
2.4626975146261025	13.917018	3.730552
2.4802283387556323	13.609391	3.6890907
2.4977592209429305	13.369852	3.6564808
2.5152901615988825	13.036018	3.6105428
2.5328211611343865	12.832505	3.5822487
2.5503522199603523	12.713183	3.565555
2.5678833384877024	12.795195	3.577037
2.5854145171273712	12.536973	3.5407588
2.6029457562903064	12.31837	3.5097535
2.620477056387469	12.04702	3.4708817
2.6380084178298326	11.826884	3.4390237
2.655539841028383	11.481648	3.388458
2.673071326394119	11.346224	3.3684156
2.6906028743380523	11.307889	3.3627205
2.708134485271211	11.209054	3.3479924
2.7256661596046325	11.095006	3.3309166
2.743197897749369	10.783629	3.2838438
2.760729700116486	10.722761	3.2745628
2.778261567117063	10.458075	3.2338946
2.795793499162193	10.338908	3.2154174
2.8133254966629817	10.163037	3.1879518
2.830857560030551	9.930775	3.151313
2.8483896896760337	9.740447	3.1209688
2.865921886010578	9.629681	3.1031728
2.883454149445347	9.475731	3.0782676
2.9009864803915177	9.402355	3.066326
2.91851887926028	9.129564	3.0215168
2.9360513464628384	8.881904	2.9802523
2.953583882410413	8.796776	2.965936
2.9711164875142373	8.816267	2.96922
2.9886491621855606	8.806549	2.967583
3.0061819068356455	8.689424	2.9477828
3.023714721875769	8.513697	2.917824
3.041247607717225	8.531111	2.9208064
3.0587805647713213	8.451918	2.9072182
3.0763135934493806	8.389702	2.8964982
3.0938466941627407	8.165537	2.8575404
3.1113798673227544	8.004016	2.8291368
3.1289131133407904	7.9390783	2.817637
3.1464464326282315	7.8913555	2.8091557
3.1639798255964786	7.90208	2.8110638
3.1815132926569443	7.790153	2.7910845
3.1990468342210603	7.7557735	2.784919
3.216580450700272	7.7108154	2.7768354
3.2341141425060416	7.4855614	2.7359755
3.251647910049847	7.3134475	2.7043386
3.2691817537431813	7.193302	2.6820333
3.286715673997555	7.0735707	2.6596186
3.3042496712244938	7.060104	2.6570857
3.32178374583554	6.927843	2.6320796
3.339317898242251	6.83663	2.614695
3.3568521288562034	6.811677	2.609919
3.3743864380889876	6.720638	2.5924194
3.3919208263522127	6.7327223	2.594749
3.4094552940575023	6.6051474	2.570048
3.4269898416164972	6.6357837	2.5760014
3.444524469440858	6.6761484	2.5838244
3.4620591779422587	6.6425004	2.5773048
3.479593967532391	6.651966	2.5791407
3.4971288386229658	6.431638	2.5360675
3.5146637916257086	6.3556066	2.5210328
3.5321988269523628	6.2068524	2.4913557
3.5497339450146903	6.138036	2.477506
3.5672691462244708	6.2509637	2.5001926
3.5848044309934988	6.2798057	2.505954
3.60233979973359	6.3997064	2.5297642
3.619875252856575	6.341277	2.5181892
3.6374107907743034	6.2602086	2.5020409
3.6549464138986427	6.2205763	2.4941082
3.6724821226414788	6.241711	2.4983416
3.690017917414714	6.325468	2.5150483
3.7075537986302702	6.3931327	2.5284646
3.7250897667000857	6.3967943	2.5291884
3.7426258220361235	6.5756745	2.5643077
3.7601619650503553	6.904231	2.6275904
3.777698196154779	7.478292	2.7346466
3.7952345157614067	8.377551	2.8944
3.8127709242822716	9.121977	3.020261
3.830307422129425	11.185386	3.344456
3.847844009714936	30.065125	5.483167
3.8653806874508954	97.59294	9.878914
3.882917455749409	96.83388	9.840421
3.900454315022606	96.6047	9.828769
3.917991265682631	41.23218	6.421229
3.9355283081416506	10.912956	3.3034763
3.9530654428118495	8.828149	2.97122
3.970602670105433	7.7059326	2.7759562
3.9881399904346244	6.8156943	2.6106884
4.005677404211669	6.643886	2.5775738
4.023214911848827	6.568712	2.56295
4.0407525137583855	6.516863	2.5528147
4.058290210352644	6.488153	2.5471854
4.075828002043927	6.4816303	2.5459046
4.0933658892445814	6.479422	2.545471
4.110903872366966	6.4101872	2.5318348
4.128441951823468	6.2799067	2.5059743
4.145980128026488	6.229003	2.4957972
4.163518401388452	6.0859857	2.466979
4.181056772321807	6.1445274	2.4788158
4.1985952412390155	6.0706053	2.4638598
4.216133808552567	6.145661	2.4790444
4.233672474674966	6.268584	2.503714
4.251211240018741	6.4890656	2.5473645
4.268750104996445	6.791183	2.60599
4.286289070020643	7.686827	2.7725127
4.303828135503928	9.340667	3.0562503
4.3213673018589125	29.601534	5.440729
4.3389065694982305	90.689384	9.523097
4.356445938834537	165.8713	12.879104
4.3739854102805085	171.5245	13.096737
4.391524984248844	172.54025	13.135458
4.409064661152262	136.80608	11.696413
4.426604441403504	97.191765	9.858588
4.444144325415337	75.97758	8.716512
4.461684313600543	21.869225	4.676454
4.47922440637193	22.181965	4.7097735
4.496764604142329	20.585735	4.5371504
4.5143049073245916	18.853197	4.3420267
4.531845316331589	16.71999	4.0890083
4.5493858315762195	13.873003	3.724648
4.566926453471405	11.60572	3.4067168
4.584467182430081	9.62671	3.102694
4.602008018865218	8.447937	2.9065335
4.619548963189798	7.625386	2.7614102
4.637090015816834	7.073565	2.6596174
4.654631177159353	6.746818	2.5974638
4.672172447630417	6.488388	2.5472314
4.689713827643102	6.3071303	2.5114
4.7072553176105085	6.139477	2.4777968
4.724796917945764	5.960236	2.4413595
4.742338629062015	5.9001856	2.4290297
4.759880451372434	5.773591	2.40283
4.777422385290215	5.740402	2.3959136
4.794964431228581	5.6781173	2.38288
4.812506589600768	5.653875	2.3777878
4.830048860820047	5.5961237	2.3656127
4.847591245299709	5.6364117	2.3741128
4.8651337434530655	5.6054435	2.3675818
4.882676355693457	5.6771865	2.3826847
4.900219082434242	5.6912208	2.385628
4.917761924088813	5.589121	2.3641322
4.935304881070575	5.5891514	2.3641386
4.952847953792969	5.5641756	2.3588505
4.970391142669449	5.5467563	2.3551552
4.9879344481135055	5.4940467	2.3439384
5.005477870538642	5.472361	2.3393078
5.023021410358394	5.390606	2.3217678
5.040565067986324	5.347449	2.3124552
5.05810884383601	5.3738427	2.318155
5.075652738321066	5.5171566	2.348863
5.09319675185512	5.545092	2.354802
5.110740884851836	5.587271	2.363741
5.128285137724894	5.5398955	2.3536983
5.145829510888007	5.51872	2.3491957
5.163374004754908	5.4544683	2.3354802
5.1809186197393595	5.411158	2.3261895
5.198463356255145	5.420334	2.328161
5.216008214716077	5.4065666	2.3252025
5.233553195535998	5.359953	2.3151572
5.251098299128764	5.371774	2.3177087
5.268643525908272	5.410328	2.3260112
5.286188876288432	5.400756	2.3239527
5.3037343506831895	5.387898	2.3211846
5.32127994950651	5.3229837	2.3071592
5.3388256731723915	5.271692	2.2960165
5.356371522094851	5.232532	2.287473
5.373917496687938	5.1844277	2.276934
5.391463597365729	5.230975	2.2871325
5.40900982454232	5.2732944	2.2963655
5.426556178631843	5.2717276	2.2960243
5.444102660048449	5.2481055	2.2908745
5.4616492692063225	5.257745	2.2929773
5.479196006519669	5.252847	2.291909
5.496742872402727	5.2128406	2.2831645
5.514289867269756	5.200364	2.2804308
5.531836991535049	5.1854725	2.2771633
5.549384245612924	5.2650256	2.2945642
5.566931629917724	5.2472243	2.290682
5.584479144863822	5.3025703	2.302731
5.6020267908656205	5.239227	2.2889357
5.619574568337545	5.2403307	2.289177
5.637122477694054	5.172654	2.274347
5.654670519349629	5.134048	2.2658439
5.672218693718784	5.1082397	2.2601416
5.689767001216059	5.1503043	2.2694283
5.707315442256021	5.1594934	2.271452
5.724864017253266	5.1423197	2.2676682
5.7424127266224225	5.1279235	2.2644918
5.75996157077814	5.105394	2.259512
5.777510550135105	5.215157	2.2836719
5.795059665108022	5.296368	2.301384
5.812608916111639	5.368573	2.3170183
5.830158303560715	5.436537	2.3316383
5.847707827870055	5.4395976	2.3322945
5.86525748945448	5.5393376	2.3535798
5.8828072887288485	5.612051	2.3689768
5.900357226108044	5.62214	2.3711052
5.917907302006979	5.697075	2.3868546
5.9354575168406	6.277786	2.505551
5.9530078710238765	6.8409247	2.6155162
5.970558364971812	7.3392572	2.7091064
5.988108999099438	7.5737605	2.7520466
6.005659773821818	8.051739	2.8375585
6.023210689554039	7.862005	2.8039267
6.040761746711227	8.323591	2.8850634
6.058312945708531	7.7895794	2.7909818
6.075864286961132	7.312022	2.704075
6.093415770884244	6.6594267	2.5805864
6.1109673978931065	6.0760794	2.4649704
6.128519168402993	5.508665	2.3470545
6.146071082829204	5.4064546	2.3251784
6.163623141587075	5.346808	2.3123167
6.181175345091969	5.3289223	2.308446
6.198727693759281	5.2041745	2.281266
6.216280188004435	5.180838	2.2761455
6.233832828242885	5.1427164	2.2677557
6.251385614890126	5.1938996	2.279013
6.268938548361669	5.118581	2.262428
6.286491629073067	5.0889635	2.2558732
6.304044857439898	5.062554	2.250012
6.321598233877777	5.017633	2.2400074
6.339151758802344	4.972248	2.2298539
6.356705432629277	4.9672704	2.2287374
6.37425925577428	5.007144	2.237665
6.391813228653095	5.0578704	2.248971
6.409367351681486	5.03671	2.2442615
6.426921625275259	5.008472	2.2379615
6.44447604985025	4.962557	2.2276797
6.46203062582232	4.921463	2.218437
6.47958535360737	4.945415	2.2238288
6.497140233621328	4.9672704	2.2287374
6.514695266280161	5.050212	2.2472677
6.532250451999859	5.129747	2.2648945
6.549805791196454	5.168902	2.273522
6.567361284286002	5.1823573	2.2764792
6.584916931684597	5.1421194	2.2676241
6.602472733808367	5.1090713	2.2603254
6.6200286910734665	5.066282	2.2508402
6.637584803896092	5.087486	2.2555456
6.655141072692462	5.034154	2.243692
6.672697497878842	5.0757556	2.2529438
6.690254079871514	5.021176	2.240798
6.707810819086808	5.0370603	2.2443397
6.725367715941078	5.0101323	2.2383325
6.742924770850719	4.993068	2.2345173
6.760481984232151	4.9530764	2.225551
6.778039356501836	4.90765	2.2153215
6.795596888076266	4.8762145	2.2082152
6.813154579371963	4.916163	2.2172422
6.830712430805492	4.952447	2.2254093
6.84827044279344	5.053744	2.2480533
6.865828615752445	5.1293283	2.264802
6.883386950099159	5.2225103	2.2852812
6.900945446250287	5.2339573	2.2877843
6.918504104622553	5.225729	2.2859852
6.936062925632727	5.1886168	2.2778535
6.953621909697607	5.1300383	2.2649589
6.971181057234028	5.1820226	2.2764056
6.988740368658859	5.213434	2.2832947
7.006299844389007	5.286706	2.2992837
7.023859484841407	5.3700123	2.3173287
7.041419290433036	5.4729285	2.3394291
7.058979261580902	5.657411	2.3785312
7.0765393987020495	5.8442173	2.4174817
7.094099702213559	6.16646	2.4832358
7.111660172532549	6.458527	2.5413632
7.129220810076164	6.7807946	2.6039958
7.146781615261595	7.3500295	2.7110937
7.16434258850606	7.631458	2.7625093
7.181903730226821	8.066978	2.8402426
7.1994650408411704	8.234611	2.869601
7.217026520766437	8.374062	2.8937972
7.234588170419983	8.639631	2.9393249
7.252149990219215	8.608273	2.9339857
7.269711980581568	8.454463	2.907656
7.2872741419245175	8.196479	2.8629494
7.304836474665574	7.783319	2.78986
7.322398979222286	7.53366	2.7447515
7.339961656012233	7.278726	2.6979115
7.357524505453039	6.9377346	2.6339579
7.375087527962357	6.6621423	2.5811126
7.392650723957886	6.314128	2.5127928
7.410214093857353	5.9578547	2.4408717
7.427777638078528	5.7037277	2.3882477
7.445341357039213	5.5128427	2.3479443
7.4629052511572525	5.3734107	2.3180618
7.480469320850524	5.3271036	2.3080518
7.498033566536948	5.3031645	2.30286
7.5155979886344735	5.263402	2.2942104
7.5331625875610975	5.217287	2.2841382
7.550727363734844	5.167887	2.2732987
7.568292317573788	5.186147	2.2773113
7.585857449496025	5.178512	2.2756345
7.603422759919705	5.167713	2.2732604
7.620988249263007	5.215935	2.2838423
7.638553917944147	5.210638	2.2826822
7.656119766381391	5.2223516	2.2852466
7.673685794993023	5.221575	2.2850766
7.691252004197388	5.2687106	2.2953672
7.70881839441285	5.3115788	2.3046863
7.726384966057826	5.318913	2.3062768
7.743951719550762	5.341009	2.3110623
7.761518655310149	5.282778	2.2984295
7.779085773754511	5.264289	2.2944038
7.796653075302419	5.2604823	2.293574
7.814220560372475	5.223159	2.285423
7.831788229383323	5.2577963	2.2929885
7.8493560827536495	5.257988	2.2930303
7.866924120902174	5.2616277	2.2938237
7.884492344247663	5.2673264	2.2950656
7.9020607532089135	5.34885	2.312758
7.919629348204771	5.3780055	2.3190527
7.937198129654115	5.340937	2.3110468
7.954767097975865	5.330579	2.3088045
7.972336253588986	5.371892	2.3177342
7.989905596912472	5.4636116	2.337437
8.007475128365371	5.432112	2.3306892
8.025044848366756	5.445028	2.3334584
8.042614757335754	5.5043144	2.3461275
8.060184855691523	5.617072	2.3700364
8.07775514385327	5.7892737	2.406091
8.095325622240228	5.8848276	2.4258664
8.112896291271687	5.93107	2.4353788
8.130467151366968	5.9330506	2.4357855
8.148038202945436	5.928442	2.4348392
8.165609446426497	5.9324846	2.4356692
8.183180882229594	5.9507103	2.4394078
8.200752510774217	5.9426875	2.4377627
8.218324332479893	5.9313912	2.4354448
8.235896347766193	6.013453	2.4522343
8.253468557052724	6.0627527	2.4622657
8.27104096075914	6.102551	2.4703343
8.288613559305137	6.1622176	2.4823813
8.306186353110448	6.1866846	2.4873047
8.32375934259485	6.228999	2.4957962
8.341332528178162	6.214723	2.4929347
8.358905910280246	6.3107047	2.5121117
8.376479489321003	6.2704144	2.5040796
8.394053265720377	6.3102527	2.5120215
8.411627239898356	6.321066	2.514173
8.42920141227497	6.3415613	2.5182457
8.44677578327029	6.2871714	2.5074232
8.464350353304427	6.262289	2.5024567
8.48192512279754	6.2530403	2.500608
8.499500092169827	6.2102847	2.4920442
8.51707526184153	6.1903872	2.4880488
8.534650632232934	6.17949	2.485858
8.552226203764365	6.2242436	2.4948435
8.569801976856192	6.245435	2.4990869
8.587377951928834	6.2568493	2.5013695
8.60495412940274	6.287194	2.5074277
8.622530509698416	6.340979	2.51813
8.6401070932364	6.4623027	2.542106
8.657683880437283	6.5768404	2.5645351
8.675260871721695	6.742439	2.5966206
8.692838067510303	6.886715	2.6242552
8.710415468223834	7.0385823	2.6530328
8.727993074283043	7.1974816	2.6828122
8.745570886108737	7.1968846	2.682701
8.763148904121765	7.219932	2.6869931
8.78072712874302	7.1998925	2.6832616
8.798305560393441	7.4086714	2.7218874
8.815884199494006	7.511091	2.740637
8.833463046465745	7.686894	2.7725248
8.851042101729728	7.821748	2.7967389
8.86862136570707	8.180753	2.8602016
8.886200838818924	8.351988	2.8899806
8.903780521486505	8.383315	2.8953955
8.921360414131055	8.520928	2.9190629
8.938940517173874	8.669459	2.9443946
8.956520831036297	8.827791	2.97116
8.97410135613971	9.077365	3.0128665
8.99168209290554	9.190604	3.031601
9.009263041755265	9.361263	3.0596182
9.026844203110405	9.591637	3.0970368
9.044425577392525	9.830334	3.1353364
9.062007165023239	10.045223	3.16942
9.079588966424197	10.377824	3.221463
9.097170982017108	10.481053	3.2374456
9.11475321222372	11.38234	3.3737724
9.132335657465825	12.264124	3.502017
9.149918318165264	12.321021	3.5101311
9.167501194743924	12.960776	3.600108
9.18508428762374	12.630947	3.5540044
9.202667597226693	12.558919	3.5438566
9.220251123974803	12.219643	3.4956605
9.237834868290143	11.9514265	3.4570835
9.255418830594836	11.809282	3.4364636
9.273003011311046	11.266526	3.3565648
9.290587410860985	10.972142	3.3124225
9.308172029666911	10.307437	3.2105198
9.32575686815113	10.0282755	3.1667452
9.343341926735997	8.854322	2.9756215
9.360927205843916	8.64478	2.9402008
9.378512705897327	8.422993	2.9022393
9.396098427318728	8.239963	2.8705335
9.413684370530664	8.080504	2.8426228
9.431270535955722	8.0335865	2.8343582
9.448856924016539	7.9665675	2.822511
9.466443535135806	7.851582	2.8020675
9.484030369736251	7.880262	2.8071804
9.501617428240658	7.8563514	2.8029184
9.519204711071852	7.8269887	2.7976756
9.536792218652714	7.8385005	2.7997322
9.55437995140617	7.8599806	2.8035657
9.571967909755191	7.8802075	2.8071706
9.589556094122802	7.8562946	2.8029082
9.60714450493207	7.905531	2.8116777
9.624733142606116	7.862469	2.8040094
9.642322007568108	7.926503	2.8154047
9.659911100241267	7.977139	2.824383
9.677500421048851	8.098573	2.8457992
9.695089970414175	8.155071	2.8557086
9.712679748760609	8.170905	2.8584795
9.730269756511557	8.1589775	2.8563924
9.747859994090492	8.181669	2.8603618
9.765450461920915	8.184795	2.860908
9.78304116042639	8.233811	2.8694618
9.800632090030527	8.272167	2.8761375
9.81822325115699	8.293742	2.879886
9.835814644229481	8.254366	2.8730412
9.853406269671762	8.242266	2.8709347
9.870998127907646	8.147159	2.854323
9.888590219360985	8.12733	2.8508472
9.906182544455698	8.150176	2.8548512
9.923775103615734	8.282151	2.8778727
9.941367897265108	8.363869	2.8920355
9.958960925827878	8.400933	2.8984363
9.97655418972816	8.382766	2.8953006
9.994147689390106	8.347318	2.8891726
10.011741425237934	8.324564	2.885232
10.029335397695904	8.289035	2.8790684
10.04692960718833	8.218794	2.866844
10.06452405413958	8.239631	2.8704758
10.082118738974064	8.31871	2.8842175
10.099713662116246	8.309431	2.8826084
10.117308823990651	8.300102	2.8809898
10.134904225021844	8.262204	2.874405
10.152499865634445	8.230153	2.8688242
10.170095746253125	8.166703	2.8577445
10.18769186730261	8.141702	2.8533666
10.205288229207675	8.133701	2.8519645
10.222884832393145	8.166323	2.857678
10.2404816772839	8.203226	2.8641274
10.258078764304868	8.189746	2.8617733
10.275676093881035	8.126187	2.8506467
10.293273666437438	8.04639	2.8366158
10.310871482399158	8.04731	2.8367782
10.32846954219134	8.051426	2.8375034
10.346067846239173	8.154554	2.855618
10.363666394967908	8.194802	2.8626566
10.38126518880283	8.298466	2.8807058
10.398864228169298	8.34508	2.8887854
10.416463513492713	8.326788	2.8856175
10.434063045198531	8.258571	2.8737729
10.451662823712262	8.20579	2.864575
10.469262849459467	8.222112	2.8674226
10.486863122865758	8.129285	2.85119
10.504463644356806	8.125389	2.8505068
10.522064414358338	8.0739	2.841461
10.539665433296118	8.06071	2.839139
10.557266701595987	8.001811	2.8287473
10.574868219683818	7.9100876	2.8124878
10.592469987985552	7.793499	2.791684
10.610072006927185	7.640446	2.7641356
10.627674276934751	7.5064416	2.7397885
10.64527679843435	7.3878264	2.7180557
10.662879571852143	7.312376	2.7041404
10.680482597614331	7.230568	2.6889715
10.698085876147173	7.1427565	2.6725936
10.715689407876988	7.0376163	2.6528506
10.733293193230146	6.917917	2.6301932
10.750897232633072	6.7883964	2.6054552
10.76850152651225	6.711111	2.5905812
10.786106075294207	6.6502733	2.5788124
10.803710879405534	6.5258803	2.5545802
10.821315939272877	6.4702835	2.5436752
10.83892125532294	6.365125	2.52292
10.856526827982472	6.286346	2.5072587
10.874132657678285	6.259837	2.5019667
10.891738744837243	6.2238426	2.4947631
10.909345089886271	6.2115507	2.4922984
10.926951693252343	6.1640973	2.48276
10.944558555362494	6.1168885	2.4732344
10.96216567664381	6.019236	2.4534132
10.979773057523436	5.9065766	2.430345
10.997380698428573	5.876037	2.424054
11.014988599786477	5.834738	2.4155202
11.032596762024461	5.7658463	2.4012177
11.050205185569892	5.693774	2.386163
11.067813870850198	5.6255317	2.3718202
11.085422818292859	5.5643473	2.358887
11.10303202832541	5.5262976	2.350808
11.120641501375454	5.43859	2.3320785
11.138251237870636	5.3751283	2.3184323
11.155861238238671	5.262064	2.2939188
11.173471502907317	5.1751723	2.2749004
11.191082032304402	5.1636167	2.2723594
11.208692826857805	5.160445	2.2716613
11.226303886995465	5.1211476	2.2629952
11.243915213145371	5.085772	2.2551656
11.261526805735578	4.9876227	2.2332985
11.279138665194196	4.9349732	2.22148
11.296750791949393	4.8639092	2.2054272
11.314363186429393	4.8378572	2.199513
11.331975849062479	4.8119397	2.1936133
11.34958878027699	4.744493	2.1781857
11.36720198050133	4.6869464	2.1649356
11.384815450163948	4.684141	2.1642876
11.402429189693366	4.64715	2.155725
11.420043199518153	4.5476327	2.1325178
11.437657480066942	63.511913	7.969436
11.455272031768422	85.204506	9.230629
11.472886855051353	107.57927	10.372043
11.490501950344528	99.12011	9.955908
11.508117318076819	84.49677	9.192213
11.52573295867715	45.91763	6.7762547
11.543348872574514	4.2374735	2.0585124
11.560965060197946	4.1816845	2.0449166
11.57858152197655	4.0717745	2.0178638
11.59619825833949	3.9717324	1.9929205
11.613815269715985	4.0048537	2.001213
11.631432556535323	38.547604	6.2086716
11.649050119226837	83.09983	9.115911
11.666667958219929	93.47156	9.668069
11.68428607394406	107.699455	10.377835
11.701904466828756	82.49685	9.082778
11.719523137303586	65.374054	8.0854225
11.737142085798196	4.614293	2.1480906
11.754761312742286	3.7345707	1.9325037
11.772380818565619	3.6878152	1.9203686
11.790000603698015	3.6318707	1.9057468
11.80762066856935	3.5992258	1.8971626
11.825241013609572	3.510455	1.8736207
11.842861639248683	3.4854345	1.8669318
11.860482545916748	3.480398	1.8655825
11.878103734043883	3.5160332	1.8751088
11.895725204060282	3.4767292	1.8645989
11.91334695639619	3.4564724	1.8591591
11.930968991481919	3.3911772	1.841515
11.948591309747824	3.3899803	1.8411899
11.966213911624347	3.399295	1.8437177
11.98383679754198	3.3467286	1.8294066
12.001459967931268	3.3230124	1.8229132
12.019083423222835	3.3026035	1.8173066
12.036707163847352	3.3213973	1.8224701
12.05433119023556	3.3007963	1.8168094
12.071955502818259	3.2450848	1.8014119
12.089580102026313	3.1977916	1.788237
12.107204988290643	3.1840951	1.7844033
12.12483016204224	3.1658435	1.7792817
12.142455623712152	3.1499853	1.7748199
12.16008137373149	3.1510465	1.7751187
12.177707412531431	3.123883	1.767451
12.19533374054321	3.090859	1.7580839
12.212960358198126	3.0622487	1.7499282
12.230587265927545	3.0806105	1.7551668
12.248214464162889	3.048214	1.7459135
12.265841953335649	3.0160875	1.7366886
12.283469733877375	2.9742658	1.724606
12.301097806219685	2.9648645	1.7218782
12.31872617079425	2.9684236	1.7229114
12.336354828032825	2.9700127	1.7233725
12.353983778367205	2.9601083	1.7204965
12.371613022229262	2.9605908	1.7206367
12.389242560050928	2.939042	1.7143635
12.406872392264201	2.908156	1.7053316
12.424502519301143	2.8940551	1.7011923
12.442132941593874	2.9144607	1.7071792
12.459763659574586	2.9238267	1.70992
12.477394673675532	2.9287057	1.7113461
12.49502598432903	2.9008324	1.703183
12.51265759196746	2.8802896	1.6971415
12.530289497023267	2.863792	1.6922742
12.547921699928967	2.853091	1.6891096
12.565554201117134	2.8530197	1.6890885
12.583187001020404	2.8179176	1.6786654
12.600820100071486	2.7885187	1.6698859
12.618453498703152	2.7969294	1.6724023
12.636087197348235	2.8254745	1.6809148
12.65372119643964	2.833824	1.6833966
12.671355496410326	2.8405232	1.6853852
12.68899009769333	2.8473709	1.6874155
12.706625000721749	2.8870935	1.699145
12.724260205928752	2.991783	1.7296771
12.741895713747551	3.0784366	1.7545474
12.759531524611454	3.0958471	1.7595019
12.777167638953818	3.0541396	1.7476097
12.794804057208072	3.0162992	1.7367496
12.812440779807702	3.0301678	1.7407377
12.830077807186271	3.1900444	1.7860695
12.847715139777405	3.2534544	1.8037335
12.865352778014795	3.4966047	1.8699211
12.882990722332197	3.5841455	1.893184
12.90062897316344	3.6305642	1.905404
12.918267530942412	3.675506	1.917161
12.935906396103071	3.5696282	1.889346
12.953545569079449	3.737459	1.9332509
12.971185050305628	3.6113899	1.9003657
12.988824840215775	3.6517007	1.9109423
13.006464939244115	3.6598613	1.9130764
13.024105347824943	3.4803796	1.8655776
13.041746066392617	3.5452588	1.8828857
13.05938709538157	3.3612003	1.8333577
13.077028435226296	3.3538415	1.8313496
13.094670086361363	3.2681193	1.8077941
13.112312049221401	3.163558	1.7786393
13.129954324241112	3.0764349	1.7539768
13.147596911855258	2.872295	1.6947846
13.165239812498685	2.8570013	1.6902666
13.182883026606293	2.8233173	1.6802729
13.200526554613058	2.746219	1.657172
13.218170396954017	2.7155614	1.647896
13.235814554064284	2.6783755	1.6365743
13.253459026379034	2.6815696	1.6375499
13.271103814333523	2.642112	1.6254575
13.288748918363058	2.641977	1.6254159
13.306394338903031	2.643725	1.6259536
13.32404007638889	2.6113245	1.6159593
13.341686131256164	2.609152	1.615287
13.359332503940449	2.6099658	1.6155388
13.376979194877402	2.640111	1.6248418
13.394626204502751	2.6734166	1.6350586
13.412273533252307	2.7097497	1.6461318
13.429921181561937	2.7408476	1.6555505
13.447569149867581	2.7570095	1.6604245
13.465217438605247	2.7591424	1.6610667
13.482866048211022	2.7540913	1.6595455
13.500514979121052	2.7759266	1.6661112
13.518164231771568	2.7502646	1.6583922
13.535813806598844	2.733588	1.6533566
13.553463704039254	2.6828887	1.6379526
13.571113924529229	2.6661046	1.6328211
13.588764468505275	2.692762	1.6409637
13.606415336403956	2.6993926	1.6429828
13.624066528661917	2.7441459	1.6565464
13.641718045715882	2.821782	1.6798161
13.659369888002635	2.9004285	1.7030644
13.67702205595903	2.9484131	1.7170944
13.694674550021993	2.9912462	1.729522
13.712327370628532	3.0527651	1.7472163
13.729980518215713	3.1359906	1.7708728
13.747633993220681	3.1784146	1.7828108
13.765287796080647	3.2244236	1.795668
13.7829419272329	3.2516973	1.8032464
13.800596387114801	3.30257	1.8172975
13.818251176163775	3.3604026	1.8331401
13.835906294817324	3.4325237	1.8527071
13.853561743513023	3.4689689	1.8625168
13.871217522688525	3.498298	1.8703737
13.888873632781538	3.5311885	1.8791456
13.906530074229858	3.5271308	1.8780657
13.92418684747135	3.4944758	1.8693517
13.941843952943948	3.4578004	1.8595161
13.959501391085665	3.432942	1.85282
13.977159162334578	3.3852339	1.8399005
13.994817267128846	3.3668957	1.8349103
14.012475705906693	3.2953742	1.8153166
14.030134479106424	3.2302601	1.7972925
14.047793587166414	3.148364	1.774363
14.065453030525108	3.098332	1.7602079
14.083112809621026	2.9996142	1.7319394
14.100772924892766	2.9503493	1.717658
14.118433376778997	2.8891938	1.6997628
14.136094165718458	2.874648	1.6954787
14.153755292149969	2.8149264	1.6777742
14.171416756512416	2.7284706	1.6518083
14.189078559244768	2.663774	1.6321073
14.20674070078606	2.6171951	1.6177747
14.224403181575408	2.5404124	1.5938672
14.242066002051999	2.4849496	1.5763723
14.259729162655093	2.4453356	1.563757
14.277392663824022	2.4620328	1.5690867
14.295056505998208	2.4296818	1.5587436
14.312720689617128	2.4305096	1.5590092
14.330385215120348	2.4148624	1.5539827
14.348050082947497	2.4326973	1.5597106
14.3657152935383	2.4134185	1.553518
14.383380847332528	2.4119658	1.5530505
14.401046744770051	2.4104953	1.552577
14.418712986290798	2.4356678	1.5606626
14.436379572334793	2.425175	1.5572973
14.454046503342123	2.421762	1.5562011
14.471713779752946	2.4359374	1.5607489
14.489381402007504	2.4495914	1.565117
14.507049370546113	2.4262366	1.5576382
14.524717685809168	2.4226456	1.556485
14.542386348237134	2.4119947	1.5530598
14.560055358270553	2.3750505	1.5411199
14.577724716350051	2.3615425	1.5367311
14.595394422916325	2.3865197	1.5448364
14.61306447841015	2.4689353	1.5712845
14.63073488327237	2.4696386	1.5715084
14.648405637943917	2.4850411	1.5764014
14.6660767428658	2.4782722	1.5742528
14.683748198479094	2.5231407	1.5884397
14.701420005224954	2.5814445	1.6066874
14.719092163544628	2.6679578	1.6333884
14.73676467387942	2.6828415	1.6379381
14.754437536670727	2.6908035	1.6403669
14.772110752360014	2.7197084	1.6491538
14.78978432138882	2.7281034	1.6516972
14.807458244198777	2.692574	1.6409065
14.82513252123159	2.6017401	1.6129911
14.842807152929028	2.618664	1.6182287
14.860482139732962	2.62139	1.6190708
14.87815748208531	2.6300483	1.6217424
14.8958331804281	2.6038568	1.6136471
14.91350923520342	2.5748003	1.6046184
14.931185646853438	2.621901	1.6192285
14.948862415820408	2.6127813	1.61641
14.966539542546656	2.6713998	1.6344417
14.98421702747459	2.6714127	1.6344457
15.001894871046696	2.697448	1.642391
15.019573073705542	2.7063084	1.6450862
15.037251635893766	2.6942503	1.6414171
15.054930558054092	2.785793	1.6690695
15.072609840629323	2.778631	1.6669226
15.090289484062351	2.9046457	1.7043021
15.107969488796124	3.167906	1.7798612
15.125649855273691	3.5508466	1.884369
15.14333058393817	4.0427623	2.010662
15.161011675232768	4.9732428	2.2300768
15.17869312960076	6.415832	2.5329492
15.196374947485506	8.304473	2.8817482
15.214057129330447	11.430637	3.3809226
15.231739675579114	16.094193	4.011757
15.249422586675102	21.092472	4.592654
15.267105863062092	24.135733	4.912813
15.284789505183847	24.251694	4.924601
15.302473513484218	22.066431	4.697492
15.320157888407127	18.50621	4.3018847
15.337842630396578	14.560593	3.8158345
15.355527739896656	11.402713	3.3767903
15.37321321735153	8.89039	2.9816759
15.39089906320545	6.5109544	2.5516572
15.408585277902748	4.929953	2.2203498
15.42627186188783	3.8132126	1.9527448
15.443958815605198	3.2417889	1.8004968
15.461646139499424	2.970927	1.7236377
15.479333834015168	2.8407989	1.685467
15.497021899597165	2.7675538	1.6635966
15.514710336690234	2.6773508	1.6362612
15.53239914573928	2.6118326	1.6161165
15.550088327189297	2.5873635	1.6085284
15.567777881485336	2.5962439	1.6112864
15.58546780907256	2.5995739	1.6123194
15.6031581103962	2.5551944	1.5984975
15.620848785901568	2.4868467	1.5769739
15.638539836034063	2.4618604	1.5690317
15.656231261239173	2.4569976	1.5674813
15.673923061962451	2.4652395	1.5701082
15.691615238649552	2.4538152	1.5664659
15.709307791746202	2.4439874	1.5633258
15.727000721698221	2.4500263	1.565256
15.744694028951498	2.411824	1.5530049
15.76238771395202	2.4078164	1.5517141
15.780081777145844	2.3849912	1.5443417
15.797776218979125	2.3620076	1.5368824
15.815471039898094	2.3504267	1.5331101
15.833166240349064	2.365833	1.5381265
15.850861820778437	2.3872511	1.5450732
15.868557781632699	2.4029882	1.5501574
15.886254123358412	2.394965	1.5475674
15.903950846402232	2.3926494	1.5468191
15.921647951210897	2.3861542	1.5447181
15.939345438231225	2.3722954	1.5402257
15.957043307910133	2.3718612	1.5400848
15.974741560694602	2.3955703	1.547763
15.992440197031714	2.440986	1.5623655
16.01013921736862	2.4659426	1.570332
16.02783862215259	2.4233181	1.5567011
16.045538411830933	2.4316704	1.5593814
16.06323858685107	2.4250813	1.5572672
16.080939147660512	2.420377	1.5557561
16.09864009470684	2.4390612	1.5617493
16.11634142843774	2.4677534	1.5709084
16.134043149300954	2.4893663	1.5777726
16.15174525774433	2.4649208	1.5700066
16.169447754215817	2.428459	1.5583514
16.18715063916342	2.4457102	1.5638766
16.204853913035244	2.4476202	1.5644872
16.222557576279478	2.4661624	1.570402
16.240261629344403	22.460766	4.7392793
16.257966072678386	43.00001	6.5574393
16.275670906729868	38.101837	6.1726685
16.293376131947387	2.493902	1.5792093
16.31108174877957	2.4959488	1.5798572
16.328787757675133	2.5180848	1.5868474
16.34649415908287	2.5745025	1.6045256
16.364200953451657	2.6088927	1.6152067
16.38190814123048	2.6313267	1.6221365
16.39961572286839	2.6445122	1.6261957
16.41732369881455	2.665826	1.6327357
16.43503206951817	2.6988149	1.642807
16.45274083542859	2.7611885	1.6616825
16.47044999699522	2.8097925	1.6762435
16.488159554667558	2.836196	1.684101
16.505869508895184	2.866125	1.6929634
16.523579860127786	2.8903797	1.7001116
16.541290608815117	2.9356785	1.7133821
16.559001755407035	2.9944086	1.730436
16.57671330035348	3.0523977	1.7471112
16.59442524410448	3.102903	1.7615058
16.61213758711015	3.1513493	1.7752041
16.629850329820705	3.2223618	1.7950938
16.647563472686436	3.322981	1.8229046
16.665277016157724	3.3560708	1.8319582
16.682990960685053	3.419872	1.8492897
16.70070530671898	3.4634776	1.861042
16.718420054710155	3.5010362	1.8711056
16.736135205109335	3.5281744	1.8783436
16.753850758367335	3.5755916	1.8909235
16.771566714935087	3.6423738	1.9085004
16.789283075263597	3.7279282	1.9307843
16.80699983980398	3.7953012	1.9481533
16.82471700900741	3.8752842	1.9685742
16.84243458332518	3.966949	1.9917201
16.860152563208665	4.057548	2.0143356
16.87787094910932	4.1288357	2.0319536
16.89558974147871	4.110353	2.0274005
16.913308940768466	4.1277456	2.0316854
16.931028547430333	4.17611	2.043553
16.94874856191613	4.285603	2.07017
16.966468984677785	4.3645735	2.0891562
16.98418981616729	4.411482	2.1003528
17.00191105683676	4.453969	2.1104429
17.019632707138374	4.5169797	2.1253188
17.03735476752442	4.5752645	2.1389868
17.05507723844728	4.625365	2.1506662
17.072800120359403	4.6417947	2.1544824
17.090523413713353	4.6604233	2.1588013
17.108247118961785	4.663648	2.159548
17.125971236557437	4.6733193	2.161786
17.143695766953133	4.6886272	2.1653237
17.161420710601806	4.7004166	2.1680443
17.179146067956477	4.7693005	2.1838727
17.19687183947025	4.746756	2.1787052
17.21459802559634	4.76352	2.182549
17.232324626788028	4.6663523	2.1601741
17.25005164349871	4.6599917	2.1587014
17.267779076181863	4.6395917	2.1539712
17.285506925291074	4.63087	2.1519456
17.30323519127999	4.574678	2.1388497
17.320963874602384	4.5107822	2.1238601
17.33869297571211	4.5003014	2.1213913
17.356422495063114	4.5414114	2.1310587
17.37415243310944	4.5728707	2.1384273
17.391882790305218	4.5485997	2.1327446
17.40961356710468	4.560671	2.1355727
17.42734476396215	4.5466914	2.1322973
17.445076381332044	4.5670357	2.1370623
17.462808419668868	4.598599	2.1444345
17.48054087942723	4.7290277	2.1746328
17.498273761061835	5.0410123	2.24522
17.51600706502747	5.5367417	2.3530283
17.533740791779024	6.3278933	2.5155303
17.551474941771485	7.7881393	2.7907238
17.56920951545993	8.848798	2.9746928
17.586944513299528	10.929179	3.3059309
17.60467993574556	12.567591	3.5450797
17.622415783253373	14.272817	3.7779381
17.64015205627843	15.668622	3.958361
17.657888755276293	16.675491	4.0835633
17.675625880702604	17.052471	4.1294637
17.69336343301311	16.82177	4.101435
17.71110141266366	16.06942	4.008668
17.728839820110178	15.227127	3.9021952
17.746578655808705	14.323633	3.7846577
17.764317920215372	12.843669	3.5838065
17.7820576137864	11.358117	3.3701806
17.79979773697811	9.426218	3.0702147
17.81753829024692	7.5756893	2.752397
17.835279274049356	5.9080205	2.430642
17.85302068884201	4.852831	2.2029142
17.870762535081607	4.259838	2.0639374
17.888504813224934	3.9528718	1.988183
17.90624752372891	3.7406187	1.934068
17.923990667050536	3.5795796	1.8919777
17.941734243646895	3.5072281	1.8727595
17.959478253975185	3.4968414	1.8699844
17.9772226984927	3.4932888	1.8690342
17.994967577656833	3.4907029	1.8683423
18.01271289192506	3.4301789	1.8520743
18.030458641754965	3.418374	1.8488846
18.04820482760425	3.3727891	1.8365155
18.06595144993067	3.3668122	1.8348875
18.083698509192125	3.3688297	1.8354372
18.101446005846576	3.3616831	1.8334893
18.119193940352105	3.3343527	1.826021
18.136942313166887	3.2685	1.8078994
18.1546911247492	3.2368002	1.7991109
18.1724403755574	3.1635926	1.7786491
18.19019006604997	3.1207905	1.7665759
18.207940196685467	3.080204	1.755051
18.225690767922575	3.0405931	1.7437297
18.243441780220046	3.0257115	1.7394572
18.261193234036764	3.0464795	1.7454168
18.278945129831676	3.0967247	1.7597513
18.29669746806386	3.0614808	1.7497088
18.314450249192483	3.053887	1.7475374
18.3322034736768	3.0394883	1.7434129
18.349957141976184	3.0867145	1.7569048
18.3677112545501	3.0862005	1.7567586
18.385465811858108	3.0887058	1.7574714
18.403220814359884	3.0742114	1.7533429
18.420976262515172	3.1318347	1.7696991
18.43873215678387	3.1760685	1.7821528
18.456488497625923	3.1852367	1.7847232
18.474245285501407	3.2742202	1.8094807
18.492002520870486	3.3438947	1.8286319
18.50976020419343	3.3955092	1.8426907
18.527518335930615	3.6753	1.9171072
18.545276916542516	4.2648406	2.065149
18.563035946489688	4.4651766	2.1130965
18.580795426232832	5.014139	2.2392273
18.598555356232698	4.88866	2.2110314
18.616315736950185	5.1705666	2.2738879
18.63407656884626	4.7311826	2.1751282
18.65183785238201	4.950703	2.2250175
18.669599588018617	4.6994915	2.167831
18.68736177621737	4.761429	2.1820698
18.705124417439652	4.75254	2.1800323
18.72288751214696	4.5330534	2.1290967
18.740651060800886	4.6377964	2.1535544
18.758415063863115	4.348582	2.0853252
18.77617952179546	4.552863	2.133744
18.793944435059814	4.299681	2.0735672
18.811709804118184	4.3451457	2.0845013
18.829475629432675	4.279951	2.0688043
18.8472419114655	4.0317826	2.00793
18.86500865067897	4.094265	2.023429
18.88277584753551	3.778109	1.9437358
18.90054350249763	3.791862	1.9472704
18.918311616027957	3.4731205	1.863631
18.936080188589226	3.4031346	1.8447586
18.953849220644265	3.0948977	1.7592322
18.971618712656007	2.924411	1.710091
18.9893886650875	2.8531015	1.6891127
19.007159078401887	8.023092	2.8325064
19.024929953062408	32.888977	5.7348914
19.042701289532435	32.795727	5.726755
19.060473088275405	25.376804	5.0375395
19.07824534975489	2.6466563	1.6268548
19.096018074434568	2.628007	1.6211128
19.113791262778197	2.5709517	1.6034187
19.13156491524966	2.5594246	1.5998201
19.149339032312945	2.5668976	1.602154
19.167113614432136	2.5741835	1.6044263
19.184888662071433	2.5734503	1.6041977
19.202664175695123	2.5735025	1.604214
19.220440155767623	2.5659766	1.6018666
19.238216602753447	2.591011	1.6096618
19.2559935171172	2.5970116	1.6115246
19.27377089932361	2.5848496	1.6077467
19.291548749837514	2.5276945	1.5898725
19.309327069123835	2.4937294	1.5791546
19.32710585764763	2.4963253	1.5799763
19.344885115874032	2.5266552	1.5895456
19.362664844268313	2.548645	1.5964476
19.380445043295822	2.5284147	1.590099
19.39822571342203	2.5259428	1.5893215
19.41600685511252	2.5039399	1.5823842
19.43378846883297	2.5010104	1.5814583
19.451570555049173	2.4631789	1.5694518
19.469353114227037	2.472561	1.5724379
19.48713614683254	2.4942503	1.5793196
19.50491965333182	2.4986804	1.5807215
19.52270363419109	2.5042222	1.5824734
19.540488089876686	2.5508919	1.5971512
19.55827302085503	2.5600471	1.6000147
19.576058427592674	2.5217776	1.5880105
19.593844310556282	2.4798975	1.574769
19.611630670212598	2.5186481	1.5870249
19.629417507028506	2.523895	1.5886772
19.64720482147098	2.5183032	1.5869162
19.6649926140071	2.4850402	1.576401
19.682780885104084	2.515953	1.5861756
19.70056963522921	2.5313878	1.5910336
19.718358864849908	2.5443225	1.5950933
19.7361485744337	2.4809651	1.5751079
19.753938764448215	2.4379623	1.5613976
19.771729435361202	2.4575994	1.5676732
19.789520587640506	2.4940863	1.5792676
19.807312221754092	2.5190182	1.5871415
19.825104338170043	2.5291874	1.5903419
19.842896937356517	2.5719256	1.6037225
19.860690019781824	2.5710435	1.6034473
19.87848358591436	2.5503025	1.5969666
19.896277636222635	2.4972732	1.5802763
19.914072171175278	2.511505	1.5847728
19.931867191241015	2.4894593	1.5778021
19.94966269688869	2.4916816	1.5785061
19.967458688587264	2.4643664	1.5698301
19.985255166805807	2.5007658	1.581381
20.00305213201348	2.4952502	1.5796361
20.020849584679578	2.4979174	1.5804801
20.038647525273507	2.4780972	1.5741973
20.05644595426477	2.485221	1.5764583
20.07424487212299	2.4670677	1.5706902
20.092044279317903	2.421981	1.5562716
20.109844176319353	2.4023747	1.5499595
20.127644563597304	2.4191241	1.5553534
20.145445441621817	2.4467728	1.5642164
20.16324681086307	2.4328902	1.5597725
20.181048671791373	2.4221442	1.5563239
20.198851024877122	2.429636	1.5587289
20.216653870590836	2.417782	1.5549219
20.234457209403146	2.4366562	1.5609792
20.252261041784802	2.441273	1.5624573
20.270065368206662	2.4718404	1.5722088
20.287870189139685	2.4230819	1.5566251
20.305675505054968	2.3870974	1.5450234
20.323481316423702	2.3458204	1.5316072
20.341287623717207	2.3463418	1.5317774
20.359094427406884	2.3404412	1.5298501
20.376901727964288	2.3655882	1.5380468
20.39470952586107	2.3977027	1.5484517
20.41251782156899	2.3826861	1.5435952
20.430326615559935	2.3764236	1.5415653
20.448135908305886	2.3379824	1.5290463
20.465945700278965	2.340121	1.5297455
20.483755991951384	2.323166	1.5241935
20.50156678379548	2.359111	1.5359398
20.519378076283708	2.3914323	1.5464257
20.537189869888635	2.3876703	1.5452088
20.55500216508294	2.327792	1.5257103
20.572814962339415	2.308691	1.5194378
20.59062826213098	2.3284142	1.5259142
20.60844206493066	2.3434825	1.5308437
20.626256371211593	2.3432145	1.5307562
20.644071181447032	2.31868	1.5227213
20.66188649611036	2.3211417	1.5235294
20.67970231567506	2.3576324	1.5354583
20.697518640614742	2.3797293	1.5426371
20.715335471403122	2.3850884	1.5443732
20.73315280851404	2.3679538	1.5388157
20.750970652421447	2.3659525	1.5381653
20.768789003599412	2.3422947	1.5304557
20.786607862522136	2.3097496	1.519786
20.8044272296639	2.310075	1.519893
20.82224710549913	2.3115377	1.5203742
20.84006749050237	2.3238668	1.5244235
20.857888385148268	3.8805254	1.9699049
20.8757097899116	46.01152	6.7831793
20.893531705267254	64.88034	8.054833
20.911354131690224	83.86525	9.157797
20.92917706965566	69.05792	8.31011
20.94700051963877	50.0994	7.078093
20.96482448211493	29.380754	5.4204016
20.982648957559622	4.1398296	2.0346572
21.00047394644843	2.2666621	1.5055438
21.01829944925707	2.2667887	1.5055858
21.036125466461375	2.2510142	1.5003381
21.053951998537297	2.2613823	1.5037893
21.071779045960906	2.2382863	1.4960903
21.089606609208378	2.2187417	1.4895442
21.10743468875603	2.201867	1.483869
21.12526328508028	2.2155523	1.4884732
21.143092398657675	2.2198107	1.489903
21.16092202996488	2.2493002	1.4997667
21.17875217947867	2.2315452	1.4938357
21.19658284767596	2.2169642	1.4889474
21.21441403503377	2.1671124	1.4721116
21.232245742029225	2.1389127	1.4625022
21.2500779691396	2.1377218	1.462095
21.26791071684227	2.1684592	1.4725689
21.28574398561475	2.196967	1.4822168
21.30357777593465	2.1936781	1.4811071
21.321412088279704	2.1956697	1.4817792
21.339246923127792	2.19478	1.481479
21.357082280956888	2.175607	1.474994
21.3749181622451	2.1616707	1.4702622
21.392754567470647	2.1423235	1.4636679
21.41059149711187	2.123338	1.4571677
21.42842895164726	2.1114674	1.4530889
21.446266931555378	2.1233666	1.4571776
21.464105437314945	2.1485643	1.4657981
21.481944469404798	2.1751184	1.4748282
21.49978402830388	2.1341298	1.4608661
21.51762411449127	2.0902529	1.4457707
21.53546472844617	2.0723372	1.4395615
21.553305870647876	2.107139	1.4515988
21.571147541575865	2.1054575	1.4510195
21.58898974170967	2.1093433	1.4523579
21.60683247152899	2.0728922	1.4397542
21.62467573151363	2.0582852	1.4346725
21.642519522143523	2.091961	1.4463613
21.660363843898722	2.1265953	1.4582851
21.6782086972594	2.1332283	1.4605576
21.696054082705864	2.101871	1.4497831
21.713900000718535	2.070111	1.438788
21.73174645177795	2.041898	1.42895
21.749593436364794	2.0353396	1.4266533
21.767440954959845	2.0590212	1.434929
21.785289008044032	2.0471563	1.4307888
21.803137596098388	2.0464246	1.4305329
21.820986719604086	2.018498	1.4207386
21.838836379042412	2.0397775	1.4282078
21.85668657489478	2.0562966	1.4339793
21.87453730764273	2.076304	1.4409386
21.892388577767914	2.054582	1.4333813
21.91024038575213	2.0122604	1.4185417
21.928092732077285	1.9674119	1.4026446
21.945945617225426	1.9695035	1.40339
21.963799041678694	1.9912784	1.4111266
21.981653005919398	31.323772	5.5967646
21.999507510429943	78.14711	8.840085
22.01736255569286	73.140396	8.552216
22.035218142190818	4.2459474	2.0605698
22.05307427040661	2.0423424	1.4291055
22.07093094082315	2.035895	1.4268479
22.088788153923474	2.0331445	1.4258838
22.106645910190746	2.0082479	1.4171267
22.12450421010827	1.982416	1.407983
22.142363054159464	1.9903047	1.4107816
22.16022244282787	1.9794061	1.4069136
22.178082376597164	2.0114224	1.4182463
22.195942855951145	2.0173633	1.4203391
22.213803881373742	2.0462594	1.4304752
22.231665453349002	2.0188713	1.42087
22.24952757236111	1.9983805	1.4136409
22.26739023889438	1.9840074	1.408548
22.28525345343323	1.9717506	1.4041904
22.30311721646225	1.9579484	1.3992671
22.320981528466113	1.9790344	1.4067816
22.33884638992964	1.9968148	1.413087
22.356711801337788	1.9672045	1.4025706
22.37457776317561	1.945566	1.3948355
22.392444275928337	1.9497005	1.3963168
22.410311340081282	1.9780788	1.4064419
22.428178956119904	2.0028112	1.4152071
22.446047124529805	1.9983494	1.4136299
22.46391584579669	2.0095456	1.4175844
22.481785120406414	2.009111	1.4174311
22.49965494884496	1.9882054	1.4100374
22.51752533159841	1.9545742	1.3980609
22.53539626915302	1.9798434	1.4070691
22.553267761995137	1.9341971	1.3907541
22.571139810611264	1.8996598	1.3782815
22.589012415488025	1.8968035	1.377245
22.60688557711216	1.950319	1.3965383
22.624759295970566	1.9691108	1.4032501
22.642633572550263	1.9732194	1.4047133
22.660508407338362	1.9819094	1.407803
22.67838380082217	1.9599094	1.3999677
22.696259753489077	1.9396853	1.3927258
22.714136265826614	1.9317465	1.3898728
22.73201333832246	1.9155813	1.3840452
22.74989097146439	1.9114581	1.3825549
22.76776916574035	1.9328843	1.3902822
22.785647921638393	1.9492782	1.3961655
22.803527239646712	1.9544649	1.3980218
22.82140712025363	1.9462497	1.3950806
22.839287563947593	1.945231	1.3947154
22.85716857121719	1.9326999	1.3902158
22.875050142551135	1.9455092	1.3948151
22.892932278438277	1.9369707	1.3917509
22.910814979367604	1.9218862	1.3863211
22.928698245828222	1.9041442	1.3799073
22.946582078309387	1.9248973	1.3874067
22.96446647730047	1.8989754	1.3780332
22.98235144329098	1.8793356	1.3708886
23.000236976770562	1.8765893	1.3698866
23.018123078229	1.8830183	1.3722311
23.03600974815619	1.8771347	1.3700856
23.053896987042194	1.8865902	1.373532
23.071784795377173	1.9299064	1.3892107
23.08967317365145	1.9516537	1.397016
23.10756212235546	1.9454949	1.39481
23.125451641979787	1.9091355	1.3817147
23.143341733015134	1.9190192	1.3852867
23.161232395952357	1.8991961	1.3781133
23.179123631282426	1.9096218	1.3818907
23.197015439496468	1.9145732	1.383681
23.214907821085717	1.9091073	1.3817044
23.23280077654157	1.8928529	1.3758099
23.250694306355538	1.8988423	1.3779849
23.268588411019277	1.9167777	1.3844774
23.28648309102458	1.9380599	1.3921422
23.304378346863356	1.9253579	1.3875726
23.322274179027676	1.8902371	1.374859
23.340170588009723	1.9153194	1.3839507
23.358067574301852	1.9491882	1.3961333
23.37596513839651	1.960244	1.4000871
23.39386328078629	1.9499454	1.3964045
23.411762001963947	1.9784135	1.4065609
23.429661302422353	1.9808884	1.4074403
23.4475611826545	1.958466	1.3994521
23.46546164315356	1.9331058	1.3903618
23.48336268441279	1.9137319	1.383377
23.501264306925638	1.9300685	1.389269
23.51916651118564	1.968911	1.4031789
23.537069297686497	2.0112042	1.4181694
23.554972666922037	2.0039995	1.4156269
23.57287661938623	1.9717774	1.4042
23.59078115557318	1.9761051	1.40574
23.608686275977128	1.9959278	1.4127731
23.62659198109246	1.9625608	1.4009143
23.6444982714137	1.9084613	1.3814707
23.66240514743549	1.884625	1.3728164
23.68031260965263	1.8611892	1.3642541
23.698220658560068	1.8617834	1.3644718
23.716129294652845	1.8746688	1.3691854
23.7340385184262	1.9133723	1.383247
23.75194833037546	1.9253061	1.387554
23.769858730996123	1.9125326	1.3829434
23.78776972078382	1.9136814	1.3833587
23.80568130023431	1.9350547	1.3910624
23.823593469843495	1.9353406	1.3911653
23.841506230107424	1.9309477	1.3895854
23.859419581522275	1.9178944	1.3848807
23.87733352458438	1.9122423	1.3828385
23.89524805979019	1.9325941	1.3901777
23.913163187636318	1.9350682	1.3910673
23.931078908619508	1.921947	1.386343
23.948995223236633	1.9257944	1.3877299
23.966912131984735	1.9714785	1.4040935
23.98482963536096	2.061532	1.4358037
24.002747733862616	2.0697567	1.4386649
24.020666427987155	2.0566416	1.4340996
24.038585718232156	2.0856118	1.4441648
24.056505605095353	2.1053765	1.4509915
24.074426089074617	2.1541297	1.4676954
24.092347170667946	2.1091893	1.4523048
24.110268850373515	2.0872211	1.4447218
24.128191128689586	2.0342054	1.4262557
24.146114006114626	2.0020788	1.4149483
24.164037483147187	2.0023634	1.415049
24.181961560286005	2.0360696	1.4269091
24.199886238029926	2.0629935	1.4363124
24.21781151687797	2.1140578	1.45398
24.235737397329274	2.0983424	1.4485656
24.253663879883135	2.0834615	1.44342
24.271590965038975	2.0661206	1.4374007
24.289518653296376	2.104125	1.4505602
24.30744694515505	2.1641657	1.4711103
24.32537584111486	2.1113133	1.453036
24.34330534167581	2.027543	1.4239182
24.361235447338046	1.9973676	1.4132825
24.379166158601876	2.0475008	1.4309092
24.39709747596772	2.097203	1.4481723
24.41502939993615	2.0764914	1.4410036
24.432961931007917	2.0455775	1.4302369
24.450895069683856	1.9839486	1.4085271
24.468828816465	1.9252504	1.3875339
24.4867631718525	1.9407331	1.3931019
24.504698136347656	1.9562417	1.3986571
24.52263371045192	1.9444519	1.394436
24.540569894666874	1.9089417	1.3816446
24.558506689494266	1.913743	1.383381
24.57644409543597	1.9435419	1.3941097
24.594382112994012	1.9580549	1.3993051
24.61232074267057	1.9283634	1.3886553
24.630259984967953	1.9093834	1.3818043
24.64819984038863	1.9366324	1.3916295
24.66614030943522	1.9508945	1.3967443
24.684081392610462	1.9713144	1.4040351
24.702023090417274	1.9747056	1.4052422
24.7199654033587	1.9901962	1.4107431
24.737908331937927	1.9780163	1.4064196
24.755851876658305	2.0007787	1.4144888
24.773796038023324	2.012999	1.418802
24.79174081653661	2.0664222	1.4375056
24.809686212701962	2.1356814	1.461397
24.827632227023294	2.1308098	1.4597293
24.8455788600047	2.0595481	1.4351126
24.8635261121504	2.0721788	1.4395064
24.88147398396475	2.102105	1.4498638
24.899422475952303	2.0893471	1.4454575
24.917371588617698	2.0866008	1.4445071
24.935321322465768	2.1351998	1.4612323
24.953271678001478	2.2571208	1.5023718
24.97122265572994	2.4518387	1.5658349
24.989174256156414	2.7895763	1.6702025
25.00712647978632	3.2351758	1.7986594
25.02507932712521	3.7795796	1.9441141
25.043032798678798	4.3125577	2.07667
25.060986894952933	4.980112	2.2316165
25.078941616453637	5.7388563	2.395591
25.096896963687055	6.608078	2.5706182
25.114852937159508	7.745412	2.783058
25.132809537377444	8.207296	2.864838
25.150766764847468	8.219186	2.8669124
25.168724620076347	7.6250668	2.7613523
25.186683103570985	6.69895	2.588233
25.204642215838426	5.559391	2.357836
25.222601957385894	4.2164826	2.0534077
25.24056232872074	3.2048721	1.7902156
25.25852333035048	2.6295195	1.6215793
25.276484962782778	2.210352	1.4867252
25.294447226525435	2.0589056	1.4348887
25.312410122086423	1.9851879	1.4089669
25.330373649973843	1.9669287	1.4024724
25.348337810695988	1.9401764	1.3929021
25.366302604761245	1.9415869	1.3934083
25.384268032678207	1.9336592	1.3905607
25.40223409495558	1.9316992	1.3898559
25.420200792102257	1.9491751	1.3961287
25.438168124627246	1.9338012	1.3906118
25.45613609303974	1.9119229	1.382723
25.474104697849057	1.8940765	1.3762546
25.492073939564698	1.9183333	1.3850391
25.510043818696285	1.8873425	1.3738059
25.528014335753614	1.8899148	1.3747417
25.54598549124664	1.926873	1.3881185
25.56395728568544	1.9267801	1.388085
25.58192971958028	1.8721291	1.3682576
25.59990279344156	1.8557947	1.3622756
25.617876507779833	1.8546523	1.3618562
25.635850863105826	1.9007994	1.3786948
25.653825859930386	1.956064	1.3985935
25.671801498764548	1.946445	1.3951505
25.68977778011949	1.8908376	1.3750772
25.707754704506524	1.8460013	1.3586763
25.725732272437153	1.8317876	1.3534355
25.743710484423012	1.8419302	1.3571773
25.761689340975888	1.8380053	1.3557305
25.77966884260774	1.8675222	1.3665732
25.797648989830662	1.8495195	1.3599705
25.815629783156922	1.848683	1.3596628
25.83361122309895	1.8447224	1.3582056
25.85159331016929	1.8203799	1.3492146
25.869576044880695	1.792281	1.338761
25.887559427746034	1.8195553	1.3489089
25.90554345927836	1.8340174	1.354259
25.92352813999086	1.8657228	1.3659146
25.94151347039689	1.8976511	1.3775525
25.959499451009965	1.8796148	1.3709905
25.97748608234374	1.8285708	1.3522466
25.995473364912062	1.8032016	1.3428334
26.013461299228904	1.8217818	1.349734
26.03144988580839	1.811551	1.3459387
26.04943912516483	1.7919984	1.3386555
26.067429017812675	1.8524208	1.3610367
26.085419564266537	1.882979	1.3722168
26.103410765041186	1.864186	1.365352
26.12140262065155	1.845485	1.3584863
26.139395131612723	1.8716322	1.3680761
26.157388298439948	1.8616087	1.3644078
26.17538212164861	1.8436215	1.3578002
26.193376601754295	1.8210808	1.3494743
26.211371739272714	1.8316816	1.3533963
26.229367534719746	1.8464859	1.3588547
26.247363988611433	1.8549634	1.3619704
26.26536110146397	1.856003	1.362352
26.283358873793727	1.8484813	1.3595886
26.301357306117204	1.8293796	1.3525456
26.319356398951104	1.7963433	1.3402773
26.33735615281224	1.7611475	1.3270823
26.35535656821762	1.7648466	1.3284752
26.373357645684404	1.830578	1.3529885
26.39135938572991	1.8541155	1.361659
26.409361788871614	1.814757	1.3471291
26.427364855627165	1.7822424	1.3350065
26.445368586514352	1.8324336	1.353674
26.46337298205115	1.8456743	1.3585559
26.48137804275568	1.789769	1.3378226
26.499383769146217	1.7392161	1.3187934
26.517390161741215	1.6863886	1.2986102
26.53539722105928	1.7626768	1.3276584
26.553404947619182	1.8253652	1.3510607
26.571413341939856	1.8053411	1.3436298
26.589422404540397	1.800113	1.3416829
26.60743213594006	1.816875	1.347915
26.62544253665827	1.8332034	1.3539585
26.64345360721459	1.8561534	1.3624072
26.66146534812879	1.8359752	1.3549817
26.679477759920758	1.8469751	1.3590347
26.69749084311057	1.8425661	1.3574115
26.71550459821847	1.8431171	1.3576145
26.733519025764842	1.8080671	1.3446438
26.751534126270258	1.8178307	1.3482695
26.769549900255434	1.8309851	1.3531389
26.787566348241267	1.8013164	1.3421313
26.80558347074881	1.7676682	1.3295368
26.823601268299267	1.772067	1.3311901
26.841619741414036	1.8054729	1.3436788
26.85963889061465	1.8007978	1.3419381
26.877658716422832	1.7924981	1.338842
26.89567921936045	1.8064977	1.3440602
26.913700399949544	1.7920439	1.3386724
26.93172225871233	1.7854753	1.3362168
26.949744796171174	1.7770625	1.333065
26.967768012848605	1.7972977	1.3406333
26.98579190926733	1.8271506	1.3517213
27.003816485950225	1.8077145	1.3445127
27.021841743420318	1.8242655	1.3506538
27.039867682200814	1.8490249	1.3597885
27.057894302815072	1.8137193	1.346744
27.07592160578664	1.7822367	1.3350043
27.0939495916392	1.7969942	1.3405201
27.111978260896635	1.8404909	1.3566469
27.13000761408296	1.8261435	1.3513488
27.148037651722397	1.8520182	1.3608887
27.166068374339304	1.8686508	1.366986
27.184099782458215	1.855565	1.3621912
27.20213187660384	1.8573449	1.3628443
27.22016465730105	1.8615229	1.3643764
27.23819812507487	1.8331351	1.3539332
27.256232280450533	1.7937218	1.339299
27.274267123953383	1.8340684	1.3542778
27.292302656108987	1.8410296	1.3568455
27.31033887744306	1.8549973	1.3619828
27.32837578848146	1.8159927	1.3475877
27.34641338975026	1.7902206	1.3379912
27.364451681775673	1.7814866	1.3347235
27.382490665084074	1.796658	1.3403947
27.400530340202046	1.7856392	1.3362781
27.41857070765629	1.787712	1.3370534
27.436611767973726	1.8075211	1.3444408
27.454653521681404	1.8241459	1.3506094
27.472695969306564	1.7942785	1.3395069
27.490739111376627	1.721842	1.3121898
27.508782948419153	1.7201531	1.3115461
27.526827480961902	1.8065951	1.3440964
27.54487270953279	1.9112573	1.3824823
27.562918634659898	1.907232	1.3810257
27.580965256871508	1.8222678	1.349914
27.599012576696026	1.7576137	1.3257502
27.617060594662068	1.738986	1.3187062
27.63510931129842	1.7716216	1.3310227
27.65315872713401	1.8041605	1.3431904
27.67120884269797	1.8164554	1.3477594
27.68925965851958	1.8452276	1.3583915
27.707311175128307	1.8779047	1.3703666
27.725363393053787	1.8520008	1.3608824
27.74341631282583	1.8709284	1.3678188
27.7614699349744	1.8480794	1.3594408
27.77952426002968	2.0465024	1.4305601
27.797579288521973	2.1012902	1.4495828
27.815635020981784	2.524447	1.5888509
27.83369145793979	2.5923288	1.6100711
27.85174859992682	2.4905493	1.5781474
27.869806447473923	2.3672745	1.538595
27.887865001112267	2.0196245	1.421135
27.905924261373233	1.8828777	1.3721799
27.92398422878836	1.8483057	1.3595241
27.94204490388936	1.8700883	1.3675117
27.96010628720813	1.8811976	1.3715676
27.978168379276728	1.8495057	1.3599653
27.9962311806274	1.8690677	1.3671385
28.014294691792568	1.8862395	1.3734044
28.0323589133048	1.8653998	1.3657964
28.050423845696887	1.8571732	1.3627814
28.068489489501758	1.8739077	1.3689075
28.086555845252523	1.9377788	1.3920412
28.104622913482487	1.9077194	1.3812021
28.122690694725115	1.855261	1.3620796
28.14075918951405	1.8720487	1.3682283
28.15882839838312	1.9296168	1.3891065
28.176898321866304	1.932014	1.3899691
28.1949689604978	1.8971452	1.3773689
28.213040314811945	1.8974837	1.3774918
28.23111238534327	1.9125081	1.3829346
28.249185172626493	1.9026926	1.3793812
28.267258677196473	1.8728092	1.3685062
28.285332899588294	1.8235887	1.3504032
28.303407840337172	1.8287221	1.3523026
28.321483499978545	1.8875669	1.3738875
28.33955987904799	1.9022253	1.3792118
28.357636978081285	1.8567733	1.3626347
28.37571479761439	1.852742	1.3611547
28.393793338183425	1.9515058	1.396963
28.41187260032469	2.0067978	1.4166149
28.429952584574686	1.9952091	1.4125187
28.448033291470065	2.0250397	1.4230388
28.46611472154769	2.0867789	1.4445688
28.484196875344566	2.0615754	1.4358187
28.502279753397914	2.0215166	1.4218005
28.52036335624511	1.9435233	1.394103
28.538447684423716	1.9010022	1.3787683
28.556532738471482	1.9138519	1.3834203
28.574618518926325	1.948322	1.3958231
28.59270502632635	1.9994723	1.414027
28.61079226120985	1.995958	1.4127837
28.628880224115274	2.0284636	1.4242414
28.646968915581287	2.0257401	1.423285
28.66505833614671	2.0133812	1.4189366
28.68314848635055	2.023929	1.4226487
28.701239366732004	2.0963662	1.4478834
28.71933097783044	2.1151016	1.4543389
28.737423320185403	2.1065104	1.4513823
28.75551639433665	2.0941052	1.4471023
28.773610200824074	2.1210864	1.456395
28.791704740187793	2.1395016	1.4627035
28.80980001296809	2.1488726	1.4659034
28.827896019705413	2.1826239	1.4773706
28.845992760940433	2.1759472	1.4751092
28.86409023721397	2.2240372	1.4913206
28.88218844906704	2.289841	1.513222
28.900287397040845	2.2245874	1.4915051
28.918387081676755	2.1390634	1.4625537
28.936487503516343	2.142974	1.46389
28.954588663101365	2.2466753	1.4988914
28.97269056097374	2.3734267	1.5405929
28.990793197675597	2.3746152	1.5409787
29.00889657374923	2.332176	1.5271463
29.027000689737125	2.3234615	1.5242904
29.04510554618196	2.4018927	1.5498041
29.06321114362659	2.4513338	1.5656736
29.08131748261405	2.4429293	1.5629873
29.099424563687567	2.4178061	1.5549296
29.11753238739057	2.4876144	1.5772173
29.13564095426663	2.5496104	1.5967499
29.15375026485954	2.6198144	1.618584
29.171860319713275	2.686804	1.6391474
29.18997111937199	2.7767355	1.666354
29.20808266438002	2.7831054	1.6682642
29.226194955281898	2.68778	1.639445
29.244307992622335	2.6812887	1.6374642
29.26242177694624	2.6992567	1.6429415
29.2805363087987	2.738502	1.654842
29.29865158872498	2.8793023	1.6968507
29.316767617270557	2.9227252	1.709598
29.334884394981064	2.9550395	1.7190229
29.353001922402367	3.0020819	1.7326517
29.37112020008047	2.98521	1.727776
29.389239228561596	3.112041	1.7640978
29.407359008392152	3.315981	1.8209835
29.42547954011872	3.7609382	1.9393139
29.44360082428809	4.463562	2.1127143
29.46172286144722	5.47823	2.3405619
29.479845652143283	7.005526	2.6467955
29.497969196923606	9.129123	3.0214438
29.516093496335728	11.60517	3.4066362
29.5342185509274	14.14211	3.7605996
29.55234436124651	16.237995	4.0296397
29.570470927841175	17.43287	4.175269
29.588598251259686	17.221869	4.149924
29.60672633205055	15.9742985	3.996786
29.624855170762405	13.827312	3.7185094
29.642984767944146	11.195986	3.3460402
29.66111512414481	8.511491	2.917446
29.67924623991366	6.3511405	2.5201468
29.697378115800138	4.958567	2.226784
29.71551075235387	4.1698895	2.0420308
29.733644150124675	3.7924557	1.9474229
29.751778309662576	3.5806584	1.8922628
29.769913231517766	3.4373777	1.8540167
29.78804891624066	3.3397267	1.8274919
29.806185364381818	3.274641	1.8095969
29.82432257649206	3.2882295	1.8133476
29.842460553122333	3.3742137	1.8369033
29.86059929482382	3.3395925	1.8274552
29.878738802147872	3.2785163	1.8106674
29.896879075646048	3.2552998	1.804245
29.915020115870114	3.2283907	1.7967722
29.933161923371976	3.1947222	1.7873785
29.951304498703777	3.223523	1.7954172
29.969447842417857	3.3013191	1.8169533
29.987591955066733	3.275468	1.8098254
30.005736837203123	3.215607	1.7932113
30.023882489379943	3.2008085	1.7890804
30.04202891215028	3.2483401	1.8023152
30.060176106067455	3.2337487	1.7982627
30.078324071684946	3.2146003	1.7929306
30.09647280955646	3.1520836	1.7754109
30.114622320235863	3.1190336	1.7660786
30.132772604277257	3.179718	1.7831764
30.1509236622349	3.1537097	1.7758687
30.16907549466328	3.027598	1.7399994
30.18722810211705	3.0103576	1.7350382
30.205381485151097	3.052681	1.7471923
30.22353564432045	3.0674691	1.7514192
30.241690580180403	3.0812564	1.7553508
30.25984629328638	3.039759	1.7434905
30.278002784194037	3.0356057	1.742299
30.296160053459246	3.0997856	1.7606208
30.314318101638033	3.0752075	1.753627
30.332476929286646	2.965447	1.7220473
30.35063653696153	2.8981156	1.7023853
30.368796925219307	2.9306314	1.7119087
30.386958094616844	2.9453535	1.7162032
30.40512004571115	2.9026477	1.7037158
30.423282779059463	2.8837788	1.6981692
30.441446295219233	2.8544695	1.6895175
30.459610594748067	2.851715	1.6887022
30.47777567820382	2.8714354	1.6945311
30.495941546144504	2.7855506	1.6689969
30.51410819912835	2.7814002	1.667753
30.532275637713795	2.816671	1.6782941
30.55044386245946	2.854335	1.6894778
30.56861287392416	2.8722	1.6947566
30.586782672666956	2.8836875	1.6981424
30.604953259247047	2.7807896	1.66757
30.623124634223885	2.7606697	1.6615263
30.641296798157075	2.7310138	1.6525779
30.659469751606462	2.7147598	1.6476529
30.677643495132074	2.7698748	1.6642941
30.695818029294152	2.7606301	1.6615144
30.713993354653116	2.764219	1.6625941
30.73216947176962	2.7876406	1.6696229
30.75034638120448	2.8363798	1.6841555
30.768524083518756	2.789673	1.6702315
30.786702579273673	2.7527597	1.6591443
30.80488186903069	2.816231	1.6781629
30.82306195335144	2.959928	1.7204441
30.841242832797782	3.1192956	1.7661527
30.85942450793176	3.3156242	1.8208855
30.877606979315637	3.653816	1.9114958
30.895790247511883	4.0744066	2.018516
30.913974313083134	4.5536704	2.133933
30.932159176592283	4.812285	2.193692
30.95034483860237	4.923866	2.2189786
30.968531299676698	4.8087153	2.1928782
30.98671856037873	4.3563523	2.0871878
31.00490662127215	3.9010737	1.9751136
31.023095482920848	3.482607	1.8661743
31.04128514588892	3.0077896	1.734298
31.059475610740662	2.628817	1.6213627
31.07766687804056	2.4657812	1.5702807
31.09585894835335	2.4791334	1.5745264
31.11405182224393	2.523293	1.5884876
31.132245500277417	2.5628886	1.6009024
31.15043998301914	2.4872022	1.5770866
31.168635271034628	2.4228067	1.5565368
31.18683136488964	2.3710203	1.5398117
31.20502826515008	2.3518999	1.5335906
31.223225972382135	2.4011457	1.549563
31.241424487152155	2.403221	1.5502325
31.259623810026692	2.377632	1.5419571
31.27782394157253	2.394528	1.5474262
31.296024882356644	2.446875	1.564249
31.314226632946237	2.416276	1.5544375
31.332429193908684	2.4724016	1.5723872
31.350632565811598	2.4687111	1.5712132
31.368836749222787	2.4118829	1.5530238
31.387041744710295	2.475867	1.5734888
31.40524755284232	2.6102598	1.6156298
31.423454174187317	2.6116374	1.6160561
31.441661609313922	2.531342	1.5910192
31.459869858791002	2.4104557	1.5525643
31.478078923187628	2.368626	1.5390341
31.496288803073064	2.3542078	1.5343428
31.514499499016807	2.3645236	1.5377008
31.532711011588546	2.395165	1.5476321
31.550923341358178	2.4427452	1.5629284
31.56913648889584	2.3550673	1.5346228
31.587350454771844	2.3222816	1.5239034
31.605565239556732	2.3546023	1.5344714
31.62378084382127	2.3467672	1.5319161
31.641997268136382	2.3185222	1.5226694
31.660214513073274	2.280081	1.5099937
31.67843257920331	2.2848086	1.5115583
31.6966514670981	2.2265577	1.4921654
31.71487117732944	2.2718065	1.5072513
31.733091710469346	2.341105	1.530067
31.751313067090052	2.3177295	1.5224091
31.769535247764008	2.269383	1.5064471
31.787758253063878	2.314398	1.5213146
31.805982083562526	2.3049388	1.5182025
31.824206739833024	2.2728577	1.5076
31.84243222244869	2.2348275	1.494934
31.860658531983013	2.2466176	1.498872
31.878885669009737	2.3250492	1.5248111
31.897113634102784	2.3477314	1.5322309
31.91534242783632	2.3457038	1.5315691
31.933572050784694	2.2905138	1.5134443
31.951802503522508	2.2470741	1.4990244
31.970033786624548	2.2428913	1.4976286
31.988265900665834	2.1913097	1.4803073
32.006498846221575	2.2177763	1.48922
32.02473262386724	2.243733	1.4979095
32.04296723417845	2.2515233	1.5005077
32.0612026777311	2.2031372	1.4842968
32.07943895510129	2.2174954	1.4891257
32.097676066865304	2.1789157	1.4761151
32.115914013599685	2.1067808	1.4514754
32.13415279588115	2.1067102	1.4514511
32.152392414286666	2.1535532	1.467499
32.1706328693934	2.1740124	1.4744532
32.18887416177875	2.1466448	1.4651433
32.20711629202032	2.1143425	1.4540778
32.225359260695924	2.1320295	1.4601471
32.243603068383614	2.1338596	1.4607736
32.26184771566166	2.041235	1.428718
32.28009320310852	1.9822752	1.407933
32.2983395313029	2.0316057	1.4253441
32.31658670082372	2.0502765	1.4318787
32.33483471225012	2.091059	1.4460495
32.35308356616143	2.14727	1.4653566
32.371333263137245	2.1505864	1.4664878
32.38958380375734	2.1195078	1.455853
32.407835188601744	2.0281515	1.4241319
32.42608741825067	1.9595245	1.3998302
32.444340493284585	2.000177	1.4142761
32.46259441428416	2.1060798	1.4512339
32.48084918183028	2.1098602	1.4525357
32.49910479650405	2.0481577	1.4311386
32.51736125888683	2.0285265	1.4242635
32.53561856956014	1.9963026	1.4129057
32.5538767291058	1.9780294	1.4064243
32.572135738105764	1.9548346	1.398154
32.59039559714228	1.95458	1.398063
32.608656306797776	1.9753094	1.405457
32.62691786765491	2.0284584	1.4242395
32.645180280296586	2.0456471	1.4302613
32.663443545305896	2.0276918	1.4239705
32.68170766326619	2.017236	1.4202943
32.69997263476099	2.0124846	1.4186207
32.7182384603741	1.915332	1.3839552
32.7365051406895	1.8549391	1.3619615
32.75477267629144	1.9863474	1.4093784
32.77304106776434	2.085862	1.4442513
32.79131031569289	2.0632958	1.4364177
32.809580420661966	2.0690577	1.438422
32.827851383256714	2.0888484	1.4452848
32.84612320406245	2.0214887	1.4217906
32.86439588366476	1.9660597	1.4021626
32.88266942264945	1.89744	1.377476
32.9009438216025	1.9283923	1.3886657
32.9192190811102	2.0115623	1.4182956
32.937495201758985	2.0261762	1.4234382
32.95577218413556	2.0167353	1.4201181
32.974050028826866	2.0593917	1.4350581
32.992328736420035	2.0619633	1.4359539
33.010608307502444	2.000162	1.4142708
33.02888874266169	1.9143997	1.3836184
33.047170042485604	1.978361	1.4065422
33.06545220756225	2.0243886	1.4228101
33.083735238479896	2.0163722	1.4199902
33.10201913582707	2.015255	1.4195968
33.12030390019248	1.9723798	1.4044144
33.138589532165135	1.9287071	1.388779
33.15687603233419	1.9637722	1.4013466
33.17516340128909	1.9860799	1.4092835
33.19345163961947	1.9274635	1.3883312
33.211740747915215	1.9288124	1.388817
33.23003072676643	1.9545971	1.398069
33.248321576763466	1.8786913	1.3706536
33.266613298496885	1.7944577	1.3395737
33.28490589255747	1.861841	1.3644929
33.30319935953626	1.9100547	1.3820473
33.32149370002451	1.8921888	1.3755685
33.339788914613706	2.0268004	1.4236574
33.358085003895575	2.0929255	1.4466947
33.376381968462034	1.9610722	1.4003829
33.39467980890529	1.8482804	1.3595148
33.41297852581774	1.8596106	1.3636754
33.43127811979204	1.9494696	1.396234
33.44957859142105	2.0739312	1.440115
33.467879941297866	2.1627636	1.4706337
33.486182170015844	2.0898538	1.4456327
33.50448527816853	2.0252564	1.423115
33.522789266349754	2.0039694	1.4156163
33.541094135153514	1.9825491	1.4080302
33.55939988517411	1.9197147	1.3855377
33.57770651700602	1.9469492	1.3953313
33.59601403124398	1.9421307	1.3936034
33.61432242848296	1.9071944	1.3810121
33.632631709318154	1.9501985	1.3964951
33.650941874344994	1.9708287	1.403862
33.66925292415916	1.9777911	1.4063396
33.68756485935654	1.9606433	1.4002297
33.70587768053328	1.9753325	1.4054652
33.724191388285746	1.9910923	1.4110607
33.74250598321054	1.9468406	1.3952923
33.760821465904506	1.8528187	1.3611828
33.77913783696474	1.8653235	1.3657684
33.79745509698852	1.9246453	1.3873159
33.815773246573414	1.9527993	1.397426
33.8340922863172	1.9458263	1.3949288
33.852412216817896	1.9558651	1.3985225
33.87073303867377	1.9606119	1.4002185
33.889054752483304	1.901081	1.3787969
33.907377358845245	1.922422	1.3865143
33.92570085835853	1.981046	1.4074963
33.94402525162239	1.9127287	1.3830143
33.96235053923627	1.9334967	1.3905023
33.980676721799824	1.9947746	1.4123648
33.999003799912984	2.0114946	1.4182717
34.01733177417592	1.9906536	1.4109052
34.03566064518901	1.9264714	1.3879738
34.0539904135529	1.9634277	1.4012237
34.07232107986846	1.9162766	1.3842964
34.090652644736785	1.9263433	1.3879277
34.108985108759235	1.9438858	1.3942331
34.12731847253742	1.9012164	1.378846
34.14565273667313	1.7920529	1.3386757
34.16398790176847	1.8227929	1.3501085
34.18232396842574	1.9857311	1.4091598
34.20066093724749	2.0103865	1.417881
34.21899880883651	2.015143	1.4195573
34.23733758379583	1.952199	1.3972112
34.25567726272874	1.8901687	1.3748341
34.27401784623872	1.9521431	1.3971912
34.29235933492957	2.0630474	1.4363313
34.31070172940526	1.9442977	1.3943808
34.32904503027003	1.9837216	1.4084466
34.347389238128386	2.1119173	1.4532437
34.36573435358502	2.0297215	1.424683
34.38408037724492	1.9149755	1.3838264
34.402427309713296	1.8633115	1.3650317
34.42077515159559	1.9652209	1.4018633
34.43912390349752	1.966504	1.402321
34.45747356602499	2.0304954	1.4249545
34.47582413978423	1.9254911	1.3876207
34.49417562538163	1.8532772	1.3613513
34.51252802342388	2.00054	1.4144045
34.53088133451789	2.0570602	1.4342456
34.54923555927084	2.0072215	1.4167644
34.567590698290104	1.9483657	1.3958387
34.58594675218336	2.0239878	1.4226693
34.6043037215585	2.0918334	1.4463172
34.62266160702365	1.993388	1.4118739
34.641020409187234	1.9952283	1.4125255
34.65938012865785	1.98524	1.4089855
34.677740766044394	1.9571458	1.3989803
34.69610232195598	1.9945178	1.412274
34.714464797002016	2.0497186	1.4316839
34.73282819179208	1.9076893	1.3811913
34.751192506936064	1.8014716	1.3421891
34.76955774304408	1.7586521	1.3261418
34.7879239007265	1.9059687	1.3805683
34.80629098059391	2.017439	1.4203658
34.824658983257194	1.9697853	1.4034904
34.843027909327446	1.9192739	1.3853786
34.86139775941603	1.8397735	1.3563825
34.879768534134534	1.8892038	1.3744831
34.89814023409483	2.0518124	1.4324149
34.91651285990901	2.0097337	1.4176508
34.93488641218944	1.8353938	1.3547671
34.95326089154871	1.7550396	1.324779
34.97163629859967	1.8293692	1.3525418
34.99001263395542	2.0075028	1.4168637
35.00838989822934	2.0732758	1.4398874
35.02676809203499	2.076696	1.4410746
35.04514721598624	1.9238355	1.3870239
35.063527270697215	2.0462615	1.430476
35.081908256782256	2.1769798	1.4754592
35.10029017485597	2.1342304	1.4609005
35.11867302553321	2.1168003	1.4549228
35.137056809429104	2.1252477	1.4578229
35.155441527159006	1.9984517	1.413666
35.173827179338524	2.1363082	1.4616115
35.19221376658354	2.104651	1.4507415
35.21060128951017	1.9164083	1.384344
35.2289897487348	1.832223	1.3535963
35.24737914487405	1.8776761	1.3702832
35.26576947854479	1.8772645	1.370133
35.28416075036418	1.9594489	1.3998032
35.30255296094958	2.0357668	1.426803
35.32094611091867	2.235581	1.495186
35.33934020088932	2.3213751	1.523606
35.35773523147969	2.1740518	1.4744666
35.3761312033082	2.218438	1.4894421
35.394528116993506	1.9293202	1.3889997
35.41292597315452	1.9749101	1.4053149
35.431324772410434	2.358862	1.5358588
35.449724515380666	2.5428944	1.5946455
35.46812520268491	2.340549	1.5298853
35.486526834943106	2.1584423	1.4691638
35.504929412775454	2.0595267	1.4351051
35.52333293680242	1.9151534	1.3838906
35.54173740764471	1.8271108	1.3517066
35.560142825923286	1.8988107	1.3779734
35.5785491922594	2.0106356	1.4179689
35.59695650727454	2.309471	1.5196943
35.61536477159042	2.4718385	1.5722082
