0.008763373481513119	0.0	0.0
0.026290120649546365	0.17179282	0.414479
0.043816868432600686	0.18019232	0.42449066
0.06134361724069026	0.1772723	0.42103717
0.07887036748382949	0.19883364	0.44590765
0.0963971195720331	0.23482205	0.48458442
0.11392387391531617	0.21288511	0.46139476
0.1314506309236943	0.23290823	0.48260567
0.1489773910071836	0.19225502	0.43846896
0.16650415457580078	0.18323398	0.4280584
0.18403092203956356	0.10773151	0.32822478
0.20155769380849	0.1209806	0.34782267
0.2190844702925996	0.10598573	0.3255545
0.2366112519019124	0.09919163	0.31494704
0.2541380390464497	0.09477543	0.30785617
0.27166483213623416	0.1082405	0.32899925
0.28919163158128947	0.1240755	0.3522435
0.3067184377916406	0.09305485	0.30504894
0.324245251177314	0.084824	0.2912456
0.34177207214833777	0.052870203	0.22993521
0.3592989011147415	0.052055907	0.22815764
0.37682573848655654	0.07320338	0.27056122
0.39435258467381573	0.12779616	0.3574859
0.41187944008655414	0.1724655	0.41528967
0.42940630513480854	0.18098219	0.42542002
0.446933180228618	0.18024358	0.42455104
0.4644600657780234	0.1759633	0.4194798
0.48198696219306775	0.15532355	0.3941111
0.49951386988379676	0.14730793	0.38380715
0.5170407892602581	0.16142748	0.4017804
0.5345677207325025	0.1584733	0.39808705
0.5520946647105822	0.19387294	0.44031006
0.5696216216045534	0.19839627	0.44541696
0.5871485918244737	0.15963347	0.3995416
0.6046755757804043	0.13324362	0.36502552
0.6222025738824094	0.14304093	0.3782075
0.6397295865405557	0.17528744	0.41867343
0.6572566141649129	0.2064438	0.45436087
0.6747836571655547	0.24186993	0.49180272
0.6923107159525568	0.21619548	0.46496826
0.7098377909359992	0.2045342	0.45225456
0.7273648825259653	0.15920293	0.39900243
0.7448919911325411	0.15617456	0.39518926
0.762419117165817	0.1825192	0.42722267
0.7799462610358868	0.17910469	0.4232076
0.7974734231528482	0.15192826	0.38977975
0.8150006039268024	0.1648307	0.40599346
0.8325278037678551	0.16382116	0.40474826
0.8500550230861152	0.17882125	0.4228726
0.8675822622916969	0.18097806	0.42541516
0.8851095217947171	0.19678105	0.44360012
0.9026368020052984	0.22596732	0.47536018
0.9201641033335665	0.21210094	0.46054417
0.9376914261896523	0.21927142	0.46826425
0.9552187709836915	0.24035275	0.49025783
0.9727461381258234	0.26566336	0.5154254
0.990273528026193	0.29427078	0.5424673
1.0078009410949496	0.26008528	0.50998557
1.0253283777422473	0.2564604	0.5064192
1.0428558383782454	0.25256988	0.5025633
1.0603833234131086	0.29046872	0.5389515
1.0779108332570058	0.31853583	0.56438977
1.0954383683201119	0.3234237	0.56870353
1.112965929012607	0.33409926	0.5780132
1.1304935157446763	0.4418419	0.6647119
1.1480211289265108	0.525422	0.72485995
1.1655487689683062	1.3490361	1.1614802
1.1830764362802655	1.605485	1.2670773
1.200604131272596	2.0424554	1.429145
1.2181318543555117	2.3787715	1.5423267
1.235659605939232	2.4238117	1.5568596
1.253187386433982	3.8369145	1.9588044
1.270715196249994	6.3151946	2.513005
1.2882430357975057	11.804862	3.4358203
1.3057709054867608	16.489037	4.0606694
1.3232988057280106	22.398718	4.7327285
1.3408267369315112	27.666811	5.259925
1.358354699507526	31.638636	5.624823
1.3758826938663256	35.66402	5.971936
1.3934107204181858	37.405342	6.1159906
1.410938779573391	37.86837	6.153728
1.4284668717422309	38.47495	6.202818
1.4459949973350033	37.96704	6.1617403
1.4635231567620117	37.62753	6.134128
1.4810513504335687	37.21172	6.100141
1.4985795787599925	36.43597	6.0362215
1.5161078421516088	35.965717	5.9971423
1.5336361410187505	34.63404	5.8850694
1.5511644757717598	34.62297	5.8841286
1.5686928468209842	35.317406	5.942845
1.58622125457678	35.87651	5.9897003
1.6037496994495108	37.072205	6.088695
1.621278181849548	36.749306	6.0621204
1.6388067021872719	37.585354	6.1306896
1.6563352608730693	37.186527	6.098076
1.673863858317336	36.259525	6.0215883
1.6913924949304753	35.8848	5.990392
1.7089211711228998	34.701935	5.890835
1.7264498873050296	33.830193	5.816373
1.7439786438872935	32.90161	5.7359924
1.7615074412801288	32.20418	5.674873
1.779036279893981	31.487568	5.6113787
1.796565160139305	30.624222	5.5339155
1.814094082426564	30.02152	5.47919
1.8316230471662298	29.10837	5.3952174
1.849152054768784	28.218624	5.3121204
1.8666811056447168	27.651949	5.258512
1.8842102002045273	27.05995	5.201918
1.901739338858724	26.593622	5.1569004
1.9192685220178245	25.820263	5.081364
1.9367977500923557	25.07844	5.007838
1.9543270234928547	24.7752	4.9774694
1.971856342629867	24.19295	4.918633
1.9893857079139496	23.835434	4.8821545
2.006915119755667	23.54537	4.8523574
2.0244445785655945	22.897608	4.7851443
2.0419740847543175	22.548695	4.7485466
2.0595036387324317	21.958342	4.6859727
2.0770332409105414	21.591534	4.646669
2.094562891699263	21.232283	4.60785
2.1120925915092217	20.402115	4.51687
2.129622340751053	19.896349	4.460532
2.1471521398354043	187.94563	13.709327
2.1646819891729323	444.31653	21.078817
2.182211889174303	440.5998	20.990469
2.1997418402501974	452.92203	21.281965
2.2172718428113023	432.85	20.805048
2.234801897268317	320.59314	17.905115
2.2523320040319548	16.919083	4.1132812
2.269862163512935	16.446463	4.0554237
2.287392376121992	16.140709	4.01755
2.304922642269869	15.968502	3.9960608
2.322452962367322	15.841473	3.9801347
2.3399833368251164	15.402638	3.9246194
2.357513766054032	15.0013685	3.8731601
2.3750442504648586	14.789575	3.8457215
2.3925747904683963	14.7751875	3.8438506
2.410105386475459	14.605163	3.82167
2.4276360388968707	14.173422	3.7647605
2.445166748143469	13.857961	3.722628
2.4626975146261025	13.692853	3.7003856
2.4802283387556323	13.519883	3.6769395
2.4977592209429305	13.345911	3.6532056
2.5152901615988825	13.092316	3.6183305
2.5328211611343865	12.929416	3.5957496
2.5503522199603523	12.835867	3.582718
2.5678833384877024	12.726933	3.5674827
2.5854145171273712	12.331173	3.511577
2.6029457562903064	12.017756	3.4666636
2.620477056387469	11.590195	3.4044375
2.6380084178298326	11.520989	3.3942583
2.655539841028383	11.357643	3.3701103
2.673071326394119	11.314205	3.3636594
2.6906028743380523	10.931214	3.3062387
2.708134485271211	10.792496	3.2851934
2.7256661596046325	10.810727	3.287967
2.743197897749369	10.705826	3.2719758
2.760729700116486	10.595517	3.2550757
2.778261567117063	10.176357	3.1900403
2.795793499162193	10.076075	3.1742833
2.8133254966629817	10.067523	3.172936
2.830857560030551	10.027226	3.1665797
2.8483896896760337	9.841885	3.1371777
2.865921886010578	9.616645	3.1010716
2.883454149445347	9.46093	3.0758624
2.9009864803915177	9.276732	3.0457728
2.91851887926028	9.125382	3.020825
2.9360513464628384	9.050088	3.0083363
2.953583882410413	9.114256	3.0189826
2.9711164875142373	9.045843	3.0076308
2.9886491621855606	8.876102	2.9792788
3.0061819068356455	8.632064	2.9380374
3.023714721875769	8.528313	2.9203274
3.041247607717225	8.393928	2.8972275
3.0587805647713213	8.172365	2.8587348
3.0763135934493806	8.003471	2.8290408
3.0938466941627407	7.986634	2.8260634
3.1113798673227544	8.096571	2.8454473
3.1289131133407904	8.100307	2.846104
3.1464464326282315	7.889748	2.8088696
3.1639798255964786	7.70772	2.776278
3.1815132926569443	7.503234	2.7392032
3.1990468342210603	7.3852453	2.7175808
3.216580450700272	7.343321	2.7098563
3.2341141425060416	7.1746135	2.678547
3.251647910049847	7.1369615	2.6715093
3.2691817537431813	7.061392	2.657328
3.286715673997555	7.056591	2.6564245
3.3042496712244938	7.060737	2.6572049
3.32178374583554	6.998463	2.6454608
3.339317898242251	7.064786	2.6579666
3.3568521288562034	7.029054	2.6512363
3.3743864380889876	6.984487	2.642818
3.3919208263522127	6.880879	2.623143
3.4094552940575023	6.730651	2.5943499
3.4269898416164972	6.774239	2.602737
3.444524469440858	6.6982827	2.588104
3.4620591779422587	6.6636133	2.5813975
3.479593967532391	6.557377	2.5607376
3.4971288386229658	6.5246687	2.554343
3.5146637916257086	6.496362	2.5487962
3.5321988269523628	6.472191	2.54405
3.5497339450146903	6.465674	2.542769
3.5672691462244708	6.390509	2.5279455
3.5848044309934988	6.3490863	2.5197394
3.60233979973359	6.2172146	2.4934342
3.619875252856575	6.2681193	2.5036213
3.6374107907743034	6.2900314	2.5079935
3.6549464138986427	6.3327737	2.5165002
3.6724821226414788	6.3598514	2.5218747
3.690017917414714	6.3709188	2.5240679
3.7075537986302702	6.361873	2.5222754
3.7250897667000857	6.347637	2.5194519
3.7426258220361235	6.471242	2.5438635
3.7601619650503553	6.779582	2.603763
3.777698196154779	7.3781347	2.716272
3.7952345157614067	8.433403	2.9040322
3.8127709242822716	9.295619	3.0488718
3.830307422129425	11.395471	3.3757179
3.847844009714936	30.190483	5.494587
3.8653806874508954	97.63336	9.8809595
3.882917455749409	96.90536	9.844052
3.900454315022606	96.760826	9.836708
3.917991265682631	41.244884	6.422218
3.9355283081416506	10.810373	3.2879133
3.9530654428118495	8.523885	2.9195693
3.970602670105433	7.363702	2.7136142
3.9881399904346244	6.5021133	2.5499241
4.005677404211669	6.604956	2.570011
4.023214911848827	6.516422	2.5527284
4.0407525137583855	6.501118	2.549729
4.058290210352644	6.469223	2.5434668
4.075828002043927	6.409991	2.531796
4.0933658892445814	6.326471	2.5152476
4.110903872366966	6.2649426	2.5029867
4.128441951823468	6.0794206	2.4656482
4.145980128026488	6.0399446	2.45763
4.163518401388452	5.9600906	2.4413297
4.181056772321807	5.96138	2.4415936
4.1985952412390155	6.0511303	2.4599044
4.216133808552567	6.1888356	2.487737
4.233672474674966	6.374842	2.524845
4.251211240018741	6.567493	2.562712
4.268750104996445	6.7158246	2.5914907
4.286289070020643	7.6468525	2.7652943
4.303828135503928	9.214577	3.035552
4.3213673018589125	29.63007	5.443351
4.3389065694982305	90.75029	9.526295
4.356445938834537	166.10493	12.88817
4.3739854102805085	171.56223	13.098176
4.391524984248844	172.38316	13.129477
4.409064661152262	136.38567	11.678428
4.426604441403504	96.65912	9.831537
4.444144325415337	75.70861	8.70107
4.461684313600543	21.769688	4.6657996
4.47922440637193	22.159548	4.7073927
4.496764604142329	20.298695	4.5054073
4.5143049073245916	18.266237	4.273902
4.531845316331589	16.141594	4.01766
4.5493858315762195	13.452577	3.6677754
4.566926453471405	11.2873535	3.3596656
4.584467182430081	9.268027	3.0443435
4.602008018865218	8.08281	2.8430283
4.619548963189798	7.49315	2.737362
4.637090015816834	7.0482883	2.6548612
4.654631177159353	6.8148665	2.61053
4.672172447630417	6.4809666	2.5457742
4.689713827643102	6.347205	2.519366
4.7072553176105085	6.186053	2.4871776
4.724796917945764	6.0172415	2.4530065
4.742338629062015	5.8742995	2.4236953
4.759880451372434	5.676379	2.3825152
4.777422385290215	5.581608	2.3625426
4.794964431228581	5.592166	2.3647761
4.812506589600768	5.594606	2.3652918
4.830048860820047	5.5579853	2.357538
4.847591245299709	5.61829	2.3702931
4.8651337434530655	5.607095	2.3679304
4.882676355693457	5.6082582	2.3681762
4.900219082434242	5.5923223	2.3648093
4.917761924088813	5.561047	2.3581872
4.935304881070575	5.4715137	2.3391268
4.952847953792969	5.3703938	2.317411
4.970391142669449	5.3646035	2.3161614
4.9879344481135055	5.3587914	2.3149064
5.005477870538642	5.4599514	2.336654
5.023021410358394	5.399976	2.3237848
5.040565067986324	5.401258	2.3240607
5.05810884383601	5.304877	2.3032317
5.075652738321066	5.3594866	2.3150566
5.09319675185512	5.4177957	2.327616
5.110740884851836	5.4523687	2.3350308
5.128285137724894	5.43998	2.3323765
5.145829510888007	5.3769126	2.3188171
5.163374004754908	5.3505697	2.31313
5.1809186197393595	5.3603373	2.3152401
5.198463356255145	5.2673135	2.2950628
5.216008214716077	5.2647777	2.2945104
5.233553195535998	5.2233233	2.285459
5.251098299128764	5.273837	2.2964835
5.268643525908272	5.2991114	2.3019798
5.286188876288432	5.3248	2.3075528
5.3037343506831895	5.361059	2.315396
5.32127994950651	5.3402233	2.3108923
5.3388256731723915	5.301041	2.302399
5.356371522094851	5.245055	2.2902086
5.373917496687938	5.1836405	2.276761
5.391463597365729	5.124801	2.2638023
5.40900982454232	5.16619	2.2729254
5.426556178631843	5.2261376	2.2860746
5.444102660048449	5.2804875	2.2979312
5.4616492692063225	5.2739315	2.2965043
5.479196006519669	5.202181	2.280829
5.496742872402727	5.122528	2.2633002
5.514289867269756	5.0516763	2.2475934
5.531836991535049	5.071103	2.251911
5.549384245612924	5.067967	2.2512145
5.566931629917724	5.170804	2.27394
5.584479144863822	5.240692	2.2892559
5.6020267908656205	5.2149854	2.2836342
5.619574568337545	5.123903	2.263604
5.637122477694054	5.0508437	2.2474082
5.654670519349629	5.0827236	2.2544897
5.672218693718784	5.077565	2.2533453
5.689767001216059	5.181761	2.276348
5.707315442256021	5.2080617	2.2821178
5.724864017253266	5.1592274	2.2713933
5.7424127266224225	5.072499	2.2522209
5.75996157077814	5.04238	2.2455244
5.777510550135105	5.1165805	2.261986
5.795059665108022	5.210358	2.282621
5.812608916111639	5.2275577	2.2863853
5.830158303560715	5.336529	2.310093
5.847707827870055	5.3660355	2.3164704
5.86525748945448	5.4806333	2.3410752
5.8828072887288485	5.571581	2.3604198
5.900357226108044	5.673012	2.3818085
5.917907302006979	5.6918063	2.3857508
5.9354575168406	6.222252	2.4944441
5.9530078710238765	6.9125223	2.6291676
5.970558364971812	7.4376407	2.7272038
5.988108999099438	7.788699	2.7908242
6.005659773821818	8.235535	2.8697622
6.023210689554039	7.923525	2.8148756
6.040761746711227	8.362612	2.891818
6.058312945708531	7.8290734	2.7980483
6.075864286961132	7.363327	2.713545
6.093415770884244	6.7164946	2.59162
6.1109673978931065	6.139653	2.4778323
6.128519168402993	5.494286	2.3439894
6.146071082829204	5.3236938	2.3073132
6.163623141587075	5.231737	2.2872992
6.181175345091969	5.1862893	2.2773426
6.198727693759281	5.169547	2.2736638
6.216280188004435	5.1710906	2.2740033
6.233832828242885	5.170041	2.2737725
6.251385614890126	5.202635	2.2809286
6.268938548361669	5.174376	2.2747254
6.286491629073067	5.1298566	2.2649186
6.304044857439898	5.151695	2.2697346
6.321598233877777	5.113717	2.261353
6.339151758802344	5.079112	2.2536886
6.356705432629277	5.019348	2.24039
6.37425925577428	4.935593	2.2216194
6.391813228653095	5.032797	2.2433896
6.409367351681486	5.019566	2.2404387
6.426921625275259	5.048447	2.246875
6.44447604985025	5.017059	2.2398791
6.46203062582232	4.9823327	2.2321138
6.47958535360737	5.01422	2.2392454
6.497140233621328	5.063698	2.250266
6.514695266280161	5.1335363	2.2657309
6.532250451999859	5.145935	2.2684653
6.549805791196454	5.124509	2.263738
6.567361284286002	5.113204	2.2612395
6.584916931684597	5.074419	2.2526472
6.602472733808367	5.0335865	2.2435656
6.6200286910734665	4.9893684	2.2336893
6.637584803896092	4.9696164	2.2292635
6.655141072692462	5.004426	2.2370574
6.672697497878842	5.052991	2.247886
6.690254079871514	5.079408	2.2537541
6.707810819086808	5.1106534	2.2606754
6.725367715941078	5.0923033	2.2566133
6.742924770850719	5.113029	2.261201
6.760481984232151	5.1223392	2.2632585
6.778039356501836	5.1071095	2.2598915
6.795596888076266	5.132631	2.265531
6.813154579371963	5.1077733	2.2600384
6.830712430805492	5.0925207	2.2566614
6.84827044279344	5.1036706	2.2591305
6.865828615752445	5.0698028	2.2516222
6.883386950099159	5.0511484	2.247476
6.900945446250287	5.090741	2.256267
6.918504104622553	5.11884	2.2624855
6.936062925632727	5.156637	2.270823
6.953621909697607	5.1245847	2.2637546
6.971181057234028	5.1365623	2.2663984
6.988740368658859	5.1727357	2.274365
7.006299844389007	5.247543	2.2907517
7.023859484841407	5.299387	2.3020399
7.041419290433036	5.3788743	2.31924
7.058979261580902	5.4369097	2.3317182
7.0765393987020495	5.7112746	2.3898273
7.094099702213559	6.047012	2.4590673
7.111660172532549	6.3725533	2.5243917
7.129220810076164	6.682399	2.5850337
7.146781615261595	7.17984	2.6795223
7.16434258850606	7.4496913	2.7294123
7.181903730226821	7.8924003	2.8093417
7.1994650408411704	7.9724946	2.8235607
7.217026520766437	8.237313	2.870072
7.234588170419983	8.405743	2.8992658
7.252149990219215	8.399357	2.8981645
7.269711980581568	8.315296	2.8836255
7.2872741419245175	8.145516	2.8540351
7.304836474665574	7.812448	2.7950757
7.322398979222286	7.4710765	2.733327
7.339961656012233	7.2493367	2.6924593
7.357524505453039	6.918732	2.6303482
7.375087527962357	6.648243	2.5784187
7.392650723957886	6.306446	2.5112638
7.410214093857353	5.9944344	2.4483533
7.427777638078528	5.7579427	2.3995714
7.445341357039213	5.545434	2.3548746
7.4629052511572525	5.3802514	2.319537
7.480469320850524	5.24667	2.290561
7.498033566536948	5.1792946	2.2758064
7.5155979886344735	5.1944737	2.2791388
7.5331625875610975	5.1726594	2.274348
7.550727363734844	5.1361794	2.266314
7.568292317573788	5.16183	2.271966
7.585857449496025	5.1328006	2.2655685
7.603422759919705	5.1768837	2.2752767
7.620988249263007	5.1743627	2.2747226
7.638553917944147	5.2200074	2.2847335
7.656119766381391	5.1931076	2.278839
7.673685794993023	5.1529236	2.2700052
7.691252004197388	5.1341333	2.2658627
7.70881839441285	5.1101904	2.260573
7.726384966057826	5.2004194	2.2804427
7.743951719550762	5.2063494	2.2817426
7.761518655310149	5.225362	2.2859051
7.779085773754511	5.1712775	2.2740443
7.796653075302419	5.2049055	2.2814262
7.814220560372475	5.286931	2.2993326
7.831788229383323	5.3337517	2.3094916
7.8493560827536495	5.377796	2.3190076
7.866924120902174	5.3543763	2.3139524
7.884492344247663	5.338385	2.3104947
7.9020607532089135	5.3154902	2.3055346
7.919629348204771	5.3106556	2.304486
7.937198129654115	5.374001	2.3181891
7.954767097975865	5.3941703	2.3225353
7.972336253588986	5.427767	2.3297567
7.989905596912472	5.4164696	2.327331
8.007475128365371	5.4206443	2.3282278
8.025044848366756	5.3706846	2.3174736
8.042614757335754	5.491347	2.3433623
8.060184855691523	5.5837483	2.3629956
8.07775514385327	5.7383046	2.3954759
8.095325622240228	5.796806	2.4076557
8.112896291271687	5.7980137	2.4079065
8.130467151366968	5.847102	2.4180782
8.148038202945436	5.842316	2.4170883
8.165609446426497	5.8321733	2.4149892
8.183180882229594	5.9051824	2.430058
8.200752510774217	5.960807	2.4414763
8.218324332479893	6.032937	2.4562037
8.235896347766193	5.956571	2.4406087
8.253468557052724	5.939347	2.4370775
8.27104096075914	5.959047	2.4411159
8.288613559305137	6.125219	2.474918
8.306186353110448	6.1653566	2.4830136
8.32375934259485	6.263582	2.5027149
8.341332528178162	6.1865115	2.4872699
8.358905910280246	6.204222	2.4908276
8.376479489321003	6.2010174	2.4901843
8.394053265720377	6.2973433	2.5094507
8.411627239898356	6.3004827	2.5100763
8.42920141227497	6.3283887	2.5156288
8.44677578327029	6.310503	2.5120714
8.464350353304427	6.2217455	2.4943428
8.48192512279754	6.1480513	2.4795265
8.499500092169827	6.106329	2.4710987
8.51707526184153	6.1282043	2.475521
8.534650632232934	6.155373	2.4810023
8.552226203764365	6.1825466	2.4864726
8.569801976856192	6.172103	2.4843717
8.587377951928834	6.212207	2.49243
8.60495412940274	6.2551107	2.5010219
8.622530509698416	6.3335643	2.5166574
8.6401070932364	6.426705	2.5350947
8.657683880437283	6.552264	2.559739
8.675260871721695	6.7240515	2.5930777
8.692838067510303	6.8986063	2.62652
8.710415468223834	7.025334	2.6505346
8.727993074283043	7.0866966	2.662085
8.745570886108737	7.0595393	2.6569793
8.763148904121765	7.1251655	2.6693006
8.78072712874302	7.175718	2.6787531
8.798305560393441	7.4400115	2.7276385
8.815884199494006	7.634653	2.7630875
8.833463046465745	7.808417	2.7943544
8.851042101729728	7.9051857	2.8116162
8.86862136570707	8.145284	2.8539944
8.886200838818924	8.340473	2.8879879
8.903780521486505	8.424685	2.9025307
8.921360414131055	8.528231	2.9203134
8.938940517173874	8.661649	2.943068
8.956520831036297	8.802704	2.9669352
8.97410135613971	9.072875	3.0121214
8.99168209290554	9.208689	3.0345821
9.009263041755265	9.603178	3.0988996
9.026844203110405	9.896472	3.145866
9.044425577392525	10.084051	3.1755395
9.062007165023239	10.08097	3.1750543
9.079588966424197	10.314315	3.2115908
9.097170982017108	10.45927	3.2340794
9.11475321222372	11.537094	3.3966298
9.132335657465825	12.468298	3.5310478
9.149918318165264	12.561478	3.5442176
9.167501194743924	12.952552	3.5989654
9.18508428762374	12.487419	3.5337543
9.202667597226693	12.467047	3.5308704
9.220251123974803	12.268971	3.5027092
9.237834868290143	12.016884	3.4665377
9.255418830594836	11.830479	3.4395463
9.273003011311046	11.1563225	3.3401082
9.290587410860985	10.892484	3.3003764
9.308172029666911	10.284742	3.2069833
9.32575686815113	10.079546	3.17483
9.343341926735997	8.873642	2.9788659
9.360927205843916	8.557793	2.9253705
9.378512705897327	8.328568	2.885926
9.396098427318728	8.131929	2.8516538
9.413684370530664	8.007287	2.829715
9.431270535955722	7.8717513	2.805664
9.448856924016539	7.822048	2.7967925
9.466443535135806	7.7182508	2.778174
9.484030369736251	7.7048664	2.7757642
9.501617428240658	7.6868076	2.7725093
9.519204711071852	7.7076116	2.7762585
9.536792218652714	7.800227	2.7928886
9.55437995140617	7.8262544	2.7975442
9.571967909755191	7.8023753	2.7932732
9.589556094122802	7.7713256	2.7877097
9.60714450493207	7.833655	2.7988667
9.624733142606116	7.867164	2.8048465
9.642322007568108	7.8762813	2.8064713
9.659911100241267	7.8936896	2.809571
9.677500421048851	7.9291086	2.8158672
9.695089970414175	8.050532	2.837346
9.712679748760609	8.079278	2.842407
9.730269756511557	8.0840025	2.843238
9.747859994090492	8.107556	2.847377
9.765450461920915	8.188306	2.8615215
9.78304116042639	8.196502	2.8629534
9.800632090030527	8.192589	2.8622699
9.81822325115699	8.183734	2.8607225
9.835814644229481	8.220485	2.8671389
9.853406269671762	8.2457905	2.8715484
9.870998127907646	8.318071	2.8841066
9.888590219360985	8.297036	2.8804576
9.906182544455698	8.243947	2.8712275
9.923775103615734	8.180708	2.8601937
9.941367897265108	8.204059	2.8642728
9.958960925827878	8.243681	2.871181
9.97655418972816	8.314722	2.883526
9.994147689390106	8.37713	2.8943272
10.011741425237934	8.390879	2.8967013
10.029335397695904	8.363803	2.892024
10.04692960718833	8.293013	2.879759
10.06452405413958	8.260477	2.8741045
10.082118738974064	8.214544	2.8661027
10.099713662116246	8.185966	2.8611126
10.117308823990651	8.236573	2.8699431
10.134904225021844	8.260657	2.874136
10.152499865634445	8.290674	2.879353
10.170095746253125	8.25659	2.8734283
10.18769186730261	8.208997	2.8651347
10.205288229207675	8.18225	2.8604631
10.222884832393145	8.165125	2.8574684
10.2404816772839	8.137226	2.8525825
10.258078764304868	8.163624	2.8572056
10.275676093881035	8.154421	2.8555946
10.293273666437438	8.156446	2.8559494
10.310871482399158	8.216564	2.866455
10.32846954219134	8.187426	2.8613677
10.346067846239173	8.245414	2.8714828
10.363666394967908	8.1899	2.8618002
10.38126518880283	8.243724	2.8711886
10.398864228169298	8.27015	2.8757868
10.416463513492713	8.320256	2.8844855
10.434063045198531	8.266737	2.8751934
10.451662823712262	8.178668	2.859837
10.469262849459467	8.1351595	2.85222
10.486863122865758	7.9870954	2.826145
10.504463644356806	7.9130206	2.8130093
10.522064414358338	7.788256	2.7907448
10.539665433296118	7.774314	2.7882457
10.557266701595987	7.7859764	2.7903364
10.574868219683818	7.7692666	2.7873404
10.592469987985552	7.7617736	2.785996
10.610072006927185	7.6262937	2.7615745
10.627674276934751	7.4576573	2.7308712
10.64527679843435	7.314837	2.7045956
10.662879571852143	7.270447	2.6963766
10.680482597614331	7.2644587	2.695266
10.698085876147173	7.1690936	2.6775162
10.715689407876988	7.027762	2.6509926
10.733293193230146	6.92086	2.6307528
10.750897232633072	6.843468	2.6160023
10.76850152651225	6.7490473	2.5978928
10.786106075294207	6.615587	2.5720785
10.803710879405534	6.4843793	2.5464444
10.821315939272877	6.352338	2.5203846
10.83892125532294	6.270965	2.5041895
10.856526827982472	6.234882	2.4969745
10.874132657678285	6.2570124	2.5014021
10.891738744837243	6.294409	2.508866
10.909345089886271	6.2488437	2.4997687
10.926951693252343	6.2296686	2.4959304
10.944558555362494	6.1457195	2.4790561
10.96216567664381	6.0495214	2.4595776
10.979773057523436	5.9049807	2.4300165
10.997380698428573	5.832745	2.4151077
11.014988599786477	5.803628	2.409072
11.032596762024461	5.7362356	2.395044
11.050205185569892	5.6863003	2.3845963
11.067813870850198	5.5877557	2.3638434
11.085422818292859	5.523439	2.3501997
11.10303202832541	5.4518347	2.3349164
11.120641501375454	5.397248	2.3231978
11.138251237870636	5.3144765	2.3053148
11.155861238238671	5.2584443	2.29313
11.173471502907317	5.188226	2.277768
11.191082032304402	5.170857	2.2739518
11.208692826857805	5.1720986	2.2742248
11.226303886995465	5.1594353	2.271439
11.243915213145371	5.1266103	2.2642019
11.261526805735578	5.080155	2.2539198
11.279138665194196	4.988259	2.233441
11.296750791949393	4.917879	2.2176292
11.314363186429393	4.898566	2.2132704
11.331975849062479	4.8753657	2.208023
11.34958878027699	4.8520746	2.2027426
11.36720198050133	4.728857	2.1745934
11.384815450163948	4.627921	2.1512604
11.402429189693366	4.541843	2.13116
11.420043199518153	4.5206113	2.126173
11.437657480066942	63.482082	7.9675646
11.455272031768422	85.222115	9.231583
11.472886855051353	107.58139	10.372145
11.490501950344528	99.16969	9.958398
11.508117318076819	84.48032	9.191318
11.52573295867715	45.809	6.7682343
11.543348872574514	4.0567164	2.0141292
11.560965060197946	3.994512	1.9986275
11.57858152197655	4.0399094	2.0099525
11.59619825833949	4.071316	2.0177503
11.613815269715985	4.052925	2.013188
11.631432556535323	38.513298	6.2059083
11.649050119226837	83.04777	9.113055
11.666667958219929	93.446335	9.666764
11.68428607394406	107.714424	10.378556
11.701904466828756	82.48513	9.082132
11.719523137303586	65.34692	8.083744
11.737142085798196	4.5808563	2.1402936
11.754761312742286	3.694308	1.9220582
11.772380818565619	3.6598508	1.9130737
11.790000603698015	3.6304362	1.9053704
11.80762066856935	3.5872452	1.8940024
11.825241013609572	3.5666654	1.8885617
11.842861639248683	3.5174496	1.8754865
11.860482545916748	3.4782367	1.8650031
11.878103734043883	3.422318	1.8499508
11.895725204060282	3.392979	1.8420041
11.91334695639619	3.3864477	1.8402303
11.930968991481919	3.360638	1.8332043
11.948591309747824	3.38057	1.8386326
11.966213911624347	3.3641334	1.8341573
11.98383679754198	3.38592	1.8400869
12.001459967931268	3.3792622	1.838277
12.019083423222835	3.3790216	1.8382115
12.036707163847352	3.3551729	1.8317131
12.05433119023556	3.3214884	1.8224951
12.071955502818259	3.3168366	1.8212185
12.089580102026313	3.2580836	1.8050163
12.107204988290643	3.206306	1.790616
12.12483016204224	3.1853242	1.7847476
12.142455623712152	3.168664	1.7800741
12.16008137373149	3.1452396	1.7734823
12.177707412531431	3.0938888	1.7589453
12.19533374054321	3.081483	1.7554153
12.212960358198126	3.0607514	1.7495004
12.230587265927545	3.0675824	1.7514515
12.248214464162889	3.0313656	1.7410817
12.265841953335649	3.0115051	1.7353688
12.283469733877375	2.9869049	1.7282665
12.301097806219685	3.0128777	1.7357643
12.31872617079425	3.0099325	1.7349157
12.336354828032825	2.9807014	1.7264708
12.353983778367205	2.938676	1.7142568
12.371613022229262	2.8962522	1.7018379
12.389242560050928	2.9152517	1.7074108
12.406872392264201	2.9294674	1.7115687
12.424502519301143	2.9449756	1.7160932
12.442132941593874	2.9221601	1.7094327
12.459763659574586	2.8666718	1.6931249
12.477394673675532	2.8502314	1.6882628
12.49502598432903	2.840616	1.6854128
12.51265759196746	2.8375394	1.6844997
12.530289497023267	2.790278	1.6704125
12.547921699928967	2.7887228	1.6699469
12.565554201117134	2.7875834	1.6696057
12.583187001020404	2.7685726	1.6639028
12.600820100071486	2.7469747	1.6574
12.618453498703152	2.767189	1.663487
12.636087197348235	2.7760506	1.6661484
12.65372119643964	2.8137593	1.6774265
12.671355496410326	2.8383753	1.6847478
12.68899009769333	2.872786	1.6949295
12.706625000721749	2.8721235	1.6947341
12.724260205928752	2.9047914	1.7043449
12.741895713747551	2.949508	1.7174132
12.759531524611454	3.0151582	1.7364211
12.777167638953818	3.023484	1.7388169
12.794804057208072	3.017442	1.7370785
12.812440779807702	3.0308888	1.7409447
12.830077807186271	3.1710107	1.7807332
12.847715139777405	3.2393045	1.7998068
12.865352778014795	3.474511	1.864004
12.882990722332197	3.6704643	1.9158456
12.90062897316344	3.7717593	1.9421017
12.918267530942412	3.8354557	1.958432
12.935906396103071	3.6732771	1.9165795
12.953545569079449	3.8539236	1.9631412
12.971185050305628	3.649236	1.9102974
12.988824840215775	3.6017826	1.8978363
13.006464939244115	3.5897217	1.8946561
13.024105347824943	3.430601	1.8521881
13.041746066392617	3.528861	1.8785263
13.05938709538157	3.314596	1.8206031
13.077028435226296	3.3720844	1.8363236
13.094670086361363	3.3011742	1.8169134
13.112312049221401	3.2367325	1.7990922
13.129954324241112	3.1570866	1.7768192
13.147596911855258	2.9961839	1.7309488
13.165239812498685	2.9827409	1.7270614
13.182883026606293	2.8463054	1.6870997
13.200526554613058	2.7798417	1.6672857
13.218170396954017	2.7673976	1.6635497
13.235814554064284	2.7673087	1.663523
13.253459026379034	2.717179	1.6483868
13.271103814333523	2.6790614	1.6367838
13.288748918363058	2.7032478	1.6441556
13.306394338903031	2.7075016	1.6454488
13.32404007638889	2.688085	1.639538
13.341686131256164	2.693495	1.6411871
13.359332503940449	2.7061074	1.645025
13.376979194877402	2.720493	1.6493918
13.394626204502751	2.7367792	1.6543214
13.412273533252307	2.7484756	1.6578526
13.429921181561937	2.723685	1.650359
13.447569149867581	2.7200923	1.6492702
13.465217438605247	2.709566	1.646076
13.482866048211022	2.7182856	1.6487224
13.500514979121052	2.714669	1.6476252
13.518164231771568	2.6702518	1.6340905
13.535813806598844	2.672342	1.63473
13.553463704039254	2.6728873	1.6348968
13.571113924529229	2.6540344	1.6291207
13.588764468505275	2.6437254	1.6259537
13.606415336403956	2.691386	1.6405444
13.624066528661917	2.7346897	1.6536897
13.641718045715882	2.7983344	1.6728222
13.659369888002635	2.8383574	1.6847426
13.67702205595903	2.9020536	1.7035415
13.694674550021993	2.9851816	1.7277678
13.712327370628532	3.0494218	1.7462593
13.729980518215713	3.0990388	1.7604088
13.747633993220681	3.1424084	1.772684
13.765287796080647	3.1790092	1.7829776
13.7829419272329	3.2685435	1.8079114
13.800596387114801	3.3426714	1.8282974
13.818251176163775	3.3547401	1.831595
13.835906294817324	3.4214156	1.8497069
13.853561743513023	3.426541	1.8510919
13.871217522688525	3.4884233	1.8677322
13.888873632781538	3.5303829	1.8789313
13.906530074229858	3.5429218	1.8822651
13.92418684747135	3.516998	1.8753661
13.941843952943948	3.482427	1.8661262
13.959501391085665	3.4650345	1.8614603
13.977159162334578	3.4093285	1.8464367
13.994817267128846	3.3467028	1.8293996
14.012475705906693	3.271017	1.8085953
14.030134479106424	3.2258692	1.7960705
14.047793587166414	3.1529753	1.775662
14.065453030525108	3.06873	1.7517791
14.083112809621026	2.9647434	1.721843
14.100772924892766	2.904032	1.7041221
14.118433376778997	2.8538716	1.6893406
14.136094165718458	2.778783	1.6669682
14.153755292149969	2.723907	1.6504263
14.171416756512416	2.686138	1.6389441
14.189078559244768	2.6913006	1.6405184
14.20674070078606	2.6112103	1.615924
14.224403181575408	2.5585303	1.5995407
14.242066002051999	2.5004992	1.5812967
14.259729162655093	2.4616408	1.5689617
14.277392663824022	2.4326246	1.5596874
14.295056505998208	2.3919568	1.5465952
14.312720689617128	2.4271147	1.55792
14.330385215120348	2.4535723	1.5663882
14.348050082947497	2.4341254	1.5601684
14.3657152935383	2.3686543	1.5390433
14.383380847332528	2.368661	1.5390455
14.401046744770051	2.405805	1.5510658
14.418712986290798	2.4164197	1.5544838
14.436379572334793	2.37136	1.5399221
14.454046503342123	2.3475318	1.5321658
14.471713779752946	2.3468554	1.531945
14.489381402007504	2.357609	1.5354508
14.507049370546113	2.3322613	1.5271742
14.524717685809168	2.3291955	1.5261703
14.542386348237134	2.3563476	1.5350399
14.560055358270553	2.4299846	1.5588408
14.577724716350051	2.457001	1.5674824
14.595394422916325	2.4607975	1.5686929
14.61306447841015	2.4553306	1.5669495
14.63073488327237	2.4551947	1.5669061
14.648405637943917	2.5128508	1.5851973
14.6660767428658	2.494893	1.5795231
14.683748198479094	2.5230021	1.5883961
14.701420005224954	2.5419755	1.5943574
14.719092163544628	2.6079485	1.6149144
14.73676467387942	2.6574767	1.6301769
14.754437536670727	2.6803353	1.6371729
14.772110752360014	2.686316	1.6389985
14.78978432138882	2.669794	1.6339505
14.807458244198777	2.6431923	1.6257898
14.82513252123159	2.6228683	1.6195272
14.842807152929028	2.6896524	1.640016
14.860482139732962	2.6844366	1.638425
14.87815748208531	2.6729758	1.6349238
14.8958331804281	2.6618526	1.6315185
14.91350923520342	2.6297534	1.6216514
14.931185646853438	2.6547756	1.6293483
14.948862415820408	2.651108	1.6282223
14.966539542546656	2.6854935	1.6387476
14.98421702747459	2.6558678	1.6296834
15.001894871046696	2.686603	1.639086
15.019573073705542	2.6984086	1.6426834
15.037251635893766	2.6671753	1.6331489
15.054930558054092	2.6792552	1.6368431
15.072609840629323	2.7147713	1.6476563
15.090289484062351	2.866312	1.6930186
15.107969488796124	3.2080421	1.7911009
15.125649855273691	3.6501255	1.9105302
15.14333058393817	4.1322246	2.0327873
15.161011675232768	4.975409	2.2305624
15.17869312960076	6.240398	2.4980788
15.196374947485506	8.067337	2.8403058
15.214057129330447	11.091931	3.330455
15.231739675579114	15.881099	3.9851096
15.249422586675102	20.967865	4.579068
15.267105863062092	24.15533	4.9148073
15.284789505183847	24.32532	4.9320703
15.302473513484218	22.218838	4.713686
15.320157888407127	18.687721	4.32293
15.337842630396578	14.655526	3.8282537
15.355527739896656	11.500048	3.391172
15.37321321735153	8.96825	2.9947038
15.39089906320545	6.5160513	2.5526557
15.408585277902748	4.917365	2.2175133
15.42627186188783	3.813316	1.9527714
15.443958815605198	3.2963417	1.815583
15.461646139499424	2.9482005	1.7170324
15.479333834015168	2.7805154	1.6674877
15.497021899597165	2.7124465	1.6469506
15.514710336690234	2.6730177	1.6349366
15.53239914573928	2.6390042	1.6245012
15.550088327189297	2.5966043	1.6113982
15.567777881485336	2.5657732	1.6018032
15.58546780907256	2.5640926	1.6012784
15.6031581103962	2.5510256	1.597193
15.620848785901568	2.5268054	1.5895928
15.638539836034063	2.4789593	1.5744711
15.656231261239173	2.4248576	1.5571954
15.673923061962451	2.3891528	1.5456884
15.691615238649552	2.3942013	1.5473207
15.709307791746202	2.37385	1.5407304
15.727000721698221	2.358003	1.535579
15.744694028951498	2.3866203	1.5448691
15.76238771395202	2.394366	1.5473739
15.780081777145844	2.3938897	1.54722
15.797776218979125	2.356008	1.5349293
15.815471039898094	2.349566	1.5328294
15.833166240349064	2.345819	1.5316067
15.850861820778437	2.352837	1.5338961
15.868557781632699	2.340005	1.5297074
15.886254123358412	2.3760657	1.5414492
15.903950846402232	2.3877451	1.545233
15.921647951210897	2.3698132	1.5394198
15.939345438231225	2.3306549	1.5266483
15.957043307910133	2.3181329	1.5225416
15.974741560694602	2.336032	1.5284083
15.992440197031714	2.3593183	1.5360073
16.01013921736862	2.3811367	1.5430932
16.02783862215259	2.38409	1.5440499
16.045538411830933	2.3763914	1.5415548
16.06323858685107	2.3543139	1.5343773
16.080939147660512	2.3377163	1.5289593
16.09864009470684	2.3657684	1.5381055
16.11634142843774	2.402254	1.5499207
16.134043149300954	2.4360325	1.5607795
16.15174525774433	2.426875	1.5578431
16.169447754215817	2.4178934	1.5549576
16.18715063916342	2.4495707	1.5651104
16.204853913035244	2.4748042	1.573151
16.222557576279478	2.46521	1.5700988
16.240261629344403	22.399332	4.7327933
16.257966072678386	42.94374	6.5531473
16.275670906729868	38.098526	6.1724005
16.293376131947387	2.5184371	1.5869584
16.31108174877957	2.5810127	1.6065531
16.328787757675133	2.5959496	1.6111951
16.34649415908287	2.6331487	1.622698
16.364200953451657	2.631709	1.6222544
16.38190814123048	2.618069	1.6180447
16.39961572286839	2.6223726	1.6193742
16.41732369881455	2.6226416	1.6194571
16.43503206951817	2.6567266	1.6299468
16.45274083542859	2.7450264	1.6568121
16.47044999699522	2.8279939	1.681664
16.488159554667558	2.8765047	1.6960261
16.505869508895184	2.8755596	1.6957475
16.523579860127786	2.908608	1.7054641
16.541290608815117	2.9124641	1.7065943
16.559001755407035	2.9593935	1.7202888
16.57671330035348	2.9915915	1.7296218
16.59442524410448	3.0623531	1.749958
16.61213758711015	3.12463	1.7676623
16.629850329820705	3.2045481	1.7901251
16.647563472686436	3.277552	1.8104011
16.665277016157724	3.3527138	1.8310417
16.682990960685053	3.3509555	1.8305615
16.70070530671898	3.3784924	1.8380675
16.718420054710155	3.4145703	1.8478556
16.736135205109335	3.4883955	1.8677247
16.753850758367335	3.574387	1.890605
16.771566714935087	3.696394	1.9226009
16.789283075263597	3.7908826	1.9470189
16.80699983980398	3.8271616	1.9563133
16.82471700900741	3.8327973	1.9577532
16.84243458332518	3.904104	1.9758805
16.860152563208665	3.9934127	1.9983525
16.87787094910932	4.0751824	2.0187082
16.89558974147871	4.1373544	2.0340488
16.913308940768466	4.20221	2.0499291
16.931028547430333	4.243998	2.0600965
16.94874856191613	4.3095436	2.075944
16.966468984677785	4.396919	2.096883
16.98418981616729	4.416566	2.1015627
17.00191105683676	4.4327717	2.1054149
17.019632707138374	4.444221	2.1081321
17.03735476752442	4.4604855	2.1119862
17.05507723844728	4.4915113	2.1193185
17.072800120359403	4.51366	2.1245375
17.090523413713353	4.551383	2.133397
17.108247118961785	4.621541	2.149777
17.125971236557437	4.640791	2.1542494
17.143695766953133	4.6692777	2.1608512
17.161420710601806	4.680484	2.1634426
17.179146067956477	4.680323	2.1634054
17.19687183947025	4.656266	2.1578383
17.21459802559634	4.6207767	2.149599
17.232324626788028	4.6452346	2.1552806
17.25005164349871	4.62614	2.1508465
17.267779076181863	4.63213	2.1522384
17.285506925291074	4.61116	2.147361
17.30323519127999	4.5867968	2.1416807
17.320963874602384	4.5533204	2.133851
17.33869297571211	4.479754	2.1165428
17.356422495063114	4.4723234	2.1147869
17.37415243310944	4.5109873	2.1239085
17.391882790305218	4.531786	2.1287992
17.40961356710468	4.552459	2.133649
17.42734476396215	4.529863	2.1283474
17.445076381332044	4.493766	2.1198504
17.462808419668868	4.549404	2.1329331
17.48054087942723	4.6725	2.1615968
17.498273761061835	4.996033	2.2351809
17.51600706502747	5.48896	2.3428528
17.533740791779024	6.2042003	2.4908233
17.551474941771485	7.6319957	2.7626066
17.56920951545993	8.720579	2.9530628
17.586944513299528	10.852305	3.2942839
17.60467993574556	12.452013	3.528741
17.622415783253373	14.207929	3.7693405
17.64015205627843	15.656556	3.9568367
17.657888755276293	16.787487	4.097254
17.675625880702604	17.304646	4.1598854
17.69336343301311	17.17535	4.1443152
17.71110141266366	16.374094	4.0464916
17.728839820110178	15.362368	3.9194856
17.746578655808705	14.294114	3.7807558
17.764317920215372	12.70316	3.5641494
17.7820576137864	11.2002325	3.346675
17.79979773697811	9.247815	3.041022
17.81753829024692	7.425854	2.725042
17.835279274049356	5.795063	2.4072938
17.85302068884201	4.79061	2.1887462
17.870762535081607	4.1553454	2.0384665
17.888504813224934	3.8571668	1.9639671
17.90624752372891	3.6870193	1.9201612
17.923990667050536	3.5972452	1.8966405
17.941734243646895	3.505729	1.8723592
17.959478253975185	3.4519742	1.8579489
17.9772226984927	3.4369485	1.8539009
17.994967577656833	3.4055648	1.8454173
18.01271289192506	3.3638785	1.834088
18.030458641754965	3.382664	1.839202
18.04820482760425	3.426084	1.8509684
18.06595144993067	3.4030905	1.8447467
18.083698509192125	3.319483	1.8219448
18.101446005846576	3.2617188	1.8060229
18.119193940352105	3.2548544	1.8041215
18.136942313166887	3.240575	1.8001597
18.1546911247492	3.1816394	1.783715
18.1724403755574	3.1647952	1.7789872
18.19019006604997	3.1673198	1.7796966
18.207940196685467	3.1664505	1.7794523
18.225690767922575	3.1249888	1.7677637
18.243441780220046	3.08585	1.7566588
18.261193234036764	3.0621188	1.749891
18.278945129831676	3.0684497	1.7516991
18.29669746806386	3.0731008	1.7530261
18.314450249192483	3.1006448	1.7608649
18.3322034736768	3.0622942	1.7499412
18.349957141976184	3.0271251	1.7398635
18.3677112545501	2.9982944	1.7315583
18.385465811858108	3.063804	1.7503725
18.403220814359884	3.0690298	1.7518647
18.420976262515172	3.0626092	1.7500312
18.43873215678387	3.067473	1.7514203
18.456488497625923	3.1205676	1.7665129
18.474245285501407	3.2451665	1.8014346
18.492002520870486	3.3069973	1.8185152
18.50976020419343	3.3459473	1.8291931
18.527518335930615	3.5942636	1.8958544
18.545276916542516	4.1640625	2.0406034
18.563035946489688	4.342286	2.0838153
18.580795426232832	4.783787	2.187187
18.598555356232698	4.7302804	2.1749208
18.616315736950185	5.131299	2.265237
18.63407656884626	4.8173885	2.194855
18.65183785238201	4.9451585	2.2237713
18.669599588018617	4.5964737	2.1439388
18.68736177621737	4.5985837	2.1444309
18.705124417439652	4.644291	2.1550617
18.72288751214696	4.457128	2.111191
18.740651060800886	4.597257	2.1441216
18.758415063863115	4.333783	2.081774
18.77617952179546	4.5044193	2.1223617
18.793944435059814	4.247116	2.0608532
18.811709804118184	4.271574	2.0667787
18.829475629432675	4.2645607	2.0650814
18.8472419114655	4.1085067	2.026945
18.86500865067897	4.200495	2.049511
18.88277584753551	3.8239493	1.9554921
18.90054350249763	3.7759829	1.9431888
18.918311616027957	3.4486656	1.8570583
18.936080188589226	3.369401	1.8355929
18.953849220644265	3.0583174	1.7488046
18.971618712656007	2.8721752	1.6947494
18.9893886650875	2.802424	1.6740441
19.007159078401887	7.9929	2.8271718
19.024929953062408	32.890877	5.735057
19.042701289532435	32.861496	5.732495
19.060473088275405	25.41219	5.0410504
19.07824534975489	2.665396	1.632604
19.096018074434568	2.6015568	1.6129342
19.113791262778197	2.5641453	1.6012949
19.13156491524966	2.5729373	1.6040378
19.149339032312945	2.5852594	1.6078742
19.167113614432136	2.5470903	1.5959606
19.184888662071433	2.5155137	1.586037
19.202664175695123	2.513876	1.5855207
19.220440155767623	2.5029895	1.582084
19.238216602753447	2.4965234	1.580039
19.2559935171172	2.495109	1.5795914
19.27377089932361	2.49724	1.5802659
19.291548749837514	2.468331	1.5710924
19.309327069123835	2.488194	1.577401
19.32710585764763	2.5171926	1.5865663
19.344885115874032	2.5430748	1.5947021
19.362664844268313	2.530404	1.5907243
19.380445043295822	2.526736	1.589571
19.39822571342203	2.521289	1.5878568
19.41600685511252	2.4819825	1.5754309
19.43378846883297	2.4421387	1.5627344
19.451570555049173	2.4443097	1.5634289
19.469353114227037	2.4622445	1.569154
19.48713614683254	2.501696	1.581675
19.50491965333182	2.536189	1.5925417
19.52270363419109	2.5191183	1.5871731
19.540488089876686	2.4541106	1.5665601
19.55827302085503	2.4668362	1.5706165
19.576058427592674	2.472593	1.5724481
19.593844310556282	2.4819129	1.5754088
19.611630670212598	2.4600909	1.5684677
19.629417507028506	2.4570363	1.5674937
19.64720482147098	2.4907746	1.5782188
19.6649926140071	2.501562	1.5816327
19.682780885104084	2.4981508	1.580554
19.70056963522921	2.4797173	1.5747118
19.718358864849908	2.4937763	1.5791695
19.7361485744337	2.4936664	1.5791347
19.753938764448215	2.481405	1.5752476
19.771729435361202	2.4910312	1.5783001
19.789520587640506	2.503338	1.5821941
19.807312221754092	2.5168247	1.5864503
19.825104338170043	2.5239646	1.588699
19.842896937356517	2.5218139	1.588022
19.860690019781824	2.5236273	1.5885929
19.87848358591436	2.5270267	1.5896624
19.896277636222635	2.5029461	1.5820702
19.914072171175278	2.4884872	1.577494
19.931867191241015	2.4894795	1.5778085
19.94966269688869	2.5135248	1.58541
19.967458688587264	2.5019772	1.581764
19.985255166805807	2.4583838	1.5679234
20.00305213201348	2.4238577	1.5568743
20.020849584679578	2.429562	1.5587052
20.038647525273507	2.437259	1.5611722
20.05644595426477	2.4509	1.5655351
20.07424487212299	2.454501	1.5666847
20.092044279317903	2.4400167	1.5620553
20.109844176319353	2.4209645	1.5559449
20.127644563597304	2.429971	1.5588365
20.145445441621817	2.4213827	1.5560793
20.16324681086307	2.4054177	1.5509409
20.181048671791373	2.3901708	1.5460178
20.198851024877122	2.403527	1.5503312
20.216653870590836	2.418386	1.555116
20.234457209403146	2.398079	1.5485731
20.252261041784802	2.4062681	1.551215
20.270065368206662	2.4150324	1.5540375
20.287870189139685	2.4083354	1.5518813
20.305675505054968	2.399325	1.5489755
20.323481316423702	2.373311	1.5405555
20.341287623717207	2.3674839	1.538663
20.359094427406884	2.3670962	1.538537
20.376901727964288	2.3213325	1.523592
20.39470952586107	2.3075643	1.5190669
20.41251782156899	2.3192024	1.5228928
20.430326615559935	2.346789	1.5319233
20.448135908305886	2.3869617	1.5449796
20.465945700278965	2.384091	1.5440502
20.483755991951384	2.3794246	1.5425384
20.50156678379548	2.3738866	1.5407423
20.519378076283708	2.3691576	1.5392067
20.537189869888635	2.3435087	1.5308523
20.55500216508294	2.3343742	1.5278659
20.572814962339415	2.3361328	1.5284413
20.59062826213098	2.3666008	1.538376
20.60844206493066	2.3878171	1.5452564
20.626256371211593	2.363296	1.5373015
20.644071181447032	2.3521268	1.5336645
20.66188649611036	2.3439286	1.5309894
20.67970231567506	2.3558984	1.5348936
20.697518640614742	2.346831	1.531937
20.715335471403122	2.3060553	1.5185702
20.73315280851404	2.2843075	1.5113926
20.750970652421447	2.270407	1.506787
20.768789003599412	2.2944655	1.5147493
20.786607862522136	2.3069274	1.5188572
20.8044272296639	2.2713077	1.5070858
20.82224710549913	2.280234	1.5100445
20.84006749050237	2.2874682	1.5124378
20.857888385148268	3.8662522	1.9662788
20.8757097899116	45.932148	6.777326
20.893531705267254	64.76397	8.047606
20.911354131690224	83.77543	9.152892
20.92917706965566	69.047935	8.309508
20.94700051963877	50.088734	7.0773396
20.96482448211493	29.38194	5.4205112
20.982648957559622	4.088891	2.0221007
21.00047394644843	2.2262816	1.4920729
21.01829944925707	2.242029	1.4973407
21.036125466461375	2.2591822	1.5030576
21.053951998537297	2.2510726	1.5003575
21.071779045960906	2.241276	1.4970891
21.089606609208378	2.2231693	1.4910296
21.10743468875603	2.2307477	1.4935688
21.12526328508028	2.239956	1.4966482
21.143092398657675	2.2481449	1.4993815
21.16092202996488	2.2684495	1.5061373
21.17875217947867	2.2405844	1.4968581
21.19658284767596	2.1886053	1.4793936
21.21441403503377	2.151303	1.4667321
21.232245742029225	2.1717587	1.4736888
21.2500779691396	2.2108493	1.4868925
21.26791071684227	2.180411	1.4766215
21.28574398561475	2.2015567	1.4837644
21.30357777593465	2.2093058	1.4863733
21.321412088279704	2.1943188	1.4813234
21.339246923127792	2.1629875	1.4707098
21.357082280956888	2.1677864	1.4723405
21.3749181622451	2.1748722	1.4747448
21.392754567470647	2.1926486	1.4807595
21.41059149711187	2.2001913	1.4833041
21.42842895164726	2.1706023	1.4732964
21.446266931555378	2.1712961	1.4735318
21.464105437314945	2.1550627	1.4680132
21.481944469404798	2.1450818	1.4646097
21.49978402830388	2.1298635	1.4594052
21.51762411449127	2.119662	1.4559059
21.53546472844617	2.137309	1.4619539
21.553305870647876	2.1266425	1.4583012
21.571147541575865	2.0994701	1.4489548
21.58898974170967	2.0772214	1.4412569
21.60683247152899	2.0829291	1.4432356
21.62467573151363	2.0520687	1.4325043
21.642519522143523	2.0109456	1.4180781
21.660363843898722	2.0393703	1.4280652
21.6782086972594	2.0934718	1.4468834
21.696054082705864	2.0862408	1.4443824
21.713900000718535	2.050844	1.4320768
21.73174645177795	2.0260408	1.4233906
21.749593436364794	2.0316062	1.4253442
21.767440954959845	2.0229533	1.4223056
21.785289008044032	2.0168834	1.4201702
21.803137596098388	1.982883	1.4081488
21.820986719604086	2.0001655	1.4142721
21.838836379042412	2.0129194	1.4187739
21.85668657489478	2.0274804	1.4238962
21.87453730764273	2.0236266	1.4225423
21.892388577767914	2.0299346	1.4247577
21.91024038575213	2.020957	1.4216037
21.928092732077285	1.9988052	1.4137911
21.945945617225426	1.9958957	1.4127617
21.963799041678694	1.9986459	1.4137348
21.981653005919398	31.30304	5.594912
21.999507510429943	78.0877	8.836724
22.01736255569286	73.04845	8.546839
22.035218142190818	4.1608787	2.0398233
22.05307427040661	2.018051	1.4205812
22.07093094082315	2.0028741	1.4152293
22.088788153923474	1.9772917	1.406162
22.106645910190746	1.9395938	1.392693
22.12450421010827	1.9351345	1.3910911
22.142363054159464	1.9593536	1.3997691
22.16022244282787	1.9861845	1.4093206
22.178082376597164	2.0012693	1.4146622
22.195942855951145	1.9629729	1.4010613
22.213803881373742	1.9448472	1.3945777
22.231665453349002	1.9560858	1.3986014
22.24952757236111	1.968678	1.4030958
22.26739023889438	1.96593	1.4021163
22.28525345343323	1.9170673	1.384582
22.30311721646225	1.8961058	1.3769915
22.320981528466113	1.914239	1.3835603
22.33884638992964	1.9298294	1.3891829
22.356711801337788	1.9380201	1.3921279
22.37457776317561	1.9357531	1.3913134
22.392444275928337	1.9647738	1.4017038
22.410311340081282	1.9716166	1.4041426
22.428178956119904	1.959385	1.3997804
22.446047124529805	1.9390409	1.3924944
22.46391584579669	1.9177468	1.3848274
22.481785120406414	1.8910576	1.3751574
22.49965494884496	1.9357164	1.3913002
22.51752533159841	1.9992617	1.4139525
22.53539626915302	2.00994	1.4177235
22.553267761995137	1.9737594	1.4049054
22.571139810611264	1.9484214	1.3958586
22.589012415488025	1.9617734	1.4006332
22.60688557711216	1.9879975	1.4099636
22.624759295970566	1.9872745	1.4097073
22.642633572550263	1.969892	1.4035285
22.660508407338362	1.958302	1.3993934
22.67838380082217	1.9658284	1.40208
22.696259753489077	1.9671408	1.402548
22.714136265826614	1.9518895	1.3971004
22.73201333832246	1.9779563	1.4063983
22.74989097146439	1.9859086	1.4092227
22.76776916574035	1.9942616	1.4121833
22.785647921638393	1.9702772	1.4036657
22.803527239646712	1.9683309	1.4029721
22.82140712025363	1.9587919	1.3995684
22.839287563947593	1.921272	1.3860996
22.85716857121719	1.8855633	1.3731581
22.875050142551135	1.8751888	1.3693753
22.892932278438277	1.9005914	1.3786193
22.910814979367604	1.916882	1.384515
22.928698245828222	1.8765217	1.369862
22.946582078309387	1.8412458	1.3569251
22.96446647730047	1.8389337	1.3560729
22.98235144329098	1.8333788	1.3540232
23.000236976770562	1.8523097	1.3609959
23.018123078229	1.880359	1.3712618
23.03600974815619	1.9031383	1.3795428
23.053896987042194	1.9375434	1.3919567
23.071784795377173	1.8973968	1.3774602
23.08967317365145	1.9017514	1.37904
23.10756212235546	1.9037399	1.3797609
23.125451641979787	1.9288228	1.3888206
23.143341733015134	1.9180627	1.3849415
23.161232395952357	1.8945571	1.3764291
23.179123631282426	1.9119415	1.3827298
23.197015439496468	1.952998	1.397497
23.214907821085717	2.0017684	1.4148387
23.23280077654157	1.9932415	1.4118221
23.250694306355538	1.9616265	1.4005808
23.268588411019277	1.9503542	1.3965508
23.28648309102458	1.972724	1.404537
23.304378346863356	1.9847667	1.4088175
23.322274179027676	2.0256133	1.4232404
23.340170588009723	1.9928735	1.4116918
23.358067574301852	1.9727467	1.4045451
23.37596513839651	1.9396882	1.3927269
23.39386328078629	1.9498037	1.3963537
23.411762001963947	1.9547061	1.398108
23.429661302422353	1.9422792	1.3936567
23.4475611826545	1.9228303	1.3866615
23.46546164315356	1.9321208	1.3900075
23.48336268441279	1.9661448	1.4021928
23.501264306925638	1.933419	1.3904743
23.51916651118564	1.8943837	1.3763661
23.537069297686497	1.8750343	1.369319
23.554972666922037	1.9369323	1.3917371
23.57287661938623	1.9464225	1.3951424
23.59078115557318	1.9387896	1.3924042
23.608686275977128	1.8893144	1.3745233
23.62659198109246	1.8860312	1.3733284
23.6444982714137	1.9007382	1.3786726
23.66240514743549	1.9540744	1.3978821
23.68031260965263	1.9460092	1.3949944
23.698220658560068	1.9141486	1.3835276
23.716129294652845	1.8813226	1.3716131
23.7340385184262	1.8747714	1.3692229
23.75194833037546	1.8944985	1.3764079
23.769858730996123	1.931096	1.3896388
23.78776972078382	1.9152443	1.3839235
23.80568130023431	1.8718361	1.3681506
23.823593469843495	1.8751508	1.3693614
23.841506230107424	1.8703047	1.3675908
23.859419581522275	1.8808342	1.371435
23.87733352458438	1.8760669	1.3696959
23.89524805979019	1.8904212	1.3749259
23.913163187636318	1.8676572	1.3666226
23.931078908619508	1.8850517	1.3729719
23.948995223236633	1.9301833	1.3893104
23.966912131984735	1.9526321	1.3973662
23.98482963536096	1.9494063	1.3962114
24.002747733862616	1.9389427	1.3924593
24.020666427987155	2.004179	1.4156903
24.038585718232156	2.061822	1.4359046
24.056505605095353	2.0739923	1.4401362
24.074426089074617	2.0516918	1.4323728
24.092347170667946	1.9994968	1.4140357
24.110268850373515	2.009723	1.417647
24.128191128689586	1.984878	1.408857
24.146114006114626	2.0203164	1.4213784
24.164037483147187	2.0554957	1.4337
24.181961560286005	2.0878537	1.4449407
24.199886238029926	2.0567589	1.4341404
24.21781151687797	2.0636525	1.4365419
24.235737397329274	2.0932267	1.4467988
24.253663879883135	2.103524	1.450353
24.271590965038975	2.0627687	1.4362342
24.289518653296376	2.0784335	1.4416773
24.30744694515505	2.0579603	1.4345592
24.32537584111486	2.0262532	1.4234653
24.34330534167581	1.9838752	1.408501
24.361235447338046	2.0133257	1.4189171
24.379166158601876	2.012335	1.418568
24.39709747596772	1.9983397	1.4136264
24.41502939993615	2.0210793	1.4216467
24.432961931007917	2.0538924	1.4331408
24.450895069683856	2.067412	1.4378498
24.468828816465	2.004394	1.4157662
24.4867631718525	1.952084	1.39717
24.504698136347656	1.9500794	1.3964524
24.52263371045192	1.9605967	1.4002131
24.540569894666874	1.9817404	1.407743
24.558506689494266	1.9329399	1.3903021
24.57644409543597	1.925866	1.3877558
24.594382112994012	1.9192657	1.3853756
24.61232074267057	1.9265925	1.3880174
24.630259984967953	1.9774228	1.4062086
24.64819984038863	2.0012062	1.41464
24.66614030943522	2.0065734	1.4165357
24.684081392610462	1.9656428	1.4020139
24.702023090417274	1.9650451	1.4018006
24.7199654033587	2.0102303	1.4178259
24.737908331937927	2.0430834	1.4293647
24.755851876658305	2.067959	1.43804
24.773796038023324	2.096863	1.4480549
24.79174081653661	2.0952513	1.4474983
24.809686212701962	2.0705647	1.4389457
24.827632227023294	2.0631692	1.4363736
24.8455788600047	2.0904045	1.4458231
24.8635261121504	2.0992599	1.4488822
24.88147398396475	2.0939991	1.4470657
24.899422475952303	2.1042235	1.4505942
24.917371588617698	2.0946405	1.4472873
24.935321322465768	2.1132689	1.4537086
24.953271678001478	2.2156734	1.4885138
24.97122265572994	2.47181	1.5721991
24.989174256156414	2.7806184	1.6675186
25.00712647978632	3.2194643	1.7942866
25.02507932712521	3.756373	1.9381365
25.043032798678798	4.311709	2.0764656
25.060986894952933	5.046398	2.246419
25.078941616453637	5.838201	2.4162369
25.096896963687055	6.7803683	2.603914
25.114852937159508	7.797889	2.79247
25.132809537377444	8.306451	2.8820913
25.150766764847468	8.358599	2.891124
25.168724620076347	7.750555	2.7839818
25.186683103570985	6.6273556	2.5743651
25.204642215838426	5.422873	2.3287063
25.222601957385894	4.1503663	2.0372448
25.24056232872074	3.159691	1.777552
25.25852333035048	2.5764802	1.6051418
25.276484962782778	2.1934679	1.4810361
25.294447226525435	1.9824089	1.4079804
25.312410122086423	1.8967395	1.3772217
25.330373649973843	1.8934972	1.376044
25.348337810695988	1.9041166	1.3798974
25.366302604761245	1.9344845	1.3908575
25.384268032678207	1.9362229	1.3914822
25.40223409495558	1.953898	1.397819
25.420200792102257	1.923808	1.387014
25.438168124627246	1.939029	1.3924901
25.45613609303974	1.9088882	1.3816252
25.474104697849057	1.9310951	1.3896385
25.492073939564698	1.906576	1.3807882
25.510043818696285	1.9092586	1.3817593
25.528014335753614	1.9068906	1.380902
25.54598549124664	1.9123636	1.3828824
25.56395728568544	1.8802131	1.3712087
25.58192971958028	1.8508207	1.3604487
25.59990279344156	1.8622233	1.364633
25.617876507779833	1.8778216	1.3703363
25.635850863105826	1.9041026	1.3798922
25.653825859930386	1.9092761	1.3817656
25.671801498764548	1.9350524	1.3910617
25.68977778011949	1.8858222	1.3732524
25.707754704506524	1.8483853	1.3595533
25.725732272437153	1.8496131	1.3600048
25.743710484423012	1.9156991	1.3840878
25.761689340975888	1.8975252	1.3775069
25.77966884260774	1.8891519	1.3744643
25.797648989830662	1.8821398	1.371911
25.815629783156922	1.8812528	1.3715876
25.83361122309895	1.8440497	1.357958
25.85159331016929	1.8147253	1.3471174
25.869576044880695	1.8413001	1.3569452
25.887559427746034	1.8568304	1.3626556
25.90554345927836	1.8634026	1.3650651
25.92352813999086	1.8516121	1.3607396
25.94151347039689	1.7990272	1.3412782
25.959499451009965	1.8024343	1.3425477
25.97748608234374	1.8374032	1.3555084
25.995473364912062	1.89743	1.3774723
26.013461299228904	1.8668668	1.3663334
26.03144988580839	1.8489109	1.3597467
26.04943912516483	1.8339784	1.3542446
26.067429017812675	1.8731657	1.3686365
26.085419564266537	1.8709229	1.3678168
26.103410765041186	1.8429959	1.3575698
26.12140262065155	1.776956	1.3330251
26.139395131612723	1.7663398	1.3290372
26.157388298439948	1.8008608	1.3419615
26.17538212164861	1.8532188	1.3613298
26.193376601754295	1.8385556	1.3559334
26.211371739272714	1.8335309	1.3540794
26.229367534719746	1.820071	1.3491001
26.247363988611433	1.8116775	1.3459857
26.26536110146397	1.8111815	1.3458015
26.283358873793727	1.826158	1.3513541
26.301357306117204	1.8396921	1.3563524
26.319356398951104	1.8384597	1.3558981
26.33735615281224	1.8200967	1.3491096
26.35535656821762	1.7771329	1.3330915
26.373357645684404	1.7185092	1.3109192
26.39135938572991	1.7394747	1.3188914
26.409361788871614	1.7480062	1.3221219
26.427364855627165	1.7773993	1.3331914
26.445368586514352	1.818265	1.3484305
26.46337298205115	1.8458314	1.3586137
26.48137804275568	1.8306221	1.3530048
26.499383769146217	1.7867925	1.3367096
26.517390161741215	1.774356	1.3320496
26.53539722105928	1.8030591	1.3427804
26.553404947619182	1.8294611	1.3525758
26.571413341939856	1.8530551	1.3612697
26.589422404540397	1.8600113	1.3638223
26.60743213594006	1.8464551	1.3588433
26.62544253665827	1.8401958	1.3565382
26.64345360721459	1.8755805	1.3695184
26.66146534812879	1.8448849	1.3582654
26.679477759920758	1.7864943	1.336598
26.69749084311057	1.7301714	1.3153598
26.71550459821847	1.752272	1.3237342
26.733519025764842	1.7700487	1.3304318
26.751534126270258	1.7760087	1.3326697
26.769549900255434	1.7667295	1.3291838
26.787566348241267	1.7783858	1.3335613
26.80558347074881	1.8010662	1.342038
26.823601268299267	1.7888833	1.3374914
26.841619741414036	1.778236	1.3335052
26.85963889061465	1.8073822	1.3443892
26.877658716422832	1.7733374	1.3316672
26.89567921936045	1.7651861	1.328603
26.913700399949544	1.738557	1.3185436
26.93172225871233	1.7258042	1.3136986
26.949744796171174	1.7075453	1.3067307
26.967768012848605	1.7249641	1.3133789
26.98579190926733	1.7608112	1.3269557
27.003816485950225	1.7698861	1.3303707
27.021841743420318	1.829813	1.3527058
27.039867682200814	1.8399308	1.3564404
27.057894302815072	1.7971869	1.340592
27.07592160578664	1.7978432	1.3408368
27.0939495916392	1.821201	1.3495188
27.111978260896635	1.8525568	1.3610866
27.13000761408296	1.867934	1.3667238
27.148037651722397	1.8463242	1.3587952
27.166068374339304	1.8197829	1.3489933
27.184099782458215	1.7642399	1.328247
27.20213187660384	1.7830623	1.3353136
27.22016465730105	1.8204782	1.349251
27.23819812507487	1.7818155	1.3348466
27.256232280450533	1.747199	1.3218166
27.274267123953383	1.7540429	1.3244028
27.292302656108987	1.7423683	1.319988
27.31033887744306	1.7318988	1.3160162
27.32837578848146	1.7286944	1.3147982
27.34641338975026	1.7493092	1.3226146
27.364451681775673	1.7453364	1.3211118
27.382490665084074	1.7463312	1.3214883
27.400530340202046	1.726165	1.313836
27.41857070765629	1.7392648	1.3188119
27.436611767973726	1.7617087	1.3272938
27.454653521681404	1.7557074	1.325031
27.472695969306564	1.7334695	1.3166128
27.490739111376627	1.7504636	1.3230509
27.508782948419153	1.8261982	1.351369
27.526827480961902	1.8397917	1.3563892
27.54487270953279	1.8044856	1.3433114
27.562918634659898	1.7818154	1.3348466
27.580965256871508	1.767403	1.3294371
27.599012576696026	1.7553936	1.3249127
27.617060594662068	1.8156524	1.3474615
27.63510931129842	1.8677169	1.3666444
27.65315872713401	1.8460338	1.3586882
27.67120884269797	1.787074	1.3368149
27.68925965851958	1.829362	1.3525391
27.707311175128307	1.8905108	1.3749585
27.725363393053787	1.889107	1.374448
27.74341631282583	1.9067843	1.3808635
27.7614699349744	1.8968451	1.37726
27.77952426002968	2.1346595	1.4610474
27.797579288521973	2.2164268	1.4887669
27.815635020981784	2.5792975	1.6060191
27.83369145793979	2.6149337	1.6170757
27.85174859992682	2.4877114	1.5772481
27.869806447473923	2.3247604	1.5247165
27.887865001112267	1.9707592	1.4038373
27.905924261373233	1.8842896	1.3726943
27.92398422878836	1.9029309	1.3794676
27.94204490388936	1.8420483	1.3572208
27.96010628720813	1.7977023	1.3407842
27.978168379276728	1.7819062	1.3348806
27.9962311806274	1.8113697	1.3458713
28.014294691792568	1.8322513	1.3536068
28.0323589133048	1.8740441	1.3689573
28.050423845696887	1.8838543	1.3725357
28.068489489501758	1.8551551	1.3620408
28.086555845252523	1.8172511	1.3480545
28.104622913482487	1.8332784	1.3539861
28.122690694725115	1.8803968	1.3712757
28.14075918951405	1.9277899	1.3884487
28.15882839838312	1.9304972	1.3894234
28.176898321866304	1.9008693	1.3787202
28.1949689604978	1.8666234	1.3662443
28.213040314811945	1.8467083	1.3589364
28.23111238534327	1.8925966	1.3757168
28.249185172626493	1.8929996	1.3758632
28.267258677196473	1.8952818	1.3766923
28.285332899588294	1.9467016	1.3952425
28.303407840337172	1.9714313	1.4040767
28.321483499978545	1.9216783	1.3862461
28.33955987904799	1.8528522	1.3611951
28.357636978081285	1.8366815	1.3552423
28.37571479761439	1.8532953	1.3613579
28.393793338183425	1.8952025	1.3766636
28.41187260032469	1.9241301	1.3871301
28.429952584574686	1.9139425	1.3834531
28.448033291470065	1.9232316	1.3868062
28.46611472154769	1.9238158	1.3870169
28.484196875344566	1.9512311	1.3968648
28.502279753397914	1.9570014	1.3989286
28.52036335624511	1.9171064	1.3845961
28.538447684423716	1.9163218	1.3843127
28.556532738471482	1.8934524	1.3760278
28.574618518926325	1.8683957	1.3668927
28.59270502632635	1.9288383	1.3888263
28.61079226120985	2.0159154	1.4198294
28.628880224115274	2.0538478	1.4331251
28.646968915581287	2.0631497	1.4363668
28.66505833614671	2.023407	1.4224651
28.68314848635055	2.0103781	1.417878
28.701239366732004	2.0338356	1.4261261
28.71933097783044	2.03844	1.4277395
28.737423320185403	2.0888345	1.4452801
28.75551639433665	2.1023443	1.4499463
28.773610200824074	2.0472043	1.4308054
28.791704740187793	2.0930002	1.4467205
28.80980001296809	2.1452315	1.4646609
28.827896019705413	2.1988728	1.4828597
28.845992760940433	2.196166	1.4819467
28.86409023721397	2.174592	1.4746498
28.88218844906704	2.179595	1.4763452
28.900287397040845	2.1558201	1.4682711
28.918387081676755	2.1535363	1.4674932
28.936487503516343	2.2277253	1.4925566
28.954588663101365	2.2788477	1.5095853
28.97269056097374	2.3162122	1.5219107
28.990793197675597	2.3523788	1.5337467
29.00889657374923	2.3760831	1.5414549
29.027000689737125	2.341236	1.5301099
29.04510554618196	2.3527315	1.5338616
29.06321114362659	2.3441544	1.5310632
29.08131748261405	2.3384933	1.5292133
29.099424563687567	2.3848941	1.5443102
29.11753238739057	2.41149	1.5528973
29.13564095426663	2.4775164	1.5740129
29.15375026485954	2.5755002	1.6048365
29.171860319713275	2.6186528	1.6182252
29.18997111937199	2.654498	1.629263
29.20808266438002	2.745355	1.6569113
29.226194955281898	2.7871418	1.6694735
29.244307992622335	2.820248	1.6793593
29.26242177694624	2.8338966	1.6834182
29.2805363087987	2.8192363	1.6790582
29.29865158872498	2.8210118	1.6795868
29.316767617270557	2.86812	1.6935525
29.334884394981064	2.9212794	1.7091751
29.353001922402367	2.9864058	1.7281221
29.37112020008047	3.099894	1.7606516
29.389239228561596	3.249867	1.8027388
29.407359008392152	3.412566	1.8473132
29.42547954011872	3.709396	1.9259793
29.44360082428809	4.329	2.0806248
29.46172286144722	5.4364924	2.3316288
29.479845652143283	6.9111876	2.6289139
29.497969196923606	8.722212	2.953339
29.516093496335728	11.155599	3.34
29.5342185509274	13.889065	3.7268035
29.55234436124651	16.381798	4.0474434
29.570470927841175	17.915333	4.2326508
29.588598251259686	17.857409	4.225803
29.60672633205055	16.719477	4.088946
29.624855170762405	14.579343	3.8182905
29.642984767944146	11.707115	3.4215662
29.66111512414481	9.013078	3.002179
29.67924623991366	6.683535	2.5852535
29.697378115800138	5.1793823	2.2758257
29.71551075235387	4.304701	2.0747774
29.733644150124675	3.833078	1.9578248
29.751778309662576	3.5276923	1.8782152
29.769913231517766	3.392708	1.8419305
29.78804891624066	3.3122425	1.8199568
29.806185364381818	3.2655497	1.8070832
29.82432257649206	3.2601402	1.8055859
29.842460553122333	3.2689126	1.8080134
29.86059929482382	3.2892091	1.8136177
29.878738802147872	3.2761467	1.8100129
29.896879075646048	3.2593932	1.8053789
29.915020115870114	3.260506	1.8056871
29.933161923371976	3.2372923	1.7992477
29.951304498703777	3.2350073	1.7986126
29.969447842417857	3.2150104	1.793045
29.987591955066733	3.2417357	1.800482
30.005736837203123	3.1833532	1.7841954
30.023882489379943	3.2022622	1.7894865
30.04202891215028	3.2206247	1.7946099
30.060176106067455	3.187069	1.7852364
30.078324071684946	3.190063	1.7860748
30.09647280955646	3.135549	1.7707481
30.114622320235863	3.0953348	1.7593564
30.132772604277257	3.0441144	1.744739
30.1509236622349	3.058978	1.7489934
30.16907549466328	3.0695856	1.7520232
30.18722810211705	3.0749917	1.7535654
30.205381485151097	3.040042	1.7435716
30.22353564432045	2.9871225	1.7283294
30.241690580180403	2.963272	1.7214158
30.25984629328638	2.9433424	1.7156172
30.278002784194037	2.9215345	1.7092497
30.296160053459246	2.9589057	1.720147
30.314318101638033	2.9763153	1.7252
30.332476929286646	2.9431827	1.7155707
30.35063653696153	2.9237044	1.7098843
30.368796925219307	2.9324017	1.7124257
30.386958094616844	2.8760178	1.6958826
30.40512004571115	2.8449612	1.6867013
30.423282779059463	2.8143487	1.677602
30.441446295219233	2.814603	1.6776779
30.459610594748067	2.8536913	1.6892872
30.47777567820382	2.8190784	1.6790111
30.495941546144504	2.8262506	1.6811455
30.51410819912835	2.8443456	1.6865188
30.532275637713795	2.7996244	1.6732079
30.55044386245946	2.8159027	1.6780652
30.56861287392416	2.8802059	1.697117
30.586782672666956	2.8206308	1.6794734
30.604953259247047	2.765379	1.6629429
30.623124634223885	2.8499138	1.6881688
30.641296798157075	2.8755486	1.6957443
30.659469751606462	2.806849	1.6753653
30.677643495132074	2.738983	1.6549873
30.695818029294152	2.6746502	1.6354358
30.713993354653116	2.7239575	1.6504416
30.73216947176962	2.7291431	1.6520119
30.75034638120448	2.6956758	1.6418513
30.768524083518756	2.7087133	1.6458169
30.786702579273673	2.7618206	1.6618726
30.80488186903069	2.8336267	1.6833379
30.82306195335144	2.9616296	1.7209386
30.841242832797782	3.1810656	1.7835542
30.85942450793176	3.4353933	1.8534814
30.877606979315637	3.6902685	1.9210072
30.895790247511883	3.9970133	1.9992532
30.913974313083134	4.437952	2.1066446
30.932159176592283	4.8658032	2.2058566
30.95034483860237	4.998427	2.235716
30.968531299676698	4.6312795	2.1520407
30.98671856037873	4.2168064	2.0534863
31.00490662127215	3.8860483	1.9713062
31.023095482920848	3.4516277	1.8578557
31.04128514588892	2.9848738	1.7276788
31.059475610740662	2.7452786	1.6568882
31.07766687804056	2.6219258	1.6192362
31.09585894835335	2.5136068	1.5854359
31.11405182224393	2.4494014	1.5650563
31.132245500277417	2.4679098	1.5709583
31.15043998301914	2.4494588	1.5650747
31.168635271034628	2.439549	1.5619055
31.18683136488964	2.4868598	1.5769781
31.20502826515008	2.5025573	1.5819473
31.223225972382135	2.4959278	1.5798506
31.241424487152155	2.4573412	1.5675908
31.259623810026692	2.3953955	1.5477065
31.27782394157253	2.3636837	1.5374277
31.296024882356644	2.361706	1.5367843
31.314226632946237	2.3416104	1.5302322
31.332429193908684	2.3488436	1.5325937
31.350632565811598	2.3594985	1.5360659
31.368836749222787	2.4327004	1.5597117
31.387041744710295	2.455578	1.5670284
31.40524755284232	2.4826148	1.5756315
31.423454174187317	2.5089033	1.5839518
31.441661609313922	2.4953635	1.579672
31.459869858791002	2.405413	1.5509393
31.478078923187628	2.3775833	1.5419414
31.496288803073064	2.456011	1.5671666
31.514499499016807	2.4478326	1.564555
31.532711011588546	2.3937404	1.5471717
31.550923341358178	2.3398528	1.5296577
31.56913648889584	2.2712398	1.5070633
31.587350454771844	2.201055	1.4835954
31.605565239556732	2.2911608	1.513658
31.62378084382127	2.3857663	1.5445926
31.641997268136382	2.345859	1.5316198
31.660214513073274	2.303823	1.517835
31.67843257920331	2.3008814	1.5168656
31.6966514670981	2.296468	1.5154102
31.71487117732944	2.291105	1.5136397
31.733091710469346	2.3238573	1.5244203
31.751313067090052	2.2390978	1.4963615
31.769535247764008	2.2591097	1.5030335
31.787758253063878	2.2796032	1.5098355
31.805982083562526	2.26812	1.5060279
31.824206739833024	2.2161512	1.4886743
31.84243222244869	2.2162135	1.4886953
31.860658531983013	2.2540271	1.5013418
31.878885669009737	2.2599502	1.5033131
31.897113634102784	2.2335403	1.4945034
31.91534242783632	2.2628136	1.5042651
31.933572050784694	2.3209	1.52345
31.951802503522508	2.3139584	1.52117
31.970033786624548	2.2911491	1.5136542
31.988265900665834	2.2437348	1.4979101
32.006498846221575	2.2137134	1.4878553
32.02473262386724	2.1874175	1.4789921
32.04296723417845	2.210056	1.4866258
32.0612026777311	2.2761166	1.5086805
32.07943895510129	2.2265916	1.4921768
32.097676066865304	2.1744628	1.474606
32.115914013599685	2.1708379	1.4733764
32.13415279588115	2.1832082	1.4775684
32.152392414286666	2.1413703	1.4633422
32.1706328693934	2.1033678	1.4502993
32.18887416177875	2.139768	1.4627945
32.20711629202032	2.1827514	1.4774138
32.225359260695924	2.1945164	1.48139
32.243603068383614	2.1323636	1.4602615
32.26184771566166	2.169431	1.4728988
32.28009320310852	2.195787	1.4818188
32.2983395313029	2.2117417	1.4871925
32.31658670082372	2.1733446	1.4742268
32.33483471225012	2.1510825	1.4666569
32.35308356616143	2.1375723	1.4620439
32.371333263137245	2.1295278	1.4592901
32.38958380375734	2.1402104	1.4629458
32.407835188601744	2.1635606	1.4709047
32.42608741825067	2.09303	1.4467307
32.444340493284585	2.1231472	1.4571023
32.46259441428416	2.1194973	1.4558493
32.48084918183028	2.0614967	1.4357914
32.49910479650405	2.0318065	1.4254144
32.51736125888683	2.0751054	1.4405227
32.53561856956014	2.09902	1.4487995
32.5538767291058	2.0972226	1.448179
32.572135738105764	2.0727015	1.439688
32.59039559714228	2.0953684	1.4475387
32.608656306797776	2.118441	1.4554865
32.62691786765491	2.0923572	1.4464983
32.645180280296586	2.0382905	1.4276872
32.663443545305896	1.9500049	1.3964257
32.68170766326619	1.9193739	1.3854147
32.69997263476099	1.8727034	1.3684676
32.7182384603741	1.8776789	1.3702842
32.7365051406895	1.9425716	1.3937616
32.75477267629144	1.9712931	1.4040275
32.77304106776434	1.9793152	1.4068813
32.79131031569289	1.9773471	1.4061818
32.809580420661966	1.9793241	1.4068846
32.827851383256714	1.9270822	1.3881938
32.84612320406245	1.9426684	1.3937964
32.86439588366476	1.9465529	1.3951892
32.88266942264945	2.0034282	1.4154251
32.9009438216025	2.0487583	1.4313484
32.9192190811102	2.1587489	1.4692681
32.937495201758985	2.167839	1.4723583
32.95577218413556	2.1092358	1.4523208
32.974050028826866	2.027976	1.4240702
32.992328736420035	1.9510515	1.3968004
33.010608307502444	1.8885874	1.3742589
33.02888874266169	1.8462969	1.358785
33.047170042485604	1.9076773	1.381187
33.06545220756225	1.9321709	1.3900255
33.083735238479896	1.8799518	1.3711133
33.10201913582707	1.8239129	1.3505232
33.12030390019248	1.8979487	1.3776606
33.138589532165135	1.9920008	1.4113826
33.15687603233419	2.0198364	1.4212095
33.17516340128909	1.9771844	1.4061239
33.19345163961947	1.9339284	1.3906575
33.211740747915215	1.9545403	1.3980488
33.23003072676643	2.0019891	1.4149166
33.248321576763466	2.0165286	1.4200453
33.266613298496885	1.933887	1.3906426
33.28490589255747	1.8923459	1.3756256
33.30319935953626	1.9597499	1.3999107
33.32149370002451	2.0141659	1.4192132
33.339788914613706	2.001476	1.4147353
33.358085003895575	1.9185193	1.3851062
33.376381968462034	1.9492475	1.3961545
33.39467980890529	1.963152	1.4011253
33.41297852581774	1.8904989	1.3749541
33.43127811979204	1.8481673	1.3594732
33.44957859142105	1.8493882	1.3599222
33.467879941297866	1.8609054	1.36415
33.486182170015844	1.9030014	1.3794932
33.50448527816853	1.9168606	1.3845073
33.522789266349754	1.9527986	1.3974257
33.541094135153514	1.894807	1.3765199
33.55939988517411	1.8989937	1.3780398
33.57770651700602	1.8992927	1.3781483
33.59601403124398	1.837058	1.3553811
33.61432242848296	1.8984874	1.3778561
33.632631709318154	1.9019455	1.3791103
33.650941874344994	1.915163	1.3838942
33.66925292415916	1.8952385	1.3766767
33.68756485935654	1.8991674	1.3781028
33.70587768053328	1.9227479	1.3866318
33.724191388285746	1.9598093	1.3999319
33.74250598321054	1.9777604	1.4063287
33.760821465904506	1.9161177	1.3842391
33.77913783696474	1.7933645	1.3391656
33.79745509698852	1.8673409	1.3665068
33.815773246573414	1.8955733	1.3767982
33.8340922863172	1.8701512	1.3675348
33.852412216817896	1.896558	1.3771558
33.87073303867377	1.984169	1.4086053
33.889054752483304	1.9647015	1.4016781
33.907377358845245	1.8456982	1.3585647
33.92570085835853	1.8611637	1.3642447
33.94402525162239	1.824161	1.350615
33.96235053923627	1.8748319	1.369245
33.980676721799824	1.9922185	1.4114597
33.999003799912984	1.9952118	1.4125197
34.01733177417592	1.8707328	1.3677473
34.03566064518901	1.8579537	1.3630677
34.0539904135529	1.8934855	1.3760399
34.07232107986846	1.8596228	1.3636799
34.090652644736785	1.8635386	1.3651149
34.108985108759235	1.8053938	1.3436494
34.12731847253742	1.9001602	1.378463
34.14565273667313	1.9480736	1.3957341
34.16398790176847	1.8633758	1.3650552
34.18232396842574	1.9770569	1.4060786
34.20066093724749	2.1573312	1.4687856
34.21899880883651	2.1520789	1.4669966
34.23733758379583	1.9425137	1.3937409
34.25567726272874	1.7969477	1.3405027
34.27401784623872	1.8431363	1.3576216
34.29235933492957	1.933084	1.3903539
34.31070172940526	1.9868679	1.4095631
34.32904503027003	2.0441468	1.4297366
34.347389238128386	2.0433395	1.4294542
34.36573435358502	2.0319877	1.4254781
34.38408037724492	1.9445788	1.3944815
34.402427309713296	1.9928446	1.4116814
34.42077515159559	2.0972126	1.4481755
34.43912390349752	2.0682738	1.4381495
34.45747356602499	1.9066716	1.3808228
34.47582413978423	1.8750174	1.3693128
34.49417562538163	1.9177771	1.3848382
34.51252802342388	1.9232631	1.3868176
34.53088133451789	1.9576277	1.3991525
34.54923555927084	2.0452569	1.4301248
34.567590698290104	2.217715	1.4891994
34.58594675218336	2.1453211	1.4646915
34.6043037215585	1.9831023	1.4082266
34.62266160702365	2.0088232	1.4173295
34.641020409187234	2.2051387	1.4849709
34.65938012865785	2.2486663	1.4995553
34.677740766044394	2.085392	1.4440887
34.69610232195598	1.9491912	1.3961344
34.714464797002016	1.8925296	1.3756924
34.73282819179208	1.9472867	1.3954521
34.751192506936064	2.0391314	1.4279816
34.76955774304408	1.8872006	1.3737541
34.7879239007265	1.756356	1.3252758
34.80629098059391	1.7478919	1.3220786
34.824658983257194	1.9270171	1.3881704
34.843027909327446	1.9605699	1.4002035
34.86139775941603	1.9361643	1.3914613
34.879768534134534	2.0188875	1.4208757
34.89814023409483	1.983813	1.408479
34.91651285990901	1.6887834	1.2995319
34.93488641218944	1.6939558	1.3015206
34.95326089154871	1.8552845	1.3620883
34.97163629859967	1.8723223	1.3683283
34.99001263395542	1.8981915	1.3777487
35.00838989822934	1.9617028	1.4006081
35.02676809203499	2.0509741	1.4321222
35.04514721598624	1.9896541	1.410551
35.063527270697215	1.9481761	1.3957708
35.081908256782256	1.8447549	1.3582176
35.10029017485597	1.8218552	1.3497611
35.11867302553321	1.821657	1.3496877
35.137056809429104	1.7852467	1.3361312
35.155441527159006	2.01918	1.4209785
35.173827179338524	2.1546457	1.4678712
35.19221376658354	1.8464506	1.3588417
35.21060128951017	1.4697424	1.2123294
35.2289897487348	1.4773964	1.215482
35.24737914487405	1.820895	1.3494054
35.26576947854479	2.097428	1.44825
35.28416075036418	2.2386408	1.4962088
35.30255296094958	2.1544254	1.4677961
35.32094611091867	2.1806774	1.4767116
35.33934020088932	2.2328238	1.4942636
35.35773523147969	2.309218	1.5196111
35.3761312033082	2.05278	1.4327526
35.394528116993506	2.0725443	1.4396334
35.41292597315452	2.2753713	1.5084333
35.431324772410434	2.3563437	1.5350387
35.449724515380666	2.3510823	1.533324
35.46812520268491	2.2092123	1.486342
35.486526834943106	2.3624952	1.5370411
35.504929412775454	2.27111	1.5070202
35.52333293680242	2.0766501	1.4410586
35.54173740764471	2.3269982	1.5254502
35.560142825923286	2.1129677	1.453605
35.5785491922594	1.6902548	1.300098
35.59695650727454	1.5666865	1.2516735
35.61536477159042	1.8569168	1.3626873
