0.008763373481513119	0.56609195	0.7523908
0.026290120649546365	0.30131683	0.5489233
0.043816868432600686	0.27234635	0.5218681
0.06134361724069026	0.18387087	0.42880166
0.07887036748382949	0.26916417	0.51881033
0.0963971195720331	0.22121169	0.47033146
0.11392387391531617	0.24876735	0.49876583
0.1314506309236943	0.1997211	0.44690168
0.1489773910071836	0.23240586	0.4820849
0.16650415457580078	0.27729133	0.52658457
0.18403092203956356	0.26528972	0.5150628
0.20155769380849	0.22111255	0.47022605
0.2190844702925996	0.19705659	0.44391057
0.2366112519019124	0.15977055	0.39971307
0.2541380390464497	0.14435442	0.37994003
0.27166483213623416	0.11922427	0.3452887
0.28919163158128947	0.13583946	0.36856407
0.3067184377916406	0.20178671	0.44920677
0.324245251177314	0.21831419	0.46724105
0.34177207214833777	0.22731833	0.47677913
0.3592989011147415	0.21831453	0.4672414
0.37682573848655654	0.21751541	0.46638548
0.39435258467381573	0.20148562	0.4488715
0.41187944008655414	0.12611735	0.35513005
0.42940630513480854	0.1592203	0.3990242
0.446933180228618	0.15110622	0.38872385
0.4644600657780234	0.18355907	0.42843795
0.48198696219306775	0.1908652	0.4368812
0.49951386988379676	0.21673416	0.46554714
0.5170407892602581	0.2347793	0.48454028
0.5345677207325025	0.21179816	0.46021533
0.5520946647105822	0.1890303	0.43477616
0.5696216216045534	0.16215162	0.40268055
0.5871485918244737	0.16160943	0.40200675
0.6046755757804043	0.14963363	0.38682505
0.6222025738824094	0.10779066	0.32831487
0.6397295865405557	0.11554067	0.33991274
0.6572566141649129	0.12779266	0.35748097
0.6747836571655547	0.111893564	0.33450496
0.6923107159525568	0.06999609	0.26456773
0.7098377909359992	0.09245037	0.30405653
0.7273648825259653	0.12967093	0.3600985
0.7448919911325411	0.13218006	0.36356577
0.762419117165817	0.13529009	0.367818
0.7799462610358868	0.16194119	0.40241918
0.7974734231528482	0.18457559	0.42962262
0.8150006039268024	0.21398757	0.46258792
0.8325278037678551	0.19517079	0.44178137
0.8500550230861152	0.18762262	0.43315426
0.8675822622916969	0.19308943	0.43941942
0.8851095217947171	0.24346565	0.4934224
0.9026368020052984	0.2613976	0.5112706
0.9201641033335665	0.25961015	0.5095195
0.9376914261896523	0.22956216	0.47912645
0.9552187709836915	0.20002219	0.44723842
0.9727461381258234	0.20020278	0.44744024
0.990273528026193	0.1993324	0.44646657
1.0078009410949496	0.23955372	0.48944226
1.0253283777422473	0.25017393	0.50017387
1.0428558383782454	0.26022184	0.51011944
1.0603833234131086	0.2641186	0.5139247
1.0779108332570058	0.3361662	0.5797984
1.0954383683201119	0.3537745	0.59478945
1.112965929012607	0.38509703	0.62056184
1.1304935157446763	0.46923643	0.68500835
1.1480211289265108	0.5195722	0.7208136
1.1655487689683062	1.3498887	1.1618471
1.1830764362802655	1.6134113	1.2702013
1.200604131272596	1.996983	1.4131465
1.2181318543555117	2.3756423	1.5413119
1.235659605939232	2.381247	1.543129
1.253187386433982	3.6040435	1.8984319
1.270715196249994	5.7467465	2.3972373
1.2882430357975057	11.004254	3.317266
1.3057709054867608	15.778263	3.972186
1.3232988057280106	21.586811	4.646161
1.3408267369315112	26.568281	5.154443
1.358354699507526	30.37092	5.5109816
1.3758826938663256	34.444805	5.86897
1.3934107204181858	36.03519	6.0029316
1.410938779573391	36.231262	6.019241
1.4284668717422309	36.756203	6.0626893
1.4459949973350033	36.444477	6.0369263
1.4635231567620117	36.771954	6.063988
1.4810513504335687	36.005398	6.0004497
1.4985795787599925	35.31384	5.942545
1.5161078421516088	34.55208	5.8781013
1.5336361410187505	33.413094	5.780406
1.5511644757717598	33.43826	5.7825823
1.5686928468209842	34.054363	5.835612
1.58622125457678	34.612034	5.883199
1.6037496994495108	35.84442	5.987021
1.621278181849548	36.159237	6.013255
1.6388067021872719	36.974445	6.080662
1.6563352608730693	36.420303	6.0349236
1.673863858317336	35.382698	5.9483356
1.6913924949304753	34.376186	5.863121
1.7089211711228998	33.436855	5.782461
1.7264498873050296	32.871475	5.733365
1.7439786438872935	31.980534	5.6551332
1.7615074412801288	31.083448	5.575253
1.779036279893981	30.357838	5.5097947
1.796565160139305	29.495625	5.4309874
1.814094082426564	28.850018	5.371221
1.8316230471662298	28.22232	5.3124685
1.849152054768784	27.723667	5.265327
1.8666811056447168	27.035	5.199519
1.8842102002045273	26.163595	5.115036
1.901739338858724	25.511242	5.0508657
1.9192685220178245	25.235474	5.0234923
1.9367977500923557	24.871428	4.9871264
1.9543270234928547	24.511349	4.950894
1.971856342629867	23.709766	4.8692675
1.9893857079139496	23.034191	4.799395
2.006915119755667	22.450758	4.738223
2.0244445785655945	21.919077	4.6817813
2.0419740847543175	21.474707	4.634081
2.0595036387324317	21.043962	4.58737
2.0770332409105414	20.562613	4.5346017
2.094562891699263	20.222382	4.49693
2.1120925915092217	19.520355	4.4181848
2.129622340751053	19.01524	4.3606467
2.1471521398354043	186.9899	13.674425
2.1646819891729323	443.46014	21.058493
2.182211889174303	439.9859	20.975842
2.1997418402501974	452.39664	21.269617
2.2172718428113023	432.21988	20.789898
2.234801897268317	320.0358	17.889544
2.2523320040319548	16.468765	4.0581727
2.269862163512935	16.304426	4.0378737
2.287392376121992	16.013136	4.0016418
2.304922642269869	15.836042	3.9794526
2.322452962367322	15.4750805	3.933838
2.3399833368251164	15.155405	3.8929944
2.357513766054032	14.96241	3.8681273
2.3750442504648586	14.891144	3.8589046
2.3925747904683963	14.550081	3.814457
2.410105386475459	14.009126	3.7428768
2.4276360388968707	13.618973	3.6903892
2.445166748143469	13.518741	3.676784
2.4626975146261025	13.510859	3.6757119
2.4802283387556323	13.50676	3.6751544
2.4977592209429305	13.613586	3.6896594
2.5152901615988825	13.301152	3.6470745
2.5328211611343865	13.024325	3.608923
2.5503522199603523	12.579406	3.5467458
2.5678833384877024	12.175249	3.489305
2.5854145171273712	11.867782	3.4449646
2.6029457562903064	11.687636	3.4187186
2.620477056387469	11.649412	3.4131236
2.6380084178298326	11.489581	3.3896284
2.655539841028383	11.229969	3.3511145
2.673071326394119	11.112178	3.3334932
2.6906028743380523	10.952242	3.3094172
2.708134485271211	10.869482	3.2968898
2.7256661596046325	10.7519045	3.2790096
2.743197897749369	10.595158	3.2550204
2.760729700116486	10.30732	3.2105014
2.778261567117063	10.06528	3.1725826
2.795793499162193	9.935594	3.1520777
2.8133254966629817	9.799888	3.1304772
2.830857560030551	9.747064	3.1220288
2.8483896896760337	9.560191	3.091956
2.865921886010578	9.490424	3.0806532
2.883454149445347	9.341377	3.0563667
2.9009864803915177	9.185022	3.0306802
2.91851887926028	9.091266	3.0151725
2.9360513464628384	9.007501	3.0012498
2.953583882410413	8.958623	2.9930959
2.9711164875142373	8.830169	2.97156
2.9886491621855606	8.761479	2.9599795
3.0061819068356455	8.624383	2.93673
3.023714721875769	8.396993	2.8977566
3.041247607717225	8.2765	2.8768907
3.0587805647713213	8.204018	2.8642657
3.0763135934493806	8.261624	2.874304
3.0938466941627407	8.103029	2.846582
3.1113798673227544	7.8771586	2.8066275
3.1289131133407904	7.7435265	2.7827194
3.1464464326282315	7.6948876	2.773966
3.1639798255964786	7.71615	2.7777958
3.1815132926569443	7.647549	2.7654202
3.1990468342210603	7.480446	2.7350404
3.216580450700272	7.4466367	2.7288527
3.2341141425060416	7.326782	2.7068028
3.251647910049847	7.16425	2.6766117
3.2691817537431813	7.1724696	2.6781466
3.286715673997555	7.010549	2.6477442
3.3042496712244938	7.0284605	2.6511245
3.32178374583554	6.9462843	2.6355805
3.339317898242251	6.8593025	2.619027
3.3568521288562034	6.735829	2.5953476
3.3743864380889876	6.6177254	2.572494
3.3919208263522127	6.548823	2.5590668
3.4094552940575023	6.426563	2.5350666
3.4269898416164972	6.470319	2.543682
3.444524469440858	6.428502	2.535449
3.4620591779422587	6.4822855	2.5460334
3.479593967532391	6.3821626	2.5262942
3.4971288386229658	6.2564006	2.5012798
3.5146637916257086	6.121135	2.4740927
3.5321988269523628	6.126092	2.4750943
3.5497339450146903	6.131724	2.4762318
3.5672691462244708	6.159361	2.481806
3.5848044309934988	6.1520443	2.4803314
3.60233979973359	6.1730194	2.4845562
3.619875252856575	6.224405	2.4948757
3.6374107907743034	6.0772815	2.4652143
3.6549464138986427	5.981507	2.4457119
3.6724821226414788	5.8086295	2.4101098
3.690017917414714	5.882936	2.4254766
3.7075537986302702	6.025061	2.4546
3.7250897667000857	6.1352606	2.4769459
3.7426258220361235	6.3768206	2.5252368
3.7601619650503553	6.6158566	2.5721307
3.777698196154779	7.1364093	2.6714058
3.7952345157614067	8.099711	2.8459992
3.8127709242822716	8.883458	2.980513
3.830307422129425	11.179909	3.343637
3.847844009714936	30.035135	5.480432
3.8653806874508954	97.525856	9.875518
3.882917455749409	96.73298	9.835293
3.900454315022606	96.30197	9.813356
3.917991265682631	40.871162	6.393056
3.9355283081416506	10.523598	3.2440095
3.9530654428118495	8.449164	2.9067447
3.970602670105433	7.2828875	2.6986825
3.9881399904346244	6.433026	2.536341
4.005677404211669	6.274446	2.5048845
4.023214911848827	6.2534475	2.5006895
4.0407525137583855	6.223879	2.4947703
4.058290210352644	6.224868	2.4949684
4.075828002043927	6.1775036	2.4854584
4.0933658892445814	6.151355	2.4801924
4.110903872366966	6.058916	2.4614866
4.128441951823468	6.010184	2.4515676
4.145980128026488	6.037585	2.4571497
4.163518401388452	6.0359883	2.4568248
4.181056772321807	6.0523376	2.46015
4.1985952412390155	5.928726	2.4348977
4.216133808552567	5.8629704	2.4213572
4.233672474674966	5.861909	2.421138
4.251211240018741	6.1671753	2.4833798
4.268750104996445	6.4313574	2.5360122
4.286289070020643	7.506281	2.7397592
4.303828135503928	9.236787	3.0392082
4.3213673018589125	29.501099	5.4314914
4.3389065694982305	90.60997	9.518927
4.356445938834537	165.57823	12.867721
4.3739854102805085	170.7557	13.067352
4.391524984248844	171.66705	13.102178
4.409064661152262	135.90721	11.657925
4.426604441403504	96.30354	9.8134365
4.444144325415337	75.512184	8.6897745
4.461684313600543	21.501514	4.6369724
4.47922440637193	21.94216	4.684246
4.496764604142329	20.267149	4.501905
4.5143049073245916	18.302132	4.278099
4.531845316331589	16.220747	4.0274987
4.5493858315762195	13.193271	3.6322541
4.566926453471405	10.951493	3.309304
4.584467182430081	8.890185	2.9816413
4.602008018865218	7.93218	2.8164127
4.619548963189798	7.403482	2.720934
4.637090015816834	6.9447556	2.6352904
4.654631177159353	6.685173	2.58557
4.672172447630417	6.300126	2.5100052
4.689713827643102	6.13018	2.47592
4.7072553176105085	5.841587	2.4169376
4.724796917945764	5.703948	2.388294
4.742338629062015	5.62522	2.3717546
4.759880451372434	5.5860763	2.3634882
4.777422385290215	5.6529813	2.3776
4.794964431228581	5.655027	2.37803
4.812506589600768	5.6571765	2.3784819
4.830048860820047	5.549153	2.355664
4.847591245299709	5.514306	2.3482559
4.8651337434530655	5.473931	2.3396432
4.882676355693457	5.4348087	2.3312676
4.900219082434242	5.413157	2.3266191
4.917761924088813	5.4055243	2.3249784
4.935304881070575	5.3962326	2.3229792
4.952847953792969	5.442714	2.3329625
4.970391142669449	5.3905807	2.3217623
4.9879344481135055	5.3630943	2.3158355
5.005477870538642	5.3819156	2.3198955
5.023021410358394	5.3901315	2.3216658
5.040565067986324	5.357194	2.3145614
5.05810884383601	5.3440404	2.311718
5.075652738321066	5.260018	2.2934728
5.09319675185512	5.2649355	2.2945447
5.110740884851836	5.211187	2.2828023
5.128285137724894	5.15602	2.270687
5.145829510888007	5.141849	2.2675645
5.163374004754908	5.0982876	2.2579389
5.1809186197393595	5.1177506	2.2622447
5.198463356255145	5.1678524	2.273291
5.216008214716077	5.232023	2.2873616
5.233553195535998	5.299272	2.3020148
5.251098299128764	5.2716665	2.296011
5.268643525908272	5.2131453	2.2832313
5.286188876288432	5.1958876	2.279449
5.3037343506831895	5.1802487	2.276016
5.32127994950651	5.146048	2.2684903
5.3388256731723915	5.1856065	2.2771926
5.356371522094851	5.2295227	2.286815
5.373917496687938	5.1887465	2.277882
5.391463597365729	5.1203594	2.2628212
5.40900982454232	5.036355	2.2441826
5.426556178631843	5.096737	2.2575953
5.444102660048449	5.014301	2.2392635
5.4616492692063225	4.9936934	2.2346573
5.479196006519669	4.9889956	2.2336059
5.496742872402727	5.017338	2.2399414
5.514289867269756	5.093038	2.256776
5.531836991535049	5.1206627	2.2628882
5.549384245612924	5.1266236	2.2642047
5.566931629917724	5.035545	2.2440019
5.584479144863822	4.947932	2.2243948
5.6020267908656205	4.9144526	2.2168565
5.619574568337545	4.9883657	2.233465
5.637122477694054	5.0449524	2.246097
5.654670519349629	5.0057755	2.237359
5.672218693718784	4.979966	2.2315838
5.689767001216059	4.9996324	2.2359858
5.707315442256021	5.1155868	2.2617662
5.724864017253266	5.128022	2.2645137
5.7424127266224225	5.045261	2.2461658
5.75996157077814	4.9838743	2.2324593
5.777510550135105	4.956321	2.2262795
5.795059665108022	4.94527	2.2237964
5.812608916111639	4.991615	2.2341921
5.830158303560715	5.148804	2.2690976
5.847707827870055	5.2464232	2.2905073
5.86525748945448	5.3255997	2.3077261
5.8828072887288485	5.376398	2.318706
5.900357226108044	5.419722	2.3280296
5.917907302006979	5.4861336	2.3422496
5.9354575168406	6.099515	2.4697196
5.9530078710238765	6.753996	2.598845
5.970558364971812	7.4421597	2.728032
5.988108999099438	7.8106356	2.7947514
6.005659773821818	8.3200035	2.8844416
6.023210689554039	7.963723	2.822007
6.040761746711227	8.421244	2.901938
6.058312945708531	7.8022203	2.7932456
6.075864286961132	7.3396106	2.7091715
6.093415770884244	6.6272974	2.5743537
6.1109673978931065	5.9548736	2.440261
6.128519168402993	5.3624806	2.3157032
6.146071082829204	5.273247	2.296355
6.163623141587075	5.2034206	2.2811007
6.181175345091969	5.183044	2.27663
6.198727693759281	5.1082473	2.2601433
6.216280188004435	5.123572	2.2635307
6.233832828242885	5.08857	2.255786
6.251385614890126	5.08381	2.2547305
6.268938548361669	5.0677533	2.251167
6.286491629073067	5.0540724	2.2481265
6.304044857439898	5.0773787	2.253304
6.321598233877777	4.977088	2.230939
6.339151758802344	4.8683953	2.206444
6.356705432629277	4.8045764	2.1919343
6.37425925577428	4.823387	2.196221
6.391813228653095	4.84489	2.201111
6.409367351681486	4.845788	2.2013152
6.426921625275259	4.8498907	2.2022467
6.44447604985025	4.841083	2.200246
6.46203062582232	4.8565683	2.2037623
6.47958535360737	4.855677	2.20356
6.497140233621328	4.908474	2.2155075
6.514695266280161	4.8861766	2.2104697
6.532250451999859	4.813679	2.1940098
6.549805791196454	4.7425103	2.1777306
6.567361284286002	4.7964077	2.1900702
6.584916931684597	4.894049	2.2122498
6.602472733808367	4.953053	2.2255456
6.6200286910734665	5.004147	2.236995
6.637584803896092	4.9813924	2.2319033
6.655141072692462	4.8826294	2.2096672
6.672697497878842	4.80341	2.1916683
6.690254079871514	4.7399244	2.1771367
6.707810819086808	4.786586	2.1878266
6.725367715941078	4.8577194	2.2040234
6.742924770850719	4.8130164	2.1938589
6.760481984232151	4.7389493	2.1769128
6.778039356501836	4.7585316	2.1814058
6.795596888076266	4.806932	2.1924717
6.813154579371963	4.9061847	2.2149909
6.830712430805492	4.9025707	2.214175
6.84827044279344	4.8875875	2.210789
6.865828615752445	4.844113	2.2009346
6.883386950099159	4.8399615	2.1999912
6.900945446250287	4.791474	2.1889436
6.918504104622553	4.8603983	2.204631
6.936062925632727	4.9250755	2.2192512
6.953621909697607	5.023473	2.2413106
6.971181057234028	5.1061645	2.2596824
6.988740368658859	5.0920653	2.2565606
7.006299844389007	5.087557	2.2555614
7.023859484841407	5.077792	2.2533958
7.041419290433036	5.1774406	2.275399
7.058979261580902	5.314593	2.30534
7.0765393987020495	5.487692	2.3425822
7.094099702213559	5.8495884	2.4185922
7.111660172532549	6.154859	2.4808989
7.129220810076164	6.5609584	2.561437
7.146781615261595	7.1488028	2.6737244
7.16434258850606	7.4121113	2.7225194
7.181903730226821	7.8300776	2.7982275
7.1994650408411704	7.984881	2.8257532
7.217026520766437	8.170912	2.8584807
7.234588170419983	8.360732	2.891493
7.252149990219215	8.304529	2.881758
7.269711980581568	8.145604	2.8540504
7.2872741419245175	7.927607	2.8156006
7.304836474665574	7.5331163	2.7446523
7.322398979222286	7.245783	2.6917992
7.339961656012233	7.013007	2.6482084
7.357524505453039	6.7076073	2.5899048
7.375087527962357	6.455406	2.540749
7.392650723957886	6.1499205	2.4799032
7.410214093857353	5.849717	2.418619
7.427777638078528	5.617396	2.3701046
7.445341357039213	5.4361415	2.3315535
7.4629052511572525	5.3243456	2.3074543
7.480469320850524	5.269962	2.2956398
7.498033566536948	5.174828	2.2748249
7.5155979886344735	5.1397295	2.2670972
7.5331625875610975	5.0781446	2.253474
7.550727363734844	5.1117177	2.2609107
7.568292317573788	5.101074	2.258556
7.585857449496025	5.1270256	2.2642937
7.603422759919705	5.1084423	2.2601864
7.620988249263007	5.122011	2.263186
7.638553917944147	5.146498	2.2685895
7.656119766381391	5.146446	2.268578
7.673685794993023	5.1640377	2.2724519
7.691252004197388	5.163741	2.2723866
7.70881839441285	5.1412177	2.2674253
7.726384966057826	5.1113796	2.2608361
7.743951719550762	5.119811	2.2626998
7.761518655310149	5.187645	2.27764
7.779085773754511	5.1585283	2.2712393
7.796653075302419	5.1600113	2.271566
7.814220560372475	5.1168647	2.2620487
7.831788229383323	5.1832123	2.2766669
7.8493560827536495	5.219545	2.2846324
7.866924120902174	5.2341595	2.2878284
7.884492344247663	5.2367635	2.2883976
7.9020607532089135	5.1970396	2.2797017
7.919629348204771	5.223401	2.2854762
7.937198129654115	5.244427	2.2900715
7.954767097975865	5.294951	2.301076
7.972336253588986	5.2695594	2.295552
7.989905596912472	5.25757	2.2929392
8.007475128365371	5.2292314	2.2867513
8.025044848366756	5.24409	2.2899978
8.042614757335754	5.421597	2.3284323
8.060184855691523	5.5562434	2.3571684
8.07775514385327	5.66361	2.379834
8.095325622240228	5.687276	2.384801
8.112896291271687	5.6978416	2.387015
8.130467151366968	5.716371	2.3908935
8.148038202945436	5.6919503	2.3857808
8.165609446426497	5.667488	2.3806486
8.183180882229594	5.7132006	2.3902302
8.200752510774217	5.735008	2.3947875
8.218324332479893	5.782182	2.4046168
8.235896347766193	5.8048053	2.4093163
8.253468557052724	5.8180957	2.412073
8.27104096075914	5.8435106	2.4173355
8.288613559305137	5.942209	2.4376645
8.306186353110448	5.982149	2.4458432
8.32375934259485	6.012599	2.4520602
8.341332528178162	6.07519	2.46479
8.358905910280246	6.1214833	2.474163
8.376479489321003	6.162089	2.4823556
8.394053265720377	6.16117	2.4821703
8.411627239898356	6.1863713	2.4872417
8.42920141227497	6.156385	2.4812064
8.44677578327029	6.115202	2.4728935
8.464350353304427	6.018832	2.4533308
8.48192512279754	6.068163	2.4633641
8.499500092169827	6.0991755	2.469651
8.51707526184153	6.086846	2.4671533
8.534650632232934	6.0471387	2.459093
8.552226203764365	6.0116477	2.4518661
8.569801976856192	6.043954	2.4584453
8.587377951928834	6.1002316	2.4698646
8.60495412940274	6.183581	2.4866807
8.622530509698416	6.2317877	2.4963548
8.6401070932364	6.3132653	2.5126212
8.657683880437283	6.4453654	2.5387723
8.675260871721695	6.6350803	2.575865
8.692838067510303	6.816291	2.6108027
8.710415468223834	6.959693	2.638123
8.727993074283043	7.034521	2.6522672
8.745570886108737	7.0094795	2.6475422
8.763148904121765	6.966927	2.6394937
8.78072712874302	6.9645214	2.639038
8.798305560393441	7.2246675	2.687874
8.815884199494006	7.423811	2.724667
8.833463046465745	7.603439	2.7574334
8.851042101729728	7.700828	2.7750366
8.86862136570707	7.984783	2.8257358
8.886200838818924	8.220003	2.8670547
8.903780521486505	8.318465	2.884175
8.921360414131055	8.41231	2.9003983
8.938940517173874	8.463307	2.9091763
8.956520831036297	8.549829	2.924009
8.97410135613971	8.820062	2.969859
8.99168209290554	8.976066	2.9960084
9.009263041755265	9.263338	3.0435731
9.026844203110405	9.491692	3.080859
9.044425577392525	9.695945	3.1138313
9.062007165023239	9.759827	3.124072
9.079588966424197	10.024215	3.166104
9.097170982017108	10.079368	3.174802
9.11475321222372	11.084663	3.3293638
9.132335657465825	11.954873	3.457582
9.149918318165264	12.088601	3.4768665
9.167501194743924	12.745043	3.57002
9.18508428762374	12.550721	3.5426998
9.202667597226693	12.568116	3.5451539
9.220251123974803	12.21728	3.4953227
9.237834868290143	11.771399	3.430947
9.255418830594836	11.490345	3.3897412
9.273003011311046	10.94986	3.3090572
9.290587410860985	10.852539	3.2943192
9.308172029666911	10.2471695	3.2011201
9.32575686815113	9.943854	3.1533878
9.343341926735997	8.599646	2.9325151
9.360927205843916	8.298342	2.8806841
9.378512705897327	8.106309	2.847158
9.396098427318728	7.9468274	2.8190117
9.413684370530664	7.9122753	2.8128767
9.431270535955722	7.775452	2.7884498
9.448856924016539	7.7305593	2.7803884
9.466443535135806	7.589441	2.754894
9.484030369736251	7.6433296	2.7646573
9.501617428240658	7.6639605	2.768386
9.519204711071852	7.6422386	2.7644598
9.536792218652714	7.640346	2.7641175
9.55437995140617	7.640728	2.7641866
9.571967909755191	7.6206975	2.760561
9.589556094122802	7.6662645	2.768802
9.60714450493207	7.665054	2.7685833
9.624733142606116	7.7552714	2.784829
9.642322007568108	7.8429394	2.800525
9.659911100241267	7.8638453	2.8042548
9.677500421048851	7.836013	2.799288
9.695089970414175	7.850163	2.8018143
9.712679748760609	7.89238	2.809338
9.730269756511557	7.9946895	2.8274882
9.747859994090492	8.084933	2.8434017
9.765450461920915	8.071824	2.8410957
9.78304116042639	8.087436	2.8438418
9.800632090030527	8.089506	2.8442056
9.81822325115699	8.0915	2.8445563
9.835814644229481	8.091592	2.8445723
9.853406269671762	8.112103	2.8481755
9.870998127907646	8.122222	2.8499513
9.888590219360985	8.16701	2.857798
9.906182544455698	8.181246	2.8602877
9.923775103615734	8.170109	2.8583403
9.941367897265108	8.202691	2.8640342
9.958960925827878	8.224	2.8677518
9.97655418972816	8.230574	2.8688977
9.994147689390106	8.144117	2.85379
10.011741425237934	8.084404	2.8433087
10.029335397695904	8.060008	2.8390152
10.04692960718833	8.083564	2.8431609
10.06452405413958	8.064411	2.8397906
10.082118738974064	8.08112	2.842731
10.099713662116246	8.054658	2.838073
10.117308823990651	8.0441	2.8362122
10.134904225021844	8.073159	2.8413305
10.152499865634445	8.138684	2.852838
10.170095746253125	8.235768	2.869803
10.18769186730261	8.1802845	2.8601196
10.205288229207675	8.0442505	2.8362389
10.222884832393145	8.01164	2.830484
10.2404816772839	8.01612	2.8312752
10.258078764304868	8.011188	2.830404
10.275676093881035	7.927624	2.8156037
10.293273666437438	7.8303075	2.7982686
10.310871482399158	7.914973	2.8133562
10.32846954219134	7.9105587	2.8125715
10.346067846239173	7.9293795	2.8159153
10.363666394967908	7.9127774	2.8129659
10.38126518880283	7.9336486	2.8166733
10.398864228169298	8.049489	2.8371623
10.416463513492713	8.158942	2.8563862
10.434063045198531	8.179402	2.8599656
10.451662823712262	8.188806	2.861609
10.469262849459467	8.203477	2.8641713
10.486863122865758	8.117144	2.84906
10.504463644356806	8.052147	2.8376305
10.522064414358338	7.9660845	2.8224254
10.539665433296118	7.882353	2.8075528
10.557266701595987	7.752886	2.7844005
10.574868219683818	7.6165576	2.7598112
10.592469987985552	7.552711	2.7482195
10.610072006927185	7.424382	2.724772
10.627674276934751	7.3379283	2.708861
10.64527679843435	7.297728	2.7014308
10.662879571852143	7.1634197	2.6764565
10.680482597614331	7.1168885	2.6677496
10.698085876147173	6.9649954	2.6391277
10.715689407876988	6.8743415	2.6218965
10.733293193230146	6.751891	2.5984402
10.750897232633072	6.651024	2.5789578
10.76850152651225	6.6222787	2.5733788
10.786106075294207	6.5342574	2.5562193
10.803710879405534	6.4656477	2.5427637
10.821315939272877	6.3732057	2.5245209
10.83892125532294	6.3109107	2.5121527
10.856526827982472	6.1870284	2.4873738
10.874132657678285	6.171522	2.4842548
10.891738744837243	6.1420126	2.4783084
10.909345089886271	6.173525	2.484658
10.926951693252343	6.074194	2.464588
10.944558555362494	5.994116	2.4482884
10.96216567664381	5.8602366	2.4207926
10.979773057523436	5.793557	2.406981
10.997380698428573	5.794955	2.4072711
11.014988599786477	5.737578	2.3953242
11.032596762024461	5.65742	2.3785331
11.050205185569892	5.5565057	2.3572242
11.067813870850198	5.495178	2.3441796
11.085422818292859	5.4413333	2.3326666
11.10303202832541	5.4248676	2.3291345
11.120641501375454	5.336632	2.310115
11.138251237870636	5.2444983	2.290087
11.155861238238671	5.1340313	2.26584
11.173471502907317	5.0118804	2.238723
11.191082032304402	4.989249	2.2336628
11.208692826857805	4.9996886	2.2359984
11.226303886995465	5.0479107	2.2467556
11.243915213145371	5.0132265	2.2390234
11.261526805735578	4.937851	2.2221277
11.279138665194196	4.889938	2.2113204
11.296750791949393	4.7795467	2.1862175
11.314363186429393	4.6936584	2.1664853
11.331975849062479	4.6256604	2.150735
11.34958878027699	4.6151433	2.1482885
11.36720198050133	4.5780582	2.1396399
11.384815450163948	4.532987	2.1290812
11.402429189693366	4.4685197	2.1138873
11.420043199518153	4.3875375	2.094645
11.437657480066942	63.3537	7.9595037
11.455272031768422	85.07294	9.223499
11.472886855051353	107.484344	10.367466
11.490501950344528	99.053825	9.952579
11.508117318076819	84.351074	9.184284
11.52573295867715	45.725574	6.7620687
11.543348872574514	4.0666184	2.0165858
11.560965060197946	4.0831075	2.02067
11.57858152197655	4.0380254	2.0094838
11.59619825833949	3.9433064	1.9857761
11.613815269715985	3.8371894	1.9588746
11.631432556535323	38.359734	6.1935234
11.649050119226837	82.933716	9.106795
11.666667958219929	93.386024	9.663645
11.68428607394406	107.62951	10.374464
11.701904466828756	82.46686	9.081126
11.719523137303586	65.27852	8.079513
11.737142085798196	4.4999433	2.121307
11.754761312742286	3.6310773	1.9055386
11.772380818565619	3.6344733	1.9064295
11.790000603698015	3.6609871	1.9133706
11.80762066856935	3.625774	1.9041466
11.825241013609572	3.5754251	1.8908795
11.842861639248683	3.5324292	1.8794758
11.860482545916748	3.4842803	1.8666227
11.878103734043883	3.4420617	1.8552794
11.895725204060282	3.3773255	1.8377501
11.91334695639619	3.3332057	1.825707
11.930968991481919	3.3587732	1.8326956
11.948591309747824	3.3376067	1.8269118
11.966213911624347	3.3324738	1.8255064
11.98383679754198	3.3368042	1.8266921
12.001459967931268	3.3368144	1.826695
12.019083423222835	3.3142557	1.8205098
12.036707163847352	3.273647	1.8093222
12.05433119023556	3.214863	1.7930039
12.071955502818259	3.1526716	1.7755764
12.089580102026313	3.1187482	1.7659978
12.107204988290643	3.1141086	1.7646837
12.12483016204224	3.1207404	1.7665617
12.142455623712152	3.1225286	1.7670678
12.16008137373149	3.100461	1.7608126
12.177707412531431	3.0557504	1.7480705
12.19533374054321	3.029735	1.7406135
12.212960358198126	3.0159044	1.7366359
12.230587265927545	3.037714	1.742904
12.248214464162889	2.9985242	1.7316247
12.265841953335649	2.9981146	1.7315065
12.283469733877375	2.9994018	1.7318782
12.301097806219685	2.9834821	1.727276
12.31872617079425	2.9936259	1.7302098
12.336354828032825	2.923781	1.7099067
12.353983778367205	2.8713875	1.6945169
12.371613022229262	2.825602	1.6809527
12.389242560050928	2.834086	1.6834744
12.406872392264201	2.8389707	1.6849245
12.424502519301143	2.8368697	1.6843009
12.442132941593874	2.823593	1.680355
12.459763659574586	2.834486	1.6835932
12.477394673675532	2.8382952	1.6847241
12.49502598432903	2.8074884	1.6755562
12.51265759196746	2.7933064	1.6713188
12.530289497023267	2.7678998	1.6637006
12.547921699928967	2.737506	1.654541
12.565554201117134	2.7154408	1.6478595
12.583187001020404	2.721462	1.6496854
12.600820100071486	2.747736	1.6576296
12.618453498703152	2.779107	1.6670654
12.636087197348235	2.7857904	1.6690687
12.65372119643964	2.8039923	1.6745125
12.671355496410326	2.8439722	1.686408
12.68899009769333	2.8305297	1.6824179
12.706625000721749	2.8358643	1.6840025
12.724260205928752	2.8640754	1.6923579
12.741895713747551	2.9075878	1.705165
12.759531524611454	2.9447272	1.7160207
12.777167638953818	2.9285097	1.7112889
12.794804057208072	2.9509594	1.7178357
12.812440779807702	3.017863	1.7371998
12.830077807186271	3.2028427	1.7896488
12.847715139777405	3.2229125	1.7952472
12.865352778014795	3.4342535	1.8531739
12.882990722332197	3.5364783	1.8805526
12.90062897316344	3.6184444	1.902221
12.918267530942412	3.654517	1.911679
12.935906396103071	3.5306277	1.8789965
12.953545569079449	3.69043	1.9210491
12.971185050305628	3.4948792	1.8694596
12.988824840215775	3.5338807	1.8798618
13.006464939244115	3.5198758	1.8761332
13.024105347824943	3.3716662	1.8362098
13.041746066392617	3.464049	1.8611956
13.05938709538157	3.3192697	1.8218863
13.077028435226296	3.3436458	1.8285638
13.094670086361363	3.2285497	1.7968166
13.112312049221401	3.1240146	1.7674882
13.129954324241112	3.056672	1.748334
13.147596911855258	2.8419883	1.6858197
13.165239812498685	2.7756274	1.6660215
13.182883026606293	2.6876945	1.639419
13.200526554613058	2.6615012	1.6314108
13.218170396954017	2.6465497	1.626822
13.235814554064284	2.6631513	1.6319164
13.253459026379034	2.6829545	1.6379727
13.271103814333523	2.677265	1.636235
13.288748918363058	2.6954207	1.6417737
13.306394338903031	2.6750188	1.6355485
13.32404007638889	2.6510606	1.6282078
13.341686131256164	2.6400328	1.6248177
13.359332503940449	2.6201177	1.6186777
13.376979194877402	2.6691406	1.6337504
13.394626204502751	2.6497457	1.6278039
13.412273533252307	2.6521797	1.6285514
13.429921181561937	2.6463182	1.6267508
13.447569149867581	2.671572	1.6344944
13.465217438605247	2.6583605	1.630448
13.482866048211022	2.6352036	1.6233311
13.500514979121052	2.626991	1.6207995
13.518164231771568	2.619157	1.618381
13.535813806598844	2.6444468	1.6261755
13.553463704039254	2.631211	1.6221008
13.571113924529229	2.6210983	1.6189806
13.588764468505275	2.6155355	1.6172618
13.606415336403956	2.6460662	1.6266733
13.624066528661917	2.6828628	1.6379447
13.641718045715882	2.7218823	1.6498128
13.659369888002635	2.7951405	1.6718674
13.67702205595903	2.8447487	1.6866382
13.694674550021993	2.9095123	1.7057292
13.712327370628532	2.9292681	1.7115105
13.729980518215713	2.986124	1.7280406
13.747633993220681	3.1016245	1.761143
13.765287796080647	3.21237	1.7923086
13.7829419272329	3.286261	1.8128047
13.800596387114801	3.294673	1.8151234
13.818251176163775	3.2626116	1.8062701
13.835906294817324	3.301058	1.8168814
13.853561743513023	3.3406343	1.8277402
13.871217522688525	3.3800728	1.8384974
13.888873632781538	3.3977938	1.8433106
13.906530074229858	3.4384663	1.8543102
13.92418684747135	3.482259	1.8660812
13.941843952943948	3.446231	1.8564026
13.959501391085665	3.420885	1.8495635
13.977159162334578	3.359727	1.8329558
13.994817267128846	3.3417048	1.8280331
14.012475705906693	3.2497904	1.8027176
14.030134479106424	3.178047	1.7827078
14.047793587166414	3.1183012	1.7658712
14.065453030525108	3.0461397	1.7453194
14.083112809621026	2.9935112	1.7301767
14.100772924892766	2.9395323	1.7145064
14.118433376778997	2.9179192	1.7081918
14.136094165718458	2.8290236	1.6819701
14.153755292149969	2.729916	1.6522458
14.171416756512416	2.6732159	1.6349972
14.189078559244768	2.6145518	1.6169575
14.20674070078606	2.5809546	1.606535
14.224403181575408	2.5159132	1.586163
14.242066002051999	2.4245822	1.557107
14.259729162655093	2.367383	1.5386302
14.277392663824022	2.3513138	1.5333995
14.295056505998208	2.3866692	1.5448848
14.312720689617128	2.4484553	1.5647541
14.330385215120348	2.4542732	1.566612
14.348050082947497	2.4453893	1.563774
14.3657152935383	2.3827488	1.5436155
14.383380847332528	2.3378332	1.5289974
14.401046744770051	2.3282716	1.5258675
14.418712986290798	2.3106828	1.520093
14.436379572334793	2.3152025	1.5215789
14.454046503342123	2.3411596	1.5300848
14.471713779752946	2.3435502	1.5308658
14.489381402007504	2.3488424	1.5325934
14.507049370546113	2.3393173	1.5294827
14.524717685809168	2.3281584	1.5258304
14.542386348237134	2.3557687	1.5348513
14.560055358270553	2.393116	1.5469699
14.577724716350051	2.447167	1.5643424
14.595394422916325	2.4271805	1.5579411
14.61306447841015	2.4338145	1.5600687
14.63073488327237	2.4279811	1.5581981
14.648405637943917	2.443659	1.5632207
14.6660767428658	2.4435942	1.5632
14.683748198479094	2.4556978	1.5670667
14.701420005224954	2.4940503	1.5792563
14.719092163544628	2.5677683	1.6024258
14.73676467387942	2.6490119	1.6275785
14.754437536670727	2.6816592	1.6375773
14.772110752360014	2.6738875	1.6352025
14.78978432138882	2.7019916	1.6437736
14.807458244198777	2.7016501	1.6436697
14.82513252123159	2.7086694	1.6458036
14.842807152929028	2.6911361	1.6404682
14.860482139732962	2.618219	1.6180911
14.87815748208531	2.5665007	1.6020302
14.8958331804281	2.6060264	1.6143192
14.91350923520342	2.6131203	1.6165149
14.931185646853438	2.6594448	1.6307805
14.948862415820408	2.6154492	1.6172351
14.966539542546656	2.6308382	1.6219859
14.98421702747459	2.5895243	1.6091999
15.001894871046696	2.589779	1.609279
15.019573073705542	2.5845823	1.6076636
15.037251635893766	2.5995617	1.6123157
15.054930558054092	2.6338012	1.622899
15.072609840629323	2.6380107	1.6241955
15.090289484062351	2.7603025	1.6614158
15.107969488796124	2.9026217	1.7037083
15.125649855273691	3.1504219	1.7749428
15.14333058393817	3.493253	1.8690246
15.161011675232768	3.9804647	1.9951102
15.17869312960076	4.5265927	2.127579
15.196374947485506	5.2201414	2.2847629
15.214057129330447	6.612074	2.5713954
15.231739675579114	8.754169	2.9587445
15.249422586675102	13.383165	3.6583009
15.267105863062092	17.987303	4.241144
15.284789505183847	25.407358	5.040571
15.302473513484218	30.521128	5.524593
15.320157888407127	34.587555	5.8811183
15.337842630396578	33.23209	5.764728
15.355527739896656	30.286787	5.503343
15.37321321735153	23.583828	4.8563185
15.39089906320545	16.092827	4.0115867
15.408585277902748	10.257217	3.2026892
15.42627186188783	6.3688836	2.5236647
15.443958815605198	4.5218987	2.1264756
15.461646139499424	3.712624	1.926817
15.479333834015168	3.2565656	1.8045957
15.497021899597165	2.96931	1.7231686
15.514710336690234	2.751898	1.6588845
15.53239914573928	2.6319602	1.6223317
15.550088327189297	2.5743523	1.6044788
15.567777881485336	2.5258017	1.589277
15.58546780907256	2.529056	1.5903007
15.6031581103962	2.5124335	1.5850657
15.620848785901568	2.5019276	1.5817482
15.638539836034063	2.479831	1.5747479
15.656231261239173	2.4978821	1.580469
15.673923061962451	2.4709797	1.571935
15.691615238649552	2.4546638	1.5667367
15.709307791746202	2.4225864	1.556466
15.727000721698221	2.41369	1.5536056
15.744694028951498	2.3692818	1.5392472
15.76238771395202	2.334194	1.5278069
15.780081777145844	2.3161926	1.5219042
15.797776218979125	2.310441	1.5200135
15.815471039898094	2.3605459	1.5364068
15.833166240349064	2.3835168	1.5438643
15.850861820778437	2.4267578	1.5578054
15.868557781632699	2.4305925	1.5590358
15.886254123358412	2.4636486	1.5696014
15.903950846402232	2.4581478	1.5678481
15.921647951210897	2.4562676	1.5672485
15.939345438231225	2.4566026	1.5673553
15.957043307910133	2.488095	1.5773697
15.974741560694602	2.5240254	1.5887182
15.992440197031714	2.534764	1.5920942
16.01013921736862	2.5107195	1.584525
16.02783862215259	2.4897683	1.5778999
16.045538411830933	2.4564676	1.5673122
16.06323858685107	2.4213758	1.556077
16.080939147660512	2.386481	1.544824
16.09864009470684	2.3725348	1.5403035
16.11634142843774	2.3776643	1.5419676
16.134043149300954	2.3900921	1.5459923
16.15174525774433	2.399783	1.5491233
16.169447754215817	2.4622977	1.5691711
16.18715063916342	2.4723923	1.5723842
16.204853913035244	2.4759827	1.5735255
16.222557576279478	2.4246466	1.5571277
16.240261629344403	22.403456	4.7332287
16.257966072678386	42.927124	6.5518794
16.275670906729868	38.00272	6.1646347
16.293376131947387	2.4347749	1.5603765
16.31108174877957	2.4654877	1.5701872
16.328787757675133	2.5170162	1.5865107
16.34649415908287	2.541962	1.5943531
16.364200953451657	2.543726	1.5949062
16.38190814123048	2.578544	1.6057845
16.39961572286839	2.6004808	1.6126007
16.41732369881455	2.6242583	1.6199563
16.43503206951817	2.65199	1.6284932
16.45274083542859	2.7179313	1.648615
16.47044999699522	2.806877	1.6753737
16.488159554667558	2.8528671	1.6890433
16.505869508895184	2.8927662	1.7008134
16.523579860127786	2.9521656	1.7181867
16.541290608815117	3.0126057	1.735686
16.559001755407035	3.0962992	1.7596304
16.57671330035348	3.1870086	1.7852194
16.59442524410448	3.2729836	1.8091389
16.61213758711015	3.400922	1.8441589
16.629850329820705	3.4628322	1.8608687
16.647563472686436	3.5323148	1.8794453
16.665277016157724	3.4518774	1.8579229
16.682990960685053	3.4192905	1.8491324
16.70070530671898	3.4091628	1.8463918
16.718420054710155	3.470828	1.8630159
16.736135205109335	3.5442567	1.8826196
16.753850758367335	3.5830357	1.8928908
16.771566714935087	3.653403	1.9113877
16.789283075263597	3.7223024	1.9293269
16.80699983980398	3.784822	1.9454619
16.82471700900741	3.8022566	1.9499376
16.84243458332518	3.8685997	1.9668756
16.860152563208665	3.938092	1.9844626
16.87787094910932	4.0606713	2.0151107
16.89558974147871	4.105393	2.026177
16.913308940768466	4.1412487	2.0350058
16.931028547430333	4.173219	2.042846
16.94874856191613	4.293752	2.072137
16.966468984677785	4.3528337	2.0863445
16.98418981616729	4.3991823	2.0974228
17.00191105683676	4.419805	2.1023333
17.019632707138374	4.4352255	2.1059976
17.03735476752442	4.457874	2.1113677
17.05507723844728	4.4737186	2.1151166
17.072800120359403	4.497697	2.1207774
17.090523413713353	4.5633903	2.1362092
17.108247118961785	4.599409	2.1446233
17.125971236557437	4.6216364	2.149799
17.143695766953133	4.659609	2.1586127
17.161420710601806	4.658046	2.1582506
17.179146067956477	4.6317463	2.1521492
17.19687183947025	4.5983677	2.1443806
17.21459802559634	4.6105437	2.1472178
17.232324626788028	4.613301	2.1478596
17.25005164349871	4.5745683	2.138824
17.267779076181863	4.541769	2.1311426
17.285506925291074	4.498334	2.1209276
17.30323519127999	4.4744964	2.1153007
17.320963874602384	4.411079	2.100257
17.33869297571211	4.3968525	2.0968673
17.356422495063114	4.381879	2.0932937
17.37415243310944	4.4358115	2.1061366
17.391882790305218	4.436038	2.1061904
17.40961356710468	4.458633	2.1115475
17.42734476396215	4.4692464	2.1140592
17.445076381332044	4.5183535	2.1256418
17.462808419668868	4.6194863	2.1492991
17.48054087942723	4.7464275	2.1786296
17.498273761061835	4.8621	2.205017
17.51600706502747	5.174743	2.2748063
17.533740791779024	5.6526494	2.37753
17.551474941771485	6.6021023	2.5694556
17.56920951545993	8.564673	2.9265463
17.586944513299528	9.910779	3.148139
17.60467993574556	12.806404	3.5786037
17.622415783253373	15.5569935	3.9442356
17.64015205627843	18.509342	4.3022485
17.657888755276293	20.956825	4.5778627
17.675625880702604	22.564047	4.7501626
17.69336343301311	21.115788	4.595192
17.71110141266366	18.814692	4.3375907
17.728839820110178	15.969996	3.9962478
17.746578655808705	12.669752	3.5594594
17.764317920215372	10.507851	3.2415814
17.7820576137864	8.8139105	2.9688232
17.79979773697811	7.414917	2.7230346
17.81753829024692	6.091501	2.4680967
17.835279274049356	5.252261	2.2917812
17.85302068884201	4.4780307	2.1161358
17.870762535081607	4.0724077	2.0180206
17.888504813224934	3.8584943	1.964305
17.90624752372891	3.7118044	1.9266044
17.923990667050536	3.594862	1.8960121
17.941734243646895	3.4743044	1.8639486
17.959478253975185	3.3917534	1.8416713
17.9772226984927	3.3564267	1.8320553
17.994967577656833	3.3572266	1.8322736
18.01271289192506	3.3950906	1.8425771
18.030458641754965	3.4082153	1.8461353
18.04820482760425	3.3725257	1.8364438
18.06595144993067	3.327289	1.8240858
18.083698509192125	3.304415	1.8178049
18.101446005846576	3.2552621	1.8042345
18.119193940352105	3.2470112	1.8019465
18.136942313166887	3.1885123	1.7856406
18.1546911247492	3.200875	1.789099
18.1724403755574	3.1833916	1.7842062
18.19019006604997	3.1421697	1.7726166
18.207940196685467	3.0910358	1.7581342
18.225690767922575	3.0550585	1.7478726
18.243441780220046	3.0353315	1.7422203
18.261193234036764	2.9978802	1.7314388
18.278945129831676	2.9920955	1.7297674
18.29669746806386	2.964155	1.7216722
18.314450249192483	2.9650288	1.7219259
18.3322034736768	2.9810405	1.7265689
18.349957141976184	2.9939013	1.7302893
18.3677112545501	3.0114353	1.7353487
18.385465811858108	3.0294833	1.7405411
18.403220814359884	3.0267966	1.7397691
18.420976262515172	3.017294	1.737036
18.43873215678387	3.0458984	1.7452502
18.456488497625923	3.0929987	1.7586924
18.474245285501407	3.2152655	1.7931161
18.492002520870486	3.2733207	1.8092321
18.50976020419343	3.356752	1.832144
18.527518335930615	3.628693	1.9049128
18.545276916542516	4.182018	2.0449982
18.563035946489688	4.3541217	2.0866532
18.580795426232832	4.7579894	2.1812816
18.598555356232698	4.6239524	2.1503377
18.616315736950185	4.892014	2.2117898
18.63407656884626	4.5709724	2.1379833
18.65183785238201	4.772604	2.184629
18.669599588018617	4.6083403	2.1467044
18.68736177621737	4.5731673	2.1384964
18.705124417439652	4.533142	2.1291177
18.72288751214696	4.3785276	2.092493
18.740651060800886	4.5037656	2.1222076
18.758415063863115	4.2190475	2.054032
18.77617952179546	4.3814697	2.0931962
18.793944435059814	4.1510615	2.0374155
18.811709804118184	4.12495	2.0309973
18.829475629432675	4.10597	2.0263193
18.8472419114655	3.9265053	1.9815412
18.86500865067897	4.027765	2.0069292
18.88277584753551	3.7067885	1.9253021
18.90054350249763	3.7217362	1.9291801
18.918311616027957	3.4279628	1.8514758
18.936080188589226	3.3386114	1.8271867
18.953849220644265	3.0241613	1.7390116
18.971618712656007	2.826191	1.6811279
18.9893886650875	2.762522	1.6620836
19.007159078401887	7.9545794	2.8203864
19.024929953062408	32.838043	5.7304487
19.042701289532435	32.771084	5.724603
19.060473088275405	25.303928	5.030301
19.07824534975489	2.6025758	1.61325
19.096018074434568	2.6262074	1.6205578
19.113791262778197	2.6000073	1.6124538
19.13156491524966	2.5629396	1.6009184
19.149339032312945	2.5709302	1.603412
19.167113614432136	2.5968597	1.6114775
19.184888662071433	2.5675266	1.6023504
19.202664175695123	2.5743222	1.6044694
19.220440155767623	2.535992	1.5924798
19.238216602753447	2.509856	1.5842525
19.2559935171172	2.5014877	1.5816092
19.27377089932361	2.5254364	1.5891621
19.291548749837514	2.5386302	1.593308
19.309327069123835	2.5272381	1.589729
19.32710585764763	2.4957411	1.5797914
19.344885115874032	2.4893587	1.5777701
19.362664844268313	2.4924405	1.5787464
19.380445043295822	2.4685166	1.5711514
19.39822571342203	2.452646	1.5660926
19.41600685511252	2.446994	1.5642871
19.43378846883297	2.4653149	1.5701321
19.451570555049173	2.4289732	1.5585164
19.469353114227037	2.4197736	1.5555621
19.48713614683254	2.4161928	1.5544107
19.50491965333182	2.4243572	1.5570347
19.52270363419109	2.4372673	1.561175
19.540488089876686	2.4417198	1.5626004
19.55827302085503	2.4152367	1.5541031
19.576058427592674	2.4111776	1.5527967
19.593844310556282	2.456889	1.5674466
19.611630670212598	2.4661286	1.5703912
19.629417507028506	2.4897356	1.5778896
19.64720482147098	2.4935365	1.5790936
19.6649926140071	2.5171304	1.5865467
19.682780885104084	2.4899733	1.5779649
19.70056963522921	2.4621742	1.5691316
19.718358864849908	2.4503202	1.5653499
19.7361485744337	2.4764624	1.573678
19.753938764448215	2.479515	1.5746475
19.771729435361202	2.4882638	1.5774232
19.789520587640506	2.4744844	1.5730494
19.807312221754092	2.4969604	1.5801773
19.825104338170043	2.4976082	1.5803823
19.842896937356517	2.502273	1.5818574
19.860690019781824	2.4750173	1.5732188
19.87848358591436	2.4369755	1.5610815
19.896277636222635	2.4480493	1.5646243
19.914072171175278	2.4813566	1.5752323
19.931867191241015	2.522891	1.5883611
19.94966269688869	2.5376012	1.592985
19.967458688587264	2.5187752	1.587065
19.985255166805807	2.4842606	1.5761538
20.00305213201348	2.4377358	1.561325
20.020849584679578	2.4221156	1.5563147
20.038647525273507	2.4303913	1.5589713
20.05644595426477	2.4472883	1.5643811
20.07424487212299	2.4376516	1.561298
20.092044279317903	2.4508872	1.565531
20.109844176319353	2.43405	1.5601443
20.127644563597304	2.4007423	1.5494329
20.145445441621817	2.3875284	1.5451629
20.16324681086307	2.400634	1.549398
20.181048671791373	2.3986232	1.548749
20.198851024877122	2.3704793	1.5396361
20.216653870590836	2.3267279	1.5253615
20.234457209403146	2.3238058	1.5244035
20.252261041784802	2.3563359	1.5350361
20.270065368206662	2.379933	1.5427032
20.287870189139685	2.358726	1.5358144
20.305675505054968	2.3927436	1.5468496
20.323481316423702	2.421105	1.55599
20.341287623717207	2.3811855	1.543109
20.359094427406884	2.330536	1.5266093
20.376901727964288	2.3042874	1.517988
20.39470952586107	2.3019307	1.5172114
20.41251782156899	2.3131902	1.5209175
20.430326615559935	2.3327963	1.5273495
20.448135908305886	2.349938	1.5329508
20.465945700278965	2.3557742	1.5348531
20.483755991951384	2.3253658	1.524915
20.50156678379548	2.313875	1.5211426
20.519378076283708	2.3329632	1.5274041
20.537189869888635	2.3460095	1.5316689
20.55500216508294	2.3336895	1.5276418
20.572814962339415	2.333852	1.5276951
20.59062826213098	2.3094654	1.5196925
20.60844206493066	2.3223128	1.5239136
20.626256371211593	2.3093426	1.5196521
20.644071181447032	2.323448	1.524286
20.66188649611036	2.332447	1.5272352
20.67970231567506	2.3510334	1.533308
20.697518640614742	2.3444414	1.5311569
20.715335471403122	2.320296	1.5232518
20.73315280851404	2.248387	1.4994622
20.750970652421447	2.2393699	1.4964525
20.768789003599412	2.2703834	1.5067791
20.786607862522136	2.2914772	1.5137626
20.8044272296639	2.2567885	1.5022612
20.82224710549913	2.2322814	1.4940821
20.84006749050237	2.2212267	1.490378
20.857888385148268	3.8122578	1.9525003
20.8757097899116	45.91892	6.77635
20.893531705267254	64.75911	8.047304
20.911354131690224	83.75446	9.151747
20.92917706965566	69.01473	8.30751
20.94700051963877	50.088196	7.0773015
20.96482448211493	29.379612	5.420296
20.982648957559622	4.119555	2.0296688
21.00047394644843	2.243806	1.4979339
21.01829944925707	2.2323496	1.494105
21.036125466461375	2.2604525	1.5034801
21.053951998537297	2.2593775	1.5031226
21.071779045960906	2.2288287	1.4929262
21.089606609208378	2.172125	1.473813
21.10743468875603	2.1406665	1.4631016
21.12526328508028	2.1601174	1.4697338
21.143092398657675	2.171086	1.4734606
21.16092202996488	2.163213	1.4707866
21.17875217947867	2.1796784	1.4763734
21.19658284767596	2.2144027	1.4880869
21.21441403503377	2.2162218	1.488698
21.232245742029225	2.2050831	1.4849522
21.2500779691396	2.154874	1.4679489
21.26791071684227	2.1578398	1.4689587
21.28574398561475	2.1189096	1.4556475
21.30357777593465	2.106161	1.4512619
21.321412088279704	2.0693054	1.438508
21.339246923127792	2.0893812	1.4454693
21.357082280956888	2.0901256	1.4457266
21.3749181622451	2.1249106	1.4577073
21.392754567470647	2.1098216	1.4525225
21.41059149711187	2.1379242	1.4621642
21.42842895164726	2.1113615	1.4530525
21.446266931555378	2.097012	1.4481064
21.464105437314945	2.0775964	1.4413869
21.481944469404798	2.0960648	1.4477793
21.49978402830388	2.0675347	1.4378924
21.51762411449127	2.030679	1.4250189
21.53546472844617	2.0223882	1.422107
21.553305870647876	2.062168	1.436025
21.571147541575865	2.069115	1.4384419
21.58898974170967	2.0535102	1.4330074
21.60683247152899	2.047462	1.4308956
21.62467573151363	2.0548105	1.4334611
21.642519522143523	2.0576215	1.4344412
21.660363843898722	2.0768495	1.4411279
21.6782086972594	2.0440857	1.4297153
21.696054082705864	2.032263	1.4255747
21.713900000718535	1.996552	1.412994
21.73174645177795	2.0172915	1.4203138
21.749593436364794	2.0131216	1.4188452
21.767440954959845	2.0146673	1.4193897
21.785289008044032	2.032326	1.4255967
21.803137596098388	2.0466602	1.4306153
21.820986719604086	2.048861	1.4313843
21.838836379042412	2.0491066	1.43147
21.85668657489478	2.0568602	1.4341758
21.87453730764273	2.0636582	1.4365438
21.892388577767914	2.049113	1.4314723
21.91024038575213	2.0082133	1.4171144
21.928092732077285	1.9693841	1.4033475
21.945945617225426	1.9561399	1.3986207
21.963799041678694	1.9582014	1.3993576
21.981653005919398	31.308355	5.595387
21.999507510429943	78.10795	8.837871
22.01736255569286	73.040375	8.546366
22.035218142190818	4.098935	2.0245826
22.05307427040661	1.944955	1.3946165
22.07093094082315	1.9663619	1.4022703
22.088788153923474	1.9898103	1.4106064
22.106645910190746	1.9523367	1.3972604
22.12450421010827	1.9345305	1.390874
22.142363054159464	1.8952845	1.3766934
22.16022244282787	1.9232994	1.3868307
22.178082376597164	1.9308642	1.3895555
22.195942855951145	1.9842706	1.4086413
22.213803881373742	1.9957651	1.4127156
22.231665453349002	1.9568166	1.3988626
22.24952757236111	1.8995682	1.3782482
22.26739023889438	1.9091161	1.3817077
22.28525345343323	1.9032527	1.3795843
22.30311721646225	1.947197	1.39542
22.320981528466113	1.9457763	1.3949109
22.33884638992964	1.9686549	1.4030876
22.356711801337788	1.9474356	1.3955055
22.37457776317561	1.9465959	1.3952047
22.392444275928337	1.9223887	1.3865023
22.410311340081282	1.9352152	1.3911202
22.428178956119904	1.9454163	1.3947818
22.446047124529805	1.9453492	1.3947577
22.46391584579669	1.9178957	1.3848811
22.481785120406414	1.9031085	1.379532
22.49965494884496	1.9055712	1.3804243
22.51752533159841	1.928407	1.3886709
22.53539626915302	1.9569316	1.3989037
22.553267761995137	1.965885	1.4021002
22.571139810611264	1.9421952	1.3936266
22.589012415488025	1.9493492	1.396191
22.60688557711216	1.9574122	1.3990755
22.624759295970566	1.995267	1.4125392
22.642633572550263	1.9874243	1.4097604
22.660508407338362	1.9757653	1.4056193
22.67838380082217	1.9685477	1.4030495
22.696259753489077	1.9233757	1.3868582
22.714136265826614	1.9213101	1.3861133
22.73201333832246	1.9084216	1.3814564
22.74989097146439	1.9168432	1.3845011
22.76776916574035	1.8858631	1.3732673
22.785647921638393	1.9139018	1.3834383
22.803527239646712	1.9638339	1.4013686
22.82140712025363	1.9613425	1.4004793
22.839287563947593	1.9320159	1.3899697
22.85716857121719	1.879821	1.3710656
22.875050142551135	1.8698608	1.3674285
22.892932278438277	1.912856	1.3830603
22.910814979367604	1.9328465	1.3902686
22.928698245828222	1.9184716	1.385089
22.946582078309387	1.9148175	1.3837693
22.96446647730047	1.8990128	1.3780468
22.98235144329098	1.8612541	1.3642778
23.000236976770562	1.8222911	1.3499227
23.018123078229	1.8480777	1.3594402
23.03600974815619	1.8800156	1.3711367
23.053896987042194	1.9283628	1.3886551
23.071784795377173	1.9482193	1.3957863
23.08967317365145	1.923102	1.3867595
23.10756212235546	1.8893499	1.3745363
23.125451641979787	1.8614823	1.3643615
23.143341733015134	1.8550256	1.3619933
23.161232395952357	1.873525	1.3687677
23.179123631282426	1.9323938	1.3901057
23.197015439496468	1.9482727	1.3958054
23.214907821085717	1.9626056	1.4009303
23.23280077654157	1.9637661	1.4013444
23.250694306355538	1.9537854	1.3977787
23.268588411019277	1.9476322	1.3955759
23.28648309102458	1.9815655	1.4076809
23.304378346863356	1.9932765	1.4118345
23.322274179027676	1.9866121	1.4094722
23.340170588009723	1.9527601	1.397412
23.358067574301852	1.9142605	1.383568
23.37596513839651	1.8994145	1.3781925
23.39386328078629	1.8903507	1.3749002
23.411762001963947	1.9067913	1.3808662
23.429661302422353	1.9540899	1.3978877
23.4475611826545	1.963987	1.4014232
23.46546164315356	1.9442848	1.3943762
23.48336268441279	1.9302788	1.3893447
23.501264306925638	1.9118254	1.3826878
23.51916651118564	1.8670757	1.3664098
23.537069297686497	1.8614104	1.3643352
23.554972666922037	1.8527691	1.3611646
23.57287661938623	1.866846	1.3663257
23.59078115557318	1.8495922	1.3599972
23.608686275977128	1.87548	1.3694817
23.62659198109246	1.8939313	1.3762017
23.6444982714137	1.9014709	1.3789383
23.66240514743549	1.8789109	1.3707337
23.68031260965263	1.900472	1.378576
23.698220658560068	1.9177189	1.3848172
23.716129294652845	1.9281274	1.3885703
23.7340385184262	1.9402963	1.3929452
23.75194833037546	1.9263188	1.3879188
23.769858730996123	1.9064642	1.3807477
23.78776972078382	1.9515758	1.3969882
23.80568130023431	1.9361068	1.3914405
23.823593469843495	1.9119133	1.3827195
23.841506230107424	1.8843222	1.3727062
23.859419581522275	1.8862145	1.3733952
23.87733352458438	1.8748407	1.3692483
23.89524805979019	1.8766338	1.3699028
23.913163187636318	1.8751508	1.3693614
23.931078908619508	1.8941287	1.3762735
23.948995223236633	1.9384933	1.3922979
23.966912131984735	1.9853503	1.4090246
23.98482963536096	2.0292964	1.4245337
24.002747733862616	2.0346665	1.4264174
24.020666427987155	2.025292	1.4231275
24.038585718232156	2.0202	1.4213374
24.056505605095353	2.0222538	1.4220597
24.074426089074617	2.0566428	1.4341
24.092347170667946	2.0219407	1.4219496
24.110268850373515	2.007618	1.4169043
24.128191128689586	1.9953637	1.4125735
24.146114006114626	1.9909413	1.4110072
24.164037483147187	1.9821709	1.4078959
24.181961560286005	1.9909958	1.4110265
24.199886238029926	2.017399	1.4203517
24.21781151687797	2.033224	1.4259117
24.235737397329274	2.0698633	1.438702
24.253663879883135	2.0673296	1.4378211
24.271590965038975	2.0347624	1.426451
24.289518653296376	1.9818883	1.4077955
24.30744694515505	2.012215	1.4185256
24.32537584111486	2.0780275	1.4415365
24.34330534167581	2.112442	1.4534242
24.361235447338046	2.1205847	1.4562228
24.379166158601876	2.1219053	1.4566761
24.39709747596772	2.057189	1.4342904
24.41502939993615	2.0115068	1.418276
24.432961931007917	2.015299	1.4196123
24.450895069683856	2.04459	1.4298916
24.468828816465	2.0210903	1.4216505
24.4867631718525	1.9758469	1.4056482
24.504698136347656	1.9455818	1.3948412
24.52263371045192	1.9798497	1.4070714
24.540569894666874	1.993263	1.4118297
24.558506689494266	1.9983454	1.4136285
24.57644409543597	1.965545	1.401979
24.594382112994012	1.9763063	1.4058117
24.61232074267057	1.9929092	1.4117043
24.630259984967953	2.003459	1.4154359
24.64819984038863	1.9707868	1.4038471
24.66614030943522	1.9453328	1.3947519
24.684081392610462	1.9254389	1.3876019
24.702023090417274	1.9797559	1.407038
24.7199654033587	1.9704794	1.4037377
24.737908331937927	1.9741032	1.4050279
24.755851876658305	1.989195	1.4103882
24.773796038023324	2.0056975	1.4162265
24.79174081653661	2.038117	1.4276264
24.809686212701962	2.0806775	1.4424554
24.827632227023294	2.129693	1.4593468
24.8455788600047	2.0880764	1.4450178
24.8635261121504	2.0990462	1.4488086
24.88147398396475	2.128581	1.4589658
24.899422475952303	2.1501663	1.4663445
24.917371588617698	2.1265519	1.4582702
24.935321322465768	2.149944	1.4662688
24.953271678001478	2.2701938	1.5067163
24.97122265572994	2.4694972	1.5714633
24.989174256156414	2.7798843	1.6672986
25.00712647978632	3.3766341	1.837562
25.02507932712521	4.387956	2.094745
25.043032798678798	5.888978	2.4267216
25.060986894952933	7.604501	2.7576258
25.078941616453637	9.098459	3.0163653
25.096896963687055	10.042239	3.1689491
25.114852937159508	10.645286	3.2627113
25.132809537377444	10.366819	3.2197545
25.150766764847468	9.622198	3.1019669
25.168724620076347	8.228297	2.868501
25.186683103570985	7.090966	2.6628869
25.204642215838426	5.757981	2.3995793
25.222601957385894	4.6719055	2.1614592
25.24056232872074	3.5643277	1.8879427
25.25852333035048	2.8203712	1.679396
25.276484962782778	2.3731291	1.5404963
25.294447226525435	2.1572595	1.4687612
25.312410122086423	2.0199077	1.4212346
25.330373649973843	1.9794254	1.4069206
25.348337810695988	1.988209	1.4100387
25.366302604761245	2.0006385	1.4144393
25.384268032678207	1.9294895	1.3890606
25.40223409495558	1.896801	1.377244
25.420200792102257	1.9095703	1.381872
25.438168124627246	1.927856	1.3884726
25.45613609303974	1.9296467	1.3891172
25.474104697849057	1.9422914	1.3936611
25.492073939564698	1.95578	1.3984921
25.510043818696285	1.9034264	1.3796473
25.528014335753614	1.8770506	1.370055
25.54598549124664	1.889121	1.374453
25.56395728568544	1.9172288	1.3846403
25.58192971958028	1.8731725	1.3686389
25.59990279344156	1.8530916	1.3612831
25.617876507779833	1.85755	1.3629197
25.635850863105826	1.84058	1.3566798
25.653825859930386	1.8512868	1.36062
25.671801498764548	1.8340901	1.3542858
25.68977778011949	1.84637	1.358812
25.707754704506524	1.8335444	1.3540844
25.725732272437153	1.794799	1.339701
25.743710484423012	1.7742298	1.3320022
25.761689340975888	1.7966977	1.3404095
25.77966884260774	1.7932844	1.3391356
25.797648989830662	1.8121365	1.3461562
25.815629783156922	1.8327864	1.3538045
25.83361122309895	1.8284646	1.3522073
25.85159331016929	1.8460089	1.358679
25.869576044880695	1.8257537	1.3512045
25.887559427746034	1.8053751	1.3436425
25.90554345927836	1.8259134	1.3512636
25.92352813999086	1.8012104	1.3420918
25.94151347039689	1.7909822	1.3382758
25.959499451009965	1.7853339	1.3361639
25.97748608234374	1.7775253	1.3332386
25.995473364912062	1.7856843	1.336295
26.013461299228904	1.830537	1.3529733
26.03144988580839	1.8484138	1.3595638
26.04943912516483	1.8554152	1.3621362
26.067429017812675	1.857834	1.3630239
26.085419564266537	1.8162804	1.3476945
26.103410765041186	1.7983264	1.3410169
26.12140262065155	1.8095968	1.3452126
26.139395131612723	1.8215609	1.3496522
26.157388298439948	1.8804934	1.3713108
26.17538212164861	1.843396	1.3577172
26.193376601754295	1.8064395	1.3440385
26.211371739272714	1.8298873	1.3527333
26.229367534719746	1.8716242	1.3680732
26.247363988611433	1.8504069	1.3602966
26.26536110146397	1.8349226	1.3545932
26.283358873793727	1.8183501	1.3484621
26.301357306117204	1.7991574	1.3413267
26.319356398951104	1.8367984	1.3552854
26.33735615281224	1.8473605	1.3591764
26.35535656821762	1.8307612	1.3530562
26.373357645684404	1.7737771	1.3318323
26.39135938572991	1.7594658	1.3264486
26.409361788871614	1.8193446	1.3488308
26.427364855627165	1.8208879	1.3494028
26.445368586514352	1.7985742	1.3411093
26.46337298205115	1.8112884	1.3458412
26.48137804275568	1.8048575	1.3434498
26.499383769146217	1.7507632	1.3231641
26.517390161741215	1.7448078	1.3209118
26.53539722105928	1.8016138	1.3422421
26.553404947619182	1.8488042	1.3597074
26.571413341939856	1.8600739	1.3638452
26.589422404540397	1.8496394	1.3600144
26.60743213594006	1.8303043	1.3528874
26.62544253665827	1.7980474	1.3409129
26.64345360721459	1.7777181	1.333311
26.66146534812879	1.7987907	1.34119
26.679477759920758	1.8181345	1.3483822
26.69749084311057	1.8230311	1.3501967
26.71550459821847	1.8541424	1.361669
26.733519025764842	1.8636881	1.3651696
26.751534126270258	1.7997161	1.341535
26.769549900255434	1.7507402	1.3231554
26.787566348241267	1.7208971	1.3118297
26.80558347074881	1.6971451	1.3027452
26.823601268299267	1.6763344	1.2947333
26.841619741414036	1.7226411	1.3124943
26.85963889061465	1.7796243	1.3340256
26.877658716422832	1.7896429	1.3377753
26.89567921936045	1.7518965	1.3235923
26.913700399949544	1.7771804	1.3331093
26.93172225871233	1.7858092	1.3363417
26.949744796171174	1.7481164	1.3221635
26.967768012848605	1.7760278	1.3326769
26.98579190926733	1.8109336	1.3457093
27.003816485950225	1.8126107	1.3463323
27.021841743420318	1.7893014	1.3376477
27.039867682200814	1.7756482	1.3325346
27.057894302815072	1.8266498	1.351536
27.07592160578664	1.9102745	1.3821268
27.0939495916392	1.9042201	1.3799348
27.111978260896635	1.8427681	1.3574859
27.13000761408296	1.8436453	1.3578091
27.148037651722397	1.7936593	1.3392757
27.166068374339304	1.7868706	1.3367388
27.184099782458215	1.7890935	1.33757
27.20213187660384	1.7913277	1.3384049
27.22016465730105	1.8031133	1.3428006
27.23819812507487	1.8149174	1.3471887
27.256232280450533	1.831287	1.3532505
27.274267123953383	1.8357441	1.3548963
27.292302656108987	1.8742329	1.3690263
27.31033887744306	1.8668653	1.3663328
27.32837578848146	1.8500388	1.3601613
27.34641338975026	1.8296502	1.3526456
27.364451681775673	1.7903104	1.3380249
27.382490665084074	1.7778957	1.3333776
27.400530340202046	1.8133478	1.346606
27.41857070765629	1.8621498	1.3646061
27.436611767973726	1.8497704	1.3600626
27.454653521681404	1.7927378	1.3389316
27.472695969306564	1.7896941	1.3377944
27.490739111376627	1.8007281	1.3419122
27.508782948419153	1.781951	1.3348974
27.526827480961902	1.8183506	1.3484623
27.54487270953279	1.8748271	1.3692433
27.562918634659898	1.8743086	1.369054
27.580965256871508	1.8561052	1.3623896
27.599012576696026	1.8439158	1.3579086
27.617060594662068	1.823415	1.3503388
27.63510931129842	1.8309648	1.3531315
27.65315872713401	1.8082474	1.344711
27.67120884269797	1.8018328	1.3423237
27.68925965851958	1.8185146	1.3485231
27.707311175128307	1.8242861	1.3506614
27.725363393053787	1.8255463	1.3511277
27.74341631282583	1.8484937	1.3595932
27.7614699349744	1.8979009	1.3776432
27.77952426002968	2.0815165	1.4427462
27.797579288521973	2.156172	1.468391
27.815635020981784	2.5783856	1.6057352
27.83369145793979	2.6718976	1.6345941
27.85174859992682	2.545771	1.5955472
27.869806447473923	2.4373195	1.5611917
27.887865001112267	2.1243832	1.4575264
27.905924261373233	1.9896016	1.4105324
27.92398422878836	1.9868575	1.4095594
27.94204490388936	1.9425865	1.393767
27.96010628720813	1.8943429	1.3763514
27.978168379276728	1.8641914	1.365354
27.9962311806274	1.8761976	1.3697436
28.014294691792568	1.9057344	1.3804834
28.0323589133048	1.9530554	1.3975176
28.050423845696887	1.8833361	1.3723469
28.068489489501758	1.8722143	1.3682889
28.086555845252523	1.86547	1.3658221
28.104622913482487	1.8721097	1.3682506
28.122690694725115	1.8467015	1.3589339
28.14075918951405	1.8682764	1.3668491
28.15882839838312	1.8525518	1.3610848
28.176898321866304	1.90358	1.3797028
28.1949689604978	1.9400684	1.3928634
28.213040314811945	1.9277382	1.3884301
28.23111238534327	1.9038876	1.3798144
28.249185172626493	1.9461255	1.395036
28.267258677196473	1.998221	1.4135845
28.285332899588294	2.0095913	1.4176005
28.303407840337172	1.9405682	1.3930428
28.321483499978545	1.9347395	1.3909491
28.33955987904799	2.002647	1.4151491
28.357636978081285	2.0484073	1.4312258
28.37571479761439	2.006925	1.4166598
28.393793338183425	1.9536101	1.397716
28.41187260032469	1.9843024	1.4086527
28.429952584574686	2.051625	1.4323494
28.448033291470065	2.0687895	1.4383287
28.46611472154769	2.0571933	1.434292
28.484196875344566	2.048654	1.431312
28.502279753397914	2.0135665	1.4190019
28.52036335624511	1.9758241	1.4056401
28.538447684423716	1.9625658	1.4009161
28.556532738471482	2.0035563	1.4154704
28.574618518926325	2.0418105	1.4289193
28.59270502632635	2.0266173	1.423593
28.61079226120985	2.0107021	1.4179922
28.628880224115274	2.0428262	1.4292747
28.646968915581287	2.084014	1.4436114
28.66505833614671	2.0933511	1.4468417
28.68314848635055	2.104341	1.4506347
28.701239366732004	2.0705776	1.4389502
28.71933097783044	2.0195377	1.4211044
28.737423320185403	2.0430691	1.4293597
28.75551639433665	2.1086361	1.4521143
28.773610200824074	2.1485286	1.465786
28.791704740187793	2.1450543	1.4646004
28.80980001296809	2.1447895	1.46451
28.827896019705413	2.184112	1.4778742
28.845992760940433	2.206287	1.4853575
28.86409023721397	2.219902	1.4899336
28.88218844906704	2.186891	1.4788141
28.900287397040845	2.2422297	1.4974077
28.918387081676755	2.2899072	1.5132439
28.936487503516343	2.2469034	1.4989674
28.954588663101365	2.2634537	1.5044779
28.97269056097374	2.2745461	1.5081599
28.990793197675597	2.3160744	1.5218654
29.00889657374923	2.339969	1.5296957
29.027000689737125	2.3200312	1.5231649
29.04510554618196	2.363481	1.5373617
29.06321114362659	2.3919363	1.5465887
29.08131748261405	2.43611	1.5608042
29.099424563687567	2.454317	1.5666261
29.11753238739057	2.4833202	1.5758554
29.13564095426663	2.5359826	1.5924768
29.15375026485954	2.6193624	1.6184444
29.171860319713275	2.6426086	1.6256102
29.18997111937199	2.665322	1.6325814
29.20808266438002	2.704664	1.6445863
29.226194955281898	2.7665656	1.6632996
29.244307992622335	2.834481	1.6835917
29.26242177694624	2.9130034	1.7067523
29.2805363087987	2.9210095	1.7090961
29.29865158872498	2.911041	1.7061774
29.316767617270557	2.916772	1.7078559
29.334884394981064	3.006541	1.733938
29.353001922402367	3.0594842	1.7491381
29.37112020008047	3.1075559	1.7628261
29.389239228561596	3.1923494	1.7867147
29.407359008392152	3.308443	1.8189126
29.42547954011872	3.555069	1.8854891
29.44360082428809	3.9885027	1.9971236
29.46172286144722	4.8710613	2.2070482
29.479845652143283	6.3975234	2.5293326
29.497969196923606	9.075369	3.0125353
29.516093496335728	12.914672	3.593699
29.5342185509274	16.642643	4.07954
29.55234436124651	19.911062	4.4621816
29.570470927841175	21.333979	4.618872
29.588598251259686	21.012407	4.583929
29.60672633205055	19.291134	4.3921676
29.624855170762405	16.288721	4.0359287
29.642984767944146	12.878691	3.5886893
29.66111512414481	9.507016	3.083345
29.67924623991366	7.056132	2.656338
29.697378115800138	5.269828	2.2956107
29.71551075235387	4.342693	2.0839128
29.733644150124675	3.7771776	1.9434962
29.751778309662576	3.5264804	1.8778925
29.769913231517766	3.4172707	1.8485861
29.78804891624066	3.359755	1.8329635
29.806185364381818	3.3495667	1.8301822
29.82432257649206	3.3067799	1.8184553
29.842460553122333	3.303832	1.8176446
29.86059929482382	3.3283408	1.8243741
29.878738802147872	3.298672	1.8162247
29.896879075646048	3.2415607	1.8004335
29.915020115870114	3.1811922	1.7835897
29.933161923371976	3.2499814	1.8027705
29.951304498703777	3.298186	1.8160908
29.969447842417857	3.2712767	1.8086671
29.987591955066733	3.1872034	1.785274
30.005736837203123	3.1932201	1.7869583
30.023882489379943	3.182395	1.7839268
30.04202891215028	3.1896436	1.7859573
30.060176106067455	3.153734	1.7758756
30.078324071684946	3.1721165	1.7810436
30.09647280955646	3.2000263	1.7888618
30.114622320235863	3.166968	1.7795978
30.132772604277257	3.106131	1.762422
30.1509236622349	3.037962	1.742975
30.16907549466328	3.032916	1.741527
30.18722810211705	3.1100416	1.763531
30.205381485151097	3.1245582	1.767642
30.22353564432045	3.1073422	1.7627655
30.241690580180403	3.1063068	1.7624718
30.25984629328638	3.076717	1.7540573
30.278002784194037	3.0461774	1.7453302
30.296160053459246	2.9919891	1.7297367
30.314318101638033	2.9081273	1.7053232
30.332476929286646	2.8722446	1.6947697
30.35063653696153	2.9600213	1.7204713
30.368796925219307	3.020788	1.7380414
30.386958094616844	2.9462526	1.7164651
30.40512004571115	2.8457398	1.6869321
30.423282779059463	2.8539119	1.6893525
30.441446295219233	2.8931386	1.7009228
30.459610594748067	2.9331856	1.7126546
30.47777567820382	2.9089024	1.7055504
30.495941546144504	2.8205976	1.6794635
30.51410819912835	2.8436897	1.6863244
30.532275637713795	2.9157693	1.7075624
30.55044386245946	2.8800166	1.6970612
30.56861287392416	2.7982085	1.6727847
30.586782672666956	2.7824173	1.6680579
30.604953259247047	2.8112109	1.6766666
30.623124634223885	2.8682601	1.6935939
30.641296798157075	2.844554	1.6865805
30.659469751606462	2.7962039	1.6721853
30.677643495132074	2.8023386	1.6740187
30.695818029294152	2.7667358	1.6633508
30.713993354653116	2.7508054	1.6585552
30.73216947176962	2.7057993	1.6449314
30.75034638120448	2.6689126	1.6336807
30.768524083518756	2.7331781	1.6532326
30.786702579273673	2.8485188	1.6877556
30.80488186903069	2.9478426	1.7169282
30.82306195335144	3.0765717	1.7540159
30.841242832797782	3.3420994	1.828141
30.85942450793176	3.6226652	1.90333
30.877606979315637	3.9845061	1.9961227
30.895790247511883	4.4015355	2.0979836
30.913974313083134	4.8429456	2.2006693
30.932159176592283	5.29677	2.3014712
30.95034483860237	5.748065	2.3975122
30.968531299676698	5.767757	2.4016154
30.98671856037873	5.4637604	2.3374689
31.00490662127215	5.0138745	2.2391682
31.023095482920848	4.448179	2.1090705
31.04128514588892	3.7738476	1.9426394
31.059475610740662	3.2478704	1.8021849
31.07766687804056	2.8892117	1.6997681
31.09585894835335	2.5684702	1.6026448
31.11405182224393	2.421673	1.5561726
31.132245500277417	2.4402626	1.562134
31.15043998301914	2.4944243	1.5793747
31.168635271034628	2.523418	1.588527
31.18683136488964	2.5053058	1.5828158
31.20502826515008	2.4714894	1.5720972
31.223225972382135	2.421433	1.5560955
31.241424487152155	2.3554826	1.5347581
31.259623810026692	2.3336112	1.5276161
31.27782394157253	2.3083048	1.5193106
31.296024882356644	2.3052847	1.5183164
31.314226632946237	2.3474712	1.532146
31.332429193908684	2.3997266	1.549105
31.350632565811598	2.4217317	1.5561914
31.368836749222787	2.4081068	1.5518076
31.387041744710295	2.4351907	1.5605098
31.40524755284232	2.51754	1.5866758
31.423454174187317	2.5726144	1.6039371
31.441661609313922	2.575915	1.6049658
31.459869858791002	2.550034	1.5968826
31.478078923187628	2.562267	1.6007082
31.496288803073064	2.4807348	1.5750349
31.514499499016807	2.390178	1.54602
31.532711011588546	2.3581495	1.5356268
31.550923341358178	2.3637838	1.5374602
31.56913648889584	2.3011348	1.5169492
31.587350454771844	2.3097668	1.5197917
31.605565239556732	2.3182173	1.5225693
31.62378084382127	2.3072226	1.5189544
31.641997268136382	2.2818763	1.510588
31.660214513073274	2.3097463	1.5197849
31.67843257920331	2.2980509	1.5159323
31.6966514670981	2.3137093	1.5210881
31.71487117732944	2.3913283	1.5463921
31.733091710469346	2.4037166	1.5503924
31.751313067090052	2.3043666	1.5180141
31.769535247764008	2.2788863	1.509598
31.787758253063878	2.3297493	1.5263517
31.805982083562526	2.3516126	1.5334969
31.824206739833024	2.3490906	1.5326743
31.84243222244869	2.3230498	1.5241554
31.860658531983013	2.309684	1.5197644
31.878885669009737	2.1875615	1.4790407
31.897113634102784	2.1234894	1.4572197
31.91534242783632	2.1762679	1.4752179
31.933572050784694	2.1929498	1.4808612
31.951802503522508	2.2014048	1.4837132
31.970033786624548	2.2332904	1.4944198
31.988265900665834	2.2891996	1.5130101
32.006498846221575	2.2692552	1.5064048
32.02473262386724	2.1974857	1.4823918
32.04296723417845	2.08966	1.4455656
32.0612026777311	2.1135004	1.4537883
32.07943895510129	2.1375024	1.46202
32.097676066865304	2.2124257	1.4874225
32.115914013599685	2.236603	1.4955276
32.13415279588115	2.2433858	1.4977937
32.152392414286666	2.1733701	1.4742354
32.1706328693934	2.126839	1.4583685
32.18887416177875	2.123208	1.4571232
32.20711629202032	2.147086	1.4652938
32.225359260695924	2.1904714	1.4800241
32.243603068383614	2.2117877	1.487208
32.26184771566166	2.2561793	1.5020584
32.28009320310852	2.2553153	1.5017707
32.2983395313029	2.1477554	1.4655222
32.31658670082372	2.0741801	1.4402014
32.33483471225012	2.0678856	1.4380145
32.35308356616143	2.0871987	1.4447141
32.371333263137245	2.2030973	1.4842834
32.38958380375734	2.208112	1.4859717
32.407835188601744	2.1847126	1.4780773
32.42608741825067	2.170893	1.473395
32.444340493284585	2.1452036	1.4646513
32.46259441428416	2.0456269	1.4302541
32.48084918183028	2.0024304	1.4150726
32.49910479650405	2.0039866	1.4156224
32.51736125888683	2.0393527	1.4280591
32.53561856956014	2.103251	1.450259
32.5538767291058	2.1251397	1.4577858
32.572135738105764	2.172977	1.4741021
32.59039559714228	2.1577451	1.4689265
32.608656306797776	2.065298	1.4371145
32.62691786765491	2.0106525	1.4179748
32.645180280296586	2.0003722	1.4143451
32.663443545305896	2.001606	1.4147812
32.68170766326619	2.0794194	1.4420192
32.69997263476099	2.1094394	1.4523909
32.7182384603741	2.015317	1.4196186
32.7365051406895	1.9549862	1.3982083
32.75477267629144	2.010707	1.417994
32.77304106776434	2.0695279	1.4385854
32.79131031569289	2.1240451	1.4574105
32.809580420661966	2.115163	1.45436
32.827851383256714	2.0723717	1.4395734
32.84612320406245	2.0554757	1.433693
32.86439588366476	2.0269737	1.4237183
32.88266942264945	1.9603842	1.4001372
32.9009438216025	1.9422358	1.3936412
32.9192190811102	1.9601424	1.4000509
32.937495201758985	1.9465907	1.3952028
32.95577218413556	1.9063171	1.3806944
32.974050028826866	1.8600976	1.3638539
32.992328736420035	1.8479365	1.3593882
33.010608307502444	1.8611844	1.3642523
33.02888874266169	1.8962258	1.3770351
33.047170042485604	1.94818	1.3957722
33.06545220756225	1.9942983	1.4121963
33.083735238479896	2.0017347	1.4148268
33.10201913582707	1.9540938	1.397889
33.12030390019248	1.9991298	1.4139059
33.138589532165135	2.0503185	1.4318933
33.15687603233419	2.0315123	1.4253113
33.17516340128909	1.920696	1.3858918
33.19345163961947	1.8679863	1.366743
33.211740747915215	1.933047	1.3903406
33.23003072676643	1.9512589	1.3968747
33.248321576763466	1.8561147	1.362393
33.266613298496885	1.8876156	1.3739052
33.28490589255747	1.9915395	1.4112191
33.30319935953626	2.0609958	1.4356169
33.32149370002451	2.0818167	1.4428502
33.339788914613706	2.0111744	1.4181588
33.358085003895575	1.984159	1.4086018
33.376381968462034	2.0036755	1.4155124
33.39467980890529	2.0348914	1.4264961
33.41297852581774	2.081927	1.4428885
33.43127811979204	1.9342966	1.3907899
33.44957859142105	1.8338455	1.3541955
33.467879941297866	1.8518641	1.3608321
33.486182170015844	1.8841617	1.3726476
33.50448527816853	1.8599447	1.3637979
33.522789266349754	1.9084039	1.3814499
33.541094135153514	2.062869	1.4362692
33.55939988517411	2.206371	1.4853858
33.57770651700602	2.1388397	1.4624772
33.59601403124398	2.0284169	1.424225
33.61432242848296	1.9378262	1.3920583
33.632631709318154	1.9090009	1.381666
33.650941874344994	1.9406193	1.3930612
33.66925292415916	1.961346	1.4004806
33.68756485935654	1.920368	1.3857734
33.70587768053328	1.8577726	1.3630013
33.724191388285746	1.8053044	1.3436161
33.74250598321054	1.8158796	1.3475457
33.760821465904506	1.8192277	1.3487875
33.77913783696474	1.8241743	1.3506199
33.79745509698852	1.8502973	1.3602563
33.815773246573414	1.8861103	1.3733573
33.8340922863172	1.9738926	1.4049529
33.852412216817896	2.0074587	1.4168482
33.87073303867377	1.9895124	1.4105008
33.889054752483304	1.8871443	1.3737338
33.907377358845245	1.8105849	1.3455797
33.92570085835853	1.8719835	1.3682045
33.94402525162239	1.9611671	1.4004167
33.96235053923627	2.0365186	1.4270664
33.980676721799824	2.1196015	1.4558852
33.999003799912984	2.0994537	1.4489492
34.01733177417592	2.0146494	1.4193834
34.03566064518901	1.9806296	1.4073484
34.0539904135529	2.00137	1.4146979
34.07232107986846	2.1062646	1.4512975
34.090652644736785	2.028051	1.4240965
34.108985108759235	1.8877939	1.3739702
34.12731847253742	1.8258628	1.3512449
34.14565273667313	1.9899969	1.4106725
34.16398790176847	2.093253	1.4468079
34.18232396842574	1.9757488	1.4056133
34.20066093724749	1.849527	1.3599732
34.21899880883651	1.8795913	1.3709819
34.23733758379583	1.851985	1.3608766
34.25567726272874	1.8651401	1.3657013
34.27401784623872	1.9843091	1.408655
34.29235933492957	2.0141509	1.4192078
34.31070172940526	1.9414067	1.3933437
34.32904503027003	1.9781445	1.4064653
34.347389238128386	1.983851	1.4084924
34.36573435358502	1.9239911	1.3870801
34.38408037724492	1.8555986	1.3622036
34.402427309713296	1.9445382	1.394467
34.42077515159559	1.9430223	1.3939233
34.43912390349752	1.9435112	1.3940988
34.45747356602499	1.8510499	1.360533
34.47582413978423	1.758375	1.3260374
34.49417562538163	1.7204211	1.3116482
34.51252802342388	1.8088479	1.3449341
34.53088133451789	1.8929886	1.3758593
34.54923555927084	1.9525224	1.3973268
34.567590698290104	1.9983493	1.4136299
34.58594675218336	2.1170313	1.4550022
34.6043037215585	2.306588	1.5187455
34.62266160702365	2.1183162	1.4554436
34.641020409187234	1.8457522	1.3585846
34.65938012865785	1.934844	1.3909867
34.677740766044394	2.0603347	1.4353865
34.69610232195598	1.9782877	1.4065162
34.714464797002016	1.9136854	1.3833601
34.73282819179208	1.9574988	1.3991064
34.751192506936064	1.80379	1.3430525
34.76955774304408	1.8017552	1.3422947
34.7879239007265	1.7714183	1.3309464
34.80629098059391	1.8602014	1.363892
34.824658983257194	1.99017	1.4107338
34.843027909327446	2.126523	1.4582603
34.86139775941603	1.9489986	1.3960654
34.879768534134534	1.8688818	1.3670706
34.89814023409483	1.9273345	1.3882848
34.91651285990901	2.0485458	1.4312742
34.93488641218944	2.0615642	1.4358149
34.95326089154871	2.1094358	1.4523897
34.97163629859967	2.1465218	1.4651012
34.99001263395542	2.0929615	1.4467071
35.00838989822934	1.9058744	1.380534
35.02676809203499	1.6532949	1.2858051
35.04514721598624	1.6730473	1.2934633
35.063527270697215	1.8097684	1.3452764
35.081908256782256	2.0263312	1.4234926
35.10029017485597	2.0824113	1.4430562
35.11867302553321	2.0588086	1.4348549
35.137056809429104	1.9785756	1.4066185
35.155441527159006	1.9160957	1.3842311
35.173827179338524	2.037796	1.427514
35.19221376658354	2.1689272	1.4727278
35.21060128951017	2.1965892	1.4820895
35.2289897487348	2.0933344	1.446836
35.24737914487405	1.8543975	1.3617626
35.26576947854479	1.9071851	1.3810087
35.28416075036418	2.099692	1.4490315
35.30255296094958	2.247173	1.4990574
35.32094611091867	2.407262	1.5515354
35.33934020088932	2.4629183	1.5693687
35.35773523147969	2.3858855	1.5446311
35.3761312033082	2.2752771	1.5084022
35.394528116993506	2.3505044	1.5331355
35.41292597315452	2.1431992	1.463967
35.431324772410434	2.0545642	1.4333751
35.449724515380666	1.989909	1.4106413
35.46812520268491	1.9083962	1.3814472
35.486526834943106	1.8233047	1.3502979
35.504929412775454	1.6413958	1.2811697
35.52333293680242	1.808469	1.3447933
35.54173740764471	1.9035997	1.3797101
35.560142825923286	1.4661018	1.2108269
35.5785491922594	1.3394849	1.1573611
35.59695650727454	1.1661791	1.0798978
35.61536477159042	0.4990961	0.70646733
