0.008763373481513119	0.0	0.0
0.026290120649546365	0.0	0.0
0.043816868432600686	0.13170215	0.36290792
0.06134361724069026	0.09919149	0.3149468
0.07887036748382949	0.12359138	0.35155565
0.0963971195720331	0.05693081	0.23860179
0.11392387391531617	0.043692295	0.20902702
0.1314506309236943	0.038017362	0.19498041
0.1489773910071836	0.05372531	0.2317872
0.16650415457580078	0.070076324	0.26471934
0.18403092203956356	0.0836343	0.28919595
0.20155769380849	0.07233758	0.26895648
0.2190844702925996	0.12704414	0.35643253
0.2366112519019124	0.21168995	0.46009776
0.2541380390464497	0.20218262	0.44964722
0.27166483213623416	0.17068693	0.41314274
0.28919163158128947	0.073304325	0.27074772
0.3067184377916406	0.027437195	0.16564177
0.324245251177314	0.09838721	0.31366736
0.34177207214833777	0.19479644	0.4413575
0.3592989011147415	0.22930592	0.47885898
0.37682573848655654	0.19495232	0.44153407
0.39435258467381573	0.14881955	0.38577136
0.41187944008655414	0.09460936	0.30758634
0.42940630513480854	0.081538945	0.28555024
0.446933180228618	0.082630835	0.2874558
0.4644600657780234	0.103098445	0.32108948
0.48198696219306775	0.12160896	0.34872475
0.49951386988379676	0.122399814	0.34985685
0.5170407892602581	0.15759362	0.39698064
0.5345677207325025	0.18485227	0.4299445
0.5520946647105822	0.1886758	0.43436828
0.5696216216045534	0.18660271	0.43197536
0.5871485918244737	0.15433359	0.39285314
0.6046755757804043	0.15130365	0.3889777
0.6222025738824094	0.15531893	0.39410523
0.6397295865405557	0.1681439	0.41005352
0.6572566141649129	0.16326903	0.4040656
0.6747836571655547	0.17033225	0.4127133
0.6923107159525568	0.16997796	0.41228384
0.7098377909359992	0.15536216	0.39416006
0.7273648825259653	0.14565253	0.38164452
0.7448919911325411	0.16117299	0.40146357
0.762419117165817	0.17267396	0.41554055
0.7799462610358868	0.20311904	0.4506873
0.7974734231528482	0.17973563	0.4239524
0.8150006039268024	0.15691482	0.39612475
0.8325278037678551	0.15083627	0.38837644
0.8500550230861152	0.1434961	0.3788088
0.8675822622916969	0.17145556	0.41407192
0.8851095217947171	0.20398548	0.45164752
0.9026368020052984	0.21691741	0.46574393
0.9201641033335665	0.23174278	0.4813967
0.9376914261896523	0.212957	0.46147263
0.9552187709836915	0.22036214	0.46942747
0.9727461381258234	0.22341876	0.47267193
0.990273528026193	0.22181748	0.47097504
1.0078009410949496	0.20595385	0.4538214
1.0253283777422473	0.2401072	0.49000734
1.0428558383782454	0.26583454	0.51559144
1.0603833234131086	0.24770996	0.49770468
1.0779108332570058	0.24977052	0.49977046
1.0954383683201119	0.259232	0.5091483
1.112965929012607	0.2980897	0.5459759
1.1304935157446763	0.4836282	0.69543386
1.1480211289265108	0.58357435	0.76392037
1.1655487689683062	1.4179697	1.1907853
1.1830764362802655	1.6693457	1.2920316
1.200604131272596	2.063556	1.4365083
1.2181318543555117	2.528081	1.589994
1.235659605939232	2.5857654	1.6080315
1.253187386433982	4.0591373	2.01473
1.270715196249994	6.2590704	2.5018134
1.2882430357975057	11.602917	3.4063056
1.3057709054867608	16.507002	4.062881
1.3232988057280106	22.40301	4.733182
1.3408267369315112	27.466816	5.2408795
1.358354699507526	31.201916	5.5858674
1.3758826938663256	34.861683	5.9043784
1.3934107204181858	36.615852	6.0511036
1.410938779573391	37.054832	6.087268
1.4284668717422309	37.60093	6.1319594
1.4459949973350033	37.110607	6.0918474
1.4635231567620117	37.17933	6.0974855
1.4810513504335687	36.60602	6.050291
1.4985795787599925	36.000965	6.0000806
1.5161078421516088	35.292587	5.9407563
1.5336361410187505	34.594578	5.881716
1.5511644757717598	34.63097	5.8848085
1.5686928468209842	35.409103	5.950555
1.58622125457678	36.1033	6.008602
1.6037496994495108	37.385437	6.114363
1.621278181849548	37.271973	6.1050777
1.6388067021872719	38.20917	6.181357
1.6563352608730693	37.39466	6.1151175
1.673863858317336	36.449825	6.0373693
1.6913924949304753	35.53932	5.9614863
1.7089211711228998	34.417873	5.866675
1.7264498873050296	33.410126	5.7801495
1.7439786438872935	32.268017	5.6804943
1.7615074412801288	31.425821	5.6058736
1.779036279893981	31.100828	5.576812
1.796565160139305	30.273563	5.5021415
1.814094082426564	29.774483	5.4565997
1.8316230471662298	29.039997	5.3888774
1.849152054768784	28.115595	5.302414
1.8666811056447168	27.452929	5.2395544
1.8842102002045273	26.367699	5.1349487
1.901739338858724	25.967272	5.0958095
1.9192685220178245	25.524052	5.0521336
1.9367977500923557	24.86844	4.986827
1.9543270234928547	24.452568	4.944954
1.971856342629867	23.73385	4.87174
1.9893857079139496	23.342703	4.8314285
2.006915119755667	22.876873	4.7829776
2.0244445785655945	22.249058	4.716891
2.0419740847543175	22.01541	4.692058
2.0595036387324317	21.486847	4.6353908
2.0770332409105414	20.878077	4.5692534
2.094562891699263	20.477709	4.5252304
2.1120925915092217	19.911314	4.4622097
2.129622340751053	19.495941	4.415421
2.1471521398354043	187.82996	13.705107
2.1646819891729323	444.29547	21.078318
2.182211889174303	440.5877	20.990181
2.1997418402501974	452.80655	21.279251
2.2172718428113023	432.62488	20.799637
2.234801897268317	320.64154	17.906466
2.2523320040319548	17.148485	4.1410728
2.269862163512935	16.902676	4.111286
2.287392376121992	16.610573	4.075607
2.304922642269869	16.247917	4.0308704
2.322452962367322	15.99321	3.9991512
2.3399833368251164	15.576895	3.9467576
2.357513766054032	15.4303665	3.9281504
2.3750442504648586	15.155491	3.8930054
2.3925747904683963	14.773478	3.8436282
2.410105386475459	14.409703	3.7960114
2.4276360388968707	13.975949	3.7384422
2.445166748143469	13.780948	3.7122698
2.4626975146261025	13.485765	3.672297
2.4802283387556323	13.396043	3.6600604
2.4977592209429305	13.141433	3.6251113
2.5152901615988825	12.878078	3.588604
2.5328211611343865	12.83133	3.5820847
2.5503522199603523	12.596067	3.549094
2.5678833384877024	12.425029	3.5249155
2.5854145171273712	12.137919	3.4839518
2.6029457562903064	11.886825	3.4477274
2.620477056387469	11.759188	3.4291673
2.6380084178298326	11.5645075	3.400663
2.655539841028383	11.328941	3.3658493
2.673071326394119	11.237738	3.3522735
2.6906028743380523	11.045741	3.3235133
2.708134485271211	10.880424	3.2985487
2.7256661596046325	10.748341	3.2784662
2.743197897749369	10.694029	3.2701726
2.760729700116486	10.566556	3.250624
2.778261567117063	10.310613	3.2110143
2.795793499162193	10.102041	3.178371
2.8133254966629817	10.009709	3.1638124
2.830857560030551	9.864356	3.1407573
2.8483896896760337	9.751888	3.1228013
2.865921886010578	9.450249	3.0741258
2.883454149445347	9.347244	3.0573263
2.9009864803915177	9.252205	3.0417438
2.91851887926028	9.179302	3.0297363
2.9360513464628384	9.161453	3.0267892
2.953583882410413	8.963451	2.9939024
2.9711164875142373	8.893159	2.98214
2.9886491621855606	8.820505	2.9699335
3.0061819068356455	8.696929	2.9490557
3.023714721875769	8.595365	2.931785
3.041247607717225	8.308183	2.882392
3.0587805647713213	8.234029	2.8694997
3.0763135934493806	8.10057	2.84615
3.0938466941627407	7.9757648	2.8241396
3.1113798673227544	7.948499	2.8193083
3.1289131133407904	7.8157334	2.7956634
3.1464464326282315	7.7559786	2.7849557
3.1639798255964786	7.6173363	2.7599523
3.1815132926569443	7.456566	2.7306714
3.1990468342210603	7.5236273	2.742923
3.216580450700272	7.508612	2.7401848
3.2341141425060416	7.4851146	2.7358937
3.251647910049847	7.5175014	2.7418063
3.2691817537431813	7.3506494	2.711208
3.286715673997555	7.200564	2.6833866
3.3042496712244938	7.000402	2.6458273
3.32178374583554	6.909544	2.628601
3.339317898242251	6.8933043	2.6255102
3.3568521288562034	6.731815	2.5945742
3.3743864380889876	6.663397	2.5813556
3.3919208263522127	6.6522574	2.5791972
3.4094552940575023	6.588324	2.5667732
3.4269898416164972	6.5530696	2.5598965
3.444524469440858	6.452612	2.5401993
3.4620591779422587	6.4768476	2.5449653
3.479593967532391	6.4437704	2.5384583
3.4971288386229658	6.437804	2.537283
3.5146637916257086	6.4055753	2.5309238
3.5321988269523628	6.4012504	2.5300694
3.5497339450146903	6.3680825	2.523506
3.5672691462244708	6.273842	2.5047638
3.5848044309934988	6.235237	2.4970458
3.60233979973359	6.2018085	2.490343
3.619875252856575	6.301618	2.5103023
3.6374107907743034	6.271037	2.5042038
3.6549464138986427	6.2715974	2.5043159
3.6724821226414788	6.1774073	2.485439
3.690017917414714	6.2590065	2.5018005
3.7075537986302702	6.367538	2.5233982
3.7250897667000857	6.449094	2.5395067
3.7426258220361235	6.5283256	2.5550587
3.7601619650503553	6.6951227	2.5874934
3.777698196154779	7.2193036	2.6868763
3.7952345157614067	8.205402	2.8645074
3.8127709242822716	9.036457	3.0060701
3.830307422129425	10.995885	3.3160043
3.847844009714936	12.230633	3.4972322
3.8653806874508954	15.564144	3.9451418
3.882917455749409	15.212583	3.900331
3.900454315022606	15.380329	3.9217763
3.917991265682631	12.521915	3.538632
3.9355283081416506	10.775492	3.2826045
3.9530654428118495	8.631286	2.937905
3.970602670105433	7.4655128	2.732309
3.9881399904346244	6.524546	2.5543191
4.005677404211669	6.4535527	2.5403843
4.023214911848827	6.402557	2.5303273
4.0407525137583855	6.4098988	2.5317779
4.058290210352644	6.4852333	2.546612
4.075828002043927	6.453297	2.540334
4.0933658892445814	6.45155	2.5399902
4.110903872366966	6.4093237	2.5316641
4.128441951823468	6.3492355	2.519769
4.145980128026488	6.198964	2.4897718
4.163518401388452	6.2006636	2.4901133
4.181056772321807	6.0694675	2.463629
4.1985952412390155	6.0817323	2.466117
4.216133808552567	6.1377273	2.4774437
4.233672474674966	6.276181	2.5052307
4.251211240018741	6.4785886	2.5453072
4.268750104996445	6.676105	2.583816
4.286289070020643	7.536599	2.7452867
4.303828135503928	9.192211	3.0318658
4.3213673018589125	29.463913	5.428067
4.3389065694982305	90.62731	9.519837
4.356445938834537	165.88762	12.879737
4.3739854102805085	171.85376	13.109301
4.391524984248844	172.66978	13.140388
4.409064661152262	136.81358	11.696733
4.426604441403504	96.9716	9.847416
4.444144325415337	75.65775	8.698147
4.461684313600543	21.64632	4.6525607
4.47922440637193	21.95044	4.6851296
4.496764604142329	20.28389	4.503764
4.5143049073245916	18.56628	4.308861
4.531845316331589	16.405413	4.0503597
4.5493858315762195	13.668637	3.697112
4.566926453471405	11.215742	3.3489912
4.584467182430081	9.159332	3.026439
4.602008018865218	7.976853	2.8243322
4.619548963189798	7.3271856	2.7068775
4.637090015816834	6.8937283	2.625591
4.654631177159353	6.650979	2.5789492
4.672172447630417	6.4286804	2.5354843
4.689713827643102	6.3462734	2.519181
4.7072553176105085	6.0960455	2.469017
4.724796917945764	5.8974466	2.4284658
4.742338629062015	5.823353	2.4131625
4.759880451372434	5.7586713	2.399723
4.777422385290215	5.7286634	2.3934627
4.794964431228581	5.732749	2.394316
4.812506589600768	5.7551355	2.3989863
4.830048860820047	5.674771	2.3821778
4.847591245299709	5.6584725	2.3787544
4.8651337434530655	5.60012	2.3664572
4.882676355693457	5.5906687	2.3644595
4.900219082434242	5.570079	2.3601015
4.917761924088813	5.4892063	2.3429055
4.935304881070575	5.4549713	2.335588
4.952847953792969	5.470265	2.3388598
4.970391142669449	5.419398	2.32796
4.9879344481135055	5.4153857	2.3270981
5.005477870538642	5.4024634	2.32432
5.023021410358394	5.4498525	2.334492
5.040565067986324	5.391143	2.3218834
5.05810884383601	5.394445	2.3225944
5.075652738321066	5.3396378	2.3107655
5.09319675185512	5.2805495	2.2979445
5.110740884851836	5.3718705	2.3177297
5.128285137724894	5.3251653	2.307632
5.145829510888007	5.379336	2.3193395
5.163374004754908	5.355289	2.3141496
5.1809186197393595	5.3495717	2.3129141
5.198463356255145	5.2864323	2.2992244
5.216008214716077	5.223054	2.2854002
5.233553195535998	5.1559334	2.270668
5.251098299128764	5.258158	2.2930675
5.268643525908272	5.23119	2.2871795
5.286188876288432	5.216034	2.2838638
5.3037343506831895	5.128692	2.2646616
5.32127994950651	5.1186304	2.262439
5.3388256731723915	5.1607943	2.271738
5.356371522094851	5.1584644	2.2712252
5.373917496687938	5.169335	2.273617
5.391463597365729	5.1742845	2.2747054
5.40900982454232	5.145349	2.2683363
5.426556178631843	5.147392	2.2687864
5.444102660048449	5.1643467	2.2725198
5.4616492692063225	5.105796	2.2596009
5.479196006519669	5.0791993	2.253708
5.496742872402727	4.9988155	2.2358031
5.514289867269756	5.1026077	2.2588952
5.531836991535049	5.1584067	2.2712126
5.549384245612924	5.2237816	2.2855594
5.566931629917724	5.230994	2.2871368
5.584479144863822	5.2177043	2.2842295
5.6020267908656205	5.1821256	2.2764282
5.619574568337545	5.151085	2.2696002
5.637122477694054	5.1981974	2.2799556
5.654670519349629	5.1956987	2.2794075
5.672218693718784	5.1410904	2.2673972
5.689767001216059	5.1203823	2.2628262
5.707315442256021	5.1936526	2.2789586
5.724864017253266	5.1909723	2.2783706
5.7424127266224225	5.1793127	2.2758102
5.75996157077814	5.0813856	2.2541928
5.777510550135105	5.0885997	2.2557924
5.795059665108022	5.162143	2.2720351
5.812608916111639	5.1638484	2.2724102
5.830158303560715	5.2672167	2.2950418
5.847707827870055	5.273527	2.296416
5.86525748945448	5.318931	2.3062809
5.8828072887288485	5.4317975	2.3306217
5.900357226108044	5.486036	2.342229
5.917907302006979	5.604985	2.367485
5.9354575168406	6.1922545	2.488424
5.9530078710238765	6.7911763	2.6059885
5.970558364971812	7.27369	2.696978
5.988108999099438	7.5283246	2.7437792
6.005659773821818	8.1170225	2.8490388
6.023210689554039	7.8900795	2.8089285
6.040761746711227	8.361142	2.891564
6.058312945708531	7.7161517	2.7777963
6.075864286961132	7.194613	2.6822777
6.093415770884244	6.6006894	2.5691807
6.1109673978931065	6.0546784	2.4606256
6.128519168402993	5.5082726	2.346971
6.146071082829204	5.306392	2.3035607
6.163623141587075	5.1934266	2.278909
6.181175345091969	5.1614966	2.2718928
6.198727693759281	5.106981	2.259863
6.216280188004435	5.0898294	2.2560651
6.233832828242885	5.0537915	2.248064
6.251385614890126	5.077737	2.2533834
6.268938548361669	5.161212	2.27183
6.286491629073067	5.13393	2.2658179
6.304044857439898	5.046403	2.24642
6.321598233877777	4.9380555	2.2221737
6.339151758802344	4.8861003	2.2104526
6.356705432629277	4.945066	2.2237504
6.37425925577428	4.987284	2.2332227
6.391813228653095	4.946785	2.2241368
6.409367351681486	4.927245	2.21974
6.426921625275259	4.8944736	2.2123456
6.44447604985025	4.9561915	2.2262506
6.46203062582232	4.9874363	2.2332568
6.47958535360737	5.0272803	2.2421598
6.497140233621328	5.029894	2.2427425
6.514695266280161	5.0535984	2.248021
6.532250451999859	5.0559716	2.2485487
6.549805791196454	4.9837484	2.2324312
6.567361284286002	4.9412165	2.2228847
6.584916931684597	4.9408846	2.22281
6.602472733808367	4.959743	2.2270482
6.6200286910734665	4.9855933	2.232844
6.637584803896092	5.0164332	2.2397397
6.655141072692462	5.0351353	2.2439108
6.672697497878842	4.9688053	2.2290816
6.690254079871514	4.871391	2.2071228
6.707810819086808	4.8772273	2.2084446
6.725367715941078	4.950929	2.2250683
6.742924770850719	5.022701	2.2411382
6.760481984232151	5.0532207	2.247937
6.778039356501836	5.028894	2.2425196
6.795596888076266	4.9859247	2.2329185
6.813154579371963	4.9181795	2.217697
6.830712430805492	4.9015837	2.213952
6.84827044279344	4.9620547	2.227567
6.865828615752445	4.9603457	2.2271833
6.883386950099159	4.909301	2.2156942
6.900945446250287	4.9361095	2.2217357
6.918504104622553	4.9324126	2.2209036
6.936062925632727	5.0082808	2.2379189
6.953621909697607	5.0401607	2.2450302
6.971181057234028	5.111955	2.2609634
6.988740368658859	5.157848	2.2710896
7.006299844389007	5.19072	2.278315
7.023859484841407	5.211867	2.2829514
7.041419290433036	5.2651806	2.294598
7.058979261580902	5.4306116	2.3303673
7.0765393987020495	5.686518	2.3846421
7.094099702213559	6.0233755	2.4542565
7.111660172532549	6.3677487	2.52344
7.129220810076164	6.7491426	2.5979111
7.146781615261595	7.428233	2.7254784
7.16434258850606	7.619134	2.760278
7.181903730226821	8.089867	2.844269
7.1994650408411704	8.138434	2.8527942
7.217026520766437	8.347269	2.889164
7.234588170419983	8.579621	2.929099
7.252149990219215	8.555591	2.9249942
7.269711980581568	8.410539	2.9000928
7.2872741419245175	8.133083	2.8518562
7.304836474665574	7.630529	2.7623413
7.322398979222286	7.2686586	2.696045
7.339961656012233	6.9455543	2.635442
7.357524505453039	6.6797714	2.5845253
7.375087527962357	6.4533367	2.5403419
7.392650723957886	6.1601753	2.48197
7.410214093857353	5.8551245	2.4197364
7.427777638078528	5.6538196	2.3777761
7.445341357039213	5.537734	2.353239
7.4629052511572525	5.4189186	2.327857
7.480469320850524	5.3339105	2.309526
7.498033566536948	5.237375	2.288531
7.5155979886344735	5.186081	2.2772968
7.5331625875610975	5.140846	2.2673433
7.550727363734844	5.129145	2.2647617
7.568292317573788	5.0705485	2.251788
7.585857449496025	5.020837	2.2407224
7.603422759919705	5.0144324	2.2392929
7.620988249263007	5.0336576	2.2435813
7.638553917944147	5.098783	2.2580485
7.656119766381391	5.15585	2.2706497
7.673685794993023	5.1830025	2.2766209
7.691252004197388	5.1546106	2.2703767
7.70881839441285	5.1905227	2.278272
7.726384966057826	5.1698923	2.2737398
7.743951719550762	5.21793	2.2842789
7.761518655310149	5.2164927	2.2839642
7.779085773754511	5.277003	2.2971728
7.796653075302419	5.249992	2.291286
7.814220560372475	5.2691407	2.295461
7.831788229383323	5.3063965	2.3035617
7.8493560827536495	5.30214	2.3026376
7.866924120902174	5.2604365	2.293564
7.884492344247663	5.242153	2.2895749
7.9020607532089135	5.2572274	2.2928646
7.919629348204771	5.2943926	2.3009548
7.937198129654115	5.3036885	2.3029737
7.954767097975865	5.3480206	2.3125787
7.972336253588986	5.3636985	2.315966
7.989905596912472	5.407652	2.3254359
8.007475128365371	5.4393315	2.3322375
8.025044848366756	5.4698834	2.3387783
8.042614757335754	5.6612644	2.3793411
8.060184855691523	5.742306	2.396311
8.07775514385327	5.8775134	2.4243584
8.095325622240228	5.8435493	2.4173434
8.112896291271687	5.8534746	2.4193954
8.130467151366968	5.8643355	2.421639
8.148038202945436	5.8461304	2.4178772
8.165609446426497	5.8673844	2.4222684
8.183180882229594	5.907817	2.4306002
8.200752510774217	5.9496098	2.4391823
8.218324332479893	5.985047	2.4464355
8.235896347766193	5.9562798	2.4405491
8.253468557052724	5.9151683	2.432112
8.27104096075914	5.9373984	2.4366777
8.288613559305137	5.9872546	2.4468868
8.306186353110448	6.061992	2.4621112
8.32375934259485	6.1170945	2.4732761
8.341332528178162	6.140582	2.4780197
8.358905910280246	6.1594586	2.4818256
8.376479489321003	6.2169585	2.493383
8.394053265720377	6.2242737	2.4948494
8.411627239898356	6.163771	2.4826944
8.42920141227497	6.206149	2.4912143
8.44677578327029	6.252112	2.5004222
8.464350353304427	6.2401557	2.4980304
8.48192512279754	6.132957	2.4764807
8.499500092169827	6.043409	2.4583347
8.51707526184153	6.049805	2.4596353
8.534650632232934	6.0860095	2.4669838
8.552226203764365	6.030056	2.4556172
8.569801976856192	6.0736575	2.4644792
8.587377951928834	6.1529937	2.4805229
8.60495412940274	6.2610083	2.5022006
8.622530509698416	6.3581357	2.5215344
8.6401070932364	6.496758	2.548874
8.657683880437283	6.582378	2.5656145
8.675260871721695	6.71469	2.5912719
8.692838067510303	6.7970595	2.6071172
8.710415468223834	6.988593	2.6435947
8.727993074283043	7.2088895	2.6849375
8.745570886108737	7.1889415	2.68122
8.763148904121765	7.287112	2.6994653
8.78072712874302	7.284184	2.6989226
8.798305560393441	7.490737	2.736921
8.815884199494006	7.620608	2.7605448
8.833463046465745	7.751859	2.7842162
8.851042101729728	7.8444023	2.800786
8.86862136570707	8.159303	2.8564494
8.886200838818924	8.363951	2.8920496
8.903780521486505	8.409045	2.8998353
8.921360414131055	8.494205	2.914482
8.938940517173874	8.636507	2.9387934
8.956520831036297	8.804828	2.967293
8.97410135613971	9.079652	3.013246
8.99168209290554	9.165663	3.0274847
9.009263041755265	9.334885	3.0553043
9.026844203110405	9.570278	3.0935867
9.044425577392525	9.774937	3.1264894
9.062007165023239	9.88186	3.1435425
9.079588966424197	10.199233	3.1936238
9.097170982017108	10.386063	3.2227414
9.11475321222372	11.294715	3.3607612
9.132335657465825	12.106298	3.4794106
9.149918318165264	12.090693	3.4771674
9.167501194743924	12.448297	3.5282145
9.18508428762374	12.188784	3.4912438
9.202667597226693	12.287533	3.5053577
9.220251123974803	11.99933	3.4640048
9.237834868290143	11.743791	3.4269214
9.255418830594836	11.460818	3.3853831
9.273003011311046	10.98669	3.3146176
9.290587410860985	10.777194	3.2828636
9.308172029666911	10.186464	3.1916242
9.32575686815113	9.926384	3.1506164
9.343341926735997	8.697161	2.949095
9.360927205843916	8.462544	2.9090452
9.378512705897327	8.277047	2.8769858
9.396098427318728	8.196187	2.8628983
9.413684370530664	8.112257	2.8482025
9.431270535955722	7.9589386	2.8211591
9.448856924016539	7.821237	2.7966475
9.466443535135806	7.6778913	2.7709007
9.484030369736251	7.6563563	2.7670121
9.501617428240658	7.603403	2.757427
9.519204711071852	7.675056	2.770389
9.536792218652714	7.681529	2.771557
9.55437995140617	7.8117537	2.7949514
9.571967909755191	7.7882814	2.7907493
9.589556094122802	7.8390565	2.7998316
9.60714450493207	7.8477073	2.8013759
9.624733142606116	7.8028355	2.7933557
9.642322007568108	7.9509144	2.8197365
9.659911100241267	8.003075	2.8289707
9.677500421048851	8.075512	2.8417444
9.695089970414175	8.00012	2.8284483
9.712679748760609	7.955484	2.8205466
9.730269756511557	7.886117	2.808223
9.747859994090492	7.9869566	2.8261204
9.765450461920915	8.115045	2.8486917
9.78304116042639	8.146246	2.854163
9.800632090030527	8.145223	2.8539836
9.81822325115699	8.11609	2.8488753
9.835814644229481	8.220911	2.867213
9.853406269671762	8.283852	2.878168
9.870998127907646	8.391786	2.896858
9.888590219360985	8.366577	2.8925035
9.906182544455698	8.321363	2.8846774
9.923775103615734	8.218055	2.866715
9.941367897265108	8.164525	2.8573632
9.958960925827878	8.113722	2.8484595
9.97655418972816	8.130165	2.8513443
9.994147689390106	8.136873	2.8525205
10.011741425237934	8.133571	2.8519416
10.029335397695904	8.159302	2.8564491
10.04692960718833	8.181905	2.8604028
10.06452405413958	8.16863	2.8580816
10.082118738974064	8.204765	2.864396
10.099713662116246	8.182016	2.8604224
10.117308823990651	8.094963	2.8451648
10.134904225021844	8.0904875	2.8443782
10.152499865634445	8.128964	2.8511338
10.170095746253125	8.147859	2.8544455
10.18769186730261	8.143027	2.853599
10.205288229207675	8.117782	2.849172
10.222884832393145	8.118313	2.8492653
10.2404816772839	8.120277	2.84961
10.258078764304868	8.078641	2.842295
10.275676093881035	8.075763	2.8417888
10.293273666437438	8.035088	2.834623
10.310871482399158	8.054453	2.8380368
10.32846954219134	7.9676857	2.8227088
10.346067846239173	7.9960265	2.8277247
10.363666394967908	8.044008	2.8361962
10.38126518880283	8.1226425	2.850025
10.398864228169298	8.187814	2.8614357
10.416463513492713	8.165963	2.857615
10.434063045198531	8.115884	2.848839
10.451662823712262	8.147965	2.854464
10.469262849459467	8.1240015	2.8502634
10.486863122865758	8.051028	2.8374333
10.504463644356806	8.005911	2.8294718
10.522064414358338	8.066138	2.8400948
10.539665433296118	8.034989	2.8346057
10.557266701595987	7.950959	2.8197446
10.574868219683818	7.844931	2.8008804
10.592469987985552	7.7576675	2.785259
10.610072006927185	7.6070614	2.7580903
10.627674276934751	7.479948	2.7349494
10.64527679843435	7.3433867	2.7098684
10.662879571852143	7.2261896	2.6881573
10.680482597614331	7.069356	2.658826
10.698085876147173	6.939771	2.6343446
10.715689407876988	6.839575	2.615258
10.733293193230146	6.7965035	2.6070104
10.750897232633072	6.7201014	2.592316
10.76850152651225	6.706242	2.5896413
10.786106075294207	6.629938	2.5748665
10.803710879405534	6.572443	2.5636775
10.821315939272877	6.4968047	2.548883
10.83892125532294	6.3837185	2.5266023
10.856526827982472	6.2664385	2.5032856
10.874132657678285	6.2024503	2.4904718
10.891738744837243	6.1916666	2.488306
10.909345089886271	6.2185397	2.4937
10.926951693252343	6.2219453	2.4943829
10.944558555362494	6.1377406	2.4774463
10.96216567664381	6.033508	2.45632
10.979773057523436	5.909519	2.4309502
10.997380698428573	5.8319087	2.4149344
11.014988599786477	5.6768613	2.3826165
11.032596762024461	5.6445823	2.375833
11.050205185569892	5.568116	2.3596857
11.067813870850198	5.533513	2.3523421
11.085422818292859	5.4078383	2.325476
11.10303202832541	5.3482738	2.3126335
11.120641501375454	5.336911	2.3101757
11.138251237870636	5.3031187	2.30285
11.155861238238671	5.276042	2.2969637
11.173471502907317	5.2220263	2.2851753
11.191082032304402	5.2049317	2.281432
11.208692826857805	5.1687317	2.2734845
11.226303886995465	5.078764	2.2536113
11.243915213145371	4.968612	2.2290385
11.261526805735578	4.9082704	2.2154617
11.279138665194196	4.8868876	2.2106307
11.296750791949393	4.865685	2.2058299
11.314363186429393	4.8133283	2.19393
11.331975849062479	4.687371	2.1650336
11.34958878027699	4.6071324	2.146423
11.36720198050133	4.5781956	2.1396718
11.384815450163948	4.555455	2.1343513
11.402429189693366	4.5210657	2.1262798
11.420043199518153	4.4649196	2.1130357
11.437657480066942	63.43873	7.9648433
11.455272031768422	85.18191	9.229404
11.472886855051353	107.55307	10.37078
11.490501950344528	99.13311	9.956561
11.508117318076819	84.44544	9.18942
11.52573295867715	45.811134	6.768392
11.543348872574514	4.088051	2.0218928
11.560965060197946	4.0262523	2.0065522
11.57858152197655	3.962163	1.9905182
11.59619825833949	3.9389045	1.9846673
11.613815269715985	3.914374	1.9784777
11.631432556535323	38.44617	6.2004976
11.649050119226837	82.983116	9.109507
11.666667958219929	93.39852	9.664291
11.68428607394406	107.71535	10.3786
11.701904466828756	82.53965	9.085134
11.719523137303586	65.41655	8.08805
11.737142085798196	4.6229944	2.150115
11.754761312742286	3.7157264	1.927622
11.772380818565619	3.673336	1.9165949
11.790000603698015	3.6753912	1.917131
11.80762066856935	3.6720533	1.9162602
11.825241013609572	3.653772	1.9114842
11.842861639248683	3.581047	1.8923655
11.860482545916748	3.4806201	1.8656421
11.878103734043883	3.4354234	1.8534895
11.895725204060282	3.3765073	1.8375275
11.91334695639619	3.3956776	1.8427365
11.930968991481919	3.4020193	1.8444563
11.948591309747824	3.3976266	1.8432652
11.966213911624347	3.353724	1.8313175
11.98383679754198	3.2835677	1.8120617
12.001459967931268	3.255186	1.8042134
12.019083423222835	3.2533216	1.8036966
12.036707163847352	3.2213347	1.7948077
12.05433119023556	3.2015908	1.789299
12.071955502818259	3.196153	1.7877787
12.089580102026313	3.1762831	1.782213
12.107204988290643	3.1681767	1.7799373
12.12483016204224	3.151898	1.7753586
12.142455623712152	3.162641	1.7783816
12.16008137373149	3.1596525	1.7775412
12.177707412531431	3.1228492	1.7671585
12.19533374054321	3.1003385	1.7607778
12.212960358198126	3.0485	1.7459954
12.230587265927545	3.026789	1.739767
12.248214464162889	2.978623	1.7258687
12.265841953335649	2.9197645	1.7087319
12.283469733877375	2.9268703	1.7108098
12.301097806219685	2.931463	1.7121515
12.31872617079425	2.9492674	1.7173431
12.336354828032825	2.9504008	1.7176731
12.353983778367205	2.9133232	1.706846
12.371613022229262	2.8865535	1.698986
12.389242560050928	2.8510644	1.6885096
12.406872392264201	2.859801	1.6910946
12.424502519301143	2.869784	1.6940438
12.442132941593874	2.8621955	1.6918024
12.459763659574586	2.8678133	1.6934619
12.477394673675532	2.8628678	1.6920011
12.49502598432903	2.8512247	1.688557
12.51265759196746	2.823063	1.6801972
12.530289497023267	2.7998292	1.673269
12.547921699928967	2.8077765	1.6756421
12.565554201117134	2.8603165	1.691247
12.583187001020404	2.833834	1.6833996
12.600820100071486	2.8151324	1.6778356
12.618453498703152	2.7835014	1.6683829
12.636087197348235	2.766298	1.6632192
12.65372119643964	2.7632644	1.6623069
12.671355496410326	2.7523258	1.6590135
12.68899009769333	2.7707088	1.6645446
12.706625000721749	2.8401415	1.685272
12.724260205928752	2.9113214	1.7062595
12.741895713747551	2.9627879	1.7212751
12.759531524611454	3.0183146	1.7373297
12.777167638953818	2.9975297	1.7313375
12.794804057208072	3.0055513	1.7336526
12.812440779807702	3.0438793	1.7446717
12.830077807186271	3.2121167	1.7922379
12.847715139777405	3.245279	1.8014659
12.865352778014795	3.4112246	1.84695
12.882990722332197	3.4891973	1.8679394
12.90062897316344	3.5499682	1.884136
12.918267530942412	3.6357112	1.9067541
12.935906396103071	3.5385613	1.8811064
12.953545569079449	3.7109458	1.9263816
12.971185050305628	3.5521736	1.884721
12.988824840215775	3.5478866	1.8835834
13.006464939244115	3.5770235	1.8913021
13.024105347824943	3.4114172	1.8470023
13.041746066392617	3.4956965	1.8696781
13.05938709538157	3.2664216	1.8073244
13.077028435226296	3.2914712	1.8142413
13.094670086361363	3.195398	1.7875676
13.112312049221401	3.135231	1.7706584
13.129954324241112	3.0342972	1.7419235
13.147596911855258	2.8575299	1.690423
13.165239812498685	2.8477428	1.6875256
13.182883026606293	2.804254	1.6745907
13.200526554613058	2.723422	1.6502794
13.218170396954017	2.6718853	1.6345903
13.235814554064284	2.7030654	1.6441002
13.253459026379034	2.7401528	1.6553407
13.271103814333523	2.7105644	1.6463791
13.288748918363058	2.6601768	1.6310048
13.306394338903031	2.6481473	1.6273129
13.32404007638889	2.65336	1.6289138
13.341686131256164	2.675665	1.635746
13.359332503940449	2.670008	1.6340159
13.376979194877402	2.6701913	1.634072
13.394626204502751	2.700907	1.6434436
13.412273533252307	2.7039945	1.6443827
13.429921181561937	2.7235484	1.6503177
13.447569149867581	2.7223086	1.649942
13.465217438605247	2.7385352	1.654852
13.482866048211022	2.6894407	1.6399515
13.500514979121052	2.6615717	1.6314324
13.518164231771568	2.6174803	1.6178628
13.535813806598844	2.62932	1.6215178
13.553463704039254	2.6497755	1.6278131
13.571113924529229	2.6759293	1.6358268
13.588764468505275	2.7203324	1.649343
13.606415336403956	2.7464664	1.6572466
13.624066528661917	2.7752407	1.6659054
13.641718045715882	2.8176715	1.6785921
13.659369888002635	2.871005	1.694404
13.67702205595903	2.9594972	1.7203189
13.694674550021993	3.0130446	1.7358124
13.712327370628532	3.0574722	1.7485629
13.729980518215713	3.1210444	1.7666478
13.747633993220681	3.2223802	1.7950989
13.765287796080647	3.2748768	1.8096621
13.7829419272329	3.3104773	1.8194717
13.800596387114801	3.3291225	1.8245883
13.818251176163775	3.3128593	1.8201262
13.835906294817324	3.3552563	1.8317358
13.853561743513023	3.4011068	1.844209
13.871217522688525	3.440577	1.8548793
13.888873632781538	3.4490798	1.8571699
13.906530074229858	3.4702053	1.8628488
13.92418684747135	3.4835453	1.8664258
13.941843952943948	3.5349467	1.8801454
13.959501391085665	3.4913008	1.8685023
13.977159162334578	3.4228864	1.8501045
13.994817267128846	3.3570375	1.832222
14.012475705906693	3.295217	1.8152733
14.030134479106424	3.2393723	1.7998257
14.047793587166414	3.1594841	1.7774938
14.065453030525108	3.0703166	1.7522318
14.083112809621026	2.9853852	1.7278267
14.100772924892766	2.9397721	1.7145764
14.118433376778997	2.9056594	1.7045995
14.136094165718458	2.8008575	1.6735762
14.153755292149969	2.7197275	1.6491597
14.171416756512416	2.6607525	1.6311814
14.189078559244768	2.621762	1.6191856
14.20674070078606	2.5781994	1.6056772
14.224403181575408	2.51185	1.5848818
14.242066002051999	2.5116754	1.5848266
14.259729162655093	2.4833376	1.575861
14.277392663824022	2.4648056	1.5699699
14.295056505998208	2.4369447	1.5610716
14.312720689617128	2.404479	1.5506383
14.330385215120348	2.3674304	1.5386456
14.348050082947497	2.3570786	1.535278
14.3657152935383	2.3679829	1.5388252
14.383380847332528	2.3889213	1.5456135
14.401046744770051	2.3806524	1.5429363
14.418712986290798	2.354951	1.5345849
14.436379572334793	2.3567042	1.5351561
14.454046503342123	2.3705215	1.5396498
14.471713779752946	2.4045782	1.5506703
14.489381402007504	2.4070182	1.5514568
14.507049370546113	2.4152422	1.5541049
14.524717685809168	2.3786561	1.5422893
14.542386348237134	2.335275	1.5281607
14.560055358270553	2.319011	1.5228299
14.577724716350051	2.3434405	1.53083
14.595394422916325	2.3683014	1.5389286
14.61306447841015	2.3979175	1.548521
14.63073488327237	2.4404001	1.562178
14.648405637943917	2.4647322	1.5699465
14.6660767428658	2.491449	1.5784324
14.683748198479094	2.4968011	1.5801269
14.701420005224954	2.5305061	1.5907564
14.719092163544628	2.5912228	1.6097275
14.73676467387942	2.6479576	1.6272546
14.754437536670727	2.6886945	1.6397239
14.772110752360014	2.6907156	1.6403401
14.78978432138882	2.6678078	1.6333425
14.807458244198777	2.6619728	1.6315553
14.82513252123159	2.6402533	1.6248857
14.842807152929028	2.6476846	1.6271707
14.860482139732962	2.6283247	1.6212109
14.87815748208531	2.6285615	1.6212839
14.8958331804281	2.658097	1.6303672
14.91350923520342	2.640862	1.625073
14.931185646853438	2.660763	1.6311846
14.948862415820408	2.6438353	1.6259875
14.966539542546656	2.6818433	1.6376334
14.98421702747459	2.6631563	1.631918
15.001894871046696	2.6643727	1.6322906
15.019573073705542	2.6009924	1.6127592
15.037251635893766	2.598612	1.6120211
15.054930558054092	2.629416	1.6215475
15.072609840629323	2.6973784	1.6423697
15.090289484062351	2.823903	1.6804473
15.107969488796124	3.1743624	1.781674
15.125649855273691	3.620257	1.9026973
15.14333058393817	4.128972	2.0319872
15.161011675232768	5.0062823	2.2374723
15.17869312960076	6.3179727	2.5135577
15.196374947485506	8.157612	2.8561532
15.214057129330447	11.250328	3.3541508
15.231739675579114	15.774275	3.9716842
15.249422586675102	20.581154	4.536646
15.267105863062092	23.53737	4.851533
15.284789505183847	23.821346	4.8807116
15.302473513484218	21.65992	4.6540217
15.320157888407127	18.073677	4.2513146
15.337842630396578	14.077919	3.7520554
15.355527739896656	11.082607	3.329055
15.37321321735153	8.623942	2.936655
15.39089906320545	6.3452864	2.5189853
15.408585277902748	4.8263683	2.1968997
15.42627186188783	3.7890794	1.9465557
15.443958815605198	3.2718995	1.8088392
15.461646139499424	2.9396396	1.7145377
15.479333834015168	2.767991	1.6637281
15.497021899597165	2.7268035	1.6513035
15.514710336690234	2.719664	1.6491404
15.53239914573928	2.685555	1.6387663
15.550088327189297	2.5885687	1.6089029
15.567777881485336	2.4920175	1.5786126
15.58546780907256	2.429055	1.5585426
15.6031581103962	2.4235644	1.5567801
15.620848785901568	2.453978	1.5665178
15.638539836034063	2.4707553	1.5718637
15.656231261239173	2.465911	1.5703219
15.673923061962451	2.433036	1.5598192
15.691615238649552	2.4291282	1.5585661
15.709307791746202	2.4498105	1.5651871
15.727000721698221	2.445943	1.5639511
15.744694028951498	2.4215252	1.556125
15.76238771395202	2.3997288	1.5491058
15.780081777145844	2.3596914	1.5361286
15.797776218979125	2.3602042	1.5362957
15.815471039898094	2.3744073	1.5409112
15.833166240349064	2.3945851	1.5474447
15.850861820778437	2.396606	1.5480975
15.868557781632699	2.3747985	1.5410382
15.886254123358412	2.3509605	1.5332842
15.903950846402232	2.3457727	1.5315915
15.921647951210897	2.3322177	1.52716
15.939345438231225	2.3616982	1.5367818
15.957043307910133	2.3464723	1.5318199
15.974741560694602	2.3530777	1.5339744
15.992440197031714	2.3593087	1.5360042
16.01013921736862	2.3516243	1.5335007
16.02783862215259	2.3393025	1.5294778
16.045538411830933	2.3286166	1.5259806
16.06323858685107	2.343847	1.5309628
16.080939147660512	2.3357008	1.5282999
16.09864009470684	2.3688145	1.5390953
16.11634142843774	2.3942893	1.5473491
16.134043149300954	2.422417	1.5564115
16.15174525774433	2.4366004	1.5609614
16.169447754215817	2.4104533	1.5525634
16.18715063916342	2.3999789	1.5491865
16.204853913035244	2.3749616	1.5410911
16.222557576279478	2.3914998	1.5464475
16.240261629344403	22.356987	4.7283177
16.257966072678386	42.93723	6.5526505
16.275670906729868	38.073143	6.170344
16.293376131947387	2.518844	1.5870866
16.31108174877957	2.4965146	1.5800363
16.328787757675133	2.526167	1.589392
16.34649415908287	2.5495157	1.5967203
16.364200953451657	2.574647	1.6045706
16.38190814123048	2.5797393	1.6061567
16.39961572286839	2.6127126	1.6163888
16.41732369881455	2.6089668	1.6152296
16.43503206951817	2.6254327	1.6203188
16.45274083542859	2.632003	1.622345
16.47044999699522	2.7127416	1.6470402
16.488159554667558	2.772338	1.6650339
16.505869508895184	2.8431554	1.6861659
16.523579860127786	2.8756125	1.6957631
16.541290608815117	2.9035513	1.703981
16.559001755407035	2.960134	1.720504
16.57671330035348	3.037921	1.7429633
16.59442524410448	3.103547	1.7616887
16.61213758711015	3.1604612	1.7777686
16.629850329820705	3.2288938	1.7969123
16.647563472686436	3.3296568	1.8247347
16.665277016157724	3.3564732	1.832068
16.682990960685053	3.3927584	1.8419442
16.70070530671898	3.374899	1.8370898
16.718420054710155	3.4352267	1.8534365
16.736135205109335	3.4947147	1.8694156
16.753850758367335	3.5417924	1.881965
16.771566714935087	3.594903	1.8960229
16.789283075263597	3.685926	1.9198766
16.80699983980398	3.7803206	1.9443047
16.82471700900741	3.7994678	1.9492223
16.84243458332518	3.789564	1.9466802
16.860152563208665	3.848942	1.9618721
16.87787094910932	3.9626107	1.9906307
16.89558974147871	4.029542	2.007372
16.913308940768466	4.1083694	2.0269113
16.931028547430333	4.2088556	2.0515497
16.94874856191613	4.2674212	2.0657737
16.966468984677785	4.2964573	2.0727897
16.98418981616729	4.306148	2.075126
17.00191105683676	4.402849	2.0982966
17.019632707138374	4.48852	2.1186128
17.03735476752442	4.54604	2.1321445
17.05507723844728	4.5467234	2.1323047
17.072800120359403	4.5300097	2.128382
17.090523413713353	4.533078	2.1291027
17.108247118961785	4.5331984	2.1291308
17.125971236557437	4.5525355	2.1336672
17.143695766953133	4.621256	2.1497107
17.161420710601806	4.6274567	2.1511524
17.179146067956477	4.6232147	2.1501663
17.19687183947025	4.6241255	2.150378
17.21459802559634	4.6371894	2.1534135
17.232324626788028	4.6115427	2.1474502
17.25005164349871	4.583218	2.1408453
17.267779076181863	4.6036973	2.1456227
17.285506925291074	4.5888	2.1421485
17.30323519127999	4.5699	2.1377325
17.320963874602384	4.539803	2.1306813
17.33869297571211	4.544866	2.131869
17.356422495063114	4.523707	2.1269007
17.37415243310944	4.456519	2.111047
17.391882790305218	4.412282	2.1005433
17.40961356710468	4.4153237	2.101267
17.42734476396215	4.434256	2.1057673
17.445076381332044	4.504877	2.1224697
17.462808419668868	4.585095	2.1412835
17.48054087942723	4.7007966	2.168132
17.498273761061835	5.0691156	2.2514696
17.51600706502747	5.603374	2.3671446
17.533740791779024	6.2912073	2.5082278
17.551474941771485	7.7008257	2.775036
17.56920951545993	8.774682	2.962209
17.586944513299528	10.870761	3.2970836
17.60467993574556	12.340436	3.5128956
17.622415783253373	13.740871	3.7068682
17.64015205627843	14.941591	3.8654354
17.657888755276293	15.88114	3.9851148
17.675625880702604	16.275791	4.0343266
17.69336343301311	16.111189	4.0138745
17.71110141266366	15.47509	3.933839
17.728839820110178	14.691165	3.8329055
17.746578655808705	13.943184	3.7340572
17.764317920215372	12.647943	3.5563946
17.7820576137864	11.271593	3.3573194
17.79979773697811	9.335764	3.0554483
17.81753829024692	7.500384	2.738683
17.835279274049356	5.848522	2.418372
17.85302068884201	4.8409443	2.2002146
17.870762535081607	4.220842	2.0544689
17.888504813224934	3.8551857	1.9634627
17.90624752372891	3.6586556	1.9127612
17.923990667050536	3.562681	1.8875066
17.941734243646895	3.5039532	1.871885
17.959478253975185	3.4487836	1.8570901
17.9772226984927	3.4089093	1.8463231
17.994967577656833	3.385083	1.8398595
18.01271289192506	3.3976007	1.8432581
18.030458641754965	3.3528597	1.8310816
18.04820482760425	3.2485597	1.8023762
18.06595144993067	3.196798	1.7879592
18.083698509192125	3.229446	1.797066
18.101446005846576	3.2763715	1.810075
18.119193940352105	3.2662616	1.8072802
18.136942313166887	3.2323995	1.7978874
18.1546911247492	3.200998	1.7891333
18.1724403755574	3.1863694	1.7850405
18.19019006604997	3.1467543	1.7739093
18.207940196685467	3.122976	1.7671944
18.225690767922575	3.07504	1.7535793
18.243441780220046	3.0544035	1.7476852
18.261193234036764	3.042834	1.7443721
18.278945129831676	3.0254233	1.7393744
18.29669746806386	3.0129511	1.7357855
18.314450249192483	3.0114155	1.7353431
18.3322034736768	3.0353556	1.7422272
18.349957141976184	3.0695152	1.7520032
18.3677112545501	3.0532324	1.7473501
18.385465811858108	3.0518756	1.7469618
18.403220814359884	3.018727	1.7374485
18.420976262515172	3.0393867	1.7433838
18.43873215678387	3.0749624	1.7535571
18.456488497625923	3.1187446	1.7659968
18.474245285501407	3.2009697	1.7891254
18.492002520870486	3.2878485	1.8132426
18.50976020419343	3.3434997	1.8285239
18.527518335930615	3.6137657	1.9009907
18.545276916542516	4.253059	2.0622945
18.563035946489688	4.457449	2.111267
18.580795426232832	4.9703336	2.2294245
18.598555356232698	4.8652735	2.2057364
18.616315736950185	5.175519	2.2749767
18.63407656884626	4.77133	2.1843374
18.65183785238201	4.9698377	2.2293134
18.669599588018617	4.7318387	2.175279
18.68736177621737	4.7166157	2.171777
18.705124417439652	4.721417	2.172882
18.72288751214696	4.494784	2.1200905
18.740651060800886	4.6427774	2.1547105
18.758415063863115	4.2730227	2.0671291
18.77617952179546	4.4328485	2.105433
18.793944435059814	4.224772	2.055425
18.811709804118184	4.2890024	2.0709908
18.829475629432675	4.2693925	2.0662508
18.8472419114655	3.9945004	1.9986247
18.86500865067897	4.0757837	2.018857
18.88277584753551	3.7777133	1.943634
18.90054350249763	3.8050587	1.9506559
18.918311616027957	3.4770966	1.8646975
18.936080188589226	3.3533647	1.8312194
18.953849220644265	3.045436	1.7451178
18.971618712656007	2.8993237	1.7027401
18.9893886650875	2.840878	1.6854905
19.007159078401887	7.989723	2.8266098
19.024929953062408	32.853664	5.7318115
19.042701289532435	32.78909	5.726176
19.060473088275405	25.3405	5.0339346
19.07824534975489	2.622681	1.6194693
19.096018074434568	2.610703	1.615767
19.113791262778197	2.5933712	1.6103947
19.13156491524966	2.5971172	1.6115574
19.149339032312945	2.5807943	1.6064851
19.167113614432136	2.5763376	1.6050974
19.184888662071433	2.535697	1.5923872
19.202664175695123	2.5513241	1.5972865
19.220440155767623	2.5399857	1.5937332
19.238216602753447	2.5347054	1.5920758
19.2559935171172	2.4950614	1.5795764
19.27377089932361	2.501807	1.5817101
19.291548749837514	2.500293	1.5812315
19.309327069123835	2.5086725	1.5838789
19.32710585764763	2.5015519	1.5816295
19.344885115874032	2.5326111	1.5914179
19.362664844268313	2.5055647	1.5828975
19.380445043295822	2.4873123	1.5771215
19.39822571342203	2.4617689	1.5690025
19.41600685511252	2.4442563	1.5634117
19.43378846883297	2.4254596	1.5573887
19.451570555049173	2.4550765	1.5668683
19.469353114227037	2.481504	1.575279
19.48713614683254	2.476356	1.5736442
19.50491965333182	2.5017028	1.5816772
19.52270363419109	2.523346	1.5885043
19.540488089876686	2.497786	1.5804386
19.55827302085503	2.443122	1.563049
19.576058427592674	2.4294922	1.5586828
19.593844310556282	2.4426022	1.5628827
19.611630670212598	2.4361944	1.5608313
19.629417507028506	2.4362159	1.5608382
19.64720482147098	2.4472706	1.5643755
19.6649926140071	2.4453464	1.5637603
19.682780885104084	2.4323807	1.5596092
19.70056963522921	2.4089055	1.5520649
19.718358864849908	2.4553745	1.5669634
19.7361485744337	2.4611826	1.5688157
19.753938764448215	2.4797146	1.574711
19.771729435361202	2.4896345	1.5778576
19.789520587640506	2.5006206	1.5813351
19.807312221754092	2.5198402	1.5874004
19.825104338170043	2.5385861	1.5932941
19.842896937356517	2.5169303	1.5864836
19.860690019781824	2.5083342	1.5837722
19.87848358591436	2.4849133	1.5763608
19.896277636222635	2.4584215	1.5679355
19.914072171175278	2.433321	1.5599105
19.931867191241015	2.4491827	1.5649865
19.94966269688869	2.432274	1.559575
19.967458688587264	2.437248	1.5611688
19.985255166805807	2.4434302	1.5631475
20.00305213201348	2.4379158	1.5613827
20.020849584679578	2.4356382	1.5606531
20.038647525273507	2.4351969	1.5605117
20.05644595426477	2.4325368	1.5596592
20.07424487212299	2.4275215	1.5580505
20.092044279317903	2.4014738	1.5496689
20.109844176319353	2.4553535	1.5669568
20.127644563597304	2.4484353	1.5647477
20.145445441621817	2.439206	1.5617957
20.16324681086307	2.3979347	1.5485266
20.181048671791373	2.4045541	1.5506625
20.198851024877122	2.4070017	1.5514514
20.216653870590836	2.3531597	1.5340012
20.234457209403146	2.3216064	1.5236819
20.252261041784802	2.3422887	1.5304538
20.270065368206662	2.3844705	1.5441731
20.287870189139685	2.4245152	1.5570855
20.305675505054968	2.4276266	1.5580842
20.323481316423702	2.4176085	1.5548661
20.341287623717207	2.3912976	1.5463821
20.359094427406884	2.3532078	1.5340168
20.376901727964288	2.3289614	1.5260935
20.39470952586107	2.3374617	1.528876
20.41251782156899	2.3261762	1.5251807
20.430326615559935	2.3183863	1.5226249
20.448135908305886	2.314523	1.5213556
20.465945700278965	2.2904036	1.513408
20.483755991951384	2.2742028	1.508046
20.50156678379548	2.2864306	1.5120947
20.519378076283708	2.300808	1.5168414
20.537189869888635	2.3009095	1.5168749
20.55500216508294	2.2877462	1.5125297
20.572814962339415	2.3130455	1.52087
20.59062826213098	2.3392675	1.5294664
20.60844206493066	2.3808136	1.5429885
20.626256371211593	2.3660417	1.5381943
20.644071181447032	2.3379776	1.5290446
20.66188649611036	2.3143804	1.5213088
20.67970231567506	2.2832532	1.5110438
20.697518640614742	2.2812965	1.5103961
20.715335471403122	2.2594693	1.5031531
20.73315280851404	2.2659054	1.5052924
20.750970652421447	2.2618895	1.503958
20.768789003599412	2.2871962	1.5123479
20.786607862522136	2.2901652	1.5133291
20.8044272296639	2.2903311	1.513384
20.82224710549913	2.2875555	1.5124667
20.84006749050237	2.2599924	1.5033271
20.857888385148268	3.796555	1.948475
20.8757097899116	45.874897	6.773101
20.893531705267254	64.75027	8.046755
20.911354131690224	83.775154	9.152877
20.92917706965566	69.02332	8.308027
20.94700051963877	50.041157	7.0739775
20.96482448211493	29.349146	5.417485
20.982648957559622	4.12025	2.02984
21.00047394644843	2.2440624	1.4980195
21.01829944925707	2.2314181	1.4937932
21.036125466461375	2.2299342	1.4932964
21.053951998537297	2.179995	1.4764806
21.071779045960906	2.1856918	1.4784086
21.089606609208378	2.198836	1.4828473
21.10743468875603	2.2125838	1.4874756
21.12526328508028	2.197402	1.4823637
21.143092398657675	2.1735687	1.4743028
21.16092202996488	2.1720912	1.4738016
21.17875217947867	2.1819453	1.4771409
21.19658284767596	2.1906767	1.4800935
21.21441403503377	2.2169774	1.4889518
21.232245742029225	2.1934605	1.4810336
21.2500779691396	2.1527576	1.4672279
21.26791071684227	2.1349263	1.4611387
21.28574398561475	2.1713264	1.4735421
21.30357777593465	2.1614614	1.4701909
21.321412088279704	2.1093855	1.4523723
21.339246923127792	2.0752552	1.4405746
21.357082280956888	2.1034384	1.4503236
21.3749181622451	2.122716	1.4569544
21.392754567470647	2.1122222	1.4533486
21.41059149711187	2.1507301	1.4665368
21.42842895164726	2.138712	1.4624336
21.446266931555378	2.113706	1.4538591
21.464105437314945	2.0978537	1.4483969
21.481944469404798	2.0994623	1.4489521
21.49978402830388	2.109758	1.4525006
21.51762411449127	2.129522	1.4592882
21.53546472844617	2.157893	1.4689769
21.553305870647876	2.1429305	1.4638752
21.571147541575865	2.0681787	1.4381163
21.58898974170967	2.0182195	1.4206405
21.60683247152899	2.0044894	1.4158
21.62467573151363	2.0315795	1.4253349
21.642519522143523	2.0539565	1.4331632
21.660363843898722	2.07097	1.4390866
21.6782086972594	2.0906725	1.4459158
21.696054082705864	2.084327	1.4437199
21.713900000718535	2.0659947	1.4373568
21.73174645177795	2.03408	1.4262118
21.749593436364794	2.0135498	1.4189961
21.767440954959845	2.0208728	1.4215741
21.785289008044032	2.0326285	1.4257028
21.803137596098388	2.0398915	1.4282477
21.820986719604086	1.9928566	1.4116857
21.838836379042412	1.9785423	1.4066067
21.85668657489478	1.9760829	1.4057322
21.87453730764273	1.981051	1.4074981
21.892388577767914	1.9729455	1.4046158
21.91024038575213	1.9389324	1.3924556
21.928092732077285	1.9400314	1.3928502
21.945945617225426	1.9567169	1.398827
21.963799041678694	1.9989301	1.4138353
21.981653005919398	31.310923	5.5956163
21.999507510429943	78.06869	8.835649
22.01736255569286	73.00661	8.544391
22.035218142190818	4.1167946	2.0289886
22.05307427040661	1.9674858	1.402671
22.07093094082315	1.9364239	1.3915545
22.088788153923474	1.9299316	1.3892198
22.106645910190746	1.9610138	1.400362
22.12450421010827	1.9838812	1.4085032
22.142363054159464	1.9749532	1.4053303
22.16022244282787	1.945281	1.3947333
22.178082376597164	1.9632697	1.4011673
22.195942855951145	1.963217	1.4011484
22.213803881373742	1.9695348	1.4034011
22.231665453349002	1.9452468	1.394721
22.24952757236111	1.9429803	1.3939083
22.26739023889438	1.92887	1.3888376
22.28525345343323	1.9189868	1.385275
22.30311721646225	1.919304	1.3853894
22.320981528466113	1.8937869	1.3761493
22.33884638992964	1.8921951	1.3755708
22.356711801337788	1.9107504	1.382299
22.37457776317561	1.9381495	1.3921744
22.392444275928337	1.9544113	1.3980026
22.410311340081282	1.9285088	1.3887076
22.428178956119904	1.9249415	1.3874227
22.446047124529805	1.9550048	1.3982148
22.46391584579669	1.9378397	1.3920631
22.481785120406414	1.9268537	1.3881116
22.49965494884496	1.9509169	1.3967522
22.51752533159841	1.9761511	1.4057565
22.53539626915302	1.9745299	1.4051796
22.553267761995137	1.9241502	1.3871374
22.571139810611264	1.935857	1.3913507
22.589012415488025	1.8976455	1.3775505
22.60688557711216	1.8888196	1.3743433
22.624759295970566	1.8894002	1.3745545
22.642633572550263	1.9135466	1.38331
22.660508407338362	1.9238119	1.3870155
22.67838380082217	1.8979836	1.3776733
22.696259753489077	1.9037116	1.3797505
22.714136265826614	1.8999054	1.3783705
22.73201333832246	1.8969754	1.3773073
22.74989097146439	1.8701916	1.3675494
22.76776916574035	1.849331	1.3599011
22.785647921638393	1.8245931	1.350775
22.803527239646712	1.8081827	1.3446869
22.82140712025363	1.8262936	1.3514043
22.839287563947593	1.8503993	1.3602939
22.85716857121719	1.8730512	1.3685946
22.875050142551135	1.9047992	1.3801446
22.892932278438277	1.8914454	1.3752983
22.910814979367604	1.9091508	1.3817203
22.928698245828222	1.8996764	1.3782876
22.946582078309387	1.9053078	1.3803289
22.96446647730047	1.8819818	1.3718535
22.98235144329098	1.8983176	1.3777945
23.000236976770562	1.9077667	1.3812193
23.018123078229	1.8681513	1.3668033
23.03600974815619	1.856196	1.3624228
23.053896987042194	1.8758607	1.3696207
23.071784795377173	1.8703039	1.3675905
23.08967317365145	1.861673	1.3644314
23.10756212235546	1.8835293	1.3724173
23.125451641979787	1.9247953	1.3873699
23.143341733015134	1.8960619	1.3769757
23.161232395952357	1.8764002	1.3698176
23.179123631282426	1.8956844	1.3768386
23.197015439496468	1.9224826	1.3865362
23.214907821085717	1.8961811	1.3770189
23.23280077654157	1.869035	1.3671266
23.250694306355538	1.8674083	1.3665315
23.268588411019277	1.9043534	1.3799831
23.28648309102458	1.9520199	1.397147
23.304378346863356	1.9391234	1.3925241
23.322274179027676	1.9267439	1.388072
23.340170588009723	1.920633	1.385869
23.358067574301852	1.9104817	1.3822018
23.37596513839651	1.8966554	1.3771912
23.39386328078629	1.8831254	1.3722702
23.411762001963947	1.9206471	1.3858742
23.429661302422353	1.941396	1.3933399
23.4475611826545	1.9308536	1.3895516
23.46546164315356	1.8822347	1.3719456
23.48336268441279	1.869155	1.3671705
23.501264306925638	1.899489	1.3782195
23.51916651118564	1.9278297	1.3884631
23.537069297686497	1.9403707	1.3929719
23.554972666922037	1.9400886	1.3928707
23.57287661938623	1.9096237	1.3818914
23.59078115557318	1.8937216	1.3761256
23.608686275977128	1.91613	1.3842435
23.62659198109246	1.9432608	1.3940089
23.6444982714137	1.911054	1.3824087
23.66240514743549	1.9181969	1.3849899
23.68031260965263	1.9110488	1.3824068
23.698220658560068	1.9048113	1.380149
23.716129294652845	1.8771064	1.3700753
23.7340385184262	1.865892	1.3659766
23.75194833037546	1.8608028	1.3641125
23.769858730996123	1.8806735	1.3713765
23.78776972078382	1.8888614	1.3743585
23.80568130023431	1.888212	1.3741223
23.823593469843495	1.865321	1.3657676
23.841506230107424	1.8623548	1.3646812
23.859419581522275	1.8425634	1.3574106
23.87733352458438	1.8700962	1.3675146
23.89524805979019	1.9116887	1.3826383
23.913163187636318	1.9372039	1.3918347
23.931078908619508	1.991928	1.4113568
23.948995223236633	1.998113	1.4135462
23.966912131984735	1.9989607	1.4138461
23.98482963536096	2.0033827	1.415409
24.002747733862616	1.9894744	1.4104873
24.020666427987155	2.0268238	1.4236656
24.038585718232156	2.0662248	1.4374369
24.056505605095353	2.071452	1.4392539
24.074426089074617	2.075974	1.440824
24.092347170667946	2.04087	1.4285902
24.110268850373515	2.065156	1.437065
24.128191128689586	2.0674548	1.4378647
24.146114006114626	2.0643914	1.436799
24.164037483147187	2.0543308	1.4332937
24.181961560286005	2.0220437	1.4219859
24.199886238029926	2.0103416	1.4178652
24.21781151687797	2.0056558	1.4162117
24.235737397329274	1.9896568	1.4105519
24.253663879883135	1.9866253	1.409477
24.271590965038975	2.015807	1.4197911
24.289518653296376	1.9995078	1.4140395
24.30744694515505	1.9663649	1.4022713
24.32537584111486	2.0104156	1.4178913
24.34330534167581	2.0622022	1.436037
24.361235447338046	2.0933895	1.4468551
24.379166158601876	2.0468397	1.430678
24.39709747596772	2.0711744	1.4391575
24.41502939993615	2.0962799	1.4478536
24.432961931007917	2.1046367	1.4507366
24.450895069683856	2.0736685	1.4400238
24.468828816465	2.0453682	1.4301637
24.4867631718525	2.005661	1.4162136
24.504698136347656	1.9847971	1.4088283
24.52263371045192	1.945102	1.3946692
24.540569894666874	1.9413508	1.3933237
24.558506689494266	1.9428089	1.3938468
24.57644409543597	1.9691668	1.40327
24.594382112994012	1.9318125	1.3898966
24.61232074267057	1.9124688	1.3829204
24.630259984967953	1.8863231	1.3734348
24.64819984038863	1.9043598	1.3799855
24.66614030943522	1.928558	1.3887253
24.684081392610462	1.9725256	1.4044663
24.702023090417274	2.009991	1.4177415
24.7199654033587	2.0165353	1.4200476
24.737908331937927	1.9891564	1.4103745
24.755851876658305	1.968946	1.4031913
24.773796038023324	1.9709674	1.4039115
24.79174081653661	2.017449	1.4203693
24.809686212701962	2.0255458	1.4232167
24.827632227023294	2.0595326	1.4351072
24.8455788600047	2.0665977	1.4375666
24.8635261121504	2.0571659	1.4342823
24.88147398396475	2.0389433	1.4279157
24.899422475952303	2.0606537	1.4354978
24.917371588617698	2.0839062	1.4435741
24.935321322465768	2.1347973	1.4610946
24.953271678001478	2.2359865	1.4953215
24.97122265572994	2.4524531	1.566031
24.989174256156414	2.7582896	1.6608099
25.00712647978632	3.160578	1.7778015
25.02507932712521	3.6847465	1.9195694
25.043032798678798	4.2401924	2.0591729
25.060986894952933	4.8335843	2.1985414
25.078941616453637	5.492706	2.3436522
25.096896963687055	6.3503737	2.5199947
25.114852937159508	7.412542	2.7225983
25.132809537377444	7.817569	2.7959917
25.150766764847468	7.874548	2.8061626
25.168724620076347	7.4350414	2.7267272
25.186683103570985	6.583019	2.5657394
25.204642215838426	5.570823	2.360259
25.222601957385894	4.2566504	2.0631652
25.24056232872074	3.1924663	1.7867475
25.25852333035048	2.5956423	1.6110997
25.276484962782778	2.2542307	1.5014095
25.294447226525435	2.0964308	1.4479057
25.312410122086423	2.0130193	1.4188092
25.330373649973843	1.9768986	1.4060222
25.348337810695988	1.925097	1.3874786
25.366302604761245	1.9043944	1.379998
25.384268032678207	1.914655	1.3837106
25.40223409495558	1.8978859	1.3776379
25.420200792102257	1.876596	1.369889
25.438168124627246	1.8715792	1.3680567
25.45613609303974	1.8592628	1.3635479
25.474104697849057	1.8210492	1.3494625
25.492073939564698	1.815405	1.3473697
25.510043818696285	1.848472	1.3595853
25.528014335753614	1.8558111	1.3622816
25.54598549124664	1.8763958	1.369816
25.56395728568544	1.8934536	1.3760282
25.58192971958028	1.8756543	1.3695453
25.59990279344156	1.85944	1.3636129
25.617876507779833	1.8433712	1.3577081
25.635850863105826	1.8409928	1.3568319
25.653825859930386	1.8533362	1.361373
25.671801498764548	1.8306402	1.3530115
25.68977778011949	1.7793794	1.3339338
25.707754704506524	1.7836223	1.3355232
25.725732272437153	1.8546958	1.3618722
25.743710484423012	1.9207718	1.3859191
25.761689340975888	1.8866668	1.3735598
25.77966884260774	1.8629189	1.3648878
25.797648989830662	1.8228364	1.3501246
25.815629783156922	1.7766954	1.3329273
25.83361122309895	1.7303329	1.3154212
25.85159331016929	1.7147726	1.3094933
25.869576044880695	1.7672145	1.3293662
25.887559427746034	1.8069283	1.3442203
25.90554345927836	1.8385965	1.3559486
25.92352813999086	1.8427889	1.3574936
25.94151347039689	1.8215292	1.3496404
25.959499451009965	1.8108809	1.3456898
25.97748608234374	1.7983551	1.3410276
25.995473364912062	1.7838924	1.3356243
26.013461299228904	1.7417215	1.3197429
26.03144988580839	1.745763	1.3212732
26.04943912516483	1.7570336	1.3255315
26.067429017812675	1.7725341	1.3313655
26.085419564266537	1.819194	1.348775
26.103410765041186	1.8038456	1.3430732
26.12140262065155	1.805392	1.3436488
26.139395131612723	1.8169701	1.3479503
26.157388298439948	1.8194908	1.348885
26.17538212164861	1.8021524	1.3424428
26.193376601754295	1.7654492	1.3287021
26.211371739272714	1.7293692	1.3150548
26.229367534719746	1.7648122	1.3284624
26.247363988611433	1.8006474	1.341882
26.26536110146397	1.8108674	1.3456848
26.283358873793727	1.7985221	1.3410898
26.301357306117204	1.7858131	1.3363432
26.319356398951104	1.8262621	1.3513926
26.33735615281224	1.8425357	1.3574004
26.35535656821762	1.8343318	1.354375
26.373357645684404	1.8006605	1.3418869
26.39135938572991	1.766265	1.329009
26.409361788871614	1.7776257	1.3332763
26.427364855627165	1.7707857	1.3307087
26.445368586514352	1.8441396	1.357991
26.46337298205115	1.8623906	1.3646944
26.48137804275568	1.8534075	1.361399
26.499383769146217	1.808452	1.344787
26.517390161741215	1.7991135	1.3413104
26.53539722105928	1.8227268	1.3500841
26.553404947619182	1.84703	1.3590548
26.571413341939856	1.8057265	1.3437732
26.589422404540397	1.7667086	1.329176
26.60743213594006	1.7095817	1.3075098
26.62544253665827	1.7097225	1.3075635
26.64345360721459	1.7323524	1.3161886
26.66146534812879	1.803757	1.3430402
26.679477759920758	1.8092432	1.3450811
26.69749084311057	1.7778932	1.3333766
26.71550459821847	1.77699	1.3330379
26.733519025764842	1.8366021	1.3552129
26.751534126270258	1.847202	1.3591181
26.769549900255434	1.8333545	1.3540142
26.787566348241267	1.8189099	1.3486696
26.80558347074881	1.7779629	1.3334028
26.823601268299267	1.7677921	1.3295834
26.841619741414036	1.7712172	1.3308709
26.85963889061465	1.7971957	1.3405952
26.877658716422832	1.8104136	1.3455161
26.89567921936045	1.7961032	1.3401878
26.913700399949544	1.7709341	1.3307645
26.93172225871233	1.7406156	1.3193239
26.949744796171174	1.7807055	1.3344308
26.967768012848605	1.7881801	1.3372285
26.98579190926733	1.8280798	1.352065
27.003816485950225	1.8216497	1.3496851
27.021841743420318	1.7815417	1.3347441
27.039867682200814	1.7933668	1.3391664
27.057894302815072	1.7433816	1.3203717
27.07592160578664	1.7372612	1.318052
27.0939495916392	1.7599398	1.3266273
27.111978260896635	1.7663362	1.3290358
27.13000761408296	1.7491742	1.3225635
27.148037651722397	1.7417289	1.3197458
27.166068374339304	1.7431979	1.3203022
27.184099782458215	1.8052523	1.3435968
27.20213187660384	1.8469706	1.359033
27.22016465730105	1.8362762	1.3550926
27.23819812507487	1.8022144	1.3424658
27.256232280450533	1.809152	1.3450472
27.274267123953383	1.8096017	1.3452144
27.292302656108987	1.7475367	1.3219442
27.31033887744306	1.7314855	1.3158592
27.32837578848146	1.7710862	1.3308216
27.34641338975026	1.8044882	1.3433124
27.364451681775673	1.7934963	1.3392148
27.382490665084074	1.7567039	1.325407
27.400530340202046	1.717263	1.3104438
27.41857070765629	1.7665004	1.3290976
27.436611767973726	1.8218994	1.3497776
27.454653521681404	1.8010038	1.3420148
27.472695969306564	1.8203037	1.3491863
27.490739111376627	1.8610978	1.3642206
27.508782948419153	1.8596696	1.363697
27.526827480961902	1.8241969	1.3506284
27.54487270953279	1.7793964	1.3339401
27.562918634659898	1.7318763	1.3160077
27.580965256871508	1.7305359	1.3154984
27.599012576696026	1.7484417	1.3222865
27.617060594662068	1.7385545	1.3185426
27.63510931129842	1.7446395	1.320848
27.65315872713401	1.7604598	1.3268232
27.67120884269797	1.8104693	1.3455368
27.68925965851958	1.8368149	1.3552915
27.707311175128307	1.8472283	1.3591278
27.725363393053787	1.8148129	1.34715
27.74341631282583	1.8134682	1.3466507
27.7614699349744	1.88653	1.3735101
27.77952426002968	2.1022668	1.4499196
27.797579288521973	2.1126916	1.4535102
27.815635020981784	2.5477502	1.5961673
27.83369145793979	2.6449053	1.6263165
27.85174859992682	2.4911654	1.5783426
27.869806447473923	2.3270369	1.5254629
27.887865001112267	1.9576931	1.3991759
27.905924261373233	1.8587184	1.3633482
27.92398422878836	1.8208452	1.3493869
27.94204490388936	1.850814	1.3604462
27.96010628720813	1.8699515	1.3674617
27.978168379276728	1.9233286	1.3868413
27.9962311806274	1.8950868	1.3766215
28.014294691792568	1.818395	1.3484788
28.0323589133048	1.8029146	1.3427266
28.050423845696887	1.8391594	1.3561561
28.068489489501758	1.8425506	1.3574059
28.086555845252523	1.843599	1.3577919
28.104622913482487	1.8692439	1.3672029
28.122690694725115	1.8808346	1.3714353
28.14075918951405	1.8658639	1.3659663
28.15882839838312	1.8809632	1.3714821
28.176898321866304	1.8992504	1.3781329
28.1949689604978	1.8751583	1.3693641
28.213040314811945	1.8227079	1.350077
28.23111238534327	1.820114	1.349116
28.249185172626493	1.8241868	1.3506246
28.267258677196473	1.8263628	1.3514299
28.285332899588294	1.835283	1.3547262
28.303407840337172	1.857358	1.3628492
28.321483499978545	1.8552599	1.3620793
28.33955987904799	1.8984494	1.3778423
28.357636978081285	1.9109204	1.3823605
28.37571479761439	1.9023422	1.3792542
28.393793338183425	1.8614649	1.3643551
28.41187260032469	1.8828425	1.3721671
28.429952584574686	1.9190692	1.3853047
28.448033291470065	1.9320538	1.3899834
28.46611472154769	1.915115	1.3838768
28.484196875344566	1.9012526	1.3788592
28.502279753397914	1.8775345	1.3702315
28.52036335624511	1.8754934	1.3694866
28.538447684423716	1.9454415	1.3947909
28.556532738471482	1.9545563	1.3980545
28.574618518926325	1.9824997	1.4080126
28.59270502632635	1.9873544	1.4097356
28.61079226120985	2.033325	1.4259471
28.628880224115274	2.0209174	1.4215897
28.646968915581287	1.9875526	1.4098059
28.66505833614671	2.02311	1.4223607
28.68314848635055	2.0278084	1.4240113
28.701239366732004	1.989485	1.4104911
28.71933097783044	1.9876894	1.4098544
28.737423320185403	2.043809	1.4296185
28.75551639433665	2.0986614	1.4486758
28.773610200824074	2.1381435	1.4622393
28.791704740187793	2.106176	1.451267
28.80980001296809	2.0684173	1.4381993
28.827896019705413	2.074211	1.4402121
28.845992760940433	2.1203141	1.4561298
28.86409023721397	2.1765437	1.4753114
28.88218844906704	2.180688	1.4767152
28.900287397040845	2.180678	1.4767119
28.918387081676755	2.2162359	1.4887028
28.936487503516343	2.2629702	1.5043172
28.954588663101365	2.273334	1.5077579
28.97269056097374	2.2534482	1.5011489
28.990793197675597	2.2564552	1.5021502
29.00889657374923	2.2785585	1.5094895
29.027000689737125	2.3065174	1.5187223
29.04510554618196	2.3154297	1.5216537
29.06321114362659	2.3821485	1.543421
29.08131748261405	2.5012062	1.5815202
29.099424563687567	2.5300686	1.590619
29.11753238739057	2.4356902	1.5606698
29.13564095426663	2.4697764	1.5715523
29.15375026485954	2.540477	1.5938874
29.171860319713275	2.5478	1.596183
29.18997111937199	2.5943296	1.6106923
29.20808266438002	2.734773	1.6537149
29.226194955281898	2.7790363	1.6670442
29.244307992622335	2.7815588	1.6678005
29.26242177694624	2.770572	1.6645035
29.2805363087987	2.8307467	1.6824822
29.29865158872498	2.845369	1.6868222
29.316767617270557	2.896931	1.7020373
29.334884394981064	2.9356802	1.7133827
29.353001922402367	2.97998	1.7262619
29.37112020008047	2.9707766	1.7235941
29.389239228561596	3.0939047	1.7589499
29.407359008392152	3.3671288	1.8349738
29.42547954011872	3.7227566	1.9294447
29.44360082428809	4.2916174	2.071622
29.46172286144722	5.297255	2.3015766
29.479845652143283	6.688747	2.5862613
29.497969196923606	8.506105	2.9165227
29.516093496335728	10.747952	3.278407
29.5342185509274	13.339386	3.6523125
29.55234436124651	15.417545	3.9265182
29.570470927841175	16.741589	4.0916486
29.588598251259686	16.441442	4.054805
29.60672633205055	15.11337	3.8875918
29.624855170762405	13.192467	3.6321435
29.642984767944146	10.855957	3.294838
29.66111512414481	8.419454	2.9016294
29.67924623991366	6.3983917	2.5295043
29.697378115800138	5.021771	2.2409308
29.71551075235387	4.158714	2.0392926
29.733644150124675	3.7153912	1.9275349
29.751778309662576	3.5063646	1.8725289
29.769913231517766	3.4324672	1.8526919
29.78804891624066	3.4103608	1.8467162
29.806185364381818	3.3166296	1.8211616
29.82432257649206	3.2324064	1.7978895
29.842460553122333	3.2431433	1.8008729
29.86059929482382	3.2747426	1.809625
29.878738802147872	3.2966063	1.815656
29.896879075646048	3.2555585	1.8043166
29.915020115870114	3.2093477	1.7914653
29.933161923371976	3.1784072	1.7828088
29.951304498703777	3.2337017	1.7982496
29.969447842417857	3.1941	1.7872045
29.987591955066733	3.1257188	1.7679702
30.005736837203123	3.1202133	1.7664125
30.023882489379943	3.1643941	1.7788744
30.04202891215028	3.1849294	1.7846371
30.060176106067455	3.1272964	1.7684164
30.078324071684946	3.1015813	1.7611307
30.09647280955646	3.1032133	1.7615939
30.114622320235863	3.099631	1.760577
30.132772604277257	3.0753112	1.7536565
30.1509236622349	3.0099964	1.7349341
30.16907549466328	2.9870124	1.7282976
30.18722810211705	3.0002077	1.7321107
30.205381485151097	3.0272517	1.7398999
30.22353564432045	3.0045683	1.7333691
30.241690580180403	2.9790595	1.7259952
30.25984629328638	2.9980109	1.7314765
30.278002784194037	2.9812367	1.7266258
30.296160053459246	2.904471	1.7042508
30.314318101638033	2.8827207	1.6978577
30.332476929286646	2.9180162	1.7082201
30.35063653696153	2.8867369	1.6990399
30.368796925219307	2.821882	1.6798458
30.386958094616844	2.774817	1.6657782
30.40512004571115	2.8160257	1.6781018
30.423282779059463	2.8446994	1.6866237
30.441446295219233	2.807234	1.6754802
30.459610594748067	2.733277	1.6532626
30.47777567820382	2.77742	1.6665593
30.495941546144504	2.815069	1.6778167
30.51410819912835	2.8028328	1.6741663
30.532275637713795	2.7783866	1.6668493
30.55044386245946	2.716787	1.6482679
30.56861287392416	2.7864435	1.6692643
30.586782672666956	2.8807228	1.6972692
30.604953259247047	2.8543246	1.6894747
30.623124634223885	2.8090377	1.6760184
30.641296798157075	2.8384738	1.684777
30.659469751606462	2.8299522	1.6822462
30.677643495132074	2.8025253	1.6740744
30.695818029294152	2.727273	1.6514457
30.713993354653116	2.7374432	1.6545221
30.73216947176962	2.750805	1.658555
30.75034638120448	2.7521098	1.6589484
30.768524083518756	2.6452894	1.6264346
30.786702579273673	2.660245	1.6310258
30.80488186903069	2.8077388	1.6756308
30.82306195335144	2.9308586	1.7119751
30.841242832797782	3.1676955	1.7798021
30.85942450793176	3.4554327	1.8588794
30.877606979315637	3.750754	1.9366864
30.895790247511883	4.055656	2.013866
30.913974313083134	4.326898	2.0801198
30.932159176592283	4.5601015	2.1354394
30.95034483860237	4.6098604	2.1470585
30.968531299676698	4.477316	2.1159668
30.98671856037873	4.2471857	2.0608702
31.00490662127215	3.9535198	1.988346
31.023095482920848	3.539799	1.8814354
31.04128514588892	3.0846262	1.7563103
31.059475610740662	2.7238145	1.6503983
31.07766687804056	2.4944608	1.5793862
31.09585894835335	2.4664981	1.5705088
31.11405182224393	2.4790425	1.5744976
31.132245500277417	2.4233627	1.5567154
31.15043998301914	2.4153738	1.5541472
31.168635271034628	2.4069376	1.5514308
31.18683136488964	2.4297638	1.55877
31.20502826515008	2.4703405	1.5717317
31.223225972382135	2.5153582	1.585988
31.241424487152155	2.5442142	1.5950593
31.259623810026692	2.4827964	1.5756892
31.27782394157253	2.3891487	1.5456871
31.296024882356644	2.359742	1.5361452
31.314226632946237	2.371082	1.5398319
31.332429193908684	2.399274	1.548959
31.350632565811598	2.3934157	1.5470668
31.368836749222787	2.4170783	1.5546956
31.387041744710295	2.4746408	1.5730991
31.40524755284232	2.4855404	1.5765597
31.423454174187317	2.4123185	1.553164
31.441661609313922	2.467456	1.5708138
31.459869858791002	2.4919908	1.5786041
31.478078923187628	2.3916185	1.5464859
31.496288803073064	2.3700173	1.539486
31.514499499016807	2.312719	1.5207627
31.532711011588546	2.3234353	1.5242819
31.550923341358178	2.3346145	1.5279446
31.56913648889584	2.2869146	1.5122548
31.587350454771844	2.2587402	1.5029106
31.605565239556732	2.2345881	1.4948539
31.62378084382127	2.183584	1.4776955
31.641997268136382	2.1792166	1.476217
31.660214513073274	2.2800133	1.5099713
31.67843257920331	2.3594587	1.536053
31.6966514670981	2.272588	1.5075105
31.71487117732944	2.254323	1.5014403
31.733091710469346	2.2673688	1.5057784
31.751313067090052	2.3638766	1.5374904
31.769535247764008	2.3866642	1.5448833
31.787758253063878	2.3848107	1.5442833
31.805982083562526	2.307002	1.5188818
31.824206739833024	2.2891579	1.5129963
31.84243222244869	2.3661458	1.5382282
31.860658531983013	2.3188539	1.5227784
31.878885669009737	2.243971	1.497989
31.897113634102784	2.1939113	1.4811858
31.91534242783632	2.1759565	1.4751123
31.933572050784694	2.14633	1.4650359
31.951802503522508	2.1982677	1.4826556
31.970033786624548	2.2782087	1.5093737
31.988265900665834	2.2231681	1.4910293
32.006498846221575	2.103708	1.4504164
32.02473262386724	2.1455734	1.4647776
32.04296723417845	2.1928768	1.4808365
32.0612026777311	2.124382	1.457526
32.07943895510129	2.0898707	1.4456385
32.097676066865304	2.2216303	1.4905134
32.115914013599685	2.2606785	1.5035553
32.13415279588115	2.1695354	1.4729342
32.152392414286666	2.106089	1.4512371
32.1706328693934	2.083	1.4432602
32.18887416177875	2.1162417	1.4547307
32.20711629202032	2.1550798	1.468019
32.225359260695924	2.2027612	1.4841702
32.243603068383614	2.2221332	1.4906821
32.26184771566166	2.1686208	1.4726238
32.28009320310852	2.1450107	1.4645855
32.2983395313029	2.115314	1.4544119
32.31658670082372	2.0802057	1.4422919
32.33483471225012	2.0978642	1.4484005
32.35308356616143	2.143778	1.4641646
32.371333263137245	2.1896653	1.4797518
32.38958380375734	2.0699537	1.4387333
32.407835188601744	2.0513542	1.4322549
32.42608741825067	2.045074	1.4300609
32.444340493284585	2.0461552	1.4304389
32.46259441428416	2.0442042	1.4297568
32.48084918183028	2.0327008	1.4257282
32.49910479650405	2.0472739	1.4308298
32.51736125888683	2.103552	1.4503628
32.53561856956014	2.1143527	1.4540814
32.5538767291058	2.0783758	1.4416573
32.572135738105764	2.0979953	1.4484458
32.59039559714228	2.1045566	1.450709
32.608656306797776	2.062728	1.43622
32.62691786765491	2.0471199	1.430776
32.645180280296586	2.0435445	1.429526
32.663443545305896	2.0355232	1.4267176
32.68170766326619	1.9849548	1.4088843
32.69997263476099	1.9931967	1.4118062
32.7182384603741	2.0397406	1.4281949
32.7365051406895	2.0304468	1.4249375
32.75477267629144	2.0013978	1.4147077
32.77304106776434	2.012795	1.41873
32.79131031569289	1.9063752	1.3807155
32.809580420661966	1.925469	1.3876127
32.827851383256714	2.010444	1.4179013
32.84612320406245	1.9931568	1.411792
32.86439588366476	1.9111036	1.3824267
32.88266942264945	1.928189	1.3885925
32.9009438216025	2.0182896	1.4206651
32.9192190811102	1.963647	1.4013019
32.937495201758985	1.8730618	1.3685985
32.95577218413556	1.900027	1.3784146
32.974050028826866	2.0168016	1.4201415
32.992328736420035	2.028839	1.4243733
33.010608307502444	2.0143526	1.4192789
33.02888874266169	2.0423162	1.4290963
33.047170042485604	1.9432237	1.3939956
33.06545220756225	1.839259	1.3561928
33.083735238479896	1.9209436	1.3859811
33.10201913582707	1.9269993	1.388164
33.12030390019248	1.8782386	1.3704884
33.138589532165135	1.867376	1.3665197
33.15687603233419	1.8991073	1.3780811
33.17516340128909	1.9034861	1.3796688
33.19345163961947	1.9202994	1.3857486
33.211740747915215	1.9124032	1.3828967
33.23003072676643	1.8819476	1.371841
33.248321576763466	1.8623765	1.3646891
33.266613298496885	1.8534349	1.3614092
33.28490589255747	1.8932045	1.3759377
33.30319935953626	1.9875244	1.4097959
33.32149370002451	1.9302756	1.3893436
33.339788914613706	1.8144917	1.3470308
33.358085003895575	1.7592745	1.3263764
33.376381968462034	1.796196	1.3402224
33.39467980890529	1.9109522	1.3823719
33.41297852581774	2.0293715	1.4245601
33.43127811979204	1.988378	1.4100986
33.44957859142105	1.8452253	1.3583907
33.467879941297866	1.8546017	1.3618376
33.486182170015844	2.000675	1.4144522
33.50448527816853	2.037292	1.4273374
33.522789266349754	1.9221114	1.3864024
33.541094135153514	1.8787656	1.3706807
33.55939988517411	1.973923	1.4049637
33.57770651700602	2.069149	1.4384537
33.59601403124398	1.990815	1.4109625
33.61432242848296	1.9320306	1.3899751
33.632631709318154	1.8568377	1.3626584
33.650941874344994	1.8461425	1.3587283
33.66925292415916	1.8484893	1.3595916
33.68756485935654	1.9209952	1.3859997
33.70587768053328	1.9238085	1.3870143
33.724191388285746	1.8180916	1.3483663
33.74250598321054	1.8429322	1.3575464
33.760821465904506	1.8579502	1.3630664
33.77913783696474	1.8634647	1.3650877
33.79745509698852	1.882457	1.3720266
33.815773246573414	1.7906649	1.3381573
33.8340922863172	1.7016326	1.3044664
33.852412216817896	1.7575345	1.3257204
33.87073303867377	1.8281559	1.3520931
33.889054752483304	1.801543	1.3422157
33.907377358845245	1.8050976	1.3435392
33.92570085835853	1.8578802	1.3630408
33.94402525162239	1.890076	1.3748003
33.96235053923627	1.8506978	1.3604035
33.980676721799824	1.744876	1.3209375
33.999003799912984	1.797603	1.3407472
34.01733177417592	2.0345314	1.42637
34.03566064518901	2.2066982	1.4854959
34.0539904135529	2.1838486	1.477785
34.07232107986846	2.0494936	1.4316052
34.090652644736785	1.9881754	1.4100268
34.108985108759235	2.0449436	1.4300152
34.12731847253742	1.9597982	1.399928
34.14565273667313	1.914924	1.3838078
34.16398790176847	1.9963495	1.4129223
34.18232396842574	1.9322909	1.3900687
34.20066093724749	1.7739961	1.3319144
34.21899880883651	1.786426	1.3365724
34.23733758379583	1.9217334	1.386266
34.25567726272874	2.0159888	1.4198552
34.27401784623872	2.107598	1.4517568
34.29235933492957	2.0056088	1.4161952
34.31070172940526	1.8797486	1.3710393
34.32904503027003	1.902887	1.3794518
34.347389238128386	1.8758434	1.3696144
34.36573435358502	1.8757927	1.3695959
34.38408037724492	1.9028789	1.3794488
34.402427309713296	2.025731	1.4232818
34.42077515159559	2.1131032	1.4536517
34.43912390349752	1.9892772	1.4104174
34.45747356602499	1.950486	1.396598
34.47582413978423	1.9221492	1.386416
34.49417562538163	1.8826383	1.3720927
34.51252802342388	1.8701991	1.3675523
34.53088133451789	1.8017931	1.3423089
34.54923555927084	1.9090971	1.3817008
34.567590698290104	1.9854075	1.4090449
34.58594675218336	1.8914707	1.3753074
34.6043037215585	1.8096037	1.3452151
34.62266160702365	1.8805536	1.3713328
34.641020409187234	1.9337677	1.3905997
34.65938012865785	1.9044266	1.3800097
34.677740766044394	1.9436576	1.3941512
34.69610232195598	1.8766186	1.3698972
34.714464797002016	1.7828412	1.3352308
34.73282819179208	1.8725522	1.3684123
34.751192506936064	1.9201618	1.385699
34.76955774304408	1.8927712	1.3757802
34.7879239007265	2.0060158	1.4163389
34.80629098059391	2.170084	1.4731205
34.824658983257194	2.106814	1.4514868
34.843027909327446	1.9614729	1.4005259
34.86139775941603	2.095802	1.4476886
34.879768534134534	2.0458367	1.4303275
34.89814023409483	1.8361038	1.3550291
34.91651285990901	1.7290838	1.3149463
34.93488641218944	1.6738497	1.2937734
34.95326089154871	1.7128814	1.308771
34.97163629859967	1.8881005	1.3740817
34.99001263395542	2.091809	1.4463087
35.00838989822934	2.2332222	1.4943969
35.02676809203499	2.0707192	1.4389994
35.04514721598624	1.8158355	1.3475294
35.063527270697215	2.0264475	1.4235334
35.081908256782256	2.170959	1.4734174
35.10029017485597	2.0086408	1.4172653
35.11867302553321	2.004277	1.4157249
35.137056809429104	1.9971288	1.4131981
35.155441527159006	1.8586329	1.3633169
35.173827179338524	1.9496751	1.3963077
35.19221376658354	1.9679743	1.402845
35.21060128951017	2.0512207	1.4322083
35.2289897487348	2.178465	1.4759624
35.24737914487405	2.0139563	1.4191393
35.26576947854479	1.8874184	1.3738334
35.28416075036418	1.972451	1.4044397
35.30255296094958	1.9114552	1.3825538
35.32094611091867	1.6299278	1.2766862
35.33934020088932	1.5203627	1.2330298
35.35773523147969	1.6231924	1.2740457
35.3761312033082	1.6053275	1.2670152
35.394528116993506	1.7293197	1.315036
35.41292597315452	1.985647	1.4091299
35.431324772410434	1.8600808	1.3638479
35.449724515380666	1.6584842	1.2878215
35.46812520268491	1.7944715	1.3395789
35.486526834943106	2.26571	1.5052276
35.504929412775454	2.3365555	1.5285796
35.52333293680242	2.055362	1.4336534
35.54173740764471	1.6829854	1.2972993
35.560142825923286	1.6566064	1.2870922
35.5785491922594	1.9058185	1.3805138
35.59695650727454	1.5480913	1.2442231
35.61536477159042	0.57398254	0.75761634
