0.008763373481513119	0.0	0.0
0.026290120649546365	0.17179282	0.414479
0.043816868432600686	0.12005361	0.34648752
0.06134361724069026	0.11155468	0.33399802
0.07887036748382949	0.23472804	0.48448738
0.0963971195720331	0.22562797	0.47500312
0.11392387391531617	0.19291547	0.43922144
0.1314506309236943	0.12390813	0.35200587
0.1489773910071836	0.099417225	0.31530496
0.16650415457580078	0.17480984	0.41810268
0.18403092203956356	0.1869881	0.4324212
0.20155769380849	0.17117475	0.4137327
0.2190844702925996	0.11194203	0.33457738
0.2366112519019124	0.13749793	0.37080714
0.2541380390464497	0.14154775	0.37622833
0.27166483213623416	0.1708782	0.41337416
0.28919163158128947	0.16356884	0.40443644
0.3067184377916406	0.15136003	0.38905016
0.324245251177314	0.12915346	0.35937926
0.34177207214833777	0.0701924	0.26493847
0.3592989011147415	0.07141274	0.2672316
0.37682573848655654	0.0871872	0.2952748
0.39435258467381573	0.13927807	0.37319976
0.41187944008655414	0.17407316	0.41722077
0.42940630513480854	0.21016568	0.4584383
0.446933180228618	0.2128639	0.46137178
0.4644600657780234	0.15552881	0.39437142
0.48198696219306775	0.14824037	0.38501996
0.49951386988379676	0.15585764	0.3947881
0.5170407892602581	0.16194828	0.40242797
0.5345677207325025	0.18133898	0.42583916
0.5520946647105822	0.16912982	0.41125396
0.5696216216045534	0.13820376	0.37175766
0.5871485918244737	0.11271166	0.33572558
0.6046755757804043	0.13514705	0.3676235
0.6222025738824094	0.14162178	0.3763267
0.6397295865405557	0.18075623	0.42515436
0.6572566141649129	0.16691262	0.4085494
0.6747836571655547	0.14420408	0.37974212
0.6923107159525568	0.15358984	0.3919054
0.7098377909359992	0.17740944	0.4212
0.7273648825259653	0.17141014	0.41401708
0.7448919911325411	0.16584162	0.40723658
0.762419117165817	0.14819169	0.38495675
0.7799462610358868	0.15362324	0.391948
0.7974734231528482	0.18204473	0.426667
0.8150006039268024	0.18406658	0.42902982
0.8325278037678551	0.1740243	0.4171622
0.8500550230861152	0.1795516	0.4237353
0.8675822622916969	0.20461506	0.45234397
0.8851095217947171	0.24654502	0.496533
0.9026368020052984	0.25132042	0.5013187
0.9201641033335665	0.23134737	0.48098582
0.9376914261896523	0.2083976	0.45650586
0.9552187709836915	0.22964983	0.47921795
0.9727461381258234	0.26806927	0.5177541
0.990273528026193	0.3272713	0.5720763
1.0078009410949496	0.36122376	0.6010189
1.0253283777422473	0.3445886	0.5870167
1.0428558383782454	0.3200832	0.56575894
1.0603833234131086	0.27953625	0.52871186
1.0779108332570058	0.30968732	0.55649555
1.0954383683201119	0.30436316	0.5516912
1.112965929012607	0.3592917	0.59940946
1.1304935157446763	0.4355061	0.65992886
1.1480211289265108	0.48339203	0.695264
1.1655487689683062	1.3986251	1.1826348
1.1830764362802655	1.6564636	1.2870368
1.200604131272596	2.0619025	1.4359326
1.2181318543555117	2.332629	1.5272946
1.235659605939232	2.349245	1.5327247
1.253187386433982	3.895601	1.9737277
1.270715196249994	6.255061	2.501012
1.2882430357975057	11.783009	3.4326386
1.3057709054867608	16.550476	4.068228
1.3232988057280106	22.081373	4.6990824
1.3408267369315112	26.557896	5.153435
1.358354699507526	30.006422	5.477812
1.3758826938663256	34.230465	5.850681
1.3934107204181858	36.132195	6.011006
1.410938779573391	36.637405	6.052884
1.4284668717422309	36.89905	6.074459
1.4459949973350033	36.44714	6.0371466
1.4635231567620117	36.78859	6.0653596
1.4810513504335687	36.32749	6.0272293
1.4985795787599925	36.12028	6.010015
1.5161078421516088	35.45214	5.95417
1.5336361410187505	34.618084	5.8837132
1.5511644757717598	34.355522	5.861358
1.5686928468209842	35.041145	5.919556
1.58622125457678	35.87642	5.9896927
1.6037496994495108	37.037296	6.0858274
1.621278181849548	36.766033	6.0635
1.6388067021872719	37.339535	6.1106086
1.6563352608730693	36.75337	6.0624557
1.673863858317336	36.241615	6.020101
1.6913924949304753	35.624607	5.968635
1.7089211711228998	34.07463	5.837348
1.7264498873050296	33.562614	5.793325
1.7439786438872935	32.898716	5.73574
1.7615074412801288	32.266106	5.680326
1.779036279893981	31.52348	5.6145773
1.796565160139305	30.467348	5.5197234
1.814094082426564	29.385984	5.420884
1.8316230471662298	28.974653	5.382811
1.849152054768784	28.015282	5.2929463
1.8666811056447168	27.675682	5.2607684
1.8842102002045273	26.630722	5.160496
1.901739338858724	26.1679	5.115457
1.9192685220178245	25.542059	5.053915
1.9367977500923557	24.818348	4.9818015
1.9543270234928547	24.10583	4.9097686
1.971856342629867	23.418005	4.8392153
1.9893857079139496	23.153423	4.8118005
2.006915119755667	22.86797	4.782047
2.0244445785655945	22.524446	4.7459927
2.0419740847543175	21.900545	4.679802
2.0595036387324317	21.044188	4.587394
2.0770332409105414	20.410759	4.517827
2.094562891699263	20.139544	4.4877105
2.1120925915092217	19.773483	4.4467387
2.129622340751053	19.491295	4.4148946
2.1471521398354043	187.52997	13.694159
2.1646819891729323	443.88516	21.068583
2.182211889174303	440.21002	20.981182
2.1997418402501974	452.5978	21.274345
2.2172718428113023	432.37326	20.793587
2.234801897268317	320.35184	17.898375
2.2523320040319548	16.926186	4.114145
2.269862163512935	16.881498	4.1087103
2.287392376121992	16.64954	4.0803847
2.304922642269869	16.446175	4.0553885
2.322452962367322	16.032532	4.0040646
2.3399833368251164	15.521844	3.9397771
2.357513766054032	15.062142	3.8809977
2.3750442504648586	14.870678	3.8562517
2.3925747904683963	14.551825	3.8146853
2.410105386475459	14.380555	3.7921703
2.4276360388968707	14.093662	3.7541528
2.445166748143469	13.861263	3.7230718
2.4626975146261025	13.672956	3.6976962
2.4802283387556323	13.257266	3.641053
2.4977592209429305	13.097452	3.6190403
2.5152901615988825	12.741938	3.569585
2.5328211611343865	12.718566	3.56631
2.5503522199603523	12.585989	3.5476737
2.5678833384877024	12.463312	3.5303416
2.5854145171273712	12.245742	3.4993916
2.6029457562903064	12.041866	3.4701393
2.620477056387469	11.769878	3.4307256
2.6380084178298326	11.541249	3.3972414
2.655539841028383	11.308302	3.3627818
2.673071326394119	11.229519	3.3510475
2.6906028743380523	11.099975	3.3316624
2.708134485271211	10.876866	3.2980094
2.7256661596046325	10.645015	3.2626698
2.743197897749369	10.526267	3.244421
2.760729700116486	10.331795	3.214311
2.778261567117063	10.358593	3.2184768
2.795793499162193	10.174613	3.189767
2.8133254966629817	10.075139	3.174136
2.830857560030551	9.961226	3.156141
2.8483896896760337	9.700466	3.114557
2.865921886010578	9.527562	3.086675
2.883454149445347	9.2668495	3.04415
2.9009864803915177	9.099278	3.016501
2.91851887926028	8.979003	2.9964983
2.9360513464628384	8.84696	2.974384
2.953583882410413	8.747027	2.9575374
2.9711164875142373	8.603372	2.9331505
2.9886491621855606	8.600361	2.9326372
3.0061819068356455	8.562659	2.9262023
3.023714721875769	8.604249	2.9333
3.041247607717225	8.525809	2.9198987
3.0587805647713213	8.384683	2.8956316
3.0763135934493806	8.277816	2.8771193
3.0938466941627407	8.048429	2.8369753
3.1113798673227544	8.032207	2.8341148
3.1289131133407904	7.937866	2.817422
3.1464464326282315	7.7376285	2.7816594
3.1639798255964786	7.624188	2.7611933
3.1815132926569443	7.4908557	2.7369428
3.1990468342210603	7.4893847	2.736674
3.216580450700272	7.3733916	2.715399
3.2341141425060416	7.2426662	2.6912203
3.251647910049847	7.2162623	2.68631
3.2691817537431813	7.161243	2.67605
3.286715673997555	7.0369034	2.6527162
3.3042496712244938	6.9697447	2.6400273
3.32178374583554	6.8485365	2.6169708
3.339317898242251	6.808973	2.6094007
3.3568521288562034	6.7110243	2.5905645
3.3743864380889876	6.584506	2.5660293
3.3919208263522127	6.5182066	2.553078
3.4094552940575023	6.4412007	2.5379522
3.4269898416164972	6.487382	2.547034
3.444524469440858	6.4253163	2.5348208
3.4620591779422587	6.4177628	2.5333304
3.479593967532391	6.3470817	2.5193415
3.4971288386229658	6.240101	2.4980195
3.5146637916257086	6.2093806	2.4918628
3.5321988269523628	6.233155	2.4966288
3.5497339450146903	6.304454	2.510867
3.5672691462244708	6.2946806	2.5089202
3.5848044309934988	6.1850924	2.4869845
3.60233979973359	6.024073	2.4543986
3.619875252856575	6.0402637	2.4576948
3.6374107907743034	6.0877867	2.467344
3.6549464138986427	6.0851693	2.4668136
3.6724821226414788	6.0820646	2.4661841
3.690017917414714	6.074905	2.4647322
3.7075537986302702	6.1917534	2.4883235
3.7250897667000857	6.2906256	2.508112
3.7426258220361235	6.435972	2.5369217
3.7601619650503553	6.7922916	2.6062026
3.777698196154779	7.351278	2.711324
3.7952345157614067	8.474454	2.9110916
3.8127709242822716	9.281196	3.0465055
3.830307422129425	11.52546	3.3949168
3.847844009714936	30.275099	5.502281
3.8653806874508954	97.70594	9.884631
3.882917455749409	97.0824	9.85304
3.900454315022606	96.9764	9.84766
3.917991265682631	41.462543	6.4391418
3.9355283081416506	11.0924835	3.330538
3.9530654428118495	8.659473	2.9426982
3.970602670105433	7.25061	2.6926956
3.9881399904346244	6.319794	2.51392
4.005677404211669	6.289353	2.5078583
4.023214911848827	6.311769	2.5123234
4.0407525137583855	6.4056683	2.5309422
4.058290210352644	6.344598	2.5188484
4.075828002043927	6.2818832	2.5063686
4.0933658892445814	6.1585035	2.4816332
4.110903872366966	6.036426	2.456914
4.128441951823468	6.0293636	2.4554763
4.145980128026488	6.008679	2.4512606
4.163518401388452	6.1124034	2.4723275
4.181056772321807	6.1620803	2.4823537
4.1985952412390155	6.134859	2.4768648
4.216133808552567	6.1550927	2.4809458
4.233672474674966	6.221144	2.4942222
4.251211240018741	6.3742023	2.5247183
4.268750104996445	6.6598964	2.5806775
4.286289070020643	7.6212273	2.760657
4.303828135503928	9.209455	3.0347083
4.3213673018589125	29.53626	5.434727
4.3389065694982305	90.6286	9.519905
4.356445938834537	165.90327	12.880344
4.3739854102805085	171.21199	13.0848
4.391524984248844	172.18858	13.122065
4.409064661152262	136.14238	11.668007
4.426604441403504	96.379166	9.817289
4.444144325415337	75.64179	8.697229
4.461684313600543	21.808273	4.669933
4.47922440637193	22.353014	4.7278976
4.496764604142329	20.67878	4.547393
4.5143049073245916	18.667673	4.32061
4.531845316331589	16.428087	4.053158
4.5493858315762195	13.426828	3.6642637
4.566926453471405	11.063914	3.3262463
4.584467182430081	9.092658	3.0154035
4.602008018865218	7.954436	2.820361
4.619548963189798	7.4043465	2.721093
4.637090015816834	6.8801827	2.6230102
4.654631177159353	6.698263	2.5881002
4.672172447630417	6.4487114	2.5394313
4.689713827643102	6.263145	2.5026276
4.7072553176105085	5.909407	2.4309273
4.724796917945764	5.618924	2.370427
4.742338629062015	5.549524	2.3557427
4.759880451372434	5.578628	2.361912
4.777422385290215	5.621732	2.3710191
4.794964431228581	5.619148	2.370474
4.812506589600768	5.64198	2.3752854
4.830048860820047	5.6127415	2.3691225
4.847591245299709	5.5678067	2.35962
4.8651337434530655	5.451092	2.3347573
4.882676355693457	5.387294	2.3210545
4.900219082434242	5.4267726	2.3295434
4.917761924088813	5.5484395	2.3555126
4.935304881070575	5.6089573	2.3683238
4.952847953792969	5.530218	2.3516417
4.970391142669449	5.435064	2.3313224
4.9879344481135055	5.302739	2.3027678
5.005477870538642	5.235149	2.2880447
5.023021410358394	5.311401	2.3046477
5.040565067986324	5.4310293	2.330457
5.05810884383601	5.457609	2.3361526
5.075652738321066	5.457134	2.336051
5.09319675185512	5.4137816	2.3267534
5.110740884851836	5.4626102	2.3372228
5.128285137724894	5.4140673	2.326815
5.145829510888007	5.3150783	2.3054454
5.163374004754908	5.3271194	2.3080554
5.1809186197393595	5.3204074	2.3066008
5.198463356255145	5.3897133	2.3215756
5.216008214716077	5.3704085	2.3174143
5.233553195535998	5.2959847	2.3013008
5.251098299128764	5.275317	2.2968059
5.268643525908272	5.26836	2.295291
5.286188876288432	5.273153	2.2963347
5.3037343506831895	5.3387	2.3105626
5.32127994950651	5.292305	2.300501
5.3388256731723915	5.2672644	2.295052
5.356371522094851	5.181672	2.2763286
5.373917496687938	5.1528134	2.269981
5.391463597365729	5.1108165	2.2607114
5.40900982454232	5.1623993	2.2720914
5.426556178631843	5.166123	2.2729106
5.444102660048449	5.1978445	2.2798781
5.4616492692063225	5.0366573	2.2442498
5.479196006519669	5.008225	2.2379065
5.496742872402727	5.0448766	2.2460802
5.514289867269756	5.1004148	2.2584097
5.531836991535049	5.1381764	2.2667546
5.549384245612924	5.1119623	2.2609649
5.566931629917724	5.018892	2.2402883
5.584479144863822	4.977338	2.2309947
5.6020267908656205	5.037676	2.2444768
5.619574568337545	5.0794373	2.2537606
5.637122477694054	5.1018043	2.2587173
5.654670519349629	5.0858026	2.2551725
5.672218693718784	5.0698094	2.2516236
5.689767001216059	5.024199	2.2414725
5.707315442256021	5.0058646	2.237379
5.724864017253266	5.0624847	2.2499967
5.7424127266224225	5.1679444	2.2733114
5.75996157077814	5.1604033	2.271652
5.777510550135105	5.119186	2.2625618
5.795059665108022	5.1662164	2.2729313
5.812608916111639	5.183028	2.2766266
5.830158303560715	5.306921	2.3036757
5.847707827870055	5.3101935	2.3043857
5.86525748945448	5.387339	2.3210642
5.8828072887288485	5.4486704	2.3342388
5.900357226108044	5.502111	2.3456578
5.917907302006979	5.5742073	2.360976
5.9354575168406	6.1998687	2.4899535
5.9530078710238765	6.8976445	2.6263368
5.970558364971812	7.4641447	2.7320588
5.988108999099438	7.8631964	2.8041391
6.005659773821818	8.387646	2.8961432
6.023210689554039	8.081123	2.8427317
6.040761746711227	8.455019	2.9077516
6.058312945708531	7.7665343	2.7868502
6.075864286961132	7.3209825	2.7057314
6.093415770884244	6.6873875	2.5859983
6.1109673978931065	6.114235	2.472698
6.128519168402993	5.469791	2.3387585
6.146071082829204	5.340698	2.3109949
6.163623141587075	5.2500033	2.2912886
6.181175345091969	5.22933	2.286773
6.198727693759281	5.2199464	2.2847202
6.216280188004435	5.1564217	2.2707756
6.233832828242885	5.1433735	2.2679007
6.251385614890126	5.101887	2.2587357
6.268938548361669	5.079683	2.2538152
6.286491629073067	5.0144653	2.2393003
6.304044857439898	5.0155816	2.2395494
6.321598233877777	5.0312076	2.2430353
6.339151758802344	5.000502	2.2361803
6.356705432629277	5.034785	2.2438326
6.37425925577428	4.982545	2.2321615
6.391813228653095	4.9482665	2.22447
6.409367351681486	4.950785	2.225036
6.426921625275259	5.0080905	2.2378764
6.44447604985025	5.0390687	2.244787
6.46203062582232	5.029507	2.2426562
6.47958535360737	4.944829	2.2236972
6.497140233621328	4.9213195	2.2184048
6.514695266280161	4.851301	2.2025669
6.532250451999859	4.9470634	2.2241995
6.549805791196454	5.001437	2.2363894
6.567361284286002	5.04386	2.245854
6.584916931684597	5.0312533	2.2430456
6.602472733808367	4.971765	2.2297456
6.6200286910734665	4.9559565	2.2261977
6.637584803896092	4.927911	2.2198899
6.655141072692462	4.8788414	2.2088099
6.672697497878842	4.8789024	2.2088237
6.690254079871514	4.9744754	2.230353
6.707810819086808	5.0746093	2.2526894
6.725367715941078	5.0656037	2.2506895
6.742924770850719	4.9729075	2.2300017
6.760481984232151	4.9041495	2.2145314
6.778039356501836	4.8698373	2.206771
6.795596888076266	4.885983	2.210426
6.813154579371963	4.889176	2.211148
6.830712430805492	4.927352	2.219764
6.84827044279344	4.9151382	2.2170112
6.865828615752445	4.954837	2.2259462
6.883386950099159	4.934628	2.2214022
6.900945446250287	4.9549203	2.225965
6.918504104622553	4.968852	2.2290921
6.936062925632727	4.998519	2.2357368
6.953621909697607	5.0421414	2.2454712
6.971181057234028	5.0848994	2.2549722
6.988740368658859	5.174898	2.2748404
7.006299844389007	5.266082	2.2947946
7.023859484841407	5.3922606	2.3221242
7.041419290433036	5.388954	2.321412
7.058979261580902	5.4006834	2.323937
7.0765393987020495	5.557091	2.3573484
7.094099702213559	5.9391737	2.437042
7.111660172532549	6.3076997	2.5115135
7.129220810076164	6.678214	2.584224
7.146781615261595	7.255462	2.6935966
7.16434258850606	7.594218	2.755761
7.181903730226821	8.012464	2.8306296
7.1994650408411704	7.9961762	2.8277512
7.217026520766437	8.144312	2.8538241
7.234588170419983	8.364126	2.8920798
7.252149990219215	8.436327	2.9045355
7.269711980581568	8.374267	2.8938324
7.2872741419245175	8.14484	2.8539166
7.304836474665574	7.6885595	2.7728252
7.322398979222286	7.3306475	2.707517
7.339961656012233	7.108515	2.66618
7.357524505453039	6.822355	2.6119637
7.375087527962357	6.552526	2.5597901
7.392650723957886	6.251794	2.5003588
7.410214093857353	5.929247	2.4350045
7.427777638078528	5.7337875	2.394533
7.445341357039213	5.55271	2.3564188
7.4629052511572525	5.414522	2.3269126
7.480469320850524	5.303495	2.3029318
7.498033566536948	5.225149	2.2858586
7.5155979886344735	5.1779413	2.275509
7.5331625875610975	5.116809	2.2620366
7.550727363734844	5.0773044	2.2532876
7.568292317573788	5.0647864	2.250508
7.585857449496025	5.0865383	2.2553356
7.603422759919705	5.1946645	2.2791808
7.620988249263007	5.2214375	2.2850466
7.638553917944147	5.1771803	2.2753417
7.656119766381391	5.1464863	2.2685869
7.673685794993023	5.1328645	2.2655826
7.691252004197388	5.149373	2.269223
7.70881839441285	5.1469035	2.268679
7.726384966057826	5.1151323	2.2616658
7.743951719550762	5.1563587	2.2707617
7.761518655310149	5.2541895	2.292202
7.779085773754511	5.28487	2.2988846
7.796653075302419	5.2952003	2.3011303
7.814220560372475	5.271554	2.2959864
7.831788229383323	5.2374	2.2885365
7.8493560827536495	5.2196846	2.284663
7.866924120902174	5.2283807	2.2865653
7.884492344247663	5.2598495	2.2934363
7.9020607532089135	5.2726197	2.2962186
7.919629348204771	5.2880197	2.2995694
7.937198129654115	5.278933	2.2975929
7.954767097975865	5.302692	2.3027575
7.972336253588986	5.3602114	2.315213
7.989905596912472	5.4296165	2.3301537
8.007475128365371	5.487566	2.3425555
8.025044848366756	5.5312514	2.3518612
8.042614757335754	5.582169	2.3626614
8.060184855691523	5.569213	2.3599179
8.07775514385327	5.669389	2.3810477
8.095325622240228	5.6733875	2.3818874
8.112896291271687	5.712399	2.3900626
8.130467151366968	5.80069	2.4084623
8.148038202945436	5.8401794	2.4166462
8.165609446426497	5.8914976	2.4272408
8.183180882229594	5.9498253	2.4392264
8.200752510774217	5.890011	2.4269345
8.218324332479893	5.897483	2.4284735
8.235896347766193	5.904423	2.4299018
8.253468557052724	5.9537015	2.4400208
8.27104096075914	5.957463	2.4407914
8.288613559305137	5.9669137	2.4427266
8.306186353110448	6.028654	2.4553318
8.32375934259485	6.1331997	2.4765298
8.341332528178162	6.182262	2.4864154
8.358905910280246	6.2429004	2.4985797
8.376479489321003	6.22384	2.4947627
8.394053265720377	6.298605	2.5097022
8.411627239898356	6.3079724	2.5115678
8.42920141227497	6.264513	2.5029008
8.44677578327029	6.2268004	2.4953558
8.464350353304427	6.138571	2.477614
8.48192512279754	6.1848693	2.4869397
8.499500092169827	6.2158465	2.49316
8.51707526184153	6.232454	2.4964883
8.534650632232934	6.232672	2.496532
8.552226203764365	6.194193	2.4888136
8.569801976856192	6.156887	2.4813075
8.587377951928834	6.231981	2.4963934
8.60495412940274	6.214238	2.4928374
8.622530509698416	6.2445493	2.4989097
8.6401070932364	6.305171	2.51101
8.657683880437283	6.394195	2.5286746
8.675260871721695	6.533873	2.5561442
8.692838067510303	6.63406	2.575667
8.710415468223834	6.8178267	2.6110969
8.727993074283043	6.9771757	2.6414344
8.745570886108737	7.03523	2.6524007
8.763148904121765	7.133431	2.6708484
8.78072712874302	7.174816	2.6785848
8.798305560393441	7.4351006	2.726738
8.815884199494006	7.509677	2.740379
8.833463046465745	7.666598	2.7688622
8.851042101729728	7.79859	2.7925956
8.86862136570707	8.089056	2.8441265
8.886200838818924	8.264311	2.8747714
8.903780521486505	8.331115	2.886367
8.921360414131055	8.381679	2.895113
8.938940517173874	8.488388	2.9134839
8.956520831036297	8.672409	2.9448955
8.97410135613971	8.941035	2.9901564
8.99168209290554	9.072401	3.0120428
9.009263041755265	9.268387	3.0444026
9.026844203110405	9.567133	3.0930781
9.044425577392525	9.8949585	3.1456254
9.062007165023239	10.061941	3.1720562
9.079588966424197	10.246613	3.201033
9.097170982017108	10.314686	3.2116485
9.11475321222372	11.4116	3.3781059
9.132335657465825	12.340396	3.5128899
9.149918318165264	12.503222	3.5359895
9.167501194743924	13.107585	3.6204398
9.18508428762374	12.720136	3.56653
9.202667597226693	12.644697	3.5559382
9.220251123974803	12.346091	3.5137005
9.237834868290143	12.016149	3.4664316
9.255418830594836	11.892263	3.4485161
9.273003011311046	11.331106	3.366171
9.290587410860985	11.110831	3.3332913
9.308172029666911	10.493652	3.2393909
9.32575686815113	10.168415	3.1887953
9.343341926735997	8.714989	2.952116
9.360927205843916	8.4545355	2.9076684
9.378512705897327	8.27543	2.8767047
9.396098427318728	8.081558	2.8428082
9.413684370530664	7.9581704	2.821023
9.431270535955722	7.8083506	2.7943425
9.448856924016539	7.731442	2.7805471
9.466443535135806	7.6225157	2.7608905
9.484030369736251	7.6927342	2.773578
9.501617428240658	7.6963387	2.7742276
9.519204711071852	7.6544247	2.766663
9.536792218652714	7.6578074	2.7672744
9.55437995140617	7.7382693	2.7817745
9.571967909755191	7.86219	2.8039596
9.589556094122802	7.9092865	2.8123453
9.60714450493207	7.933706	2.8166835
9.624733142606116	7.9652624	2.8222797
9.642322007568108	7.948802	2.819362
9.659911100241267	7.9002504	2.8107383
9.677500421048851	7.886043	2.80821
9.695089970414175	7.9353657	2.8169782
9.712679748760609	7.939222	2.8176625
9.730269756511557	8.0182705	2.831655
9.747859994090492	8.070137	2.8407986
9.765450461920915	8.076698	2.8419533
9.78304116042639	8.125403	2.8505094
9.800632090030527	8.091998	2.8446438
9.81822325115699	8.20109	2.8637545
9.835814644229481	8.234413	2.8695667
9.853406269671762	8.2678385	2.875385
9.870998127907646	8.2667	2.875187
9.888590219360985	8.206734	2.8647397
9.906182544455698	8.182411	2.8604915
9.923775103615734	8.119737	2.8495152
9.941367897265108	8.215396	2.8662512
9.958960925827878	8.321297	2.8846657
9.97655418972816	8.333321	2.886749
9.994147689390106	8.27428	2.8765047
10.011741425237934	8.143625	2.8537037
10.029335397695904	8.120349	2.8496225
10.04692960718833	8.132096	2.8516831
10.06452405413958	8.175635	2.8593068
10.082118738974064	8.267501	2.8753262
10.099713662116246	8.29163	2.879519
10.117308823990651	8.368265	2.8927953
10.134904225021844	8.259584	2.8739493
10.152499865634445	8.229489	2.8687086
10.170095746253125	8.168098	2.8579886
10.18769186730261	8.1507	2.854943
10.205288229207675	8.19271	2.862291
10.222884832393145	8.191595	2.8620963
10.2404816772839	8.210629	2.8654196
10.258078764304868	8.168365	2.858035
10.275676093881035	8.121745	2.8498676
10.293273666437438	8.054424	2.8380318
10.310871482399158	8.094067	2.8450074
10.32846954219134	8.087829	2.8439107
10.346067846239173	8.146038	2.8541265
10.363666394967908	8.123473	2.8501706
10.38126518880283	8.144825	2.853914
10.398864228169298	8.129795	2.8512795
10.416463513492713	8.111394	2.8480508
10.434063045198531	7.993589	2.8272936
10.451662823712262	7.9914346	2.8269126
10.469262849459467	8.059731	2.8389664
10.486863122865758	8.042705	2.8359663
10.504463644356806	8.043637	2.8361306
10.522064414358338	7.992458	2.8270936
10.539665433296118	7.9886646	2.8264227
10.557266701595987	7.962174	2.8217325
10.574868219683818	7.8766274	2.806533
10.592469987985552	7.7527843	2.784382
10.610072006927185	7.6337676	2.7629273
10.627674276934751	7.513245	2.74103
10.64527679843435	7.325992	2.706657
10.662879571852143	7.1684813	2.677402
10.680482597614331	7.105916	2.6656923
10.698085876147173	7.085114	2.6617877
10.715689407876988	7.00854	2.6473649
10.733293193230146	6.899772	2.6267416
10.750897232633072	6.791077	2.6059694
10.76850152651225	6.6227655	2.5734735
10.786106075294207	6.5320783	2.555793
10.803710879405534	6.413567	2.5325022
10.821315939272877	6.3451924	2.5189664
10.83892125532294	6.3026686	2.5105116
10.856526827982472	6.210395	2.4920664
10.874132657678285	6.220118	2.4940164
10.891738744837243	6.1812973	2.4862216
10.909345089886271	6.1023293	2.4702892
10.926951693252343	6.0325885	2.456133
10.944558555362494	6.0334206	2.4563022
10.96216567664381	5.941242	2.4374664
10.979773057523436	5.8931	2.4275708
10.997380698428573	5.797082	2.407713
11.014988599786477	5.7150693	2.3906212
11.032596762024461	5.646635	2.376265
11.050205185569892	5.5883408	2.3639672
11.067813870850198	5.522471	2.3499937
11.085422818292859	5.5129023	2.3479571
11.10303202832541	5.4626427	2.3372297
11.120641501375454	5.3937707	2.3224492
11.138251237870636	5.314069	2.3052263
11.155861238238671	5.217241	2.284128
11.173471502907317	5.177449	2.2754009
11.191082032304402	5.073617	2.252469
11.208692826857805	5.014091	2.2392166
11.226303886995465	4.942294	2.2231271
11.243915213145371	4.909623	2.215767
11.261526805735578	4.8202343	2.1955032
11.279138665194196	4.758676	2.181439
11.296750791949393	4.726441	2.174038
11.314363186429393	4.7291145	2.1746528
11.331975849062479	4.7498574	2.1794167
11.34958878027699	4.7194934	2.1724396
11.36720198050133	4.6635017	2.1595142
11.384815450163948	4.594955	2.1435845
11.402429189693366	4.5392427	2.13055
11.420043199518153	4.4777603	2.116072
11.437657480066942	63.362453	7.9600534
11.455272031768422	85.09002	9.224425
11.472886855051353	107.46464	10.366515
11.490501950344528	99.0869	9.95424
11.508117318076819	84.44001	9.189124
11.52573295867715	45.79496	6.767197
11.543348872574514	4.095187	2.0236568
11.560965060197946	4.0422244	2.0105283
11.57858152197655	4.027253	2.0068016
11.59619825833949	4.022682	2.0056624
11.613815269715985	3.9606917	1.9901487
11.631432556535323	38.494434	6.204388
11.649050119226837	83.04376	9.112835
11.666667958219929	93.465645	9.667763
11.68428607394406	107.73345	10.379473
11.701904466828756	82.55414	9.085931
11.719523137303586	65.40639	8.087421
11.737142085798196	4.592207	2.1429436
11.754761312742286	3.6564667	1.912189
11.772380818565619	3.5384731	1.881083
11.790000603698015	3.4749548	1.8641231
11.80762066856935	3.5055346	1.8723073
11.825241013609572	3.5672815	1.8887248
11.842861639248683	3.5611186	1.8870926
11.860482545916748	3.5330234	1.8796338
11.878103734043883	3.4832833	1.8663557
11.895725204060282	3.433619	1.8530027
11.91334695639619	3.4047773	1.8452039
11.930968991481919	3.3881862	1.8407027
11.948591309747824	3.337555	1.8268976
11.966213911624347	3.3103898	1.8194476
11.98383679754198	3.2579842	1.8049887
12.001459967931268	3.2413301	1.8003695
12.019083423222835	3.2307775	1.7974364
12.036707163847352	3.2577448	1.8049223
12.05433119023556	3.2199595	1.7944245
12.071955502818259	3.1896544	1.7859603
12.089580102026313	3.1757743	1.7820703
12.107204988290643	3.1844966	1.7845159
12.12483016204224	3.1799033	1.7832283
12.142455623712152	3.1680846	1.7799114
12.16008137373149	3.113366	1.7644733
12.177707412531431	3.0361326	1.7424501
12.19533374054321	3.0122323	1.7355784
12.212960358198126	3.0086207	1.7345376
12.230587265927545	3.0318296	1.741215
12.248214464162889	2.9939113	1.7302922
12.265841953335649	2.9819615	1.7268357
12.283469733877375	2.987437	1.7284204
12.301097806219685	3.023896	1.7389354
12.31872617079425	3.027444	1.7399552
12.336354828032825	2.979267	1.7260553
12.353983778367205	2.9287615	1.7113625
12.371613022229262	2.9062667	1.7047776
12.389242560050928	2.8859107	1.6987969
12.406872392264201	2.8439894	1.6864132
12.424502519301143	2.8285155	1.6818191
12.442132941593874	2.8354993	1.683894
12.459763659574586	2.8434608	1.6862564
12.477394673675532	2.8088834	1.6759723
12.49502598432903	2.7818677	1.6678932
12.51265759196746	2.7258506	1.651015
12.530289497023267	2.7399216	1.6552708
12.547921699928967	2.7311802	1.6526283
12.565554201117134	2.7463233	1.6572034
12.583187001020404	2.7140205	1.6474284
12.600820100071486	2.7135584	1.6472882
12.618453498703152	2.7212918	1.6496339
12.636087197348235	2.7381625	1.6547394
12.65372119643964	2.7454016	1.6569253
12.671355496410326	2.703436	1.6442128
12.68899009769333	2.7234497	1.6502877
12.706625000721749	2.7521532	1.6589614
12.724260205928752	2.8247821	1.6807088
12.741895713747551	2.8771667	1.6962214
12.759531524611454	2.9077	1.7051979
12.777167638953818	2.9437253	1.7157288
12.794804057208072	2.9907942	1.7293912
12.812440779807702	3.073574	1.7531612
12.830077807186271	3.2383065	1.7995296
12.847715139777405	3.278204	1.8105811
12.865352778014795	3.449093	1.8571734
12.882990722332197	3.519937	1.8761495
12.90062897316344	3.591627	1.8951588
12.918267530942412	3.6898382	1.9208951
12.935906396103071	3.5943274	1.8958712
12.953545569079449	3.7868586	1.9459852
12.971185050305628	3.6275795	1.9046205
12.988824840215775	3.6244946	1.9038105
13.006464939244115	3.64726	1.90978
13.024105347824943	3.4987128	1.8704846
13.041746066392617	3.5861056	1.8937016
13.05938709538157	3.3909345	1.841449
13.077028435226296	3.3898747	1.8411613
13.094670086361363	3.2823703	1.8117313
13.112312049221401	3.1698914	1.7804189
13.129954324241112	3.0688534	1.7518144
13.147596911855258	2.875705	1.6957904
13.165239812498685	2.8419788	1.685817
13.182883026606293	2.7417636	1.6558272
13.200526554613058	2.709775	1.6461394
13.218170396954017	2.6971786	1.642309
13.235814554064284	2.7323053	1.6529686
13.253459026379034	2.7535567	1.6593845
13.271103814333523	2.7390578	1.6550099
13.288748918363058	2.7185247	1.6487949
13.306394338903031	2.6824048	1.6378049
13.32404007638889	2.6313689	1.6221495
13.341686131256164	2.6725276	1.6347867
13.359332503940449	2.6769545	1.6361401
13.376979194877402	2.7088802	1.6458676
13.394626204502751	2.6925921	1.6409119
13.412273533252307	2.696954	1.6422405
13.429921181561937	2.657033	1.6300408
13.447569149867581	2.671293	1.6344091
13.465217438605247	2.6748674	1.6355022
13.482866048211022	2.6722667	1.634707
13.500514979121052	2.7004392	1.6433014
13.518164231771568	2.7206202	1.6494303
13.535813806598844	2.7017589	1.6437027
13.553463704039254	2.662839	1.6318208
13.571113924529229	2.6295521	1.6215894
13.588764468505275	2.616935	1.6176944
13.606415336403956	2.6959746	1.6419423
13.624066528661917	2.7289038	1.6519394
13.641718045715882	2.7287736	1.6519
13.659369888002635	2.7253978	1.650878
13.67702205595903	2.809797	1.676245
13.694674550021993	2.9652417	1.7219877
13.712327370628532	3.0461392	1.7453192
13.729980518215713	3.1116896	1.7639982
13.747633993220681	3.1946793	1.7873666
13.765287796080647	3.2664118	1.8073217
13.7829419272329	3.330039	1.8248395
13.800596387114801	3.3360415	1.8264834
13.818251176163775	3.349093	1.8300527
13.835906294817324	3.4093368	1.846439
13.853561743513023	3.404179	1.8450418
13.871217522688525	3.450452	1.8575393
13.888873632781538	3.4902122	1.8682109
13.906530074229858	3.5578232	1.8862193
13.92418684747135	3.5728345	1.8901943
13.941843952943948	3.5627673	1.8875294
13.959501391085665	3.5163157	1.8751842
13.977159162334578	3.4172297	1.848575
13.994817267128846	3.303963	1.8176806
14.012475705906693	3.1820073	1.7838181
14.030134479106424	3.118333	1.7658802
14.047793587166414	3.0353596	1.7422284
14.065453030525108	3.000822	1.7322881
14.083112809621026	2.9788737	1.7259414
14.100772924892766	2.9354596	1.7133183
14.118433376778997	2.891937	1.7005696
14.136094165718458	2.8338792	1.683413
14.153755292149969	2.7152355	1.6477971
14.171416756512416	2.6681452	1.6334459
14.189078559244768	2.64323	1.6258013
14.20674070078606	2.6455195	1.6265053
14.224403181575408	2.586484	1.6082549
14.242066002051999	2.5223458	1.5881895
14.259729162655093	2.4703715	1.5717416
14.277392663824022	2.4458845	1.5639324
14.295056505998208	2.4319274	1.5594639
14.312720689617128	2.4399712	1.5620407
14.330385215120348	2.4281855	1.5582637
14.348050082947497	2.3997364	1.5491083
14.3657152935383	2.3498285	1.532915
14.383380847332528	2.3608005	1.5364897
14.401046744770051	2.3954976	1.5477395
14.418712986290798	2.4021094	1.549874
14.436379572334793	2.3825274	1.5435438
14.454046503342123	2.374007	1.5407813
14.471713779752946	2.366473	1.5383345
14.489381402007504	2.3414161	1.5301687
14.507049370546113	2.3189216	1.5228006
14.524717685809168	2.3066826	1.5187767
14.542386348237134	2.3095403	1.5197172
14.560055358270553	2.354169	1.5343301
14.577724716350051	2.3609872	1.5365504
14.595394422916325	2.3429444	1.5306679
14.61306447841015	2.3862882	1.5447615
14.63073488327237	2.4272068	1.5579495
14.648405637943917	2.512527	1.5850953
14.6660767428658	2.4988513	1.5807755
14.683748198479094	2.4877846	1.5772712
14.701420005224954	2.50621	1.5831014
14.719092163544628	2.5911596	1.609708
14.73676467387942	2.6293113	1.6215152
14.754437536670727	2.6319845	1.6223392
14.772110752360014	2.6341434	1.6230044
14.78978432138882	2.6180909	1.6180515
14.807458244198777	2.6132207	1.6165459
14.82513252123159	2.6130116	1.6164812
14.842807152929028	2.6830611	1.6380053
14.860482139732962	2.6987102	1.6427752
14.87815748208531	2.6981492	1.6426044
14.8958331804281	2.6566658	1.6299281
14.91350923520342	2.5976532	1.6117237
14.931185646853438	2.6060574	1.6143287
14.948862415820408	2.6036625	1.6135868
14.966539542546656	2.6568832	1.6299949
14.98421702747459	2.6661663	1.6328399
15.001894871046696	2.6806796	1.6372781
15.019573073705542	2.6587524	1.6305681
15.037251635893766	2.620418	1.6187706
15.054930558054092	2.631065	1.6220558
15.072609840629323	2.659262	1.6307243
15.090289484062351	2.8031967	1.6742749
15.107969488796124	3.1150415	1.764948
15.125649855273691	3.5588775	1.8864987
15.14333058393817	4.044119	2.0109994
15.161011675232768	5.032296	2.243278
15.17869312960076	6.390261	2.5278966
15.196374947485506	8.1947775	2.862652
15.214057129330447	11.224263	3.350263
15.231739675579114	15.968339	3.9960403
15.249422586675102	21.33243	4.6187043
15.267105863062092	24.719492	4.97187
15.284789505183847	25.202925	5.0202513
15.302473513484218	22.969995	4.792702
15.320157888407127	19.285425	4.3915176
15.337842630396578	14.989045	3.871569
15.355527739896656	11.659977	3.414671
15.37321321735153	8.990011	2.9983346
15.39089906320545	6.4726696	2.5441442
15.408585277902748	4.8269744	2.1970377
15.42627186188783	3.7132146	1.9269704
15.443958815605198	3.154209	1.7760093
15.461646139499424	2.8744993	1.6954348
15.479333834015168	2.727526	1.6515223
15.497021899597165	2.6877058	1.6394224
15.514710336690234	2.625403	1.6203095
15.53239914573928	2.5884745	1.6088737
15.550088327189297	2.5376189	1.5929905
15.567777881485336	2.4920027	1.5786078
15.58546780907256	2.4763246	1.5736341
15.6031581103962	2.4717393	1.5721766
15.620848785901568	2.4496384	1.565132
15.638539836034063	2.4672272	1.5707409
15.656231261239173	2.449515	1.5650927
15.673923061962451	2.4405541	1.5622272
15.691615238649552	2.4348252	1.5603926
15.709307791746202	2.4329941	1.5598058
15.727000721698221	2.4145243	1.553874
15.744694028951498	2.3530955	1.5339803
15.76238771395202	2.3790941	1.5424312
15.780081777145844	2.4251647	1.557294
15.797776218979125	2.447304	1.5643861
15.815471039898094	2.414975	1.554019
15.833166240349064	2.3896382	1.5458455
15.850861820778437	2.3917975	1.5465437
15.868557781632699	2.390189	1.5460236
15.886254123358412	2.3712301	1.5398799
15.903950846402232	2.3429115	1.5306572
15.921647951210897	2.334202	1.5278095
15.939345438231225	2.3529406	1.5339298
15.957043307910133	2.3972945	1.5483199
15.974741560694602	2.390463	1.5461123
15.992440197031714	2.3827968	1.5436311
16.01013921736862	2.3607597	1.5364764
16.02783862215259	2.3634074	1.5373378
16.045538411830933	2.382868	1.5436541
16.06323858685107	2.3884385	1.5454574
16.080939147660512	2.3905296	1.5461338
16.09864009470684	2.3915477	1.546463
16.11634142843774	2.4208066	1.5558941
16.134043149300954	2.4174602	1.5548184
16.15174525774433	2.4179044	1.5549612
16.169447754215817	2.3960674	1.5479236
16.18715063916342	2.3844845	1.5441777
16.204853913035244	2.3948843	1.5475414
16.222557576279478	2.4044716	1.5506359
16.240261629344403	22.40412	4.733299
16.257966072678386	42.938385	6.5527387
16.275670906729868	38.055843	6.168942
16.293376131947387	2.484443	1.5762116
16.31108174877957	2.4974546	1.5803337
16.328787757675133	2.581394	1.6066717
16.34649415908287	2.604397	1.6138145
16.364200953451657	2.6250238	1.6201925
16.38190814123048	2.6271043	1.6208345
16.39961572286839	2.6281924	1.62117
16.41732369881455	2.6524968	1.6286488
16.43503206951817	2.6732528	1.6350085
16.45274083542859	2.6859753	1.6388946
16.47044999699522	2.7030654	1.6441002
16.488159554667558	2.799022	1.6730278
16.505869508895184	2.843521	1.6862743
16.523579860127786	2.8645592	1.6925008
16.541290608815117	2.9097178	1.7057894
16.559001755407035	3.005409	1.7336116
16.57671330035348	3.0572124	1.7484885
16.59442524410448	3.135387	1.7707024
16.61213758711015	3.226776	1.7963228
16.629850329820705	3.292939	1.8146456
16.647563472686436	3.3096666	1.8192489
16.665277016157724	3.3399293	1.8275473
16.682990960685053	3.386051	1.8401226
16.70070530671898	3.432557	1.8527161
16.718420054710155	3.4854088	1.866925
16.736135205109335	3.5778437	1.8915188
16.753850758367335	3.6565351	1.9122069
16.771566714935087	3.7103024	1.9262145
16.789283075263597	3.7549639	1.9377729
16.80699983980398	3.7638848	1.9400734
16.82471700900741	3.8123941	1.9525353
16.84243458332518	3.8715699	1.9676305
16.860152563208665	3.979899	1.9949684
16.87787094910932	4.0758963	2.018885
16.89558974147871	4.149448	2.0370193
16.913308940768466	4.1985836	2.0490446
16.931028547430333	4.2781043	2.068358
16.94874856191613	4.315274	2.0773237
16.966468984677785	4.3503404	2.085747
16.98418981616729	4.387513	2.094639
17.00191105683676	4.4758344	2.1156168
17.019632707138374	4.519167	2.1258333
17.03735476752442	4.5379486	2.1302462
17.05507723844728	4.555162	2.1342826
17.072800120359403	4.6248455	2.1505454
17.090523413713353	4.665848	2.1600573
17.108247118961785	4.690459	2.1657467
17.125971236557437	4.636463	2.1532447
17.143695766953133	4.5806093	2.140236
17.161420710601806	4.6049266	2.1459093
17.179146067956477	4.6918063	2.1660578
17.19687183947025	4.718342	2.1721745
17.21459802559634	4.7174773	2.1719754
17.232324626788028	4.707648	2.1697114
17.25005164349871	4.6691146	2.1608133
17.267779076181863	4.596754	2.144004
17.285506925291074	4.5412955	2.1310315
17.30323519127999	4.555843	2.134442
17.320963874602384	4.5588956	2.135157
17.33869297571211	4.548472	2.1327147
17.356422495063114	4.5554104	2.1343408
17.37415243310944	4.553199	2.1338227
17.391882790305218	4.5672464	2.1371117
17.40961356710468	4.529437	2.1282475
17.42734476396215	4.48751	2.1183743
17.445076381332044	4.49169	2.1193607
17.462808419668868	4.582828	2.140754
17.48054087942723	4.724265	2.1735375
17.498273761061835	4.9522142	2.225357
17.51600706502747	5.389012	2.3214245
17.533740791779024	6.058689	2.4614406
17.551474941771485	7.4443374	2.7284312
17.56920951545993	8.581339	2.9293923
17.586944513299528	10.903473	3.3020408
17.60467993574556	12.746236	3.570187
17.622415783253373	14.657954	3.8285708
17.64015205627843	16.13426	4.0167475
17.657888755276293	17.268188	4.155501
17.675625880702604	17.744015	4.2123647
17.69336343301311	17.511719	4.1847005
17.71110141266366	16.5659	4.0701227
17.728839820110178	15.585923	3.947901
17.746578655808705	14.633331	3.8253539
17.764317920215372	13.109716	3.6207342
17.7820576137864	11.55254	3.3989027
17.79979773697811	9.537923	3.0883527
17.81753829024692	7.6391377	2.763899
17.835279274049356	5.960052	2.4413218
17.85302068884201	4.8993917	2.2134569
17.870762535081607	4.2295465	2.056586
17.888504813224934	3.896102	1.9738545
17.90624752372891	3.6916697	1.9213718
17.923990667050536	3.5772	1.8913487
17.941734243646895	3.4940755	1.8692447
17.959478253975185	3.4713385	1.8631529
17.9772226984927	3.4454174	1.8561835
17.994967577656833	3.4160664	1.8482604
18.01271289192506	3.3582535	1.8325539
18.030458641754965	3.3002005	1.8166454
18.04820482760425	3.2895122	1.8137013
18.06595144993067	3.2914574	1.8142375
18.083698509192125	3.2462354	1.8017312
18.101446005846576	3.2394552	1.7998487
18.119193940352105	3.2476192	1.8021152
18.136942313166887	3.2728834	1.8091112
18.1546911247492	3.2440646	1.8011287
18.1724403755574	3.1971183	1.7880487
18.19019006604997	3.146229	1.7737613
18.207940196685467	3.1364768	1.77101
18.225690767922575	3.1448755	1.7733797
18.243441780220046	3.146074	1.7737175
18.261193234036764	3.1111054	1.7638326
18.278945129831676	3.0410507	1.7438608
18.29669746806386	3.0148773	1.7363402
18.314450249192483	3.0331402	1.7415913
18.3322034736768	3.0622356	1.7499244
18.349957141976184	3.0621047	1.7498871
18.3677112545501	3.0406277	1.7437396
18.385465811858108	3.007056	1.7340865
18.403220814359884	2.9506648	1.71775
18.420976262515172	2.9545383	1.7188771
18.43873215678387	2.9972525	1.7312574
18.456488497625923	3.0713124	1.752516
18.474245285501407	3.1556811	1.7764237
18.492002520870486	3.2177396	1.7938058
18.50976020419343	3.3227758	1.8228483
18.527518335930615	3.5725048	1.890107
18.545276916542516	4.102275	2.0254073
18.563035946489688	4.234922	2.0578926
18.580795426232832	4.669215	2.1608367
18.598555356232698	4.553913	2.13399
18.616315736950185	4.81631	2.1946094
18.63407656884626	4.4566708	2.1110828
18.65183785238201	4.6189957	2.149185
18.669599588018617	4.4265532	2.1039376
18.68736177621737	4.4692283	2.114055
18.705124417439652	4.510198	2.1237228
18.72288751214696	4.3757567	2.091831
18.740651060800886	4.486002	2.1180184
18.758415063863115	4.2383475	2.0587246
18.77617952179546	4.3900647	2.0952482
18.793944435059814	4.119546	2.0296664
18.811709804118184	4.142603	2.0353386
18.829475629432675	4.0989413	2.0245843
18.8472419114655	3.9222367	1.9804637
18.86500865067897	3.9849164	1.9962256
18.88277584753551	3.7004685	1.9236602
18.90054350249763	3.6982336	1.9230793
18.918311616027957	3.386817	1.8403307
18.936080188589226	3.299068	1.8163337
18.953849220644265	3.0262628	1.7396157
18.971618712656007	2.8348546	1.6837026
18.9893886650875	2.7903023	1.6704198
19.007159078401887	7.979329	2.8247707
19.024929953062408	32.85383	5.731826
19.042701289532435	32.789433	5.726206
19.060473088275405	25.345346	5.034416
19.07824534975489	2.598876	1.612103
19.096018074434568	2.5726218	1.6039394
19.113791262778197	2.5766673	1.6052
19.13156491524966	2.5567615	1.5989877
19.149339032312945	2.512921	1.5852196
19.167113614432136	2.4975019	1.5803486
19.184888662071433	2.4849343	1.5763675
19.202664175695123	2.5199697	1.5874412
19.220440155767623	2.517665	1.5867151
19.238216602753447	2.4944787	1.5793918
19.2559935171172	2.4575825	1.5676678
19.27377089932361	2.4947705	1.5794842
19.291548749837514	2.5238965	1.5886775
19.309327069123835	2.5258687	1.5892981
19.32710585764763	2.484453	1.5762148
19.344885115874032	2.4741435	1.5729411
19.362664844268313	2.463823	1.569657
19.380445043295822	2.470558	1.5718008
19.39822571342203	2.454562	1.5667042
19.41600685511252	2.46358	1.5695795
19.43378846883297	2.5049834	1.582714
19.451570555049173	2.5173655	1.5866208
19.469353114227037	2.5310695	1.5909336
19.48713614683254	2.5129411	1.5852259
19.50491965333182	2.5175786	1.5866879
19.52270363419109	2.520502	1.5876089
19.540488089876686	2.5045812	1.5825869
19.55827302085503	2.497626	1.580388
19.576058427592674	2.4916449	1.5784945
19.593844310556282	2.4986646	1.5807165
19.611630670212598	2.476733	1.573764
19.629417507028506	2.4907372	1.578207
19.64720482147098	2.4906065	1.5781655
19.6649926140071	2.4543412	1.5666337
19.682780885104084	2.458159	1.5678517
19.70056963522921	2.4804888	1.5749568
19.718358864849908	2.5383625	1.5932239
19.7361485744337	2.5344882	1.5920076
19.753938764448215	2.5295644	1.5904604
19.771729435361202	2.539743	1.5936571
19.789520587640506	2.57953	1.6060915
19.807312221754092	2.5763319	1.6050956
19.825104338170043	2.5455759	1.595486
19.842896937356517	2.5248337	1.5889726
19.860690019781824	2.5299804	1.5905912
19.87848358591436	2.5386863	1.5933255
19.896277636222635	2.5130088	1.5852473
19.914072171175278	2.498576	1.5806885
19.931867191241015	2.4582481	1.5678802
19.94966269688869	2.4728823	1.57254
19.967458688587264	2.474989	1.5732098
19.985255166805807	2.4875543	1.5771983
20.00305213201348	2.484161	1.5761222
20.020849584679578	2.44322	1.5630803
20.038647525273507	2.4200501	1.5556511
20.05644595426477	2.4007928	1.5494492
20.07424487212299	2.42149	1.5561137
20.092044279317903	2.429941	1.5588268
20.109844176319353	2.4288788	1.5584861
20.127644563597304	2.4261978	1.5576257
20.145445441621817	2.4366996	1.5609932
20.16324681086307	2.427623	1.5580832
20.181048671791373	2.3785267	1.5422473
20.198851024877122	2.359381	1.5360277
20.216653870590836	2.357063	1.535273
20.234457209403146	2.3455682	1.5315248
20.252261041784802	2.3122613	1.5206121
20.270065368206662	2.3188295	1.5227704
20.287870189139685	2.3176038	1.5223678
20.305675505054968	2.3154495	1.5216601
20.323481316423702	2.2960489	1.5152719
20.341287623717207	2.330842	1.5267096
20.359094427406884	2.3261666	1.5251776
20.376901727964288	2.3351269	1.5281122
20.39470952586107	2.3272045	1.5255178
20.41251782156899	2.3280976	1.5258105
20.430326615559935	2.3262274	1.5251975
20.448135908305886	2.3649006	1.5378233
20.465945700278965	2.3747215	1.5410131
20.483755991951384	2.3459935	1.5316637
20.50156678379548	2.3076668	1.5191007
20.519378076283708	2.3078556	1.5191628
20.537189869888635	2.3105032	1.520034
20.55500216508294	2.2842572	1.5113759
20.572814962339415	2.2968507	1.5155364
20.59062826213098	2.3214297	1.5236238
20.60844206493066	2.3197973	1.5230881
20.626256371211593	2.317528	1.5223429
20.644071181447032	2.31143	1.5203388
20.66188649611036	2.3169894	1.522166
20.67970231567506	2.2788942	1.5096006
20.697518640614742	2.27487	1.5082672
20.715335471403122	2.273288	1.5077426
20.73315280851404	2.2781284	1.509347
20.750970652421447	2.2883701	1.512736
20.768789003599412	2.3020408	1.5172478
20.786607862522136	2.271875	1.507274
20.8044272296639	2.2368546	1.4956118
20.82224710549913	2.2535472	1.501182
20.84006749050237	2.2865841	1.5121455
20.857888385148268	3.8708544	1.9674487
20.8757097899116	45.969986	6.780117
20.893531705267254	64.818306	8.0509815
20.911354131690224	83.8417	9.156511
20.92917706965566	69.12432	8.314104
20.94700051963877	50.159607	7.0823445
20.96482448211493	29.406488	5.422775
20.982648957559622	4.112954	2.0280418
21.00047394644843	2.2242105	1.4913788
21.01829944925707	2.2447777	1.4982582
21.036125466461375	2.2681222	1.5060287
21.053951998537297	2.255896	1.5019641
21.071779045960906	2.2358198	1.4952658
21.089606609208378	2.2348897	1.4949547
21.10743468875603	2.227923	1.4926229
21.12526328508028	2.2354991	1.4951586
21.143092398657675	2.228097	1.4926811
21.16092202996488	2.2306077	1.4935219
21.17875217947867	2.204583	1.4847838
21.19658284767596	2.2048147	1.4848619
21.21441403503377	2.2075803	1.4857929
21.232245742029225	2.195546	1.4817375
21.2500779691396	2.1814911	1.4769871
21.26791071684227	2.1440022	1.4642411
21.28574398561475	2.1609297	1.47001
21.30357777593465	2.1732428	1.4741923
21.321412088279704	2.189471	1.4796861
21.339246923127792	2.1447253	1.464488
21.357082280956888	2.1043189	1.4506271
21.3749181622451	2.0758054	1.4407656
21.392754567470647	2.0869057	1.4446126
21.41059149711187	2.120276	1.4561168
21.42842895164726	2.1203458	1.4561408
21.446266931555378	2.1067536	1.451466
21.464105437314945	2.1182165	1.4554094
21.481944469404798	2.1279485	1.4587489
21.49978402830388	2.1565366	1.468515
21.51762411449127	2.1459742	1.4649144
21.53546472844617	2.1167593	1.4549087
21.553305870647876	2.0850763	1.4439794
21.571147541575865	2.0786052	1.4417368
21.58898974170967	2.1034448	1.4503257
21.60683247152899	2.105887	1.4511675
21.62467573151363	2.074725	1.4403906
21.642519522143523	2.0175362	1.4204
21.660363843898722	2.0130265	1.4188117
21.6782086972594	2.027926	1.4240527
21.696054082705864	2.0587292	1.4348272
21.713900000718535	2.0918422	1.4463202
21.73174645177795	2.0827475	1.4431727
21.749593436364794	2.0411649	1.4286934
21.767440954959845	2.001292	1.4146702
21.785289008044032	1.987569	1.4098117
21.803137596098388	1.9840624	1.4085675
21.820986719604086	1.9792262	1.4068497
21.838836379042412	1.9622949	1.4008194
21.85668657489478	1.9857941	1.4091821
21.87453730764273	2.0213263	1.4217335
21.892388577767914	1.99764	1.413379
21.91024038575213	2.0015733	1.4147696
21.928092732077285	2.009101	1.4174275
21.945945617225426	2.0096045	1.4176052
21.963799041678694	2.0007422	1.4144759
21.981653005919398	31.340466	5.5982556
21.999507510429943	78.155785	8.840576
22.01736255569286	73.132706	8.551766
22.035218142190818	4.21428	2.0528712
22.05307427040661	2.027766	1.4239964
22.07093094082315	2.012827	1.4187413
22.088788153923474	2.007832	1.4169799
22.106645910190746	2.001634	1.4147911
22.12450421010827	1.9861026	1.4092915
22.142363054159464	1.9760958	1.4057368
22.16022244282787	1.9504706	1.3965925
22.178082376597164	1.9300435	1.38926
22.195942855951145	1.9147724	1.3837531
22.213803881373742	1.9143511	1.3836008
22.231665453349002	1.9376	1.3919771
22.24952757236111	1.9564139	1.3987186
22.26739023889438	1.9532046	1.397571
22.28525345343323	1.9343253	1.3908002
22.30311721646225	1.9166708	1.3844388
22.320981528466113	1.9261873	1.3878715
22.33884638992964	1.965181	1.4018492
22.356711801337788	1.9549527	1.3981962
22.37457776317561	1.9416299	1.3934238
22.392444275928337	1.9234954	1.3869014
22.410311340081282	1.9553627	1.3983428
22.428178956119904	1.9939864	1.4120858
22.446047124529805	2.007194	1.4167547
22.46391584579669	1.9882672	1.4100593
22.481785120406414	1.9955871	1.4126525
22.49965494884496	1.9410195	1.3932048
22.51752533159841	1.9103495	1.382154
22.53539626915302	1.9111373	1.3824389
22.553267761995137	1.9228823	1.3866804
22.571139810611264	1.918033	1.3849307
22.589012415488025	1.9088795	1.3816221
22.60688557711216	1.9318779	1.3899201
22.624759295970566	1.9622751	1.4008123
22.642633572550263	1.9755098	1.4055283
22.660508407338362	1.941276	1.3932968
22.67838380082217	1.9336028	1.3905405
22.696259753489077	1.9354136	1.3911915
22.714136265826614	1.9145622	1.3836771
22.73201333832246	1.8837687	1.3725045
22.74989097146439	1.9224092	1.3865097
22.76776916574035	1.927183	1.3882302
22.785647921638393	1.952546	1.3973353
22.803527239646712	1.9252163	1.3875216
22.82140712025363	1.9317294	1.3898667
22.839287563947593	1.8999941	1.3784027
22.85716857121719	1.8921297	1.375547
22.875050142551135	1.9156252	1.3840611
22.892932278438277	1.9078317	1.3812428
22.910814979367604	1.9165372	1.3843906
22.928698245828222	1.8887182	1.3743064
22.946582078309387	1.8810151	1.371501
22.96446647730047	1.8713886	1.367987
22.98235144329098	1.8904036	1.3749195
23.000236976770562	1.9065439	1.3807765
23.018123078229	1.9153056	1.3839457
23.03600974815619	1.8954668	1.3767595
23.053896987042194	1.8773854	1.3701771
23.071784795377173	1.849369	1.3599151
23.08967317365145	1.8591689	1.3635135
23.10756212235546	1.8924825	1.3756753
23.125451641979787	1.9505283	1.3966131
23.143341733015134	1.9876277	1.4098325
23.161232395952357	1.9478703	1.3956612
23.179123631282426	1.9449186	1.3946034
23.197015439496468	1.9273353	1.388285
23.214907821085717	1.9181755	1.3849821
23.23280077654157	1.9663087	1.4022512
23.250694306355538	1.9705449	1.403761
23.268588411019277	1.9596083	1.3998601
23.28648309102458	1.9398409	1.3927817
23.304378346863356	1.9207205	1.3859006
23.322274179027676	1.8833628	1.3723567
23.340170588009723	1.8831916	1.3722943
23.358067574301852	1.8873296	1.3738011
23.37596513839651	1.9042155	1.3799331
23.39386328078629	1.9006089	1.3786258
23.411762001963947	1.9110073	1.3823919
23.429661302422353	1.888279	1.3741466
23.4475611826545	1.871854	1.3681571
23.46546164315356	1.8938551	1.3761741
23.48336268441279	1.9048041	1.3801464
23.501264306925638	1.9085822	1.3815144
23.51916651118564	1.9008039	1.3786964
23.537069297686497	1.8840464	1.3726057
23.554972666922037	1.893076	1.375891
23.57287661938623	1.9338086	1.3906145
23.59078115557318	1.9189385	1.3852576
23.608686275977128	1.924068	1.3871077
23.62659198109246	1.928465	1.3886918
23.6444982714137	1.9294337	1.3890406
23.66240514743549	1.9106374	1.382258
23.68031260965263	1.8975911	1.3775308
23.698220658560068	1.8917408	1.3754057
23.716129294652845	1.8654481	1.3658141
23.7340385184262	1.892452	1.3756642
23.75194833037546	1.9274299	1.3883191
23.769858730996123	1.9616153	1.4005768
23.78776972078382	1.9350803	1.3910717
23.80568130023431	1.8997693	1.3783212
23.823593469843495	1.8867139	1.373577
23.841506230107424	1.8259106	1.3512626
23.859419581522275	1.841404	1.3569834
23.87733352458438	1.8602113	1.3638957
23.89524805979019	1.9045364	1.3800493
23.913163187636318	1.9234272	1.3868768
23.931078908619508	1.9455687	1.3948364
23.948995223236633	1.9656911	1.4020311
23.966912131984735	1.9791093	1.4068081
23.98482963536096	2.0034845	1.415445
24.002747733862616	2.007021	1.4166937
24.020666427987155	2.0163112	1.4199687
24.038585718232156	2.0418184	1.428922
24.056505605095353	2.075301	1.4405905
24.074426089074617	2.1272366	1.4585049
24.092347170667946	2.106229	1.4512854
24.110268850373515	2.1188364	1.4556223
24.128191128689586	2.0828123	1.4431952
24.146114006114626	2.0463216	1.4304969
24.164037483147187	2.0190873	1.4209459
24.181961560286005	2.050067	1.4318055
24.199886238029926	2.047644	1.4309591
24.21781151687797	2.0951118	1.4474502
24.235737397329274	2.0915968	1.4462354
24.253663879883135	2.0916705	1.4462609
24.271590965038975	2.0605562	1.4354638
24.289518653296376	2.0023859	1.4150568
24.30744694515505	2.0042112	1.4157016
24.32537584111486	2.0315275	1.4253167
24.34330534167581	2.046125	1.4304283
24.361235447338046	1.9829773	1.4081823
24.379166158601876	1.9867237	1.4095118
24.39709747596772	1.9854332	1.409054
24.41502939993615	1.9953336	1.4125627
24.432961931007917	1.9892777	1.4104176
24.450895069683856	2.0028198	1.4152101
24.468828816465	2.0035222	1.4154583
24.4867631718525	1.9758761	1.4056586
24.504698136347656	1.9797062	1.4070203
24.52263371045192	2.0084174	1.4171864
24.540569894666874	2.0082579	1.4171301
24.558506689494266	1.9281604	1.3885821
24.57644409543597	1.867618	1.3666081
24.594382112994012	1.8527803	1.3611687
24.61232074267057	1.9004835	1.3785802
24.630259984967953	1.9302531	1.3893355
24.64819984038863	1.9556426	1.3984429
24.66614030943522	1.9837947	1.4084724
24.684081392610462	1.98785	1.4099113
24.702023090417274	1.9526328	1.3973664
24.7199654033587	1.9540387	1.3978693
24.737908331937927	2.0047646	1.4158971
24.755851876658305	2.0513632	1.4322581
24.773796038023324	2.0677009	1.4379503
24.79174081653661	2.1060176	1.4512124
24.809686212701962	2.1106224	1.4527981
24.827632227023294	2.064571	1.4368615
24.8455788600047	2.0867279	1.4445511
24.8635261121504	2.1284094	1.4589069
24.88147398396475	2.1246383	1.457614
24.899422475952303	2.0730608	1.4398128
24.917371588617698	2.0967536	1.4480171
24.935321322465768	2.1813118	1.4769264
24.953271678001478	2.307868	1.5191668
24.97122265572994	2.4881163	1.5773764
24.989174256156414	2.8041868	1.6745707
25.00712647978632	3.249204	1.8025548
25.02507932712521	3.7921488	1.9473441
25.043032798678798	4.336033	2.0823143
25.060986894952933	5.0141363	2.2392268
25.078941616453637	5.8103557	2.4104679
25.096896963687055	6.8138056	2.6103268
25.114852937159508	8.016283	2.831304
25.132809537377444	8.554381	2.9247875
25.150766764847468	8.6168995	2.9354556
25.168724620076347	8.004424	2.829209
25.186683103570985	6.9161997	2.6298668
25.204642215838426	5.6681547	2.3807886
25.222601957385894	4.242383	2.0597045
25.24056232872074	3.2271316	1.7964219
25.25852333035048	2.6268725	1.620763
25.276484962782778	2.2920794	1.5139616
25.294447226525435	2.1121538	1.453325
25.312410122086423	2.0430708	1.4293603
25.330373649973843	2.0174842	1.4203817
25.348337810695988	1.9695771	1.4034162
25.366302604761245	1.9053706	1.3803517
25.384268032678207	1.8562962	1.3624597
25.40223409495558	1.9057897	1.3805034
25.420200792102257	1.9616922	1.4006042
25.438168124627246	1.9401639	1.3928976
25.45613609303974	1.8708736	1.3677988
25.474104697849057	1.8415617	1.3570415
25.492073939564698	1.8188791	1.3486583
25.510043818696285	1.810172	1.3454263
25.528014335753614	1.8141116	1.3468896
25.54598549124664	1.8623425	1.3646767
25.56395728568544	1.8523893	1.3610251
25.58192971958028	1.8357098	1.3548837
25.59990279344156	1.8435568	1.3577764
25.617876507779833	1.9027523	1.3794029
25.635850863105826	1.8998162	1.3783382
25.653825859930386	1.828127	1.3520825
25.671801498764548	1.8270798	1.3516952
25.68977778011949	1.8322306	1.3535991
25.707754704506524	1.8640511	1.3653026
25.725732272437153	1.894081	1.3762561
25.743710484423012	1.9118934	1.3827124
25.761689340975888	1.8928622	1.3758132
25.77966884260774	1.8508211	1.3604488
25.797648989830662	1.9000095	1.3784083
25.815629783156922	1.9118986	1.3827143
25.83361122309895	1.8946801	1.3764738
25.85159331016929	1.8617331	1.3644534
25.869576044880695	1.8389671	1.3560852
25.887559427746034	1.8423289	1.3573241
25.90554345927836	1.8175943	1.3481818
25.92352813999086	1.7701783	1.3304805
25.94151347039689	1.7923387	1.3387825
25.959499451009965	1.8342125	1.354331
25.97748608234374	1.8596702	1.3636973
25.995473364912062	1.8590671	1.3634762
26.013461299228904	1.8614184	1.364338
26.03144988580839	1.8828169	1.3721578
26.04943912516483	1.8684133	1.3668991
26.067429017812675	1.8396268	1.3563284
26.085419564266537	1.8350846	1.3546529
26.103410765041186	1.8584954	1.3632665
26.12140262065155	1.8750633	1.3693295
26.139395131612723	1.8360566	1.3550117
26.157388298439948	1.7819694	1.3349043
26.17538212164861	1.761873	1.3273556
26.193376601754295	1.7636817	1.3280368
26.211371739272714	1.7577047	1.3257846
26.229367534719746	1.7937628	1.3393143
26.247363988611433	1.8223803	1.3499557
26.26536110146397	1.8175406	1.3481619
26.283358873793727	1.7992458	1.3413597
26.301357306117204	1.8099006	1.3453255
26.319356398951104	1.8522128	1.3609602
26.33735615281224	1.8410665	1.3568591
26.35535656821762	1.8484114	1.359563
26.373357645684404	1.8505466	1.360348
26.39135938572991	1.8677675	1.3666629
26.409361788871614	1.8232428	1.350275
26.427364855627165	1.7934229	1.3391874
26.445368586514352	1.802741	1.342662
26.46337298205115	1.8188376	1.348643
26.48137804275568	1.8290616	1.3524281
26.499383769146217	1.8488549	1.3597261
26.517390161741215	1.7984002	1.3410444
26.53539722105928	1.7618141	1.3273335
26.553404947619182	1.7726704	1.3314167
26.571413341939856	1.8135697	1.3466884
26.589422404540397	1.837528	1.3555545
26.60743213594006	1.8350973	1.3546576
26.62544253665827	1.8266851	1.3515491
26.64345360721459	1.824213	1.3506343
26.66146534812879	1.8012987	1.3421247
26.679477759920758	1.7540452	1.3244038
26.69749084311057	1.7447523	1.3208907
26.71550459821847	1.7904332	1.3380706
26.733519025764842	1.8383138	1.3558444
26.751534126270258	1.8275977	1.3518867
26.769549900255434	1.7865202	1.3366077
26.787566348241267	1.7936984	1.3392903
26.80558347074881	1.8278718	1.3519881
26.823601268299267	1.8421623	1.3572627
26.841619741414036	1.8365247	1.3551844
26.85963889061465	1.7910503	1.3383013
26.877658716422832	1.759453	1.3264438
26.89567921936045	1.7968363	1.3404613
26.913700399949544	1.8553774	1.3621224
26.93172225871233	1.8947991	1.376517
26.949744796171174	1.8419617	1.3571889
26.967768012848605	1.8168013	1.3478878
26.98579190926733	1.8333224	1.3540024
27.003816485950225	1.8405461	1.3566673
27.021841743420318	1.824053	1.3505751
27.039867682200814	1.7840426	1.3356806
27.057894302815072	1.7849114	1.3360058
27.07592160578664	1.7891724	1.3375995
27.0939495916392	1.7776991	1.3333038
27.111978260896635	1.7292467	1.3150083
27.13000761408296	1.7523785	1.3237743
27.148037651722397	1.8169165	1.3479304
27.166068374339304	1.8289618	1.3523911
27.184099782458215	1.7948673	1.3397266
27.20213187660384	1.792543	1.3388588
27.22016465730105	1.7925133	1.3388478
27.23819812507487	1.7650024	1.3285339
27.256232280450533	1.7888188	1.3374673
27.274267123953383	1.821671	1.349693
27.292302656108987	1.8471826	1.359111
27.31033887744306	1.8693404	1.3672383
27.32837578848146	1.8616817	1.3644346
27.34641338975026	1.8423603	1.3573357
27.364451681775673	1.8494847	1.3599576
27.382490665084074	1.8131906	1.3465476
27.400530340202046	1.797035	1.3405353
27.41857070765629	1.8024933	1.3425697
27.436611767973726	1.7887193	1.3374301
27.454653521681404	1.767572	1.3295007
27.472695969306564	1.7816733	1.3347933
27.490739111376627	1.7983655	1.3410316
27.508782948419153	1.8095994	1.3452135
27.526827480961902	1.8422716	1.357303
27.54487270953279	1.8349258	1.3545943
27.562918634659898	1.8107136	1.3456275
27.580965256871508	1.8010308	1.3420249
27.599012576696026	1.8524492	1.361047
27.617060594662068	1.849053	1.3597989
27.63510931129842	1.8421111	1.3572439
27.65315872713401	1.8327516	1.3537916
27.67120884269797	1.8071232	1.3442928
27.68925965851958	1.8026844	1.3426409
27.707311175128307	1.7888222	1.3374686
27.725363393053787	1.8064548	1.3440442
27.74341631282583	1.840195	1.3565378
27.7614699349744	1.8930568	1.3758839
27.77952426002968	2.0180194	1.4205701
27.797579288521973	2.0793698	1.442002
27.815635020981784	2.428855	1.5584784
27.83369145793979	2.516965	1.5864946
27.85174859992682	2.4657578	1.5702732
27.869806447473923	2.3579872	1.5355738
27.887865001112267	2.0434356	1.4294878
27.905924261373233	1.8968905	1.3772765
27.92398422878836	1.8686745	1.3669947
27.94204490388936	1.8230168	1.3501914
27.96010628720813	1.8237933	1.3504789
27.978168379276728	1.8527093	1.3611426
27.9962311806274	1.8536726	1.3614964
28.014294691792568	1.8177401	1.348236
28.0323589133048	1.8695031	1.3672978
28.050423845696887	1.8841724	1.3726516
28.068489489501758	1.8784534	1.3705668
28.086555845252523	1.8821397	1.3719109
28.104622913482487	1.8678442	1.366691
28.122690694725115	1.8848181	1.3728868
28.14075918951405	1.885132	1.3730011
28.15882839838312	1.8800833	1.3711613
28.176898321866304	1.8792579	1.3708603
28.1949689604978	1.863837	1.3652241
28.213040314811945	1.8840955	1.3726236
28.23111238534327	1.9095913	1.3818797
28.249185172626493	1.9281379	1.388574
28.267258677196473	1.9231874	1.3867903
28.285332899588294	1.9257699	1.3877212
28.303407840337172	1.9475207	1.395536
28.321483499978545	1.9239804	1.3870761
28.33955987904799	1.9080502	1.3813219
28.357636978081285	1.916049	1.3842142
28.37571479761439	1.9685342	1.4030446
28.393793338183425	1.9756881	1.4055917
28.41187260032469	1.9139104	1.3834414
28.429952584574686	1.872156	1.3682675
28.448033291470065	1.9722764	1.4043776
28.46611472154769	2.0580428	1.434588
28.484196875344566	2.062865	1.4362677
28.502279753397914	1.9692711	1.4033072
28.52036335624511	1.9197159	1.3855381
28.538447684423716	1.9278901	1.3884848
28.556532738471482	1.9808903	1.407441
28.574618518926325	1.9834845	1.4083624
28.59270502632635	1.9684991	1.4030321
28.61079226120985	2.0185857	1.4207695
28.628880224115274	2.0236628	1.422555
28.646968915581287	2.0288813	1.424388
28.66505833614671	2.0446315	1.4299061
28.68314848635055	2.0448337	1.4299768
28.701239366732004	2.0791552	1.4419276
28.71933097783044	2.1072445	1.4516351
28.737423320185403	2.083957	1.4435917
28.75551639433665	2.0427716	1.4292556
28.773610200824074	2.046285	1.4304842
28.791704740187793	2.083766	1.4435256
28.80980001296809	2.060221	1.435347
28.827896019705413	2.0993195	1.4489028
28.845992760940433	2.1911497	1.4802532
28.86409023721397	2.2406874	1.4968926
28.88218844906704	2.2257986	1.491911
28.900287397040845	2.1995504	1.4830881
28.918387081676755	2.225535	1.4918227
28.936487503516343	2.242967	1.4976538
28.954588663101365	2.2476633	1.4992208
28.97269056097374	2.2183542	1.4894141
28.990793197675597	2.2883284	1.5127221
29.00889657374923	2.3016644	1.5171237
29.027000689737125	2.3382382	1.5291299
29.04510554618196	2.3681493	1.5388793
29.06321114362659	2.3826985	1.5435992
29.08131748261405	2.3451457	1.5313869
29.099424563687567	2.3378847	1.5290142
29.11753238739057	2.4038434	1.5504333
29.13564095426663	2.4980628	1.5805261
29.15375026485954	2.534482	1.5920056
29.171860319713275	2.572051	1.6037616
29.18997111937199	2.69759	1.6424342
29.20808266438002	2.7879243	1.6697079
29.226194955281898	2.7977443	1.6726459
29.244307992622335	2.7288373	1.6519192
29.26242177694624	2.7761068	1.6661654
29.2805363087987	2.8431642	1.6861686
29.29865158872498	2.8578134	1.6905068
29.316767617270557	2.9084253	1.7054106
29.334884394981064	2.961565	1.7209198
29.353001922402367	2.9228272	1.7096279
29.37112020008047	2.959179	1.7202264
29.389239228561596	3.0819726	1.7555548
29.407359008392152	3.3369498	1.826732
29.42547954011872	3.7257848	1.9302292
29.44360082428809	4.33985	2.0832307
29.46172286144722	5.41117	2.3261921
29.479845652143283	7.0625153	2.6575394
29.497969196923606	9.350114	3.0577955
29.516093496335728	12.190252	3.4914541
29.5342185509274	15.145342	3.8917017
29.55234436124651	17.783813	4.217086
29.570470927841175	19.378164	4.402064
29.588598251259686	18.964863	4.3548665
29.60672633205055	17.370203	4.1677575
29.624855170762405	15.057911	3.8804524
29.642984767944146	12.108453	3.47972
29.66111512414481	9.132846	3.02206
29.67924623991366	6.7574778	2.599515
29.697378115800138	5.1396403	2.2670774
29.71551075235387	4.1306386	2.0323973
29.733644150124675	3.6655703	1.914568
29.751778309662576	3.4257002	1.8508648
29.769913231517766	3.3611171	1.8333349
29.78804891624066	3.396956	1.8430833
29.806185364381818	3.388717	1.8408468
29.82432257649206	3.3748105	1.8370657
29.842460553122333	3.3780367	1.8379437
29.86059929482382	3.3525574	1.830999
29.878738802147872	3.264532	1.8068017
29.896879075646048	3.221146	1.7947552
29.915020115870114	3.3281069	1.82431
29.933161923371976	3.3870234	1.8403867
29.951304498703777	3.3488615	1.8299894
29.969447842417857	3.3361747	1.8265198
29.987591955066733	3.3111312	1.8196514
30.005736837203123	3.2562234	1.8045009
30.023882489379943	3.186652	1.7851195
30.04202891215028	3.1999807	1.788849
30.060176106067455	3.1526573	1.7755724
30.078324071684946	3.1025767	1.7614133
30.09647280955646	3.0764337	1.7539766
30.114622320235863	3.0936003	1.7588633
30.132772604277257	3.1012435	1.7610347
30.1509236622349	3.120369	1.7664566
30.16907549466328	3.0902684	1.757916
30.18722810211705	3.1267471	1.7682611
30.205381485151097	3.124197	1.7675399
30.22353564432045	3.1166186	1.7653948
30.241690580180403	3.0768147	1.7540852
30.25984629328638	3.0286698	1.7403075
30.278002784194037	3.0503495	1.7465249
30.296160053459246	3.0751235	1.753603
30.314318101638033	2.9890795	1.7288954
30.332476929286646	2.9479902	1.7169713
30.35063653696153	2.879522	1.6969155
30.368796925219307	2.8383176	1.6847308
30.386958094616844	2.8202631	1.679364
30.40512004571115	2.7939484	1.6715108
30.423282779059463	2.8129442	1.6771834
30.441446295219233	2.8446293	1.6866028
30.459610594748067	2.8140578	1.6775154
30.47777567820382	2.7946792	1.6717294
30.495941546144504	2.8483078	1.687693
30.51410819912835	2.8377001	1.6845474
30.532275637713795	2.8064575	1.6752485
30.55044386245946	2.777519	1.666589
30.56861287392416	2.7288396	1.65192
30.586782672666956	2.7776787	1.666637
30.604953259247047	2.8242416	1.6805481
30.623124634223885	2.799264	1.6731001
30.641296798157075	2.7390542	1.6550088
30.659469751606462	2.7437398	1.6564238
30.677643495132074	2.8096635	1.6762052
30.695818029294152	2.7658722	1.6630912
30.713993354653116	2.7043872	1.6445022
30.73216947176962	2.7750397	1.665845
30.75034638120448	2.7874894	1.6695776
30.768524083518756	2.7312045	1.6526356
30.786702579273673	2.8310583	1.6825749
30.80488186903069	2.894138	1.7012167
30.82306195335144	2.9561427	1.7193437
30.841242832797782	3.136917	1.7711344
30.85942450793176	3.5204291	1.8762807
30.877606979315637	3.8990028	1.9745892
30.895790247511883	4.1855135	2.0458527
30.913974313083134	4.6274524	2.1511514
30.932159176592283	5.00357	2.2368662
30.95034483860237	5.0410714	2.245233
30.968531299676698	4.708591	2.1699288
30.98671856037873	4.36468	2.0891817
31.00490662127215	3.9423316	1.9855305
31.023095482920848	3.5145433	1.8747115
31.04128514588892	3.089797	1.7577819
31.059475610740662	2.7421627	1.6559477
31.07766687804056	2.5774722	1.6054507
31.09585894835335	2.577289	1.6053938
31.11405182224393	2.5511618	1.5972357
31.132245500277417	2.523727	1.5886242
31.15043998301914	2.5450704	1.5953277
31.168635271034628	2.5088222	1.5839262
31.18683136488964	2.466755	1.5705906
31.20502826515008	2.4774063	1.5739778
31.223225972382135	2.5232413	1.5884714
31.241424487152155	2.494413	1.5793711
31.259623810026692	2.4673765	1.5707885
31.27782394157253	2.4704235	1.571758
31.296024882356644	2.3810182	1.5430548
31.314226632946237	2.2944467	1.5147431
31.332429193908684	2.3319821	1.5270829
31.350632565811598	2.3687658	1.5390795
31.368836749222787	2.4294765	1.5586778
31.387041744710295	2.4667144	1.5705777
31.40524755284232	2.5449424	1.5952876
31.423454174187317	2.4966192	1.5800694
31.441661609313922	2.3943572	1.547371
31.459869858791002	2.2796946	1.5098658
31.478078923187628	2.3284152	1.5259145
31.496288803073064	2.345647	1.5315505
31.514499499016807	2.3778477	1.5420271
31.532711011588546	2.3718135	1.5400693
31.550923341358178	2.323422	1.5242776
31.56913648889584	2.253004	1.501001
31.587350454771844	2.2287304	1.4928933
31.605565239556732	2.2360876	1.4953554
31.62378084382127	2.1764724	1.4752872
31.641997268136382	2.2094414	1.486419
31.660214513073274	2.2539082	1.5013021
31.67843257920331	2.2986777	1.516139
31.6966514670981	2.315126	1.5215538
31.71487117732944	2.3315105	1.5269284
31.733091710469346	2.3936641	1.547147
31.751313067090052	2.3484035	1.5324502
31.769535247764008	2.3766975	1.5416541
31.787758253063878	2.384378	1.5441431
31.805982083562526	2.323032	1.5241495
31.824206739833024	2.2201862	1.490029
31.84243222244869	2.1867774	1.4787756
31.860658531983013	2.1680565	1.4724321
31.878885669009737	2.1985989	1.4827673
31.897113634102784	2.2751327	1.5083543
31.91534242783632	2.2985148	1.5160854
31.933572050784694	2.3178284	1.5224416
31.951802503522508	2.3085628	1.5193955
31.970033786624548	2.2492762	1.4997587
31.988265900665834	2.1108246	1.4528677
32.006498846221575	2.0619256	1.4359407
32.02473262386724	2.0957243	1.4476616
32.04296723417845	2.1296687	1.4593384
32.0612026777311	2.1596265	1.4695668
32.07943895510129	2.184305	1.4779395
32.097676066865304	2.1383166	1.4622984
32.115914013599685	2.1456344	1.4647985
32.13415279588115	2.1631649	1.4707701
32.152392414286666	2.216816	1.4888976
32.1706328693934	2.2072637	1.4856863
32.18887416177875	2.2319117	1.4939584
32.20711629202032	2.1745777	1.4746449
32.225359260695924	2.1765296	1.4753066
32.243603068383614	2.193774	1.4811394
32.26184771566166	2.1581154	1.4690526
32.28009320310852	2.1063275	1.4513192
32.2983395313029	2.105656	1.4510878
32.31658670082372	2.1112425	1.4530115
32.33483471225012	2.0562444	1.433961
32.35308356616143	1.976529	1.4058908
32.371333263137245	1.9937688	1.4120088
32.38958380375734	2.0183902	1.4207006
32.407835188601744	2.1324065	1.4602761
32.42608741825067	2.1192255	1.455756
32.444340493284585	2.0471976	1.4308032
32.46259441428416	2.057009	1.4342277
32.48084918183028	2.1511877	1.4666928
32.49910479650405	2.1592376	1.4694345
32.51736125888683	2.1269445	1.4584048
32.53561856956014	2.18582	1.478452
32.5538767291058	2.247601	1.4992001
32.572135738105764	2.1843295	1.4779477
32.59039559714228	2.1109633	1.4529154
32.608656306797776	2.0292823	1.4245288
32.62691786765491	1.984869	1.4088538
32.645180280296586	1.9329358	1.3903006
32.663443545305896	1.9468744	1.3953044
32.68170766326619	1.9615939	1.4005691
32.69997263476099	1.9436498	1.3941483
32.7182384603741	1.9058867	1.3805386
32.7365051406895	1.8485035	1.3595968
32.75477267629144	1.8880149	1.3740505
32.77304106776434	1.9568024	1.3988575
32.79131031569289	1.9887714	1.410238
32.809580420661966	1.9943298	1.4122074
32.827851383256714	1.9296125	1.389105
32.84612320406245	1.9294946	1.3890625
32.86439588366476	2.039796	1.4282143
32.88266942264945	2.0814667	1.4427289
32.9009438216025	1.9947448	1.4123544
32.9192190811102	1.8964784	1.3771268
32.937495201758985	1.8592695	1.3635503
32.95577218413556	1.8987546	1.377953
32.974050028826866	1.9328868	1.390283
32.992328736420035	1.9900644	1.4106964
33.010608307502444	1.912537	1.3829451
33.02888874266169	1.9236535	1.3869584
33.047170042485604	2.026338	1.423495
33.06545220756225	2.0786333	1.4417466
33.083735238479896	1.977576	1.4062631
33.10201913582707	1.9631171	1.4011128
33.12030390019248	1.983554	1.4083871
33.138589532165135	1.9416947	1.393447
33.15687603233419	1.8839179	1.372559
33.17516340128909	1.8745457	1.3691405
33.19345163961947	1.8566743	1.3625984
33.211740747915215	1.9000045	1.3784065
33.23003072676643	1.9470806	1.3953784
33.248321576763466	1.916463	1.3843638
33.266613298496885	1.8567269	1.3626176
33.28490589255747	1.9123853	1.3828902
33.30319935953626	1.9179813	1.384912
33.32149370002451	1.8130614	1.3464997
33.339788914613706	1.7747338	1.3321913
33.358085003895575	1.8983619	1.3778106
33.376381968462034	2.0087557	1.4173058
33.39467980890529	1.9974775	1.4133215
33.41297852581774	1.9893614	1.4104472
33.43127811979204	1.9764434	1.4058604
33.44957859142105	1.8933682	1.3759972
33.467879941297866	1.8796297	1.3709959
33.486182170015844	1.8986266	1.3779066
33.50448527816853	1.9063559	1.3807085
33.522789266349754	2.0083592	1.4171659
33.541094135153514	2.1361496	1.4615573
33.55939988517411	1.9905982	1.4108856
33.57770651700602	1.894619	1.3764516
33.59601403124398	1.9241743	1.3871461
33.61432242848296	2.0455446	1.4302254
33.632631709318154	2.0072865	1.4167874
33.650941874344994	2.0146763	1.419393
33.66925292415916	2.0388224	1.4278734
33.68756485935654	2.0245633	1.4228715
33.70587768053328	1.9720814	1.4043082
33.724191388285746	1.910816	1.3823227
33.74250598321054	1.886709	1.3735752
33.760821465904506	1.7724745	1.3313432
33.77913783696474	1.9276384	1.3883942
33.79745509698852	2.054482	1.4333464
33.815773246573414	1.9720021	1.40428
33.8340922863172	1.8869143	1.37365
33.852412216817896	1.8688595	1.3670623
33.87073303867377	1.8269151	1.3516343
33.889054752483304	1.8514789	1.3606906
33.907377358845245	1.8203008	1.3491852
33.92570085835853	1.8200102	1.3490776
33.94402525162239	1.866949	1.3663634
33.96235053923627	1.908741	1.3815719
33.980676721799824	1.8253177	1.3510432
33.999003799912984	1.7222058	1.3123283
34.01733177417592	1.7569343	1.3254939
34.03566064518901	1.8792777	1.3708675
34.0539904135529	1.9257569	1.3877164
34.07232107986846	1.9828715	1.4081447
34.090652644736785	2.092681	1.4466101
34.108985108759235	2.048161	1.4311397
34.12731847253742	1.9482486	1.3957968
34.14565273667313	1.9224935	1.38654
34.16398790176847	1.9055907	1.3804313
34.18232396842574	1.9811765	1.4075427
34.20066093724749	1.9981949	1.4135752
34.21899880883651	1.9822314	1.4079174
34.23733758379583	1.9808836	1.4074386
34.25567726272874	1.9372938	1.391867
34.27401784623872	1.9750209	1.4053544
34.29235933492957	2.1453862	1.4647137
34.31070172940526	2.272134	1.50736
34.32904503027003	2.159639	1.469571
34.347389238128386	2.0774503	1.4413363
34.36573435358502	1.9341276	1.3907292
34.38408037724492	1.8733335	1.3686978
34.402427309713296	1.9952962	1.4125495
34.42077515159559	2.0651467	1.4370618
34.43912390349752	2.0468495	1.4306815
34.45747356602499	2.0084503	1.4171981
34.47582413978423	1.9601499	1.4000535
34.49417562538163	1.910735	1.3822933
34.51252802342388	1.9262314	1.3878874
34.53088133451789	2.097742	1.4483584
34.54923555927084	2.144835	1.4645255
34.567590698290104	2.114331	1.4540739
34.58594675218336	2.0502257	1.4318609
34.6043037215585	2.0539207	1.4331506
34.62266160702365	1.8661591	1.3660743
34.641020409187234	1.7714638	1.3309635
34.65938012865785	1.7977914	1.3408175
34.677740766044394	1.8968877	1.3772755
34.69610232195598	1.9764473	1.4058617
34.714464797002016	1.9701898	1.4036345
34.73282819179208	1.9327829	1.3902457
34.751192506936064	1.9153484	1.3839611
34.76955774304408	1.8988639	1.3779927
34.7879239007265	1.9687598	1.403125
34.80629098059391	2.021935	1.4219476
34.824658983257194	2.0288239	1.4243679
34.843027909327446	2.027311	1.4238367
34.86139775941603	1.9376446	1.391993
34.879768534134534	1.7316998	1.3159406
34.89814023409483	1.6753409	1.2943496
34.91651285990901	2.0281382	1.4241271
34.93488641218944	2.0005178	1.4143966
34.95326089154871	1.7361531	1.3176316
34.97163629859967	1.6970123	1.3026942
34.99001263395542	1.8487017	1.3596697
35.00838989822934	1.9769334	1.4060346
35.02676809203499	1.9429094	1.3938829
35.04514721598624	1.8286868	1.3522894
35.063527270697215	1.7945263	1.3395994
35.081908256782256	1.9140686	1.3834987
35.10029017485597	1.9972675	1.4132471
35.11867302553321	2.0484724	1.4312485
35.137056809429104	2.0403154	1.4283961
35.155441527159006	2.0268276	1.423667
35.173827179338524	1.916494	1.384375
35.19221376658354	1.9358625	1.3913528
35.21060128951017	1.8091642	1.3450518
35.2289897487348	1.8111885	1.345804
35.24737914487405	2.0948765	1.4473689
35.26576947854479	2.1371698	1.4619062
35.28416075036418	2.1283517	1.4588871
35.30255296094958	2.1121037	1.4533079
35.32094611091867	1.95526	1.3983061
35.33934020088932	2.0871344	1.4446918
35.35773523147969	2.010493	1.4179186
35.3761312033082	1.9858588	1.4092051
35.394528116993506	2.3260233	1.5251306
35.41292597315452	2.50263	1.5819703
35.431324772410434	2.301847	1.5171839
35.449724515380666	1.8865074	1.3735019
35.46812520268491	1.8747684	1.3692218
35.486526834943106	2.2202687	1.4900566
35.504929412775454	2.2813904	1.5104272
35.52333293680242	2.129451	1.4592639
35.54173740764471	1.9976526	1.4133834
35.560142825923286	1.891617	1.3753606
35.5785491922594	1.452709	1.2052838
35.59695650727454	1.0934225	1.0456685
35.61536477159042	0.1497729	0.38700503
