0.008763373481513119	0.051685803	0.22734512
0.026290120649546365	0.47682703	0.6905266
0.043816868432600686	0.37487453	0.61227
0.06134361724069026	0.34725147	0.5892805
0.07887036748382949	0.24224025	0.4921791
0.0963971195720331	0.16626447	0.4077554
0.11392387391531617	0.30947244	0.5563025
0.1314506309236943	0.37400258	0.6115575
0.1489773910071836	0.37886846	0.6155229
0.16650415457580078	0.38390136	0.61959773
0.18403092203956356	0.28161892	0.5306778
0.20155769380849	0.19200678	0.43818578
0.2190844702925996	0.15882081	0.39852327
0.2366112519019124	0.123289794	0.35112646
0.2541380390464497	0.15552503	0.39436662
0.27166483213623416	0.2206686	0.46975377
0.28919163158128947	0.259032	0.5089519
0.3067184377916406	0.26959813	0.5192284
0.324245251177314	0.2365221	0.48633537
0.34177207214833777	0.20091116	0.44823116
0.3592989011147415	0.15083154	0.38837036
0.37682573848655654	0.15954992	0.399437
0.39435258467381573	0.19799666	0.44496816
0.41187944008655414	0.17573234	0.4192044
0.42940630513480854	0.15810883	0.39762902
0.446933180228618	0.11612659	0.34077352
0.4644600657780234	0.119853355	0.34619844
0.48198696219306775	0.12186618	0.34909338
0.49951386988379676	0.11795429	0.34344473
0.5170407892602581	0.13423793	0.36638495
0.5345677207325025	0.13052171	0.36127788
0.5520946647105822	0.12759213	0.3572004
0.5696216216045534	0.13062327	0.3614184
0.5871485918244737	0.11101167	0.33318412
0.6046755757804043	0.13333042	0.36514437
0.6222025738824094	0.12455292	0.35292056
0.6397295865405557	0.12692696	0.3562681
0.6572566141649129	0.14810556	0.38484484
0.6747836571655547	0.18565316	0.43087488
0.6923107159525568	0.23920374	0.4890846
0.7098377909359992	0.2273586	0.47682133
0.7273648825259653	0.24083751	0.49075198
0.7448919911325411	0.20170201	0.44911247
0.762419117165817	0.21246204	0.46093604
0.7799462610358868	0.18703727	0.43247807
0.7974734231528482	0.1658997	0.40730786
0.8150006039268024	0.16806959	0.40996292
0.8325278037678551	0.14823212	0.38500923
0.8500550230861152	0.17060626	0.4130451
0.8675822622916969	0.19475439	0.44130987
0.8851095217947171	0.2184592	0.4673962
0.9026368020052984	0.20923439	0.45742145
0.9201641033335665	0.20020643	0.44744432
0.9376914261896523	0.1579372	0.39741313
0.9552187709836915	0.16967401	0.41191506
0.9727461381258234	0.18754151	0.43306065
0.990273528026193	0.20199849	0.44944242
1.0078009410949496	0.2421231	0.49206007
1.0253283777422473	0.2606192	0.5105088
1.0428558383782454	0.25055787	0.50055754
1.0603833234131086	0.3042299	0.55157036
1.0779108332570058	0.3126414	0.5591435
1.0954383683201119	0.3188149	0.56463695
1.112965929012607	0.3330847	0.5771349
1.1304935157446763	0.4406261	0.6637967
1.1480211289265108	0.471114	0.68637747
1.1655487689683062	1.5503861	1.245145
1.1830764362802655	1.9241656	1.387143
1.200604131272596	2.3242652	1.5245541
1.2181318543555117	2.3220682	1.5238334
1.235659605939232	2.2669795	1.5056492
1.253187386433982	3.9137557	1.9783214
1.270715196249994	6.4213014	2.5340288
1.2882430357975057	12.088374	3.4768338
1.3057709054867608	17.026949	4.1263723
1.3232988057280106	23.143003	4.8107176
1.3408267369315112	28.140545	5.304766
1.358354699507526	31.853502	5.643891
1.3758826938663256	35.69333	5.9743896
1.3934107204181858	37.735233	6.142901
1.410938779573391	38.103992	6.172843
1.4284668717422309	38.964912	6.242188
1.4459949973350033	38.510296	6.2056665
1.4635231567620117	38.615578	6.2141433
1.4810513504335687	37.681175	6.1384993
1.4985795787599925	36.781624	6.0647855
1.5161078421516088	36.26452	6.0220027
1.5336361410187505	35.667873	5.9722586
1.5511644757717598	35.68554	5.9737372
1.5686928468209842	36.231476	6.019259
1.58622125457678	36.68905	6.0571485
1.6037496994495108	37.784122	6.146879
1.621278181849548	37.704987	6.1404386
1.6388067021872719	38.68423	6.219665
1.6563352608730693	38.187885	6.1796346
1.673863858317336	37.343857	6.110962
1.6913924949304753	36.39738	6.0330243
1.7089211711228998	35.284748	5.940097
1.7264498873050296	34.63793	5.8854
1.7439786438872935	33.652676	5.8010926
1.7615074412801288	32.48024	5.699144
1.779036279893981	31.739275	5.633762
1.796565160139305	30.673975	5.538409
1.814094082426564	30.266676	5.501516
1.8316230471662298	29.697811	5.4495697
1.849152054768784	28.995815	5.384776
1.8666811056447168	28.514282	5.3398767
1.8842102002045273	27.449274	5.2392054
1.901739338858724	27.105408	5.2062855
1.9192685220178245	26.356474	5.133856
1.9367977500923557	25.62825	5.062435
1.9543270234928547	24.885105	4.9884973
1.971856342629867	24.162493	4.915536
1.9893857079139496	23.589344	4.8568864
2.006915119755667	23.100996	4.8063498
2.0244445785655945	22.609434	4.7549376
2.0419740847543175	22.18161	4.709736
2.0595036387324317	21.629488	4.650751
2.0770332409105414	21.16554	4.600602
2.094562891699263	20.784851	4.5590405
2.1120925915092217	20.447645	4.5219073
2.129622340751053	20.317017	4.50744
2.1471521398354043	188.42871	13.7269335
2.1646819891729323	444.75824	21.089293
2.182211889174303	440.91388	20.99795
2.1997418402501974	453.25073	21.289686
2.2172718428113023	433.0988	20.811026
2.234801897268317	321.02118	17.917065
2.2523320040319548	17.456076	4.1780467
2.269862163512935	17.10901	4.136304
2.287392376121992	16.762903	4.0942526
2.304922642269869	16.280926	4.034963
2.322452962367322	15.973458	3.996681
2.3399833368251164	15.706878	3.9631903
2.357513766054032	15.593392	3.948847
2.3750442504648586	15.335997	3.91612
2.3925747904683963	15.011683	3.8744915
2.410105386475459	14.812057	3.8486435
2.4276360388968707	14.707421	3.8350255
2.445166748143469	14.668133	3.8298998
2.4626975146261025	14.386777	3.7929904
2.4802283387556323	13.979065	3.7388587
2.4977592209429305	13.683981	3.6991866
2.5152901615988825	13.564485	3.6829994
2.5328211611343865	13.444556	3.666682
2.5503522199603523	13.181127	3.630582
2.5678833384877024	12.904564	3.5922923
2.5854145171273712	12.72507	3.5672216
2.6029457562903064	12.412859	3.5231888
2.620477056387469	12.07717	3.4752223
2.6380084178298326	11.879521	3.4466681
2.655539841028383	11.750653	3.4279225
2.673071326394119	11.764527	3.4299457
2.6906028743380523	11.627152	3.409861
2.708134485271211	11.372151	3.372262
2.7256661596046325	10.9249525	3.3052917
2.743197897749369	10.722244	3.274484
2.760729700116486	10.668473	3.2662628
2.778261567117063	10.623793	3.259416
2.795793499162193	10.429037	3.229402
2.8133254966629817	10.149401	3.1858125
2.830857560030551	9.955555	3.1552424
2.8483896896760337	9.878139	3.1429505
2.865921886010578	9.5787525	3.094956
2.883454149445347	9.369877	3.0610254
2.9009864803915177	9.267586	3.044271
2.91851887926028	9.334527	3.0552459
2.9360513464628384	9.409559	3.0675006
2.953583882410413	9.3540945	3.0584464
2.9711164875142373	9.143148	3.023764
2.9886491621855606	8.984729	2.9974537
3.0061819068356455	8.835049	2.9723809
3.023714721875769	8.711712	2.951561
3.041247607717225	8.563203	2.926295
3.0587805647713213	8.396811	2.897725
3.0763135934493806	8.391962	2.8968883
3.0938466941627407	8.411032	2.900178
3.1113798673227544	8.282522	2.877937
3.1289131133407904	8.189488	2.8617282
3.1464464326282315	7.9094353	2.8123717
3.1639798255964786	7.7627435	2.78617
3.1815132926569443	7.5988026	2.7565925
3.1990468342210603	7.518867	2.7420552
3.216580450700272	7.463596	2.7319582
3.2341141425060416	7.5734506	2.7519903
3.251647910049847	7.5580482	2.7491906
3.2691817537431813	7.4111977	2.7223516
3.286715673997555	7.243001	2.6912825
3.3042496712244938	7.032364	2.6518605
3.32178374583554	6.9684343	2.6397793
3.339317898242251	6.931329	2.6327417
3.3568521288562034	6.8528986	2.617804
3.3743864380889876	6.841251	2.6155784
3.3919208263522127	6.8720503	2.6214595
3.4094552940575023	6.9496636	2.6362214
3.4269898416164972	6.918529	2.6303096
3.444524469440858	6.8829975	2.6235468
3.4620591779422587	6.78586	2.6049683
3.479593967532391	6.598646	2.568783
3.4971288386229658	6.4517884	2.5400372
3.5146637916257086	6.401375	2.530094
3.5321988269523628	6.411923	2.5321774
3.5497339450146903	6.4778423	2.5451605
3.5672691462244708	6.426553	2.5350647
3.5848044309934988	6.3747215	2.524821
3.60233979973359	6.2594433	2.501888
3.619875252856575	6.27444	2.5048833
3.6374107907743034	6.2633405	2.5026667
3.6549464138986427	6.376037	2.5250816
3.6724821226414788	6.266839	2.5033655
3.690017917414714	6.238007	2.4976003
3.7075537986302702	6.204424	2.490868
3.7250897667000857	6.245724	2.4991448
3.7426258220361235	6.4421577	2.5381405
3.7601619650503553	6.8035774	2.6083667
3.777698196154779	7.476885	2.7343893
3.7952345157614067	8.614326	2.935017
3.8127709242822716	9.353047	3.0582752
3.830307422129425	11.383304	3.3739152
3.847844009714936	30.138542	5.489858
3.8653806874508954	97.66577	9.8826
3.882917455749409	96.90713	9.844142
3.900454315022606	96.6641	9.83179
3.917991265682631	41.27839	6.424826
3.9355283081416506	10.916737	3.3040485
3.9530654428118495	8.79083	2.9649334
3.970602670105433	7.5298023	2.7440486
3.9881399904346244	6.682057	2.5849674
4.005677404211669	6.5513277	2.5595562
4.023214911848827	6.48182	2.5459418
4.0407525137583855	6.500375	2.5495832
4.058290210352644	6.51516	2.5524812
4.075828002043927	6.4741545	2.544436
4.0933658892445814	6.362568	2.522413
4.110903872366966	6.3367906	2.5172982
4.128441951823468	6.3018856	2.5103557
4.145980128026488	6.4132895	2.5324473
4.163518401388452	6.3885937	2.5275667
4.181056772321807	6.375652	2.5250053
4.1985952412390155	6.2887883	2.5077457
4.216133808552567	6.2565494	2.5013096
4.233672474674966	6.330621	2.5160725
4.251211240018741	6.54256	2.557843
4.268750104996445	6.738931	2.5959451
4.286289070020643	7.589508	2.7549062
4.303828135503928	9.286474	3.0473716
4.3213673018589125	29.591677	5.439823
4.3389065694982305	90.780914	9.527902
4.356445938834537	166.04861	12.885985
4.3739854102805085	172.11647	13.119317
4.391524984248844	173.11351	13.157261
4.409064661152262	137.31592	11.718187
4.426604441403504	97.35009	9.866615
4.444144325415337	76.136284	8.725611
4.461684313600543	21.993439	4.6897163
4.47922440637193	22.412361	4.7341695
4.496764604142329	20.533197	4.5313573
4.5143049073245916	18.891512	4.3464365
4.531845316331589	16.804468	4.099325
4.5493858315762195	14.079381	3.7522502
4.566926453471405	11.616724	3.4083316
4.584467182430081	9.5445175	3.0894203
4.602008018865218	8.361872	2.89169
4.619548963189798	7.613118	2.759188
4.637090015816834	7.0164523	2.6488588
4.654631177159353	6.706591	2.5897088
4.672172447630417	6.4292054	2.5355878
4.689713827643102	6.216562	2.4933033
4.7072553176105085	6.000792	2.4496515
4.724796917945764	5.8856153	2.4260287
4.742338629062015	5.924357	2.4340003
4.759880451372434	5.8980055	2.428581
4.777422385290215	5.90047	2.4290884
4.794964431228581	5.8852825	2.42596
4.812506589600768	5.8383975	2.4162776
4.830048860820047	5.8846116	2.4258218
4.847591245299709	5.885426	2.4259896
4.8651337434530655	5.8583875	2.4204106
4.882676355693457	5.7147903	2.3905628
4.900219082434242	5.5277514	2.3511171
4.917761924088813	5.544209	2.3546145
4.935304881070575	5.6127944	2.3691337
4.952847953792969	5.7737374	2.4028602
4.970391142669449	5.7481465	2.3975294
4.9879344481135055	5.681579	2.3836064
5.005477870538642	5.596403	2.3656719
5.023021410358394	5.615915	2.3697922
5.040565067986324	5.6438966	2.3756886
5.05810884383601	5.495614	2.3442726
5.075652738321066	5.5013576	2.3454974
5.09319675185512	5.500411	2.3452954
5.110740884851836	5.53962	2.3536396
5.128285137724894	5.521732	2.3498366
5.145829510888007	5.4454317	2.333545
5.163374004754908	5.3951187	2.3227396
5.1809186197393595	5.427011	2.3295946
5.198463356255145	5.4215064	2.3284128
5.216008214716077	5.462738	2.33725
5.233553195535998	5.3698616	2.3172963
5.251098299128764	5.3544135	2.3139606
5.268643525908272	5.3863864	2.320859
5.286188876288432	5.4152436	2.3270676
5.3037343506831895	5.391793	2.3220234
5.32127994950651	5.358737	2.3148947
5.3388256731723915	5.3056355	2.3033965
5.356371522094851	5.327044	2.308039
5.373917496687938	5.3157687	2.3055952
5.391463597365729	5.3567524	2.314466
5.40900982454232	5.3209	2.3067076
5.426556178631843	5.3006215	2.3023078
5.444102660048449	5.1591988	2.2713869
5.4616492692063225	5.151428	2.2696757
5.479196006519669	5.191617	2.278512
5.496742872402727	5.274061	2.2965324
5.514289867269756	5.2833657	2.2985573
5.531836991535049	5.1820927	2.276421
5.549384245612924	5.205418	2.2815385
5.566931629917724	5.2380605	2.288681
5.584479144863822	5.2258787	2.2860181
5.6020267908656205	5.2112656	2.2828197
5.619574568337545	5.1390715	2.266952
5.637122477694054	5.184229	2.2768903
5.654670519349629	5.1914787	2.2784817
5.672218693718784	5.2414637	2.2894244
5.689767001216059	5.2667584	2.294942
5.707315442256021	5.285788	2.2990842
5.724864017253266	5.2598877	2.2934444
5.7424127266224225	5.23172	2.2872953
5.75996157077814	5.1872635	2.2775564
5.777510550135105	5.2318835	2.287331
5.795059665108022	5.2847686	2.2988625
5.812608916111639	5.33848	2.3105152
5.830158303560715	5.4538546	2.3353488
5.847707827870055	5.414944	2.3270032
5.86525748945448	5.521044	2.3496902
5.8828072887288485	5.592679	2.3648846
5.900357226108044	5.6611247	2.3793118
5.917907302006979	5.642379	2.3753693
5.9354575168406	6.1336765	2.476626
5.9530078710238765	6.7146106	2.5912566
5.970558364971812	7.2500763	2.6925967
5.988108999099438	7.5856524	2.7542064
6.005659773821818	8.232067	2.8691578
6.023210689554039	7.9956627	2.8276603
6.040761746711227	8.437069	2.9046633
6.058312945708531	7.8474865	2.8013365
6.075864286961132	7.3944435	2.7192726
6.093415770884244	6.7593746	2.5998797
6.1109673978931065	6.17541	2.485037
6.128519168402993	5.610452	2.3686392
6.146071082829204	5.5594497	2.3578486
6.163623141587075	5.391676	2.3219984
6.181175345091969	5.3388424	2.3105936
6.198727693759281	5.227855	2.2864504
6.216280188004435	5.1723943	2.2742898
6.233832828242885	5.168605	2.2734566
6.251385614890126	5.176388	2.2751677
6.268938548361669	5.157238	2.2709553
6.286491629073067	5.075908	2.2529776
6.304044857439898	5.04817	2.2468133
6.321598233877777	5.027464	2.2422006
6.339151758802344	5.0764494	2.2530978
6.356705432629277	5.1289287	2.2647138
6.37425925577428	5.117176	2.2621176
6.391813228653095	5.081173	2.2541456
6.409367351681486	5.0915794	2.2564528
6.426921625275259	5.141538	2.267496
6.44447604985025	5.1564317	2.2707777
6.46203062582232	5.1557345	2.2706242
6.47958535360737	5.0772047	2.2532654
6.497140233621328	5.009665	2.238228
6.514695266280161	4.950195	2.2249033
6.532250451999859	4.9851007	2.232734
6.549805791196454	5.0294304	2.242639
6.567361284286002	5.0781245	2.2534695
6.584916931684597	5.1237946	2.26358
6.602472733808367	5.1287513	2.2646747
6.6200286910734665	5.1430383	2.2678268
6.637584803896092	5.1017847	2.258713
6.655141072692462	5.0355353	2.244
6.672697497878842	5.009665	2.238228
6.690254079871514	4.9799857	2.2315881
6.707810819086808	4.9424405	2.22316
6.725367715941078	4.958238	2.22671
6.742924770850719	5.0260105	2.2418766
6.760481984232151	5.165836	2.2728474
6.778039356501836	5.2258167	2.2860045
6.795596888076266	5.171697	2.2741365
6.813154579371963	5.098892	2.2580726
6.830712430805492	5.065721	2.2507157
6.84827044279344	5.052288	2.2477295
6.865828615752445	5.0561166	2.248581
6.883386950099159	5.043894	2.2458615
6.900945446250287	5.0227175	2.241142
6.918504104622553	5.045503	2.2462196
6.936062925632727	5.1701655	2.2738
6.953621909697607	5.2555013	2.292488
6.971181057234028	5.3032117	2.3028703
6.988740368658859	5.251777	2.2916756
7.006299844389007	5.2879877	2.2995625
7.023859484841407	5.326482	2.307917
7.041419290433036	5.3819637	2.319906
7.058979261580902	5.4169655	2.3274376
7.0765393987020495	5.6440015	2.3757107
7.094099702213559	6.1096478	2.47177
7.111660172532549	6.499445	2.5494008
7.129220810076164	6.841925	2.6157074
7.146781615261595	7.4604273	2.7313783
7.16434258850606	7.6927266	2.7735765
7.181903730226821	8.135456	2.852272
7.1994650408411704	8.179989	2.860068
7.217026520766437	8.271941	2.8760982
7.234588170419983	8.527417	2.9201741
7.252149990219215	8.541677	2.9226148
7.269711980581568	8.486755	2.9132037
7.2872741419245175	8.288609	2.8789945
7.304836474665574	7.807299	2.7941544
7.322398979222286	7.5019817	2.7389746
7.339961656012233	7.2388134	2.6905043
7.357524505453039	6.987815	2.6434476
7.375087527962357	6.7096367	2.5902967
7.392650723957886	6.4174023	2.5332592
7.410214093857353	6.0510907	2.4598966
7.427777638078528	5.8192253	2.412307
7.445341357039213	5.692069	2.3858058
7.4629052511572525	5.62001	2.370656
7.480469320850524	5.563436	2.3586936
7.498033566536948	5.4488454	2.3342762
7.5155979886344735	5.392089	2.3220873
7.5331625875610975	5.2974606	2.3016212
7.550727363734844	5.2600503	2.29348
7.568292317573788	5.2166777	2.2840047
7.585857449496025	5.2406826	2.2892537
7.603422759919705	5.308489	2.3040159
7.620988249263007	5.3149242	2.305412
7.638553917944147	5.2927337	2.300594
7.656119766381391	5.2043037	2.2812943
7.673685794993023	5.191769	2.2785454
7.691252004197388	5.2104273	2.282636
7.70881839441285	5.223445	2.2854857
7.726384966057826	5.2997866	2.3021266
7.743951719550762	5.2643437	2.2944157
7.761518655310149	5.2807827	2.2979953
7.779085773754511	5.240682	2.2892537
7.796653075302419	5.273343	2.296376
7.814220560372475	5.375858	2.3185897
7.831788229383323	5.4027214	2.3243754
7.8493560827536495	5.4159055	2.3272097
7.866924120902174	5.3009295	2.3023748
7.884492344247663	5.2656097	2.2946916
7.9020607532089135	5.320772	2.30668
7.919629348204771	5.362852	2.3157833
7.937198129654115	5.427335	2.329664
7.954767097975865	5.43756	2.3318577
7.972336253588986	5.4745717	2.3397803
7.989905596912472	5.52784	2.351136
8.007475128365371	5.5365863	2.3529952
8.025044848366756	5.5230365	2.350114
8.042614757335754	5.6200204	2.3706582
8.060184855691523	5.7682233	2.4017127
8.07775514385327	5.9247074	2.4340723
8.095325622240228	5.9488926	2.4390352
8.112896291271687	5.9528327	2.4398427
8.130467151366968	5.9968824	2.4488533
8.148038202945436	6.003517	2.4502075
8.165609446426497	6.0035925	2.450223
8.183180882229594	5.971784	2.4437234
8.200752510774217	5.954166	2.440116
8.218324332479893	5.987447	2.4469259
8.235896347766193	6.029389	2.4554813
8.253468557052724	6.060316	2.461771
8.27104096075914	6.0935693	2.4685156
8.288613559305137	6.1021967	2.4702625
8.306186353110448	6.165376	2.4830174
8.32375934259485	6.2493606	2.4998722
8.341332528178162	6.290308	2.5080485
8.358905910280246	6.3534713	2.5206094
8.376479489321003	6.3753586	2.5249472
8.394053265720377	6.419848	2.533742
8.411627239898356	6.387951	2.5274396
8.42920141227497	6.292752	2.5085359
8.44677578327029	6.251932	2.5003865
8.464350353304427	6.1755686	2.485069
8.48192512279754	6.1370106	2.477299
8.499500092169827	6.120612	2.473987
8.51707526184153	6.1619534	2.4823282
8.534650632232934	6.2274103	2.495478
8.552226203764365	6.2744584	2.5048869
8.569801976856192	6.2715755	2.5043113
8.587377951928834	6.269285	2.503854
8.60495412940274	6.2650423	2.5030067
8.622530509698416	6.356427	2.5211957
8.6401070932364	6.536563	2.5566702
8.657683880437283	6.700971	2.5886233
8.675260871721695	6.9085603	2.628414
8.692838067510303	7.0721145	2.6593447
8.710415468223834	7.1807084	2.6796844
8.727993074283043	7.2671185	2.6957593
8.745570886108737	7.2179794	2.6866298
8.763148904121765	7.2285905	2.6886039
8.78072712874302	7.2265983	2.6882334
8.798305560393441	7.539546	2.7458234
8.815884199494006	7.695324	2.7740448
8.833463046465745	7.953157	2.8201342
8.851042101729728	8.0670595	2.840257
8.86862136570707	8.404277	2.899013
8.886200838818924	8.539018	2.9221597
8.903780521486505	8.526769	2.920063
8.921360414131055	8.593215	2.9314187
8.938940517173874	8.709639	2.9512098
8.956520831036297	8.801463	2.966726
8.97410135613971	9.119741	3.019891
8.99168209290554	9.344281	3.0568416
9.009263041755265	9.751396	3.1227226
9.026844203110405	9.926467	3.1506295
9.044425577392525	10.024519	3.166152
9.062007165023239	10.145461	3.185194
9.079588966424197	10.381096	3.2219708
9.097170982017108	10.515275	3.2427266
9.11475321222372	11.431307	3.3810215
9.132335657465825	12.328944	3.5112596
9.149918318165264	12.4545145	3.5290954
9.167501194743924	12.924361	3.5950468
9.18508428762374	12.536806	3.5407352
9.202667597226693	12.444649	3.5276973
9.220251123974803	12.158045	3.4868388
9.237834868290143	11.919423	3.4524517
9.255418830594836	11.808534	3.4363546
9.273003011311046	11.3195505	3.364454
9.290587410860985	11.05325	3.324643
9.308172029666911	10.444522	3.2317986
9.32575686815113	10.186828	3.191681
9.343341926735997	8.924988	2.9874718
9.360927205843916	8.625946	2.936996
9.378512705897327	8.388098	2.8962214
9.396098427318728	8.240195	2.870574
9.413684370530664	8.24251	2.8709772
9.431270535955722	8.101714	2.846351
9.448856924016539	8.019054	2.8317935
9.466443535135806	7.870985	2.8055277
9.484030369736251	7.8838067	2.8078117
9.501617428240658	7.871048	2.805539
9.519204711071852	7.8479643	2.8014219
9.536792218652714	7.865882	2.804618
9.55437995140617	7.9573784	2.8208826
9.571967909755191	7.9646955	2.8221793
9.589556094122802	7.9902387	2.826701
9.60714450493207	7.896747	2.810115
9.624733142606116	7.8916354	2.8092055
9.642322007568108	7.891824	2.809239
9.659911100241267	7.957561	2.820915
9.677500421048851	8.088478	2.844025
9.695089970414175	8.187289	2.8613439
9.712679748760609	8.231481	2.8690557
9.730269756511557	8.295169	2.8801334
9.747859994090492	8.293667	2.8798728
9.765450461920915	8.318761	2.8842263
9.78304116042639	8.325866	2.8854575
9.800632090030527	8.348136	2.8893142
9.81822325115699	8.370688	2.8932142
9.835814644229481	8.416801	2.9011724
9.853406269671762	8.45954	2.9085288
9.870998127907646	8.455914	2.9079053
9.888590219360985	8.396619	2.897692
9.906182544455698	8.373397	2.8936822
9.923775103615734	8.427569	2.9030275
9.941367897265108	8.479721	2.9119961
9.958960925827878	8.477286	2.911578
9.97655418972816	8.481508	2.912303
9.994147689390106	8.429711	2.9033966
10.011741425237934	8.419043	2.9015586
10.029335397695904	8.45668	2.9080372
10.04692960718833	8.404619	2.8990722
10.06452405413958	8.389076	2.8963902
10.082118738974064	8.409099	2.8998446
10.099713662116246	8.432969	2.9039576
10.117308823990651	8.451884	2.9072125
10.134904225021844	8.3935	2.8971539
10.152499865634445	8.31207	2.883066
10.170095746253125	8.250259	2.8723264
10.18769186730261	8.301722	2.881271
10.205288229207675	8.268106	2.8754315
10.222884832393145	8.264424	2.8747911
10.2404816772839	8.250689	2.8724012
10.258078764304868	8.246597	2.8716888
10.275676093881035	8.194688	2.8626366
10.293273666437438	8.161762	2.8568797
10.310871482399158	8.199903	2.863547
10.32846954219134	8.315564	2.883672
10.346067846239173	8.290668	2.8793519
10.363666394967908	8.262663	2.8744848
10.38126518880283	8.235807	2.8698096
10.398864228169298	8.247204	2.8717945
10.416463513492713	8.233047	2.8693285
10.434063045198531	8.216372	2.8664215
10.451662823712262	8.251377	2.872521
10.469262849459467	8.297788	2.880588
10.486863122865758	8.2174225	2.8666048
10.504463644356806	8.189447	2.861721
10.522064414358338	8.054501	2.8380451
10.539665433296118	8.060056	2.8390238
10.557266701595987	7.980099	2.8249068
10.574868219683818	7.921299	2.8144803
10.592469987985552	7.829313	2.798091
10.610072006927185	7.672459	2.7699203
10.627674276934751	7.5723376	2.7517881
10.64527679843435	7.441736	2.7279546
10.662879571852143	7.3398724	2.70922
10.680482597614331	7.2232046	2.687602
10.698085876147173	7.2181387	2.6866593
10.715689407876988	7.1354165	2.67122
10.733293193230146	7.0849633	2.6617594
10.750897232633072	6.9823303	2.64241
10.76850152651225	6.8848433	2.6238985
10.786106075294207	6.783787	2.6045704
10.803710879405534	6.6397257	2.5767665
10.821315939272877	6.517552	2.5529497
10.83892125532294	6.4174585	2.5332704
10.856526827982472	6.381567	2.5261765
10.874132657678285	6.378865	2.5256414
10.891738744837243	6.321478	2.514255
10.909345089886271	6.1954885	2.4890738
10.926951693252343	6.1854396	2.4870543
10.944558555362494	6.1763577	2.4852278
10.96216567664381	6.105867	2.4710052
10.979773057523436	6.018108	2.4531832
10.997380698428573	5.8939743	2.4277508
11.014988599786477	5.822525	2.4129908
11.032596762024461	5.755698	2.3991036
11.050205185569892	5.671392	2.3814685
11.067813870850198	5.647115	2.376366
11.085422818292859	5.624135	2.371526
11.10303202832541	5.602564	2.3669736
11.120641501375454	5.5407724	2.3538845
11.138251237870636	5.420959	2.3282952
11.155861238238671	5.3840437	2.3203542
11.173471502907317	5.3057594	2.3034234
11.191082032304402	5.2086525	2.2822473
11.208692826857805	5.120299	2.2628078
11.226303886995465	5.0847063	2.2549293
11.243915213145371	5.0493116	2.2470675
11.261526805735578	5.003934	2.2369475
11.279138665194196	5.0057993	2.2373643
11.296750791949393	4.946984	2.2241817
11.314363186429393	4.8305717	2.1978562
11.331975849062479	4.750391	2.1795392
11.34958878027699	4.709476	2.1701326
11.36720198050133	4.6859345	2.164702
11.384815450163948	4.595107	2.14362
11.402429189693366	4.547189	2.1324139
11.420043199518153	4.561357	2.1357334
11.437657480066942	63.526123	7.970328
11.455272031768422	85.248924	9.233034
11.472886855051353	107.57844	10.372003
11.490501950344528	99.23669	9.961761
11.508117318076819	84.61083	9.198415
11.52573295867715	45.95653	6.7791247
11.543348872574514	4.251281	2.0618634
11.560965060197946	4.1831493	2.045275
11.57858152197655	4.145595	2.0360734
11.59619825833949	4.106069	2.0263438
11.613815269715985	4.0846367	2.0210483
11.631432556535323	38.581253	6.211381
11.649050119226837	83.09426	9.115605
11.666667958219929	93.49061	9.669054
11.68428607394406	107.76782	10.381128
11.701904466828756	82.60423	9.088687
11.719523137303586	65.48621	8.092356
11.737142085798196	4.7043123	2.1689427
11.754761312742286	3.7996652	1.949273
11.772380818565619	3.7423375	1.9345123
11.790000603698015	3.7157972	1.9276403
11.80762066856935	3.706773	1.9252982
11.825241013609572	3.673981	1.9167632
11.842861639248683	3.5842845	1.8932207
11.860482545916748	3.5168693	1.8753318
11.878103734043883	3.4640245	1.861189
11.895725204060282	3.439199	1.8545077
11.91334695639619	3.428714	1.8516787
11.930968991481919	3.4569068	1.8592759
11.948591309747824	3.440068	1.854742
11.966213911624347	3.4152448	1.8480381
11.98383679754198	3.3453052	1.8290175
12.001459967931268	3.3084643	1.8189185
12.019083423222835	3.3107803	1.8195549
12.036707163847352	3.301946	1.8171257
12.05433119023556	3.3273578	1.8241047
12.071955502818259	3.296568	1.8156453
12.089580102026313	3.2729619	1.8091329
12.107204988290643	3.2400208	1.8000058
12.12483016204224	3.225221	1.79589
12.142455623712152	3.2128685	1.7924476
12.16008137373149	3.196653	1.7879186
12.177707412531431	3.1729016	1.7812641
12.19533374054321	3.1489208	1.7745199
12.212960358198126	3.1237447	1.7674118
12.230587265927545	3.1066399	1.7625663
12.248214464162889	3.0887914	1.7574958
12.265841953335649	3.0953412	1.7593582
12.283469733877375	3.081281	1.7553577
12.301097806219685	3.0539367	1.7475517
12.31872617079425	2.986564	1.7281678
12.336354828032825	2.9906352	1.7293453
12.353983778367205	3.0066001	1.733955
12.371613022229262	3.0370243	1.7427061
12.389242560050928	3.028446	1.7402431
12.406872392264201	3.015372	1.7364826
12.424502519301143	3.0239277	1.7389444
12.442132941593874	2.9639523	1.7216133
12.459763659574586	2.9710493	1.7236732
12.477394673675532	2.9369962	1.7137667
12.49502598432903	2.9137518	1.7069715
12.51265759196746	2.8766212	1.6960605
12.530289497023267	2.8634884	1.6921846
12.547921699928967	2.8828504	1.6978959
12.565554201117134	2.8397014	1.6851413
12.583187001020404	2.8107083	1.6765167
12.600820100071486	2.7945597	1.6716937
12.618453498703152	2.818568	1.6788591
12.636087197348235	2.8555439	1.6898354
12.65372119643964	2.8763878	1.6959918
12.671355496410326	2.8513749	1.6886015
12.68899009769333	2.8271313	1.6814076
12.706625000721749	2.836905	1.6843114
12.724260205928752	2.9098372	1.7058245
12.741895713747551	2.964035	1.7216374
12.759531524611454	3.048507	1.7459974
12.777167638953818	3.0712323	1.7524931
12.794804057208072	3.0711913	1.7524815
12.812440779807702	3.1254485	1.7678938
12.830077807186271	3.311553	1.8197672
12.847715139777405	3.3361843	1.8265225
12.865352778014795	3.5149508	1.8748202
12.882990722332197	3.5886323	1.8943685
12.90062897316344	3.6754413	1.9171441
12.918267530942412	3.7586782	1.9387311
12.935906396103071	3.6459255	1.9094306
12.953545569079449	3.8002148	1.9494139
12.971185050305628	3.5894668	1.8945888
12.988824840215775	3.603863	1.8983843
13.006464939244115	3.6064985	1.8990784
13.024105347824943	3.4949834	1.8694875
13.041746066392617	3.593823	1.8957381
13.05938709538157	3.3972197	1.8431548
13.077028435226296	3.3906686	1.8413768
13.094670086361363	3.266115	1.8072397
13.112312049221401	3.170699	1.7806456
13.129954324241112	3.0804603	1.755124
13.147596911855258	2.8840225	1.698241
13.165239812498685	2.8610706	1.6914699
13.182883026606293	2.8241632	1.6805247
13.200526554613058	2.8012893	1.6737052
13.218170396954017	2.7525413	1.6590785
13.235814554064284	2.760813	1.6615695
13.253459026379034	2.7544901	1.6596657
13.271103814333523	2.7635393	1.6623896
13.288748918363058	2.7484179	1.6578352
13.306394338903031	2.7323298	1.652976
13.32404007638889	2.7177033	1.6485459
13.341686131256164	2.7168999	1.6483021
13.359332503940449	2.7206168	1.6494292
13.376979194877402	2.72024	1.649315
13.394626204502751	2.748309	1.6578025
13.412273533252307	2.729044	1.6519818
13.429921181561937	2.6991353	1.6429045
13.447569149867581	2.6820807	1.6377059
13.465217438605247	2.7059278	1.6449704
13.482866048211022	2.7632756	1.6623104
13.500514979121052	2.7961388	1.6721659
13.518164231771568	2.7383494	1.6547959
13.535813806598844	2.70268	1.643983
13.553463704039254	2.6926491	1.6409293
13.571113924529229	2.71352	1.6472765
13.588764468505275	2.7299964	1.6522701
13.606415336403956	2.75362	1.6594034
13.624066528661917	2.7809582	1.6676205
13.641718045715882	2.8136299	1.6773878
13.659369888002635	2.8567512	1.6901927
13.67702205595903	2.8962355	1.701833
13.694674550021993	2.96647	1.7223443
13.712327370628532	3.0350616	1.7421428
13.729980518215713	3.1115105	1.7639474
13.747633993220681	3.1575599	1.7769524
13.765287796080647	3.2303205	1.7973093
13.7829419272329	3.2817435	1.8115584
13.800596387114801	3.2935708	1.8148198
13.818251176163775	3.3355818	1.8263575
13.835906294817324	3.4346545	1.8532821
13.853561743513023	3.5210268	1.8764399
13.871217522688525	3.5439615	1.8825413
13.888873632781538	3.5289297	1.8785446
13.906530074229858	3.518895	1.8758718
13.92418684747135	3.5275238	1.8781704
13.941843952943948	3.5602825	1.8868711
13.959501391085665	3.530974	1.8790886
13.977159162334578	3.4662879	1.861797
13.994817267128846	3.387877	1.8406186
14.012475705906693	3.3284159	1.8243947
14.030134479106424	3.2850804	1.8124791
14.047793587166414	3.2186692	1.794065
14.065453030525108	3.1236053	1.7673724
14.083112809621026	3.0338523	1.7417958
14.100772924892766	2.9775872	1.7255687
14.118433376778997	2.9545147	1.7188702
14.136094165718458	2.889148	1.6997494
14.153755292149969	2.8091373	1.6760482
14.171416756512416	2.751656	1.6588117
14.189078559244768	2.7129087	1.647091
14.20674070078606	2.6363676	1.6236895
14.224403181575408	2.574491	1.6045221
14.242066002051999	2.5513473	1.5972937
14.259729162655093	2.5098026	1.5842357
14.277392663824022	2.4682083	1.5710533
14.295056505998208	2.4495165	1.5650932
14.312720689617128	2.4612198	1.5688275
14.330385215120348	2.4431038	1.5630431
14.348050082947497	2.4148648	1.5539836
14.3657152935383	2.4044545	1.5506303
14.383380847332528	2.4372973	1.5611846
14.401046744770051	2.4463656	1.5640862
14.418712986290798	2.4552279	1.5669167
14.436379572334793	2.4373732	1.5612088
14.454046503342123	2.4131832	1.5534424
14.471713779752946	2.4004116	1.5493262
14.489381402007504	2.4134915	1.5535415
14.507049370546113	2.4327803	1.5597372
14.524717685809168	2.4387674	1.5616554
14.542386348237134	2.4573112	1.5675813
14.560055358270553	2.4239187	1.556894
14.577724716350051	2.4609137	1.56873
14.595394422916325	2.4480739	1.5646322
14.61306447841015	2.490585	1.5781587
14.63073488327237	2.5081174	1.5837038
14.648405637943917	2.5406036	1.5939271
14.6660767428658	2.5545225	1.5982873
14.683748198479094	2.593115	1.6103152
14.701420005224954	2.6495647	1.6277484
14.719092163544628	2.7066455	1.6451886
14.73676467387942	2.7247763	1.6506896
14.754437536670727	2.745406	1.6569266
14.772110752360014	2.772356	1.6650393
14.78978432138882	2.787476	1.6695737
14.807458244198777	2.7959023	1.6720952
14.82513252123159	2.715581	1.647902
14.842807152929028	2.7064166	1.6451191
14.860482139732962	2.6680665	1.6334217
14.87815748208531	2.6679926	1.6333991
14.8958331804281	2.6808825	1.6373401
14.91350923520342	2.6626768	1.6317711
14.931185646853438	2.6678753	1.6333631
14.948862415820408	2.6478884	1.6272334
14.966539542546656	2.6504238	1.6280122
14.98421702747459	2.6590197	1.63065
15.001894871046696	2.6816115	1.6375626
15.019573073705542	2.6805847	1.6372491
15.037251635893766	2.6395009	1.624654
15.054930558054092	2.6868305	1.6391554
15.072609840629323	2.7522078	1.6589779
15.090289484062351	2.9840229	1.7274325
15.107969488796124	3.293022	1.8146685
15.125649855273691	3.6982553	1.9230849
15.14333058393817	4.1576953	2.0390427
15.161011675232768	5.1039762	2.2591982
15.17869312960076	6.4496126	2.5396087
15.196374947485506	8.298636	2.8807354
15.214057129330447	11.438116	3.3820283
15.231739675579114	16.21169	4.0263743
15.249422586675102	21.138826	4.5976977
15.267105863062092	24.168467	4.9161434
15.284789505183847	24.310356	4.9305534
15.302473513484218	22.208235	4.7125616
15.320157888407127	18.611027	4.3140497
15.337842630396578	14.530788	3.811927
15.355527739896656	11.427047	3.3803916
15.37321321735153	8.953886	2.9923046
15.39089906320545	6.56816	2.5628421
15.408585277902748	4.945655	2.223883
15.42627186188783	3.8419254	1.960083
15.443958815605198	3.3343747	1.826027
15.461646139499424	3.0496008	1.7463106
15.479333834015168	2.8990245	1.7026522
15.497021899597165	2.8176167	1.6785758
15.514710336690234	2.7436316	1.6563911
15.53239914573928	2.6969838	1.6422496
15.550088327189297	2.632176	1.6223983
15.567777881485336	2.5705745	1.6033012
15.58546780907256	2.5674312	1.6023206
15.6031581103962	2.5308728	1.5908717
15.620848785901568	2.4989955	1.5808212
15.638539836034063	2.4688725	1.5712646
15.656231261239173	2.4493444	1.5650382
15.673923061962451	2.4424965	1.5628488
15.691615238649552	2.4760737	1.5735545
15.709307791746202	2.4919002	1.5785754
15.727000721698221	2.4797413	1.5747194
15.744694028951498	2.4336858	1.5600275
15.76238771395202	2.4174721	1.5548222
15.780081777145844	2.3597546	1.5361493
15.797776218979125	2.3544137	1.5344099
15.815471039898094	2.3662107	1.5382493
15.833166240349064	2.382989	1.5436933
15.850861820778437	2.398828	1.548815
15.868557781632699	2.4041634	1.5505365
15.886254123358412	2.3816876	1.5432718
15.903950846402232	2.3987343	1.5487847
15.921647951210897	2.3751798	1.5411618
15.939345438231225	2.3913364	1.5463947
15.957043307910133	2.3902807	1.5460533
15.974741560694602	2.407441	1.5515931
15.992440197031714	2.438402	1.5615383
16.01013921736862	2.4494486	1.5650715
16.02783862215259	2.4304802	1.5589998
16.045538411830933	2.4029973	1.5501604
16.06323858685107	2.4157238	1.5542599
16.080939147660512	2.4097166	1.5523262
16.09864009470684	2.4379528	1.5613945
16.11634142843774	2.3887606	1.5455616
16.134043149300954	2.3865013	1.5448306
16.15174525774433	2.3763292	1.5415347
16.169447754215817	2.405839	1.5510768
16.18715063916342	2.4165108	1.5545131
16.204853913035244	2.4945235	1.579406
16.222557576279478	2.5347018	1.5920746
16.240261629344403	22.5272	4.746283
16.257966072678386	43.001293	6.557537
16.275670906729868	38.063744	6.169582
16.293376131947387	2.475131	1.573255
16.31108174877957	2.4978373	1.5804548
16.328787757675133	2.559341	1.599794
16.34649415908287	2.605565	1.6141763
16.364200953451657	2.664506	1.6323315
16.38190814123048	2.6962755	1.6420339
16.39961572286839	2.7232335	1.6502223
16.41732369881455	2.7586594	1.6609212
16.43503206951817	2.7680979	1.6637602
16.45274083542859	2.7953088	1.6719177
16.47044999699522	2.7999446	1.6733035
16.488159554667558	2.8674867	1.6933655
16.505869508895184	2.9336667	1.712795
16.523579860127786	2.9664888	1.7223498
16.541290608815117	2.9818804	1.7268122
16.559001755407035	3.0247998	1.7391951
16.57671330035348	3.0735497	1.7531543
16.59442524410448	3.17325	1.7813618
16.61213758711015	3.2661033	1.8072363
16.629850329820705	3.314529	1.8205848
16.647563472686436	3.3582096	1.8325418
16.665277016157724	3.3748147	1.8370669
16.682990960685053	3.4200804	1.8493459
16.70070530671898	3.4600492	1.8601208
16.718420054710155	3.5136447	1.8744719
16.736135205109335	3.520389	1.8762699
16.753850758367335	3.548292	1.8836911
16.771566714935087	3.635571	1.9067173
16.789283075263597	3.7408316	1.9341229
16.80699983980398	3.7971058	1.9486164
16.82471700900741	3.8698347	1.9671896
16.84243458332518	3.894445	1.9734348
16.860152563208665	3.9898329	1.9974566
16.87787094910932	4.105988	2.0263238
16.89558974147871	4.181127	2.0447805
16.913308940768466	4.2864885	2.0703838
16.931028547430333	4.309581	2.075953
16.94874856191613	4.3109484	2.0762823
16.966468984677785	4.36715	2.0897727
16.98418981616729	4.4605556	2.1120028
17.00191105683676	4.554471	2.1341207
17.019632707138374	4.6040373	2.1457021
17.03735476752442	4.637169	2.1534088
17.05507723844728	4.6102552	2.1471505
17.072800120359403	4.59415	2.1433969
17.090523413713353	4.5909204	2.1426432
17.108247118961785	4.6172585	2.1487808
17.125971236557437	4.645466	2.1553342
17.143695766953133	4.6687236	2.160723
17.161420710601806	4.6834464	2.164127
17.179146067956477	4.678313	2.1629407
17.19687183947025	4.6911545	2.1659074
17.21459802559634	4.6840234	2.1642604
17.232324626788028	4.636583	2.1532726
17.25005164349871	4.594638	2.1435106
17.267779076181863	4.625171	2.1506212
17.285506925291074	4.647061	2.1557043
17.30323519127999	4.632544	2.1523345
17.320963874602384	4.567942	2.1372745
17.33869297571211	4.604941	2.1459126
17.356422495063114	4.654025	2.157319
17.37415243310944	4.640785	2.1542482
17.391882790305218	4.554807	2.1341994
17.40961356710468	4.508664	2.1233616
17.42734476396215	4.5311007	2.1286383
17.445076381332044	4.5253334	2.127283
17.462808419668868	4.5929403	2.1431146
17.48054087942723	4.707932	2.169777
17.498273761061835	5.017827	2.2400508
17.51600706502747	5.5445566	2.3546882
17.533740791779024	6.3078866	2.5115507
17.551474941771485	7.781011	2.7894464
17.56920951545993	8.830903	2.9716835
17.586944513299528	10.957225	3.31017
17.60467993574556	12.53487	3.5404618
17.622415783253373	14.127774	3.7586932
17.64015205627843	15.41173	3.9257777
17.657888755276293	16.543728	4.067398
17.675625880702604	17.106411	4.1359897
17.69336343301311	16.898016	4.1107197
17.71110141266366	15.980006	3.9975
17.728839820110178	14.933183	3.8643477
17.746578655808705	14.077392	3.751985
17.764317920215372	12.746389	3.5702085
17.7820576137864	11.397909	3.3760788
17.79979773697811	9.461337	3.0759287
17.81753829024692	7.647429	2.7653985
17.835279274049356	6.0096703	2.451463
17.85302068884201	4.9899545	2.2338207
17.870762535081607	4.370758	2.0906358
17.888504813224934	3.9852834	1.9963175
17.90624752372891	3.7835371	1.9451317
17.923990667050536	3.6712322	1.916046
17.941734243646895	3.5860152	1.8936777
17.959478253975185	3.5569909	1.8859986
17.9772226984927	3.5066602	1.8726078
17.994967577656833	3.4773152	1.8647561
18.01271289192506	3.4408114	1.8549424
18.030458641754965	3.4044225	1.8451077
18.04820482760425	3.3502603	1.8303716
18.06595144993067	3.3217516	1.8225673
18.083698509192125	3.2910852	1.8141348
18.101446005846576	3.298795	1.8162585
18.119193940352105	3.311584	1.8197758
18.136942313166887	3.2997148	1.8165118
18.1546911247492	3.262598	1.8062663
18.1724403755574	3.2525084	1.8034712
18.19019006604997	3.2402608	1.8000724
18.207940196685467	3.2275274	1.796532
18.225690767922575	3.1844065	1.7844906
18.243441780220046	3.1587405	1.7772846
18.261193234036764	3.1236582	1.7673874
18.278945129831676	3.0989184	1.7603745
18.29669746806386	3.0809703	1.7552693
18.314450249192483	3.097941	1.7600969
18.3322034736768	3.0635505	1.7503
18.349957141976184	3.059822	1.7492347
18.3677112545501	3.0357137	1.74233
18.385465811858108	3.1001937	1.7607367
18.403220814359884	3.0976632	1.760018
18.420976262515172	3.12369	1.7673963
18.43873215678387	3.1502001	1.7748803
18.456488497625923	3.213163	1.7925297
18.474245285501407	3.3034027	1.8175266
18.492002520870486	3.3884928	1.840786
18.50976020419343	3.4106214	1.8467867
18.527518335930615	3.7174275	1.9280632
18.545276916542516	4.366322	2.0895746
18.563035946489688	4.5595326	2.1353061
18.580795426232832	4.9787154	2.2313035
18.598555356232698	4.828751	2.197442
18.616315736950185	5.147165	2.2687364
18.63407656884626	4.8013897	2.1912074
18.65183785238201	5.030723	2.2429273
18.669599588018617	4.8207855	2.1956286
18.68736177621737	4.777794	2.1858165
18.705124417439652	4.7156777	2.1715612
18.72288751214696	4.555715	2.134412
18.740651060800886	4.7251234	2.173735
18.758415063863115	4.4361105	2.1062076
18.77617952179546	4.5955243	2.1437173
18.793944435059814	4.2592893	2.0638046
18.811709804118184	4.275425	2.0677102
18.829475629432675	4.3043036	2.0746815
18.8472419114655	4.120985	2.030021
18.86500865067897	4.2316723	2.057103
18.88277584753551	3.9205527	1.9800385
18.90054350249763	3.9587867	1.98967
18.918311616027957	3.5627332	1.8875204
18.936080188589226	3.4141226	1.8477345
18.953849220644265	3.0728235	1.7529471
18.971618712656007	2.8737435	1.6952119
18.9893886650875	2.829247	1.6820365
19.007159078401887	8.031247	2.8339455
19.024929953062408	32.89623	5.735523
19.042701289532435	32.867085	5.732982
19.060473088275405	25.463478	5.046135
19.07824534975489	2.7661176	1.663165
19.096018074434568	2.7006311	1.6433597
19.113791262778197	2.640459	1.624949
19.13156491524966	2.614038	1.6167986
19.149339032312945	2.6135683	1.6166534
19.167113614432136	2.60961	1.6154288
19.184888662071433	2.561686	1.6005268
19.202664175695123	2.503966	1.5823926
19.220440155767623	2.4839287	1.5760485
19.238216602753447	2.5435984	1.5948663
19.2559935171172	2.5849066	1.6077645
19.27377089932361	2.5609481	1.6002963
19.291548749837514	2.5150383	1.5858872
19.309327069123835	2.5069118	1.583323
19.32710585764763	2.5081463	1.5837128
19.344885115874032	2.5112607	1.5846958
19.362664844268313	2.54368	1.5948918
19.380445043295822	2.5649598	1.6015491
19.39822571342203	2.5946412	1.6107891
19.41600685511252	2.5814342	1.6066842
19.43378846883297	2.5505643	1.5970486
19.451570555049173	2.5109653	1.5846026
19.469353114227037	2.4889033	1.5776259
19.48713614683254	2.4980285	1.5805153
19.50491965333182	2.5185785	1.587003
19.52270363419109	2.535494	1.5923235
19.540488089876686	2.5274308	1.5897895
19.55827302085503	2.4853299	1.5764929
19.576058427592674	2.476376	1.5736506
19.593844310556282	2.490944	1.5782725
19.611630670212598	2.488665	1.5775503
19.629417507028506	2.4921927	1.578668
19.64720482147098	2.478172	1.5742211
19.6649926140071	2.534883	1.5921316
19.682780885104084	2.54637	1.595735
19.70056963522921	2.5313768	1.5910301
19.718358864849908	2.5174778	1.5866562
19.7361485744337	2.5246441	1.5889128
19.753938764448215	2.5401874	1.5937965
19.771729435361202	2.5390463	1.5934385
19.789520587640506	2.5586786	1.599587
19.807312221754092	2.546977	1.5959251
19.825104338170043	2.5088677	1.5839406
19.842896937356517	2.5111709	1.5846674
19.860690019781824	2.4886696	1.5775518
19.87848358591436	2.4945397	1.5794111
19.896277636222635	2.5185246	1.5869861
19.914072171175278	2.5637388	1.6011679
19.931867191241015	2.547992	1.5962431
19.94966269688869	2.5137987	1.5854963
19.967458688587264	2.458083	1.5678275
19.985255166805807	2.4689467	1.5712882
20.00305213201348	2.470375	1.5717427
20.020849584679578	2.4949648	1.5795457
20.038647525273507	2.5130308	1.5852542
20.05644595426477	2.4867153	1.5769322
20.07424487212299	2.4910688	1.578312
20.092044279317903	2.4694567	1.5714505
20.109844176319353	2.4586446	1.5680066
20.127644563597304	2.4113512	1.5528526
20.145445441621817	2.4255474	1.5574169
20.16324681086307	2.490901	1.5782589
20.181048671791373	2.480681	1.5750178
20.198851024877122	2.4212868	1.5560485
20.216653870590836	2.3705773	1.539668
20.234457209403146	2.390781	1.546215
20.252261041784802	2.4012759	1.549605
20.270065368206662	2.3893616	1.545756
20.287870189139685	2.3886065	1.5455117
20.305675505054968	2.4399152	1.5620228
20.323481316423702	2.4818609	1.5753922
20.341287623717207	2.441567	1.5625514
20.359094427406884	2.3843582	1.5441368
20.376901727964288	2.3652627	1.5379411
20.39470952586107	2.3787642	1.5423243
20.41251782156899	2.3843415	1.5441313
20.430326615559935	2.4084387	1.5519146
20.448135908305886	2.408699	1.5519984
20.465945700278965	2.4002812	1.5492841
20.483755991951384	2.3795075	1.5425652
20.50156678379548	2.4012895	1.5496094
20.519378076283708	2.3903253	1.5460677
20.537189869888635	2.3866835	1.5448895
20.55500216508294	2.3862422	1.5447466
20.572814962339415	2.393138	1.546977
20.59062826213098	2.3727543	1.5403748
20.60844206493066	2.3837237	1.5439312
20.626256371211593	2.3894103	1.5457717
20.644071181447032	2.3656366	1.5380626
20.66188649611036	2.3358166	1.5283378
20.67970231567506	2.3034215	1.5177027
20.697518640614742	2.3234031	1.5242714
20.715335471403122	2.3369024	1.5286931
20.73315280851404	2.3368657	1.528681
20.750970652421447	2.3465304	1.5318389
20.768789003599412	2.336237	1.5284754
20.786607862522136	2.3283124	1.5258808
20.8044272296639	2.2998013	1.5165097
20.82224710549913	2.3033843	1.5176904
20.84006749050237	2.2827382	1.5108733
20.857888385148268	3.8396368	1.9594991
20.8757097899116	45.928707	6.777072
20.893531705267254	64.803894	8.050087
20.911354131690224	83.83761	9.156288
20.92917706965566	69.09368	8.312261
20.94700051963877	50.137173	7.080761
20.96482448211493	29.379839	5.420317
20.982648957559622	4.112866	2.0280201
21.00047394644843	2.2445757	1.4981909
21.01829944925707	2.2733328	1.5077575
21.036125466461375	2.3074393	1.5190258
21.053951998537297	2.2859113	1.5119231
21.071779045960906	2.2546253	1.501541
21.089606609208378	2.2589083	1.5029665
21.10743468875603	2.2201064	1.4900022
21.12526328508028	2.1726868	1.4740037
21.143092398657675	2.1818476	1.4771079
21.16092202996488	2.1900303	1.4798751
21.17875217947867	2.1729915	1.474107
21.19658284767596	2.1635406	1.4708979
21.21441403503377	2.1718686	1.473726
21.232245742029225	2.1860561	1.4785317
21.2500779691396	2.2108746	1.486901
21.26791071684227	2.2249053	1.4916116
21.28574398561475	2.2157743	1.4885477
21.30357777593465	2.204322	1.4846959
21.321412088279704	2.2207758	1.4902267
21.339246923127792	2.2334487	1.4944727
21.357082280956888	2.2012432	1.4836587
21.3749181622451	2.1824715	1.477319
21.392754567470647	2.1454227	1.4647262
21.41059149711187	2.1267085	1.4583238
21.42842895164726	2.1413703	1.4633422
21.446266931555378	2.2034986	1.4844186
21.464105437314945	2.2144578	1.4881054
21.481944469404798	2.1818304	1.477102
21.49978402830388	2.1290195	1.459116
21.51762411449127	2.0825977	1.4431208
21.53546472844617	2.0627863	1.4362403
21.553305870647876	2.0723534	1.4395671
21.571147541575865	2.0853786	1.444084
21.58898974170967	2.081321	1.4426785
21.60683247152899	2.0756106	1.440698
21.62467573151363	2.0958924	1.4477197
21.642519522143523	2.0932114	1.4467934
21.660363843898722	2.103602	1.45038
21.6782086972594	2.1062021	1.4512761
21.696054082705864	2.108461	1.452054
21.713900000718535	2.0784216	1.4416732
21.73174645177795	2.0899436	1.4456637
21.749593436364794	2.0825977	1.4431208
21.767440954959845	2.067968	1.4380431
21.785289008044032	2.043576	1.4295369
21.803137596098388	2.0278213	1.4240159
21.820986719604086	1.9967505	1.4130642
21.838836379042412	1.9541172	1.3978974
21.85668657489478	1.9486032	1.3959237
21.87453730764273	1.9845082	1.4087257
21.892388577767914	2.0271578	1.423783
21.91024038575213	2.0333917	1.4259704
21.928092732077285	2.023966	1.4226617
21.945945617225426	2.0014355	1.414721
21.963799041678694	2.0033476	1.4153967
21.981653005919398	31.329767	5.5973
21.999507510429943	78.160965	8.840869
22.01736255569286	73.10996	8.550436
22.035218142190818	4.21899	2.054018
22.05307427040661	2.0213768	1.4217514
22.07093094082315	2.028192	1.424146
22.088788153923474	2.0362313	1.4269657
22.106645910190746	2.0343711	1.4263139
22.12450421010827	2.0059836	1.4163275
22.142363054159464	2.0224688	1.4221354
22.16022244282787	2.0115995	1.4183087
22.178082376597164	2.0191648	1.4209732
22.195942855951145	2.0079975	1.4170383
22.213803881373742	2.022987	1.4223174
22.231665453349002	2.0032218	1.4153521
22.24952757236111	1.9836756	1.4084302
22.26739023889438	1.9832716	1.4082868
22.28525345343323	2.0096104	1.4176073
22.30311721646225	2.01455	1.4193485
22.320981528466113	2.0086083	1.4172539
22.33884638992964	2.0016377	1.4147924
22.356711801337788	1.9976524	1.4133834
22.37457776317561	1.994677	1.4123303
22.392444275928337	1.9909754	1.4110193
22.410311340081282	1.9652042	1.4018574
22.428178956119904	1.9291604	1.3889421
22.446047124529805	1.9484735	1.3958774
22.46391584579669	1.9767749	1.4059783
22.481785120406414	1.9884564	1.4101263
22.49965494884496	1.9630468	1.4010878
22.51752533159841	1.9404731	1.3930086
22.53539626915302	1.9410833	1.3932277
22.553267761995137	1.9882845	1.4100654
22.571139810611264	1.9782467	1.4065015
22.589012415488025	1.9602859	1.4001021
22.60688557711216	1.9335839	1.3905337
22.624759295970566	1.9226379	1.3865921
22.642633572550263	1.9288437	1.3888282
22.660508407338362	1.932126	1.3900094
22.67838380082217	1.9544685	1.398023
22.696259753489077	1.9513159	1.396895
22.714136265826614	1.9540967	1.3978901
22.73201333832246	1.9541448	1.3979073
22.74989097146439	1.9144748	1.3836455
22.76776916574035	1.8630031	1.3649187
22.785647921638393	1.8814256	1.3716507
22.803527239646712	1.9103698	1.3821613
22.82140712025363	1.8938771	1.3761821
22.839287563947593	1.9072535	1.3810335
22.85716857121719	1.9034075	1.3796403
22.875050142551135	1.8905646	1.3749781
22.892932278438277	1.8974348	1.3774741
22.910814979367604	1.9333608	1.3904535
22.928698245828222	1.9570966	1.3989627
22.946582078309387	1.950936	1.396759
22.96446647730047	1.9090873	1.3816973
22.98235144329098	1.9086882	1.3815528
23.000236976770562	1.8570062	1.3627201
23.018123078229	1.8479937	1.3594093
23.03600974815619	1.8128008	1.3464029
23.053896987042194	1.8375775	1.3555727
23.071784795377173	1.880192	1.3712009
23.08967317365145	1.9446985	1.3945245
23.10756212235546	1.9532098	1.3975728
23.125451641979787	1.9255581	1.3876448
23.143341733015134	1.9295697	1.3890896
23.161232395952357	1.954857	1.398162
23.179123631282426	1.9663295	1.4022588
23.197015439496468	1.9489533	1.3960491
23.214907821085717	1.9903713	1.4108052
23.23280077654157	2.0037398	1.4155352
23.250694306355538	2.0115614	1.4182953
23.268588411019277	1.9731728	1.4046967
23.28648309102458	2.002478	1.4150894
23.304378346863356	2.0148733	1.4194623
23.322274179027676	2.017319	1.4203235
23.340170588009723	1.9502523	1.3965143
23.358067574301852	1.8941171	1.3762692
23.37596513839651	1.9019198	1.3791012
23.39386328078629	1.9150496	1.3838532
23.411762001963947	1.9466453	1.3952223
23.429661302422353	1.9313134	1.389717
23.4475611826545	1.955798	1.3984985
23.46546164315356	1.9579324	1.3992614
23.48336268441279	1.9604402	1.4001572
23.501264306925638	1.9362481	1.3914913
23.51916651118564	1.9412934	1.393303
23.537069297686497	1.9254421	1.387603
23.554972666922037	1.9162422	1.384284
23.57287661938623	1.9157859	1.3841192
23.59078115557318	1.9102095	1.3821033
23.608686275977128	1.9105092	1.3822117
23.62659198109246	1.9057273	1.3804808
23.6444982714137	1.8913567	1.3752661
23.66240514743549	1.887961	1.374031
23.68031260965263	1.9036844	1.3797407
23.698220658560068	1.9378898	1.3920811
23.716129294652845	1.9436703	1.3941557
23.7340385184262	1.9331273	1.3903695
23.75194833037546	1.900446	1.3785666
23.769858730996123	1.864749	1.3655581
23.78776972078382	1.8830359	1.3722376
23.80568130023431	1.9286255	1.3887496
23.823593469843495	1.9180412	1.3849337
23.841506230107424	1.9210835	1.3860315
23.859419581522275	1.9459419	1.3949702
23.87733352458438	1.9458095	1.3949227
23.89524805979019	1.9149715	1.383825
23.913163187636318	1.922183	1.3864281
23.931078908619508	1.938217	1.3921987
23.948995223236633	1.9419198	1.3935279
23.966912131984735	1.9958372	1.4127411
23.98482963536096	2.0530412	1.4328438
24.002747733862616	2.0772512	1.4412673
24.020666427987155	2.1047463	1.4507744
24.038585718232156	2.146778	1.4651887
24.056505605095353	2.125673	1.4579688
24.074426089074617	2.0762684	1.4409262
24.092347170667946	2.038331	1.4277014
24.110268850373515	2.0937119	1.4469664
24.128191128689586	2.1096003	1.4524463
24.146114006114626	2.0873919	1.444781
24.164037483147187	2.1112053	1.4529988
24.181961560286005	2.1173475	1.4551108
24.199886238029926	2.1372905	1.4619474
24.21781151687797	2.1411455	1.4632653
24.235737397329274	2.1244378	1.4575452
24.253663879883135	2.0731008	1.4398266
24.271590965038975	2.072447	1.4395996
24.289518653296376	2.0710802	1.4391248
24.30744694515505	2.093992	1.4470632
24.32537584111486	2.0864267	1.4444468
24.34330534167581	2.063691	1.4365553
24.361235447338046	2.0310595	1.4251524
24.379166158601876	2.0357811	1.426808
24.39709747596772	2.0541675	1.4332367
24.41502939993615	2.0245662	1.4228725
24.432961931007917	2.0112836	1.4181973
24.450895069683856	2.0207918	1.4215455
24.468828816465	1.9767252	1.4059606
24.4867631718525	1.9433787	1.3940512
24.504698136347656	1.9343071	1.3907937
24.52263371045192	1.9201834	1.3857068
24.540569894666874	1.9334066	1.3904699
24.558506689494266	1.9477266	1.3956097
24.57644409543597	1.9746252	1.4052136
24.594382112994012	1.9589541	1.3996264
24.61232074267057	1.963395	1.401212
24.630259984967953	1.975938	1.4056807
24.64819984038863	1.9747872	1.4052712
24.66614030943522	1.9475172	1.3955348
24.684081392610462	1.9581715	1.3993468
24.702023090417274	1.9804646	1.4072897
24.7199654033587	2.004955	1.4159644
24.737908331937927	2.0208988	1.4215832
24.755851876658305	2.026601	1.4235874
24.773796038023324	2.0567048	1.4341216
24.79174081653661	2.1150343	1.4543158
24.809686212701962	2.1596084	1.4695606
24.827632227023294	2.1203613	1.456146
24.8455788600047	2.1078677	1.4518497
24.8635261121504	2.1146398	1.4541801
24.88147398396475	2.116881	1.4549505
24.899422475952303	2.0952857	1.4475101
24.917371588617698	2.1043108	1.4506242
24.935321322465768	2.18981	1.4798007
24.953271678001478	2.2986264	1.5161222
24.97122265572994	2.5051303	1.5827603
24.989174256156414	2.8023837	1.6740322
25.00712647978632	3.2698505	1.8082728
25.02507932712521	3.754926	1.9377631
25.043032798678798	4.222086	2.0547714
25.060986894952933	4.744308	2.1781433
25.078941616453637	5.425931	2.3293629
25.096896963687055	6.3882256	2.527494
25.114852937159508	7.599035	2.7566347
25.132809537377444	8.209322	2.8651915
25.150766764847468	8.267157	2.8752663
25.168724620076347	7.74123	2.7823067
25.186683103570985	6.7017503	2.588774
25.204642215838426	5.575632	2.3612776
25.222601957385894	4.2626452	2.0646174
25.24056232872074	3.3052478	1.818034
25.25852333035048	2.7139144	1.6473962
25.276484962782778	2.321396	1.5236129
25.294447226525435	2.129259	1.4591981
25.312410122086423	2.0375562	1.4274299
25.330373649973843	1.9528774	1.3974539
25.348337810695988	1.9225917	1.3865756
25.366302604761245	1.9238367	1.3870244
25.384268032678207	1.9347906	1.3909675
25.40223409495558	1.9816973	1.4077277
25.420200792102257	1.9967501	1.4130641
25.438168124627246	1.9619633	1.400701
25.45613609303974	1.9076105	1.3811628
25.474104697849057	1.8785431	1.3705995
25.492073939564698	1.8710303	1.3678561
25.510043818696285	1.8860368	1.3733305
25.528014335753614	1.8774914	1.3702158
25.54598549124664	1.8651496	1.3657048
25.56395728568544	1.9070547	1.3809615
25.58192971958028	1.975126	1.4053918
25.59990279344156	1.949866	1.396376
25.617876507779833	1.9158183	1.3841308
25.635850863105826	1.8830582	1.3722457
25.653825859930386	1.880209	1.3712071
25.671801498764548	1.8904084	1.3749212
25.68977778011949	1.904265	1.3799511
25.707754704506524	1.897167	1.3773768
25.725732272437153	1.8701469	1.3675331
25.743710484423012	1.9010957	1.3788023
25.761689340975888	1.9645661	1.4016298
25.77966884260774	1.9575868	1.3991379
25.797648989830662	1.9075989	1.3811585
25.815629783156922	1.8631164	1.3649602
25.83361122309895	1.8518866	1.3608404
25.85159331016929	1.8394232	1.3562534
25.869576044880695	1.8487126	1.3596737
25.887559427746034	1.832504	1.3537002
25.90554345927836	1.8316808	1.353396
25.92352813999086	1.8553195	1.3621011
25.94151347039689	1.8298929	1.3527353
25.959499451009965	1.7842728	1.3357668
25.97748608234374	1.805019	1.3435099
25.995473364912062	1.8674998	1.366565
26.013461299228904	1.9314473	1.3897651
26.03144988580839	1.9112582	1.3824826
26.04943912516483	1.8941209	1.3762707
26.067429017812675	1.8810155	1.3715012
26.085419564266537	1.9189509	1.385262
26.103410765041186	1.9394176	1.3926297
26.12140262065155	1.9111186	1.3824321
26.139395131612723	1.8290282	1.3524157
26.157388298439948	1.8361917	1.3550615
26.17538212164861	1.847166	1.3591049
26.193376601754295	1.8665478	1.3662167
26.211371739272714	1.907109	1.3809812
26.229367534719746	1.8869493	1.3736627
26.247363988611433	1.8309088	1.3531108
26.26536110146397	1.8270144	1.351671
26.283358873793727	1.9174907	1.3847349
26.301357306117204	1.8914654	1.3753055
26.319356398951104	1.8480389	1.3594259
26.33735615281224	1.8349268	1.3545947
26.35535656821762	1.8330883	1.3539159
26.373357645684404	1.8347431	1.3545269
26.39135938572991	1.8450499	1.3583261
26.409361788871614	1.8863574	1.3734473
26.427364855627165	1.8766971	1.369926
26.445368586514352	1.8441494	1.3579946
26.46337298205115	1.7978233	1.3408294
26.48137804275568	1.7884977	1.3373473
26.499383769146217	1.7884829	1.3373418
26.517390161741215	1.8223194	1.3499331
26.53539722105928	1.8072876	1.3443539
26.553404947619182	1.8209872	1.3494396
26.571413341939856	1.8410034	1.3568358
26.589422404540397	1.8615043	1.3643695
26.60743213594006	1.8764409	1.3698324
26.62544253665827	1.9063737	1.3807149
26.64345360721459	1.8919929	1.3754973
26.66146534812879	1.848687	1.3596643
26.679477759920758	1.8196461	1.3489426
26.69749084311057	1.8161792	1.347657
26.71550459821847	1.8109566	1.3457179
26.733519025764842	1.8074743	1.3444234
26.751534126270258	1.8332927	1.3539914
26.769549900255434	1.8423989	1.35735
26.787566348241267	1.7974408	1.3406867
26.80558347074881	1.8232001	1.3502593
26.823601268299267	1.8378694	1.3556805
26.841619741414036	1.8213757	1.3495835
26.85963889061465	1.8047874	1.3434237
26.877658716422832	1.8384942	1.3559108
26.89567921936045	1.8641471	1.3653377
26.913700399949544	1.8336726	1.3541317
26.93172225871233	1.8124961	1.3462898
26.949744796171174	1.8065321	1.3440729
26.967768012848605	1.8145584	1.3470554
26.98579190926733	1.8003861	1.3417847
27.003816485950225	1.7666758	1.3291636
27.021841743420318	1.8027242	1.3426557
27.039867682200814	1.8149405	1.3471973
27.057894302815072	1.8255678	1.3511357
27.07592160578664	1.8436528	1.3578118
27.0939495916392	1.7780992	1.3334539
27.111978260896635	1.7432241	1.3203121
27.13000761408296	1.7369193	1.3179224
27.148037651722397	1.8064444	1.3440403
27.166068374339304	1.8183749	1.3484713
27.184099782458215	1.7736734	1.3317933
27.20213187660384	1.7515564	1.3234638
27.22016465730105	1.8142136	1.3469275
27.23819812507487	1.8808426	1.3714381
27.256232280450533	1.8389806	1.3560902
27.274267123953383	1.8201293	1.3491217
27.292302656108987	1.8255571	1.3511318
27.31033887744306	1.8011718	1.3420774
27.32837578848146	1.7579588	1.3258804
27.34641338975026	1.7867267	1.336685
27.364451681775673	1.8492708	1.359879
27.382490665084074	1.8539784	1.3616087
27.400530340202046	1.8035883	1.3429774
27.41857070765629	1.7894784	1.3377138
27.436611767973726	1.7940917	1.3394371
27.454653521681404	1.7668947	1.3292459
27.472695969306564	1.7558708	1.3250928
27.490739111376627	1.7548461	1.3247061
27.508782948419153	1.7728196	1.3314728
27.526827480961902	1.8202605	1.3491703
27.54487270953279	1.8385856	1.3559445
27.562918634659898	1.8377217	1.355626
27.580965256871508	1.8569341	1.3626937
27.599012576696026	1.8792326	1.370851
27.617060594662068	1.9049097	1.3801847
27.63510931129842	1.866298	1.3661251
27.65315872713401	1.8448536	1.3582538
27.67120884269797	1.8964757	1.3771259
27.68925965851958	1.8757128	1.3695667
27.707311175128307	1.9009147	1.3787366
27.725363393053787	1.9273607	1.3882941
27.74341631282583	1.9123913	1.3828924
27.7614699349744	1.8799853	1.3711256
27.77952426002968	2.071586	1.4393005
27.797579288521973	2.1923969	1.4806745
27.815635020981784	2.615474	1.6172427
27.83369145793979	2.5887992	1.6089746
27.85174859992682	2.435383	1.5605714
27.869806447473923	2.3062286	1.5186272
27.887865001112267	1.9842683	1.4086406
27.905924261373233	1.8741053	1.3689797
27.92398422878836	1.9006045	1.3786241
27.94204490388936	1.9279624	1.3885108
27.96010628720813	1.8841337	1.3726375
27.978168379276728	1.8446935	1.358195
27.9962311806274	1.8905997	1.3749908
28.014294691792568	1.9203877	1.3857806
28.0323589133048	1.9332017	1.3903962
28.050423845696887	1.9138691	1.3834265
28.068489489501758	1.9120747	1.3827779
28.086555845252523	1.9237616	1.3869973
28.104622913482487	1.8876494	1.3739176
28.122690694725115	1.8614359	1.3643445
28.14075918951405	1.840886	1.3567926
28.15882839838312	1.8297781	1.3526928
28.176898321866304	1.8383318	1.3558509
28.1949689604978	1.8771195	1.3700801
28.213040314811945	1.9181113	1.384959
28.23111238534327	1.9456006	1.3948479
28.249185172626493	1.9512378	1.3968672
28.267258677196473	1.9562799	1.3986708
28.285332899588294	1.8728551	1.368523
28.303407840337172	1.8695333	1.3673087
28.321483499978545	1.9140887	1.383506
28.33955987904799	1.919961	1.3856266
28.357636978081285	1.937253	1.3918524
28.37571479761439	1.979266	1.4068639
28.393793338183425	1.965955	1.4021251
28.41187260032469	1.982633	1.40806
28.429952584574686	2.0023065	1.4150288
28.448033291470065	1.9904323	1.4108268
28.46611472154769	1.9994909	1.4140335
28.484196875344566	1.9820004	1.4078354
28.502279753397914	1.9619986	1.4007136
28.52036335624511	1.9899375	1.4106514
28.538447684423716	1.9903531	1.4107988
28.556532738471482	1.9324853	1.3901386
28.574618518926325	1.9207135	1.3858981
28.59270502632635	1.9727216	1.4045361
28.61079226120985	1.9936068	1.4119514
28.628880224115274	2.0203834	1.4214019
28.646968915581287	2.0222971	1.4220749
28.66505833614671	2.02732	1.4238398
28.68314848635055	2.0486097	1.4312965
28.701239366732004	2.0954788	1.4475769
28.71933097783044	2.1392708	1.4626247
28.737423320185403	2.16699	1.47207
28.75551639433665	2.1918314	1.4804835
28.773610200824074	2.181454	1.4769746
28.791704740187793	2.1789103	1.4761132
28.80980001296809	2.1722822	1.4738665
28.827896019705413	2.1659706	1.4717237
28.845992760940433	2.1204288	1.4561692
28.86409023721397	2.1593287	1.4694655
28.88218844906704	2.253052	1.501017
28.900287397040845	2.2553897	1.5017955
28.918387081676755	2.2412875	1.497093
28.936487503516343	2.3080199	1.5192169
28.954588663101365	2.3455324	1.5315131
28.97269056097374	2.3151479	1.521561
28.990793197675597	2.325358	1.5249125
29.00889657374923	2.3837466	1.5439386
29.027000689737125	2.3812234	1.5431213
29.04510554618196	2.4253824	1.5573639
29.06321114362659	2.4084623	1.5519221
29.08131748261405	2.4530032	1.5662066
29.099424563687567	2.4996932	1.5810418
29.11753238739057	2.6008272	1.6127081
29.13564095426663	2.6176798	1.6179246
29.15375026485954	2.6087875	1.6151742
29.171860319713275	2.6395612	1.6246727
29.18997111937199	2.6710405	1.6343318
29.20808266438002	2.7039013	1.6443543
29.226194955281898	2.7545772	1.6596919
29.244307992622335	2.8204145	1.679409
29.26242177694624	2.8059757	1.6751046
29.2805363087987	2.795982	1.672119
29.29865158872498	2.8637388	1.6922585
29.316767617270557	2.903856	1.7040704
29.334884394981064	2.9063606	1.7048051
29.353001922402367	2.8988185	1.7025917
29.37112020008047	3.0156684	1.736568
29.389239228561596	3.2029297	1.7896731
29.407359008392152	3.4194725	1.8491815
29.42547954011872	3.7352526	1.9326801
29.44360082428809	4.385845	2.094241
29.46172286144722	5.367157	2.3167126
29.479845652143283	6.814679	2.6104941
29.497969196923606	8.8080435	2.9678347
29.516093496335728	11.234935	3.3518555
29.5342185509274	13.872014	3.7245152
29.55234436124651	16.049564	4.006191
29.570470927841175	17.374025	4.168216
29.588598251259686	17.263117	4.1548905
29.60672633205055	16.034338	4.00429
29.624855170762405	13.965078	3.7369878
29.642984767944146	11.456528	3.3847492
29.66111512414481	8.845774	2.9741845
29.67924623991366	6.65739	2.5801919
29.697378115800138	5.173849	2.2746096
29.71551075235387	4.3151784	2.0773008
29.733644150124675	3.9104195	1.977478
29.751778309662576	3.7412806	1.934239
29.769913231517766	3.612404	1.9006325
29.78804891624066	3.4630306	1.860922
29.806185364381818	3.4406877	1.8549091
29.82432257649206	3.4601595	1.8601505
29.842460553122333	3.4577334	1.8594981
29.86059929482382	3.3698077	1.8357036
29.878738802147872	3.2578871	1.8049618
29.896879075646048	3.1719935	1.7810091
29.915020115870114	3.2849996	1.8124568
29.933161923371976	3.3090484	1.819079
29.951304498703777	3.1995552	1.78873
29.969447842417857	3.1183226	1.7658772
29.987591955066733	3.1109283	1.7637824
30.005736837203123	3.1428597	1.7728113
30.023882489379943	3.1528049	1.7756139
30.04202891215028	3.2091863	1.7914202
30.060176106067455	3.2073777	1.7909154
30.078324071684946	3.2042968	1.790055
30.09647280955646	3.1888273	1.7857288
30.114622320235863	3.1737666	1.7815069
30.132772604277257	3.1877105	1.785416
30.1509236622349	3.1608768	1.7778854
30.16907549466328	3.0817363	1.7554874
30.18722810211705	3.0093346	1.7347434
30.205381485151097	2.9461753	1.7164426
30.22353564432045	2.908445	1.7054163
30.241690580180403	2.991537	1.729606
30.25984629328638	3.0828643	1.7558087
30.278002784194037	3.0576863	1.7486241
30.296160053459246	3.0287583	1.7403328
30.314318101638033	2.966531	1.722362
30.332476929286646	2.9630299	1.7213453
30.35063653696153	2.9378679	1.714021
30.368796925219307	2.9397972	1.7145836
30.386958094616844	2.9313095	1.7121067
30.40512004571115	2.8950167	1.7014749
30.423282779059463	2.9290473	1.7114459
30.441446295219233	2.920044	1.7088135
30.459610594748067	2.8854694	1.6986669
30.47777567820382	2.8190403	1.6789998
30.495941546144504	2.8111994	1.6766632
30.51410819912835	2.7998457	1.6732739
30.532275637713795	2.8231957	1.6802368
30.55044386245946	2.8744316	1.6954149
30.56861287392416	2.843177	1.6861724
30.586782672666956	2.8488083	1.6878413
30.604953259247047	2.8440647	1.6864355
30.623124634223885	2.8151693	1.6778467
30.641296798157075	2.7789419	1.6670159
30.659469751606462	2.758374	1.6608353
30.677643495132074	2.7372398	1.6544605
30.695818029294152	2.7544358	1.6596493
30.713993354653116	2.8280544	1.681682
30.73216947176962	2.8440995	1.6864458
30.75034638120448	2.8497891	1.6881318
30.768524083518756	2.87054	1.6942668
30.786702579273673	2.8339238	1.6834263
30.80488186903069	2.8241658	1.6805254
30.82306195335144	2.9766107	1.7252856
30.841242832797782	3.1574812	1.7769302
30.85942450793176	3.4273684	1.8513153
30.877606979315637	3.8149943	1.953201
30.895790247511883	4.1546345	2.038292
30.913974313083134	4.540423	2.1308267
30.932159176592283	4.8321915	2.1982245
30.95034483860237	4.8321347	2.1982117
30.968531299676698	4.566426	2.1369197
30.98671856037873	4.362551	2.0886722
31.00490662127215	4.029823	2.0074418
31.023095482920848	3.5229619	1.8769555
31.04128514588892	3.0348873	1.7420928
31.059475610740662	2.7791233	1.6670703
31.07766687804056	2.6039102	1.6136636
31.09585894835335	2.4988763	1.5807835
31.11405182224393	2.458099	1.5678326
31.132245500277417	2.4705043	1.5717838
31.15043998301914	2.4296515	1.5587339
31.168635271034628	2.3851588	1.5443959
31.18683136488964	2.3735743	1.5406408
31.20502826515008	2.4038155	1.5504243
31.223225972382135	2.4089243	1.552071
31.241424487152155	2.4034774	1.5503153
31.259623810026692	2.4606278	1.5686388
31.27782394157253	2.4645398	1.5698853
31.296024882356644	2.4076998	1.5516765
31.314226632946237	2.430895	1.5591328
31.332429193908684	2.5043635	1.5825181
31.350632565811598	2.5060399	1.5830476
31.368836749222787	2.5275395	1.5898237
31.387041744710295	2.597116	1.611557
31.40524755284232	2.6411378	1.6251578
31.423454174187317	2.6504352	1.6280158
31.441661609313922	2.5378683	1.5930688
31.459869858791002	2.4810271	1.5751276
31.478078923187628	2.4846227	1.5762686
31.496288803073064	2.4325767	1.559672
31.514499499016807	2.390676	1.5461811
31.532711011588546	2.3641403	1.5375761
31.550923341358178	2.351292	1.5333923
31.56913648889584	2.369953	1.5394652
31.587350454771844	2.42494	1.5572219
31.605565239556732	2.4046397	1.55069
31.62378084382127	2.3275876	1.5256433
31.641997268136382	2.2978752	1.5158744
31.660214513073274	2.3059819	1.518546
31.67843257920331	2.2990909	1.5162753
31.6966514670981	2.248955	1.4996517
31.71487117732944	2.3274102	1.5255852
31.733091710469346	2.3535397	1.5341251
31.751313067090052	2.3230035	1.5241402
31.769535247764008	2.245765	1.4985876
31.787758253063878	2.303652	1.5177786
31.805982083562526	2.3439252	1.5309883
31.824206739833024	2.316658	1.5220572
31.84243222244869	2.2556293	1.5018753
31.860658531983013	2.2350926	1.4950227
31.878885669009737	2.339261	1.5294642
31.897113634102784	2.293273	1.5143557
31.91534242783632	2.2455084	1.498502
31.933572050784694	2.2348702	1.4949483
31.951802503522508	2.2371216	1.4957011
31.970033786624548	2.1295698	1.4593046
31.988265900665834	2.0556817	1.4337648
32.006498846221575	2.0458024	1.4303155
32.02473262386724	2.0651445	1.4370611
32.04296723417845	2.1283898	1.4589002
32.0612026777311	2.2712655	1.5070719
32.07943895510129	2.3413723	1.5301543
32.097676066865304	2.2691195	1.5063597
32.115914013599685	2.1420975	1.4635906
32.13415279588115	2.1434846	1.4640644
32.152392414286666	2.1501374	1.4663347
32.1706328693934	2.1975768	1.4824226
32.18887416177875	2.196151	1.4819416
32.20711629202032	2.2267826	1.4922408
32.225359260695924	2.2614	1.5037951
32.243603068383614	2.1770108	1.4754697
32.26184771566166	2.1187716	1.4556
32.28009320310852	2.1558213	1.4682715
32.2983395313029	2.1391528	1.4625843
32.31658670082372	2.0882666	1.4450836
32.33483471225012	2.0342796	1.4262817
32.35308356616143	2.0312939	1.4252347
32.371333263137245	2.0232131	1.422397
32.38958380375734	2.0490756	1.4314593
32.407835188601744	2.0739686	1.440128
32.42608741825067	2.0198843	1.4212264
32.444340493284585	1.9814014	1.4076226
32.46259441428416	2.0993044	1.4488977
32.48084918183028	2.2232614	1.4910605
32.49910479650405	2.1737578	1.4743669
32.51736125888683	2.0460987	1.4304191
32.53561856956014	2.0601878	1.4353354
32.5538767291058	2.1521938	1.4670358
32.572135738105764	2.1596458	1.4695734
32.59039559714228	2.1496	1.4661515
32.608656306797776	2.1197343	1.4559307
32.62691786765491	2.122418	1.4568521
32.645180280296586	2.110471	1.452746
32.663443545305896	2.0761034	1.440869
32.68170766326619	2.0303326	1.4248974
32.69997263476099	2.003327	1.4153893
32.7182384603741	2.021486	1.4217898
32.7365051406895	2.0743837	1.4402721
32.75477267629144	2.0209615	1.4216052
32.77304106776434	1.9921653	1.4114408
32.79131031569289	2.005	1.4159802
32.809580420661966	2.0432901	1.429437
32.827851383256714	2.1040695	1.4505411
32.84612320406245	2.0358868	1.4268451
32.86439588366476	1.979274	1.4068668
32.88266942264945	2.0186012	1.4207748
32.9009438216025	2.0673687	1.4378347
32.9192190811102	1.980031	1.4071357
32.937495201758985	1.9408561	1.3931462
32.95577218413556	1.9346358	1.3909118
32.974050028826866	1.9485896	1.3959188
32.992328736420035	1.9374899	1.3919375
33.010608307502444	2.023009	1.4223253
33.02888874266169	2.0932088	1.4467926
33.047170042485604	2.1123912	1.4534068
33.06545220756225	2.036679	1.4271226
33.083735238479896	1.9808456	1.4074252
33.10201913582707	1.9347235	1.3909434
33.12030390019248	1.8908577	1.3750846
33.138589532165135	1.894871	1.3765432
33.15687603233419	1.9709772	1.4039149
33.17516340128909	1.9914688	1.4111941
33.19345163961947	2.004049	1.4156444
33.211740747915215	1.9508685	1.396735
33.23003072676643	1.8991042	1.3780799
33.248321576763466	1.8736972	1.3688306
33.266613298496885	2.0051045	1.4160172
33.28490589255747	2.0830355	1.4432725
33.30319935953626	2.0391881	1.4280014
33.32149370002451	1.9615167	1.4005415
33.339788914613706	1.8919652	1.3754872
33.358085003895575	1.9096342	1.3818952
33.376381968462034	1.9380293	1.3921312
33.39467980890529	2.0003176	1.4143258
33.41297852581774	1.9935617	1.4119354
33.43127811979204	1.9306583	1.3894813
33.44957859142105	1.8647498	1.3655584
33.467879941297866	1.8394802	1.3562744
33.486182170015844	1.9380221	1.3921286
33.50448527816853	1.9433001	1.3940231
33.522789266349754	1.9924147	1.4115292
33.541094135153514	1.9899548	1.4106576
33.55939988517411	1.8290508	1.352424
33.57770651700602	1.7077883	1.3068237
33.59601403124398	1.7108935	1.3080113
33.61432242848296	1.7598563	1.3265958
33.632631709318154	1.8661267	1.3660625
33.650941874344994	1.9639072	1.4013947
33.66925292415916	1.9990165	1.4138658
33.68756485935654	1.9671786	1.4025614
33.70587768053328	1.8455777	1.3585204
33.724191388285746	1.8693669	1.3672479
33.74250598321054	1.9610089	1.4003602
33.760821465904506	1.961163	1.4004153
33.77913783696474	1.9355656	1.3912461
33.79745509698852	1.942962	1.3939017
33.815773246573414	1.9894359	1.4104737
33.8340922863172	1.9324197	1.390115
33.852412216817896	1.8744912	1.3691206
33.87073303867377	1.8493645	1.3599135
33.889054752483304	1.846003	1.3586769
33.907377358845245	1.9521015	1.3971763
33.92570085835853	1.9975713	1.4133546
33.94402525162239	2.0079005	1.4170041
33.96235053923627	2.0129745	1.4187933
33.980676721799824	2.0062895	1.4164355
33.999003799912984	1.9767497	1.4059693
34.01733177417592	2.0457442	1.4302951
34.03566064518901	2.1306984	1.4596912
34.0539904135529	2.118285	1.4554329
34.07232107986846	1.9306868	1.3894916
34.090652644736785	1.8606415	1.3640534
34.108985108759235	1.8615166	1.364374
34.12731847253742	2.000513	1.414395
34.14565273667313	2.1292675	1.459201
34.16398790176847	2.0487115	1.4313321
34.18232396842574	1.9390706	1.3925052
34.20066093724749	1.9869623	1.4095966
34.21899880883651	2.0460968	1.4304184
34.23733758379583	1.9351344	1.3910911
34.25567726272874	1.9036167	1.3797162
34.27401784623872	1.8700463	1.3674964
34.29235933492957	1.8514634	1.3606849
34.31070172940526	1.8914106	1.3752856
34.32904503027003	1.9730624	1.4046574
34.347389238128386	1.916458	1.384362
34.36573435358502	1.8309007	1.3531078
34.38408037724492	1.8531765	1.3613143
34.402427309713296	1.8249474	1.3509061
34.42077515159559	1.9838291	1.4084847
34.43912390349752	2.0457408	1.4302939
34.45747356602499	2.0223129	1.4220805
34.47582413978423	2.0441067	1.4297225
34.49417562538163	2.0940754	1.447092
34.51252802342388	1.92409	1.3871157
34.53088133451789	1.9392827	1.3925813
34.54923555927084	2.1323817	1.4602677
34.567590698290104	2.128049	1.4587834
34.58594675218336	2.1016908	1.449721
34.6043037215585	2.0618799	1.4359248
34.62266160702365	2.0197062	1.4211637
34.641020409187234	1.9223806	1.3864994
34.65938012865785	1.8049241	1.3434746
34.677740766044394	1.856028	1.3623612
34.69610232195598	2.0819855	1.4429086
34.714464797002016	2.202064	1.4839354
34.73282819179208	2.2507687	1.5002562
34.751192506936064	2.1296172	1.4593208
34.76955774304408	1.8382901	1.3558356
34.7879239007265	1.7635401	1.3279835
34.80629098059391	2.0646963	1.4369051
34.824658983257194	2.2987235	1.5161542
34.843027909327446	2.2387998	1.496262
34.86139775941603	1.9787949	1.4066964
34.879768534134534	1.9256654	1.3876835
34.89814023409483	2.0842452	1.4436915
34.91651285990901	2.0926187	1.4465886
34.93488641218944	2.0633101	1.4364227
34.95326089154871	2.103124	1.4502151
34.97163629859967	1.9946815	1.4123319
34.99001263395542	1.9362056	1.391476
35.00838989822934	1.8160877	1.347623
35.02676809203499	1.6445566	1.2824026
35.04514721598624	1.7306244	1.315532
35.063527270697215	1.93357	1.3905287
35.081908256782256	2.0575728	1.4344242
35.10029017485597	2.0014038	1.4147098
35.11867302553321	1.9713224	1.404038
35.137056809429104	1.957149	1.3989815
35.155441527159006	2.0791588	1.4419289
35.173827179338524	1.9953474	1.4125676
35.19221376658354	2.1828775	1.4774565
35.21060128951017	2.5333707	1.5916566
35.2289897487348	2.5163276	1.5862937
35.24737914487405	2.2477713	1.4992568
35.26576947854479	2.0515704	1.4323304
35.28416075036418	1.8393183	1.3562146
35.30255296094958	1.8891364	1.3744586
35.32094611091867	2.1932905	1.4809762
35.33934020088932	2.069096	1.4384353
35.35773523147969	1.9819263	1.407809
35.3761312033082	2.5028815	1.5820497
35.394528116993506	2.7533367	1.6593181
35.41292597315452	2.4945624	1.5794184
35.431324772410434	2.0590374	1.4349346
35.449724515380666	2.1662076	1.4718041
35.46812520268491	2.386326	1.5447738
35.486526834943106	2.4773228	1.5739514
35.504929412775454	2.4110906	1.5527687
35.52333293680242	2.3322709	1.5271775
35.54173740764471	1.8797204	1.371029
35.560142825923286	1.806797	1.3441715
35.5785491922594	1.90587	1.3805325
35.59695650727454	1.6243848	1.2745135
35.61536477159042	0.4990961	0.70646733
