0.008763373481513119	0.3822274	0.6182454
0.026290120649546365	0.19633481	0.44309685
0.043816868432600686	0.19189295	0.43805587
0.06134361724069026	0.22207634	0.47124976
0.07887036748382949	0.20237152	0.44985723
0.0963971195720331	0.1673177	0.40904486
0.11392387391531617	0.15516944	0.39391553
0.1314506309236943	0.1829551	0.4277325
0.1489773910071836	0.23965868	0.48954946
0.16650415457580078	0.26017836	0.5100768
0.18403092203956356	0.24969047	0.49969038
0.20155769380849	0.23818578	0.4880428
0.2190844702925996	0.26547942	0.5152469
0.2366112519019124	0.183849	0.42877617
0.2541380390464497	0.16878302	0.4108321
0.27166483213623416	0.18646187	0.43181232
0.28919163158128947	0.16379367	0.40471432
0.3067184377916406	0.16579019	0.4071734
0.324245251177314	0.17627269	0.4198484
0.34177207214833777	0.16322613	0.40401253
0.3592989011147415	0.18376392	0.42867693
0.37682573848655654	0.19599709	0.4427156
0.39435258467381573	0.2401715	0.49007297
0.41187944008655414	0.26087725	0.51076144
0.42940630513480854	0.28043166	0.529558
0.446933180228618	0.25460425	0.50458324
0.4644600657780234	0.21957587	0.46858922
0.48198696219306775	0.17050447	0.41292188
0.49951386988379676	0.09877853	0.31429052
0.5170407892602581	0.06116681	0.24731925
0.5345677207325025	0.10038108	0.31682974
0.5520946647105822	0.1461261	0.38226444
0.5696216216045534	0.18296818	0.42774782
0.5871485918244737	0.21940154	0.4684032
0.6046755757804043	0.23187627	0.48153532
0.6222025738824094	0.23807737	0.48793173
0.6397295865405557	0.2199054	0.46894073
0.6572566141649129	0.1802184	0.4245214
0.6747836571655547	0.17702043	0.42073795
0.6923107159525568	0.19060373	0.43658188
0.7098377909359992	0.19242486	0.4386626
0.7273648825259653	0.15881729	0.39851886
0.7448919911325411	0.113677144	0.3371604
0.762419117165817	0.11384568	0.33741027
0.7799462610358868	0.1670202	0.40868106
0.7974734231528482	0.17588976	0.41939214
0.8150006039268024	0.18109499	0.42555258
0.8325278037678551	0.19707306	0.4439291
0.8500550230861152	0.24992414	0.49992412
0.8675822622916969	0.2725138	0.52202857
0.8851095217947171	0.2417754	0.4917066
0.9026368020052984	0.245692	0.49567327
0.9201641033335665	0.21760374	0.46648017
0.9376914261896523	0.22257629	0.4717799
0.9552187709836915	0.20282443	0.45036033
0.9727461381258234	0.21566981	0.46440265
0.990273528026193	0.26590416	0.515659
1.0078009410949496	0.2749782	0.5243836
1.0253283777422473	0.25367174	0.50365835
1.0428558383782454	0.25679365	0.50674814
1.0603833234131086	0.28735787	0.5360577
1.0779108332570058	0.32799095	0.5727049
1.0954383683201119	0.30645406	0.5535829
1.112965929012607	0.35350722	0.59456474
1.1304935157446763	0.49676535	0.7048158
1.1480211289265108	0.5847697	0.7647024
1.1655487689683062	1.500742	1.2250477
1.1830764362802655	1.8125669	1.346316
1.200604131272596	2.2350607	1.4950119
1.2181318543555117	2.5558488	1.5987022
1.235659605939232	2.6299706	1.6217184
1.253187386433982	4.182494	2.0451148
1.270715196249994	6.4645467	2.5425472
1.2882430357975057	11.805179	3.4358666
1.3057709054867608	16.407927	4.0506697
1.3232988057280106	22.12188	4.70339
1.3408267369315112	26.992964	5.195475
1.358354699507526	30.92477	5.5610046
1.3758826938663256	35.110085	5.9253764
1.3934107204181858	37.3953	6.11517
1.410938779573391	37.96671	6.161713
1.4284668717422309	38.634647	6.2156777
1.4459949973350033	38.19234	6.179995
1.4635231567620117	38.0489	6.1683793
1.4810513504335687	37.09239	6.090352
1.4985795787599925	36.397545	6.0330377
1.5161078421516088	35.72211	5.9767976
1.5336361410187505	34.787067	5.898056
1.5511644757717598	34.54335	5.877359
1.5686928468209842	35.067047	5.9217434
1.58622125457678	35.607292	5.9671845
1.6037496994495108	37.057125	6.087456
1.621278181849548	37.01477	6.0839767
1.6388067021872719	38.24939	6.184609
1.6563352608730693	37.64736	6.1357446
1.673863858317336	36.933857	6.077323
1.6913924949304753	36.12648	6.010531
1.7089211711228998	35.09213	5.923861
1.7264498873050296	33.969048	5.828297
1.7439786438872935	32.93207	5.738647
1.7615074412801288	32.10449	5.6660824
1.779036279893981	31.309948	5.595529
1.796565160139305	30.14109	5.4900904
1.814094082426564	29.486969	5.4301906
1.8316230471662298	28.9554	5.3810225
1.849152054768784	28.248692	5.31495
1.8666811056447168	27.989658	5.2905254
1.8842102002045273	27.321218	5.22697
1.901739338858724	26.506227	5.14842
1.9192685220178245	25.749065	5.0743537
1.9367977500923557	24.695566	4.9694633
1.9543270234928547	24.275131	4.92698
1.971856342629867	23.484724	4.846104
1.9893857079139496	22.912193	4.7866683
2.006915119755667	22.460896	4.7392926
2.0244445785655945	22.16441	4.707909
2.0419740847543175	21.748487	4.6635275
2.0595036387324317	21.302336	4.615445
2.0770332409105414	20.719698	4.5518894
2.094562891699263	20.454184	4.52263
2.1120925915092217	20.028996	4.4753766
2.129622340751053	19.815569	4.451468
2.1471521398354043	188.0072	13.711572
2.1646819891729323	444.1301	21.074394
2.182211889174303	440.34317	20.984356
2.1997418402501974	452.86838	21.280704
2.2172718428113023	432.78278	20.803432
2.234801897268317	320.84644	17.912188
2.2523320040319548	17.269466	4.155655
2.269862163512935	16.925423	4.114052
2.287392376121992	16.633383	4.0784044
2.304922642269869	16.296654	4.0369115
2.322452962367322	16.014627	4.001828
2.3399833368251164	15.751444	3.968809
2.357513766054032	15.363727	3.919659
2.3750442504648586	15.128409	3.8895257
2.3925747904683963	14.966987	3.868719
2.410105386475459	14.716574	3.8362186
2.4276360388968707	14.250976	3.7750463
2.445166748143469	13.93528	3.7329988
2.4626975146261025	13.660277	3.6959813
2.4802283387556323	13.596879	3.6873946
2.4977592209429305	13.399469	3.6605287
2.5152901615988825	13.151749	3.626534
2.5328211611343865	12.921579	3.5946598
2.5503522199603523	12.590633	3.5483282
2.5678833384877024	12.379687	3.518478
2.5854145171273712	12.217848	3.4954038
2.6029457562903064	11.945513	3.456228
2.620477056387469	11.659727	3.4146342
2.6380084178298326	11.336676	3.366998
2.655539841028383	11.133202	3.3366454
2.673071326394119	11.158065	3.340369
2.6906028743380523	11.058912	3.3254943
2.708134485271211	10.988571	3.3149014
2.7256661596046325	10.8368	3.2919295
2.743197897749369	10.581593	3.252936
2.760729700116486	10.349701	3.2170951
2.778261567117063	10.188249	3.1919036
2.795793499162193	10.068716	3.173124
2.8133254966629817	10.01384	3.1644652
2.830857560030551	9.82238	3.1340678
2.8483896896760337	9.711972	3.1164038
2.865921886010578	9.645065	3.1056507
2.883454149445347	9.485533	3.0798593
2.9009864803915177	9.349276	3.0576584
2.91851887926028	9.05928	3.0098639
2.9360513464628384	9.096855	3.0160992
2.953583882410413	9.006728	3.001121
2.9711164875142373	8.9819	2.9969819
2.9886491621855606	8.80494	2.9673119
3.0061819068356455	8.632614	2.938131
3.023714721875769	8.522489	2.9193301
3.041247607717225	8.402177	2.898651
3.0587805647713213	8.301574	2.8812451
3.0763135934493806	8.3204155	2.8845131
3.0938466941627407	8.198782	2.8633516
3.1113798673227544	8.079824	2.8425033
3.1289131133407904	7.9283967	2.8157408
3.1464464326282315	7.8127284	2.7951257
3.1639798255964786	7.803163	2.793414
3.1815132926569443	7.6517367	2.7661772
3.1990468342210603	7.458238	2.7309775
3.216580450700272	7.340427	2.7093222
3.2341141425060416	7.32822	2.7070684
3.251647910049847	7.2714224	2.6965575
3.2691817537431813	7.2149568	2.686067
3.286715673997555	6.9779563	2.6415823
3.3042496712244938	6.920364	2.6306584
3.32178374583554	6.9110665	2.6288908
3.339317898242251	6.9929934	2.6444268
3.3568521288562034	6.887524	2.6244092
3.3743864380889876	6.762551	2.6004906
3.3919208263522127	6.6330686	2.5754745
3.4094552940575023	6.4848804	2.546543
3.4269898416164972	6.4229383	2.5343516
3.444524469440858	6.481787	2.5459354
3.4620591779422587	6.5283523	2.555064
3.479593967532391	6.5635386	2.5619404
3.4971288386229658	6.3974986	2.5293276
3.5146637916257086	6.333588	2.5166621
3.5321988269523628	6.2835593	2.506703
3.5497339450146903	6.2651024	2.5030186
3.5672691462244708	6.2219553	2.4943848
3.5848044309934988	6.1923776	2.4884489
3.60233979973359	6.2111135	2.4922106
3.619875252856575	6.2144575	2.4928813
3.6374107907743034	6.12076	2.474017
3.6549464138986427	6.1611576	2.482168
3.6724821226414788	6.130614	2.4760077
3.690017917414714	6.210584	2.4921043
3.7075537986302702	6.2014775	2.4902766
3.7250897667000857	6.2666154	2.503321
3.7426258220361235	6.497512	2.5490217
3.7601619650503553	6.747995	2.5976903
3.777698196154779	7.3332434	2.7079961
3.7952345157614067	8.367886	2.8927298
3.8127709242822716	9.291452	3.0481884
3.830307422129425	11.553522	3.3990471
3.847844009714936	30.442738	5.5174937
3.8653806874508954	97.813515	9.890072
3.882917455749409	96.95681	9.846665
3.900454315022606	96.63417	9.830268
3.917991265682631	41.138622	6.4139395
3.9355283081416506	10.86205	3.2957625
3.9530654428118495	8.703636	2.9501925
3.970602670105433	7.51952	2.7421744
3.9881399904346244	6.615424	2.5720468
4.005677404211669	6.5378604	2.556924
4.023214911848827	6.4182296	2.5334225
4.0407525137583855	6.4173493	2.5332487
4.058290210352644	6.4150705	2.532799
4.075828002043927	6.447986	2.5392885
4.0933658892445814	6.365687	2.5230312
4.110903872366966	6.3446054	2.51885
4.128441951823468	6.166662	2.4832766
4.145980128026488	6.2405043	2.4981
4.163518401388452	6.157907	2.481513
4.181056772321807	6.162126	2.482363
4.1985952412390155	6.1206484	2.4739945
4.216133808552567	6.1724854	2.4844487
4.233672474674966	6.2259374	2.4951828
4.251211240018741	6.396286	2.529088
4.268750104996445	6.5641565	2.562061
4.286289070020643	7.48529	2.735926
4.303828135503928	9.016088	3.00268
4.3213673018589125	29.494894	5.43092
4.3389065694982305	90.70764	9.5240555
4.356445938834537	166.02039	12.88489
4.3739854102805085	171.3715	13.090894
4.391524984248844	172.16364	13.121114
4.409064661152262	136.19809	11.670394
4.426604441403504	96.523796	9.824653
4.444144325415337	75.5599	8.69252
4.461684313600543	21.548822	4.642071
4.47922440637193	22.074078	4.6983056
4.496764604142329	20.40192	4.5168486
4.5143049073245916	18.55106	4.307094
4.531845316331589	16.416204	4.0516915
4.5493858315762195	13.642934	3.6936343
4.566926453471405	11.4502535	3.3838222
4.584467182430081	9.274002	3.0453246
4.602008018865218	8.007463	2.8297462
4.619548963189798	7.2346344	2.6897275
4.637090015816834	6.8518496	2.6176038
4.654631177159353	6.7405214	2.5962515
4.672172447630417	6.4975533	2.5490298
4.689713827643102	6.3331294	2.516571
4.7072553176105085	6.1017976	2.4701817
4.724796917945764	5.9577947	2.4408593
4.742338629062015	5.8104496	2.4104874
4.759880451372434	5.6964793	2.38673
4.777422385290215	5.6440797	2.3757272
4.794964431228581	5.6346745	2.3737469
4.812506589600768	5.661481	2.3793867
4.830048860820047	5.662457	2.3795917
4.847591245299709	5.704477	2.3884046
4.8651337434530655	5.7139096	2.3903785
4.882676355693457	5.577634	2.3617015
4.900219082434242	5.45874	2.3363948
4.917761924088813	5.3244643	2.30748
4.935304881070575	5.404878	2.3248394
4.952847953792969	5.5419865	2.3541424
4.970391142669449	5.5477457	2.3553653
4.9879344481135055	5.5993757	2.3663
5.005477870538642	5.5584393	2.3576343
5.023021410358394	5.580246	2.3622544
5.040565067986324	5.5060954	2.346507
5.05810884383601	5.416816	2.3274055
5.075652738321066	5.346852	2.312326
5.09319675185512	5.3054137	2.3033483
5.110740884851836	5.3858805	2.32075
5.128285137724894	5.3807592	2.3196464
5.145829510888007	5.404437	2.3247445
5.163374004754908	5.361136	2.3154128
5.1809186197393595	5.42976	2.3301845
5.198463356255145	5.383662	2.320272
5.216008214716077	5.330371	2.3087597
5.233553195535998	5.245335	2.2902696
5.251098299128764	5.1896753	2.278086
5.268643525908272	5.21173	2.2829213
5.286188876288432	5.2193007	2.2845788
5.3037343506831895	5.1769676	2.275295
5.32127994950651	5.1601696	2.2716007
5.3388256731723915	5.1488266	2.2691026
5.356371522094851	5.256501	2.292706
5.373917496687938	5.302748	2.3027697
5.391463597365729	5.279686	2.2977567
5.40900982454232	5.1690664	2.2735581
5.426556178631843	5.088813	2.2558398
5.444102660048449	5.043446	2.2457619
5.4616492692063225	5.051907	2.2476447
5.479196006519669	5.095609	2.2573457
5.496742872402727	5.1212635	2.263021
5.514289867269756	5.160657	2.271708
5.531836991535049	5.1466117	2.2686145
5.549384245612924	5.11722	2.2621274
5.566931629917724	5.089616	2.2560177
5.584479144863822	5.053104	2.247911
5.6020267908656205	5.127033	2.2642953
5.619574568337545	5.2529984	2.2919421
5.637122477694054	5.267609	2.2951272
5.654670519349629	5.264077	2.2943578
5.672218693718784	5.155619	2.270599
5.689767001216059	5.067764	2.2511694
5.707315442256021	5.0810046	2.2541084
5.724864017253266	5.1093607	2.2603896
5.7424127266224225	5.1519895	2.2697995
5.75996157077814	5.1052356	2.259477
5.777510550135105	5.088433	2.2557554
5.795059665108022	5.124799	2.2638018
5.812608916111639	5.072935	2.2523177
5.830158303560715	5.1453967	2.2683468
5.847707827870055	5.140691	2.2673092
5.86525748945448	5.2720485	2.2960942
5.8828072887288485	5.4967375	2.3445122
5.900357226108044	5.586499	2.3635776
5.917907302006979	5.617534	2.3701339
5.9354575168406	6.186788	2.4873254
5.9530078710238765	6.852355	2.6177003
5.970558364971812	7.4827576	2.735463
5.988108999099438	7.826577	2.797602
6.005659773821818	8.3699255	2.8930824
6.023210689554039	8.103678	2.846696
6.040761746711227	8.523127	2.9194393
6.058312945708531	7.9280896	2.8156865
6.075864286961132	7.387114	2.7179246
6.093415770884244	6.677251	2.5840378
6.1109673978931065	6.097752	2.4693627
6.128519168402993	5.547586	2.3553314
6.146071082829204	5.394168	2.3225348
6.163623141587075	5.257673	2.2929616
6.181175345091969	5.167719	2.2732618
6.198727693759281	5.229044	2.2867103
6.216280188004435	5.322923	2.307146
6.233832828242885	5.3213224	2.3067992
6.251385614890126	5.302658	2.30275
6.268938548361669	5.201931	2.280774
6.286491629073067	5.1332717	2.2656724
6.304044857439898	5.0775046	2.253332
6.321598233877777	4.986544	2.233057
6.339151758802344	5.0145907	2.2393281
6.356705432629277	5.043771	2.245834
6.37425925577428	5.0297427	2.2427087
6.391813228653095	5.0144305	2.2392924
6.409367351681486	5.014309	2.2392652
6.426921625275259	5.035628	2.2440205
6.44447604985025	5.0203424	2.240612
6.46203062582232	5.0102882	2.2383673
6.47958535360737	5.0203857	2.2406218
6.497140233621328	5.063003	2.2501118
6.514695266280161	5.068388	2.251308
6.532250451999859	5.0165224	2.2397594
6.549805791196454	4.924485	2.219118
6.567361284286002	4.912125	2.2163315
6.584916931684597	4.954092	2.225779
6.602472733808367	4.995261	2.235008
6.6200286910734665	5.0384026	2.2446387
6.637584803896092	4.995103	2.2349727
6.655141072692462	4.9532146	2.225582
6.672697497878842	4.941949	2.2230494
6.690254079871514	4.9926043	2.2344136
6.707810819086808	5.0198975	2.2405128
6.725367715941078	5.050044	2.2472303
6.742924770850719	5.0168986	2.2398434
6.760481984232151	4.9814315	2.2319121
6.778039356501836	4.9540963	2.22578
6.795596888076266	4.952525	2.225427
6.813154579371963	4.9751234	2.2304986
6.830712430805492	4.984793	2.232665
6.84827044279344	5.0438643	2.2458549
6.865828615752445	5.063005	2.2501123
6.883386950099159	5.025235	2.2417037
6.900945446250287	4.9212904	2.218398
6.918504104622553	4.855703	2.2035658
6.936062925632727	4.92283	2.2187452
6.953621909697607	5.01088	2.2384994
6.971181057234028	5.1031938	2.2590249
6.988740368658859	5.1606154	2.2716987
7.006299844389007	5.2387724	2.2888365
7.023859484841407	5.326835	2.3079937
7.041419290433036	5.36074	2.3153272
7.058979261580902	5.4795895	2.3408523
7.0765393987020495	5.7025423	2.3879995
7.094099702213559	6.120797	2.4740245
7.111660172532549	6.4638023	2.5424008
7.129220810076164	6.7352405	2.5952342
7.146781615261595	7.2396526	2.6906602
7.16434258850606	7.509152	2.7402833
7.181903730226821	7.945838	2.8188362
7.1994650408411704	8.067933	2.8404107
7.217026520766437	8.194716	2.8626416
7.234588170419983	8.456622	2.9080272
7.252149990219215	8.467792	2.909947
7.269711980581568	8.448478	2.9066265
7.2872741419245175	8.239271	2.870413
7.304836474665574	7.849618	2.801717
7.322398979222286	7.4173183	2.7234755
7.339961656012233	7.1117067	2.6667783
7.357524505453039	6.7441177	2.5969439
7.375087527962357	6.5112467	2.5517144
7.392650723957886	6.2382374	2.4976463
7.410214093857353	5.987638	2.446965
7.427777638078528	5.7599535	2.3999903
7.445341357039213	5.6371446	2.374267
7.4629052511572525	5.498664	2.344923
7.480469320850524	5.327082	2.3080473
7.498033566536948	5.2199516	2.2847214
7.5155979886344735	5.153876	2.270215
7.5331625875610975	5.132938	2.2655988
7.550727363734844	5.1966496	2.279616
7.568292317573788	5.1895313	2.2780542
7.585857449496025	5.2481923	2.2908933
7.603422759919705	5.2486744	2.2909985
7.620988249263007	5.22694	2.2862504
7.638553917944147	5.192725	2.2787552
7.656119766381391	5.161667	2.2719302
7.673685794993023	5.124044	2.2636352
7.691252004197388	5.1776357	2.275442
7.70881839441285	5.209856	2.282511
7.726384966057826	5.2241635	2.2856429
7.743951719550762	5.147921	2.268903
7.761518655310149	5.07593	2.2529824
7.779085773754511	5.1276593	2.2644336
7.796653075302419	5.193492	2.2789235
7.814220560372475	5.2202725	2.2847915
7.831788229383323	5.2508087	2.2914643
7.8493560827536495	5.2835755	2.298603
7.866924120902174	5.324611	2.3075118
7.884492344247663	5.2777596	2.2973375
7.9020607532089135	5.3166156	2.3057787
7.919629348204771	5.2761135	2.2969792
7.937198129654115	5.312354	2.3048544
7.954767097975865	5.3247457	2.3075411
7.972336253588986	5.382798	2.3200858
7.989905596912472	5.4505825	2.3346484
8.007475128365371	5.4571757	2.3360598
8.025044848366756	5.435907	2.3315032
8.042614757335754	5.5227304	2.350049
8.060184855691523	5.603763	2.3672268
8.07775514385327	5.7511125	2.3981478
8.095325622240228	5.771445	2.402383
8.112896291271687	5.789945	2.4062304
8.130467151366968	5.757615	2.399503
8.148038202945436	5.791735	2.4066024
8.165609446426497	5.8249927	2.4135022
8.183180882229594	5.8560667	2.4199312
8.200752510774217	5.86084	2.420917
8.218324332479893	5.910073	2.4310641
8.235896347766193	5.9381666	2.4368353
8.253468557052724	6.021562	2.4538872
8.27104096075914	6.021429	2.45386
8.288613559305137	6.1096015	2.4717607
8.306186353110448	6.1347866	2.47685
8.32375934259485	6.165554	2.4830534
8.341332528178162	6.1471844	2.4793515
8.358905910280246	6.1798425	2.485929
8.376479489321003	6.2196794	2.4939284
8.394053265720377	6.239687	2.4979365
8.411627239898356	6.2490807	2.4998162
8.42920141227497	6.269339	2.5038648
8.44677578327029	6.293385	2.508662
8.464350353304427	6.1855984	2.4870863
8.48192512279754	6.140497	2.4780025
8.499500092169827	6.092416	2.468282
8.51707526184153	6.0696898	2.463674
8.534650632232934	6.114163	2.4726834
8.552226203764365	6.16767	2.4834793
8.569801976856192	6.212643	2.4925175
8.587377951928834	6.2798996	2.5059729
8.60495412940274	6.289067	2.5078013
8.622530509698416	6.241912	2.4983819
8.6401070932364	6.278275	2.5056486
8.657683880437283	6.3210444	2.5141687
8.675260871721695	6.545723	2.558461
8.692838067510303	6.7915754	2.606065
8.710415468223834	7.0413966	2.653563
8.727993074283043	7.250552	2.692685
8.745570886108737	7.2149067	2.6860578
8.763148904121765	7.2207975	2.687154
8.78072712874302	7.203653	2.683962
8.798305560393441	7.387784	2.7180479
8.815884199494006	7.47526	2.7340922
8.833463046465745	7.6130443	2.7591746
8.851042101729728	7.852981	2.8023171
8.86862136570707	8.188152	2.8614948
8.886200838818924	8.385532	2.8957784
8.903780521486505	8.456921	2.9080784
8.921360414131055	8.449966	2.9068825
8.938940517173874	8.545959	2.9233472
8.956520831036297	8.630898	2.937839
8.97410135613971	8.951841	2.991963
8.99168209290554	9.156788	3.0260184
9.009263041755265	9.411749	3.0678573
9.026844203110405	9.617211	3.101163
9.044425577392525	9.834086	3.1359346
9.062007165023239	10.032351	3.1673887
9.079588966424197	10.349209	3.2170186
9.097170982017108	10.375347	3.2210786
9.11475321222372	11.363729	3.371013
9.132335657465825	12.252962	3.5004232
9.149918318165264	12.433558	3.5261252
9.167501194743924	13.104267	3.6199815
9.18508428762374	12.763914	3.572662
9.202667597226693	12.736738	3.5688567
9.220251123974803	12.4081545	3.522521
9.237834868290143	12.088925	3.4769132
9.255418830594836	11.94056	3.4555116
9.273003011311046	11.287968	3.3597572
9.290587410860985	11.040313	3.3226967
9.308172029666911	10.352883	3.2175896
9.32575686815113	10.127674	3.1824007
9.343341926735997	8.795458	2.9657137
9.360927205843916	8.5153885	2.918114
9.378512705897327	8.303196	2.8815267
9.396098427318728	8.158276	2.8562696
9.413684370530664	8.019872	2.8319378
9.431270535955722	7.8792415	2.8069987
9.448856924016539	7.6977935	2.7744899
9.466443535135806	7.5929093	2.7555234
9.484030369736251	7.6476936	2.7654464
9.501617428240658	7.7394567	2.781988
9.519204711071852	7.7277904	2.7798903
9.536792218652714	7.681265	2.7715094
9.55437995140617	7.6451383	2.7649844
9.571967909755191	7.740568	2.7821877
9.589556094122802	7.8152857	2.7955832
9.60714450493207	7.9071097	2.8119583
9.624733142606116	7.940945	2.8179684
9.642322007568108	7.9731426	2.8236754
9.659911100241267	7.9773903	2.8244274
9.677500421048851	7.94977	2.8195336
9.695089970414175	7.904329	2.8114638
9.712679748760609	7.8969398	2.8101494
9.730269756511557	8.017149	2.8314571
9.747859994090492	8.137799	2.8526828
9.765450461920915	8.196465	2.8629467
9.78304116042639	8.212492	2.8657446
9.800632090030527	8.144667	2.8538861
9.81822325115699	8.180895	2.8602264
9.835814644229481	8.244035	2.8712428
9.853406269671762	8.301143	2.8811703
9.870998127907646	8.266308	2.8751187
9.888590219360985	8.213105	2.8658516
9.906182544455698	8.25729	2.87355
9.923775103615734	8.28106	2.8776832
9.941367897265108	8.29076	2.879368
9.958960925827878	8.273459	2.876362
9.97655418972816	8.295259	2.8801491
9.994147689390106	8.322965	2.884955
10.011741425237934	8.346007	2.8889458
10.029335397695904	8.2928705	2.8797345
10.04692960718833	8.235819	2.8698115
10.06452405413958	8.184408	2.8608406
10.082118738974064	8.209445	2.865213
10.099713662116246	8.248514	2.8720226
10.117308823990651	8.259281	2.8738966
10.134904225021844	8.194647	2.8626294
10.152499865634445	8.162402	2.8569918
10.170095746253125	8.181313	2.8602993
10.18769186730261	8.340983	2.888076
10.205288229207675	8.35847	2.8911018
10.222884832393145	8.271991	2.876107
10.2404816772839	8.156084	2.8558857
10.258078764304868	8.097423	2.845597
10.275676093881035	8.068876	2.8405766
10.293273666437438	8.086657	2.8437047
10.310871482399158	8.105442	2.8470058
10.32846954219134	8.077489	2.8420923
10.346067846239173	8.062828	2.8395119
10.363666394967908	8.064733	2.8398473
10.38126518880283	8.0934515	2.8448992
10.398864228169298	8.159271	2.856444
10.416463513492713	8.182015	2.8604221
10.434063045198531	8.164957	2.8574388
10.451662823712262	8.162215	2.856959
10.469262849459467	8.131007	2.8514922
10.486863122865758	8.0261545	2.833047
10.504463644356806	7.983103	2.8254385
10.522064414358338	7.9269986	2.8154926
10.539665433296118	7.9300165	2.8160286
10.557266701595987	7.880634	2.8072467
10.574868219683818	7.7727265	2.787961
10.592469987985552	7.687293	2.7725968
10.610072006927185	7.567425	2.7508953
10.627674276934751	7.4731865	2.733713
10.64527679843435	7.3821754	2.717016
10.662879571852143	7.3282075	2.7070663
10.680482597614331	7.196607	2.6826494
10.698085876147173	7.1022415	2.665003
10.715689407876988	6.9469895	2.6357143
10.733293193230146	6.856357	2.6184647
10.750897232633072	6.7605395	2.6001039
10.76850152651225	6.7034283	2.589098
10.786106075294207	6.6310673	2.5750859
10.803710879405534	6.505133	2.5505164
10.821315939272877	6.413773	2.5325427
10.83892125532294	6.317249	2.5134137
10.856526827982472	6.2809176	2.506176
10.874132657678285	6.2555118	2.5011022
10.891738744837243	6.180991	2.48616
10.909345089886271	6.0760922	2.464973
10.926951693252343	6.013843	2.452314
10.944558555362494	5.9535975	2.4399996
10.96216567664381	5.8972363	2.4284227
10.979773057523436	5.7991447	2.4081414
10.997380698428573	5.7315674	2.3940692
11.014988599786477	5.697579	2.3869603
11.032596762024461	5.6916604	2.38572
11.050205185569892	5.640252	2.3749216
11.067813870850198	5.5963864	2.3656683
11.085422818292859	5.5310006	2.3518078
11.10303202832541	5.5097594	2.3472877
11.120641501375454	5.4557447	2.3357537
11.138251237870636	5.36071	2.3153207
11.155861238238671	5.3044057	2.3031294
11.173471502907317	5.2372127	2.2884958
11.191082032304402	5.237842	2.2886333
11.208692826857805	5.1418495	2.2675648
11.226303886995465	5.072556	2.2522335
11.243915213145371	4.9791756	2.2314067
11.261526805735578	4.9485717	2.2245386
11.279138665194196	4.931115	2.2206113
11.296750791949393	4.877187	2.2084353
11.314363186429393	4.8137712	2.1940308
11.331975849062479	4.7557087	2.1807587
11.34958878027699	4.758112	2.1813097
11.36720198050133	4.768595	2.1837113
11.384815450163948	4.6755247	2.162296
11.402429189693366	4.6126986	2.1477194
11.420043199518153	4.5282598	2.1279707
11.437657480066942	63.468506	7.9667125
11.455272031768422	85.173294	9.228938
11.472886855051353	107.54491	10.370386
11.490501950344528	99.131615	9.956486
11.508117318076819	84.4518	9.189766
11.52573295867715	45.8592	6.771942
11.543348872574514	4.1360483	2.0337276
11.560965060197946	4.0881186	2.0219097
11.57858152197655	4.0792007	2.0197031
11.59619825833949	4.053851	2.0134177
11.613815269715985	4.01048	2.0026183
11.631432556535323	38.493313	6.204298
11.649050119226837	83.04668	9.112995
11.666667958219929	93.45717	9.667325
11.68428607394406	107.71502	10.378585
11.701904466828756	82.52042	9.084075
11.719523137303586	65.4042	8.087286
11.737142085798196	4.6654553	2.1599665
11.754761312742286	3.7866926	1.9459426
11.772380818565619	3.6808913	1.9185649
11.790000603698015	3.6486397	1.9101412
11.80762066856935	3.6382678	1.9074243
11.825241013609572	3.6407778	1.9080822
11.842861639248683	3.635383	1.9066681
11.860482545916748	3.5439758	1.882545
11.878103734043883	3.4795516	1.8653556
11.895725204060282	3.39715	1.843136
11.91334695639619	3.3893292	1.8410131
11.930968991481919	3.3596964	1.8329475
11.948591309747824	3.3487706	1.8299646
11.966213911624347	3.3383315	1.8271102
11.98383679754198	3.3272955	1.8240876
12.001459967931268	3.3185153	1.8216792
12.019083423222835	3.3057559	1.8181738
12.036707163847352	3.2750616	1.8097131
12.05433119023556	3.2178195	1.7938281
12.071955502818259	3.196696	1.7879306
12.089580102026313	3.1947246	1.7873793
12.107204988290643	3.182949	1.7840822
12.12483016204224	3.1822133	1.783876
12.142455623712152	3.1563988	1.7766256
12.16008137373149	3.1402576	1.7720772
12.177707412531431	3.1140172	1.7646579
12.19533374054321	3.1281495	1.7686576
12.212960358198126	3.1156027	1.765107
12.230587265927545	3.1059253	1.7623636
12.248214464162889	3.024767	1.7391857
12.265841953335649	2.990729	1.7293725
12.283469733877375	2.9142628	1.7071213
12.301097806219685	2.9202979	1.7088879
12.31872617079425	2.9307806	1.7119523
12.336354828032825	2.9427783	1.7154528
12.353983778367205	2.9268103	1.7107923
12.371613022229262	2.9348083	1.7131282
12.389242560050928	2.9095666	1.7057452
12.406872392264201	2.9261432	1.7105973
12.424502519301143	2.9120407	1.7064703
12.442132941593874	2.8749888	1.6955792
12.459763659574586	2.8771038	1.6962028
12.477394673675532	2.893283	1.7009653
12.49502598432903	2.9055152	1.7045572
12.51265759196746	2.8527544	1.6890099
12.530289497023267	2.767876	1.6636934
12.547921699928967	2.7300966	1.6523004
12.565554201117134	2.7292607	1.6520474
12.583187001020404	2.7172005	1.6483933
12.600820100071486	2.7538137	1.6594619
12.618453498703152	2.779462	1.6671718
12.636087197348235	2.8000596	1.6733378
12.65372119643964	2.8024929	1.6740648
12.671355496410326	2.7868717	1.6693926
12.68899009769333	2.7633736	1.6623398
12.706625000721749	2.7594676	1.6611645
12.724260205928752	2.8202293	1.6793538
12.741895713747551	2.8750703	1.6956033
12.759531524611454	2.9629219	1.721314
12.777167638953818	2.989704	1.729076
12.794804057208072	2.9632192	1.7214004
12.812440779807702	2.959705	1.7203794
12.830077807186271	3.129984	1.769176
12.847715139777405	3.2192938	1.794239
12.865352778014795	3.4610107	1.8603792
12.882990722332197	3.647586	1.9098655
12.90062897316344	3.716276	1.9277645
12.918267530942412	3.786567	1.9459103
12.935906396103071	3.6327317	1.9059726
12.953545569079449	3.8032565	1.950194
12.971185050305628	3.6695285	1.9156014
12.988824840215775	3.6841986	1.9194267
13.006464939244115	3.6824527	1.9189718
13.024105347824943	3.4907954	1.8683671
13.041746066392617	3.5387375	1.8811532
13.05938709538157	3.329987	1.8248252
13.077028435226296	3.3500428	1.8303123
13.094670086361363	3.288081	1.8133066
13.112312049221401	3.2160506	1.7933351
13.129954324241112	3.129962	1.7691698
13.147596911855258	2.8921869	1.7006431
13.165239812498685	2.8482723	1.6876825
13.182883026606293	2.7486842	1.6579156
13.200526554613058	2.7361963	1.6541451
13.218170396954017	2.7416844	1.6558032
13.235814554064284	2.7375088	1.6545419
13.253459026379034	2.7704203	1.6644579
13.271103814333523	2.7365828	1.654262
13.288748918363058	2.7109087	1.6464838
13.306394338903031	2.6769934	1.636152
13.32404007638889	2.6349943	1.6232666
13.341686131256164	2.6807094	1.6372871
13.359332503940449	2.6450965	1.6263753
13.376979194877402	2.6488934	1.6275421
13.394626204502751	2.6574082	1.6301559
13.412273533252307	2.6933427	1.6411407
13.429921181561937	2.7069316	1.6452756
13.447569149867581	2.7110174	1.6465167
13.465217438605247	2.7110834	1.6465368
13.482866048211022	2.6709042	1.6342901
13.500514979121052	2.642361	1.625534
13.518164231771568	2.6493566	1.6276845
13.535813806598844	2.6842434	1.6383661
13.553463704039254	2.7056162	1.6448758
13.571113924529229	2.6956797	1.6418525
13.588764468505275	2.7124016	1.646937
13.606415336403956	2.7375019	1.6545398
13.624066528661917	2.755266	1.6598994
13.641718045715882	2.7791438	1.6670765
13.659369888002635	2.8545294	1.6895353
13.67702205595903	2.9182973	1.7083025
13.694674550021993	2.983148	1.7271793
13.712327370628532	3.0619128	1.7498323
13.729980518215713	3.1080112	1.7629553
13.747633993220681	3.1870403	1.7852284
13.765287796080647	3.2159157	1.7932974
13.7829419272329	3.2939775	1.8149319
13.800596387114801	3.3393457	1.8273877
13.818251176163775	3.37283	1.8365266
13.835906294817324	3.3939278	1.8422616
13.853561743513023	3.3967519	1.843028
13.871217522688525	3.394796	1.8424972
13.888873632781538	3.4673605	1.862085
13.906530074229858	3.5201092	1.8761954
13.92418684747135	3.555374	1.8855699
13.941843952943948	3.5176253	1.8755333
13.959501391085665	3.4669354	1.8619708
13.977159162334578	3.3892784	1.8409992
13.994817267128846	3.3338816	1.825892
14.012475705906693	3.2444842	1.8012452
14.030134479106424	3.1730351	1.7813015
14.047793587166414	3.0986423	1.7602961
14.065453030525108	3.065771	1.7509344
14.083112809621026	3.016503	1.7368083
14.100772924892766	2.9554827	1.7191517
14.118433376778997	2.8931975	1.7009403
14.136094165718458	2.8395376	1.6850928
14.153755292149969	2.8135738	1.6773711
14.171416756512416	2.7557154	1.6600348
14.189078559244768	2.6946118	1.6415273
14.20674070078606	2.620771	1.6188796
14.224403181575408	2.5568624	1.5990192
14.242066002051999	2.4695778	1.571489
14.259729162655093	2.448541	1.5647814
14.277392663824022	2.4108737	1.5526989
14.295056505998208	2.4080262	1.5517817
14.312720689617128	2.381431	1.5431886
14.330385215120348	2.3775344	1.5419255
14.348050082947497	2.3946893	1.5474783
14.3657152935383	2.4302018	1.5589105
14.383380847332528	2.4050307	1.5508162
14.401046744770051	2.3751857	1.5411638
14.418712986290798	2.3475413	1.5321689
14.436379572334793	2.3556447	1.534811
14.454046503342123	2.3533533	1.5340643
14.471713779752946	2.3490994	1.5326772
14.489381402007504	2.3718953	1.5400959
14.507049370546113	2.3820925	1.5434029
14.524717685809168	2.406116	1.551166
14.542386348237134	2.3965976	1.5480949
14.560055358270553	2.413923	1.5536804
14.577724716350051	2.4357834	1.5606997
14.595394422916325	2.395608	1.5477751
14.61306447841015	2.4091659	1.5521488
14.63073488327237	2.4106185	1.5526167
14.648405637943917	2.4825432	1.5756088
14.6660767428658	2.5042944	1.5824963
14.683748198479094	2.5383816	1.5932299
14.701420005224954	2.5549185	1.5984112
14.719092163544628	2.601952	1.6130568
14.73676467387942	2.676265	1.6359293
14.754437536670727	2.7063024	1.6450843
14.772110752360014	2.7160614	1.6480477
14.78978432138882	2.6925251	1.6408916
14.807458244198777	2.6862106	1.6389663
14.82513252123159	2.6816478	1.6375737
14.842807152929028	2.7333255	1.6532772
14.860482139732962	2.7271402	1.6514056
14.87815748208531	2.6957977	1.6418885
14.8958331804281	2.665974	1.632781
14.91350923520342	2.623286	1.6196561
14.931185646853438	2.6417305	1.6253401
14.948862415820408	2.6370656	1.6239045
14.966539542546656	2.6705098	1.6341695
14.98421702747459	2.6726959	1.6348382
15.001894871046696	2.7040033	1.6443853
15.019573073705542	2.7285635	1.6518364
15.037251635893766	2.6915295	1.6405882
15.054930558054092	2.7169442	1.6483155
15.072609840629323	2.7703004	1.6644219
15.090289484062351	2.944123	1.7158448
15.107969488796124	3.2511625	1.8030981
15.125649855273691	3.6440597	1.908942
15.14333058393817	4.1148386	2.0285065
15.161011675232768	5.0576057	2.248912
15.17869312960076	6.3490644	2.5197349
15.196374947485506	8.164318	2.857327
15.214057129330447	11.102634	3.3320615
15.231739675579114	15.899151	3.9873738
15.249422586675102	21.103842	4.5938916
15.267105863062092	24.36861	4.936457
15.284789505183847	24.758678	4.975809
15.302473513484218	22.845478	4.7796946
15.320157888407127	19.419601	4.406768
15.337842630396578	15.193968	3.897944
15.355527739896656	11.729043	3.4247692
15.37321321735153	8.987936	2.9979887
15.39089906320545	6.498982	2.5493102
15.408585277902748	4.858693	2.2042444
15.42627186188783	3.7344801	1.9324803
15.443958815605198	3.1877794	1.7854353
15.461646139499424	2.8693423	1.6939133
15.479333834015168	2.7254367	1.6508896
15.497021899597165	2.6498384	1.6278324
15.514710336690234	2.6250138	1.6201894
15.53239914573928	2.5772014	1.6053665
15.550088327189297	2.5364902	1.5926362
15.567777881485336	2.4763396	1.5736389
15.58546780907256	2.4842234	1.576142
15.6031581103962	2.4836905	1.5759729
15.620848785901568	2.501946	1.5817541
15.638539836034063	2.4714124	1.5720726
15.656231261239173	2.4652932	1.5701252
15.673923061962451	2.480064	1.5748218
15.691615238649552	2.417529	1.5548406
15.709307791746202	2.380113	1.5427614
15.727000721698221	2.3662138	1.5382502
15.744694028951498	2.4306378	1.5590503
15.76238771395202	2.440022	1.562057
15.780081777145844	2.4242537	1.5570015
15.797776218979125	2.372138	1.5401747
15.815471039898094	2.363097	1.5372368
15.833166240349064	2.374772	1.5410296
15.850861820778437	2.3784912	1.5422357
15.868557781632699	2.3742013	1.5408443
15.886254123358412	2.4031734	1.5502173
15.903950846402232	2.4230373	1.5566108
15.921647951210897	2.4397752	1.561978
15.939345438231225	2.4386168	1.5616071
15.957043307910133	2.4082098	1.5518408
15.974741560694602	2.3721347	1.5401735
15.992440197031714	2.3569663	1.5352415
16.01013921736862	2.4057605	1.5510514
16.02783862215259	2.4551423	1.5668894
16.045538411830933	2.4540389	1.5665373
16.06323858685107	2.4366493	1.560977
16.080939147660512	2.4110801	1.5527654
16.09864009470684	2.4026918	1.550062
16.11634142843774	2.4297323	1.5587598
16.134043149300954	2.4465973	1.5641602
16.15174525774433	2.432373	1.5596067
16.169447754215817	2.416266	1.5544343
16.18715063916342	2.3993862	1.5489953
16.204853913035244	2.4048526	1.5507587
16.222557576279478	2.3969438	1.5482067
16.240261629344403	22.421993	4.7351866
16.257966072678386	42.975433	6.555565
16.275670906729868	38.09121	6.171808
16.293376131947387	2.5358381	1.5924315
16.31108174877957	2.5310457	1.590926
16.328787757675133	2.5508442	1.5971363
16.34649415908287	2.5824795	1.6070095
16.364200953451657	2.613589	1.6166599
16.38190814123048	2.6384668	1.6243358
16.39961572286839	2.668559	1.6335725
16.41732369881455	2.7286806	1.6518718
16.43503206951817	2.727634	1.6515551
16.45274083542859	2.7869158	1.6694058
16.47044999699522	2.8044631	1.6746532
16.488159554667558	2.8486578	1.6877967
16.505869508895184	2.8489208	1.6878747
16.523579860127786	2.887987	1.6994078
16.541290608815117	2.9174135	1.7080438
16.559001755407035	2.9559388	1.7192844
16.57671330035348	2.9996994	1.731964
16.59442524410448	3.0515985	1.7468826
16.61213758711015	3.1614063	1.7780343
16.629850329820705	3.2313802	1.797604
16.647563472686436	3.310363	1.8194404
16.665277016157724	3.3878088	1.8406001
16.682990960685053	3.476602	1.8645649
16.70070530671898	3.554315	1.8852891
16.718420054710155	3.5532901	1.8850173
16.736135205109335	3.529289	1.8786402
16.753850758367335	3.5440228	1.8825575
16.771566714935087	3.5730548	1.8902526
16.789283075263597	3.6416438	1.9083091
16.80699983980398	3.72809	1.9308263
16.82471700900741	3.8484123	1.961737
16.84243458332518	3.9428146	1.9856522
16.860152563208665	3.9908137	1.9977021
16.87787094910932	4.046861	2.011681
16.89558974147871	4.068689	2.0170991
16.913308940768466	4.1321754	2.0327754
16.931028547430333	4.2345476	2.0578017
16.94874856191613	4.310259	2.0761163
16.966468984677785	4.370028	2.0904613
16.98418981616729	4.411661	2.1003954
17.00191105683676	4.4199386	2.102365
17.019632707138374	4.445385	2.1084082
17.03735476752442	4.4824963	2.1171906
17.05507723844728	4.56989	2.1377301
17.072800120359403	4.6016765	2.1451519
17.090523413713353	4.6348853	2.1528783
17.108247118961785	4.65954	2.1585968
17.125971236557437	4.694685	2.166722
17.143695766953133	4.688452	2.1652832
17.161420710601806	4.6645155	2.159749
17.179146067956477	4.678246	2.1629252
17.19687183947025	4.6450477	2.1552372
17.21459802559634	4.587986	2.1419585
17.232324626788028	4.6059637	2.1461508
17.25005164349871	4.6506605	2.156539
17.267779076181863	4.663583	2.159533
17.285506925291074	4.6364737	2.153247
17.30323519127999	4.5749207	2.1389065
17.320963874602384	4.5540795	2.134029
17.33869297571211	4.531505	2.1287332
17.356422495063114	4.53398	2.1293144
17.37415243310944	4.51634	2.125168
17.391882790305218	4.4535375	2.1103406
17.40961356710468	4.472301	2.1147816
17.42734476396215	4.479779	2.1165488
17.445076381332044	4.501118	2.121584
17.462808419668868	4.5662556	2.13688
17.48054087942723	4.744291	2.1781392
17.498273761061835	4.9916196	2.2341933
17.51600706502747	5.3931823	2.3223226
17.533740791779024	6.006479	2.4508119
17.551474941771485	7.430541	2.7259018
17.56920951545993	8.594116	2.9315722
17.586944513299528	11.016942	3.3191779
17.60467993574556	12.714449	3.5657325
17.622415783253373	14.473514	3.8044071
17.64015205627843	15.908124	3.988499
17.657888755276293	17.038774	4.127805
17.675625880702604	17.638144	4.199779
17.69336343301311	17.46291	4.1788645
17.71110141266366	16.644857	4.079811
17.728839820110178	15.593812	3.9489
17.746578655808705	14.568691	3.8168955
17.764317920215372	12.922356	3.5947678
17.7820576137864	11.340396	3.3675504
17.79979773697811	9.304215	3.0502813
17.81753829024692	7.424432	2.724781
17.835279274049356	5.7766585	2.4034681
17.85302068884201	4.7214875	2.1728985
17.870762535081607	4.123438	2.030625
17.888504813224934	3.8210862	1.9547598
17.90624752372891	3.673543	1.9166489
17.923990667050536	3.6112988	1.9003417
17.941734243646895	3.5741868	1.8905519
17.959478253975185	3.4940882	1.869248
17.9772226984927	3.4487882	1.8570913
17.994967577656833	3.3950436	1.8425645
18.01271289192506	3.3939717	1.8422735
18.030458641754965	3.3619921	1.8335736
18.04820482760425	3.3523376	1.8309389
18.06595144993067	3.3324707	1.8255056
18.083698509192125	3.290781	1.814051
18.101446005846576	3.2533588	1.803707
18.119193940352105	3.2184649	1.794008
18.136942313166887	3.183417	1.7842133
18.1546911247492	3.2000742	1.7888751
18.1724403755574	3.153177	1.7757187
18.19019006604997	3.160483	1.7777747
18.207940196685467	3.105445	1.7622273
18.225690767922575	3.088878	1.7575204
18.243441780220046	3.0784388	1.7545481
18.261193234036764	3.0750642	1.753586
18.278945129831676	3.0837092	1.7560493
18.29669746806386	3.024507	1.739111
18.314450249192483	2.9806585	1.7264584
18.3322034736768	2.9590316	1.7201836
18.349957141976184	2.9936998	1.7302312
18.3677112545501	3.0328166	1.7414984
18.385465811858108	3.017043	1.7369637
18.403220814359884	3.0016625	1.7325307
18.420976262515172	3.0676024	1.7514572
18.43873215678387	3.1240206	1.7674899
18.456488497625923	3.1581695	1.7771239
18.474245285501407	3.1949964	1.7874553
18.492002520870486	3.2711194	1.8086236
18.50976020419343	3.3524523	1.8309703
18.527518335930615	3.6435113	1.9087983
18.545276916542516	4.2129774	2.052554
18.563035946489688	4.3660717	2.0895147
18.580795426232832	4.811484	2.1935096
18.598555356232698	4.7159004	2.1716125
18.616315736950185	5.000517	2.2361836
18.63407656884626	4.668099	2.1605785
18.65183785238201	4.870091	2.2068284
18.669599588018617	4.6296864	2.1516707
18.68736177621737	4.587768	2.1419077
18.705124417439652	4.6066413	2.1463087
18.72288751214696	4.4726872	2.114873
18.740651060800886	4.645411	2.1553216
18.758415063863115	4.351517	2.086029
18.77617952179546	4.499808	2.121275
18.793944435059814	4.202677	2.050043
18.811709804118184	4.173958	2.0430267
18.829475629432675	4.2159944	2.0532887
18.8472419114655	4.0815034	2.0202732
18.86500865067897	4.1405654	2.034838
18.88277584753551	3.7116847	1.9265733
18.90054350249763	3.6891005	1.9207032
18.918311616027957	3.3874846	1.840512
18.936080188589226	3.312898	1.8201368
18.953849220644265	3.0368462	1.7426549
18.971618712656007	2.8705192	1.6942606
18.9893886650875	2.8311324	1.6825969
19.007159078401887	8.017266	2.8314776
19.024929953062408	32.88806	5.7348113
19.042701289532435	32.861572	5.7325015
19.060473088275405	25.42413	5.0422344
19.07824534975489	2.7302985	1.6523615
19.096018074434568	2.695001	1.6416458
19.113791262778197	2.6706653	1.634217
19.13156491524966	2.6120296	1.6161774
19.149339032312945	2.5783837	1.6057346
19.167113614432136	2.5549083	1.5984081
19.184888662071433	2.552519	1.5976605
19.202664175695123	2.549788	1.5968056
19.220440155767623	2.5183058	1.586917
19.238216602753447	2.4800937	1.5748314
19.2559935171172	2.4767032	1.5737544
19.27377089932361	2.4723792	1.5723801
19.291548749837514	2.4699686	1.5716133
19.309327069123835	2.438812	1.5616696
19.32710585764763	2.446894	1.5642551
19.344885115874032	2.4521832	1.5659448
19.362664844268313	2.45632	1.5672652
19.380445043295822	2.4341908	1.5601894
19.39822571342203	2.4145958	1.553897
19.41600685511252	2.46872	1.5712161
19.43378846883297	2.4828486	1.5757058
19.451570555049173	2.5119548	1.5849148
19.469353114227037	2.4886637	1.5775499
19.48713614683254	2.4939256	1.5792167
19.50491965333182	2.4964406	1.5800129
19.52270363419109	2.504185	1.5824617
19.540488089876686	2.5038254	1.5823481
19.55827302085503	2.4951386	1.5796008
19.576058427592674	2.4909925	1.5782878
19.593844310556282	2.4924023	1.5787344
19.611630670212598	2.5092185	1.5840513
19.629417507028506	2.5042562	1.5824842
19.64720482147098	2.503785	1.5823352
19.6649926140071	2.5063035	1.583131
19.682780885104084	2.5131433	1.5852897
19.70056963522921	2.468184	1.5710455
19.718358864849908	2.4461818	1.5640274
19.7361485744337	2.446498	1.5641285
19.753938764448215	2.4665642	1.5705299
19.771729435361202	2.491737	1.5785236
19.789520587640506	2.492146	1.5786532
19.807312221754092	2.5271888	1.5897135
19.825104338170043	2.535407	1.5922961
19.842896937356517	2.5473256	1.5960343
19.860690019781824	2.5236626	1.588604
19.87848358591436	2.5224097	1.5882096
19.896277636222635	2.511069	1.5846353
19.914072171175278	2.5190089	1.5871385
19.931867191241015	2.5295112	1.5904437
19.94966269688869	2.5199196	1.5874255
19.967458688587264	2.492068	1.5786285
19.985255166805807	2.4722292	1.5723324
20.00305213201348	2.4868398	1.5769717
20.020849584679578	2.5110338	1.5846242
20.038647525273507	2.5023997	1.5818975
20.05644595426477	2.45072	1.5654776
20.07424487212299	2.4216223	1.5561563
20.092044279317903	2.4221637	1.5563302
20.109844176319353	2.4164264	1.5544859
20.127644563597304	2.4266915	1.5577842
20.145445441621817	2.4344454	1.5602709
20.16324681086307	2.4623873	1.5691996
20.181048671791373	2.456458	1.5673091
20.198851024877122	2.4191153	1.5553505
20.216653870590836	2.350617	1.5331721
20.234457209403146	2.332412	1.5272236
20.252261041784802	2.3369405	1.5287055
20.270065368206662	2.3382854	1.5291454
20.287870189139685	2.3396657	1.5295966
20.305675505054968	2.3526971	1.5338504
20.323481316423702	2.3349605	1.5280577
20.341287623717207	2.3362467	1.5284786
20.359094427406884	2.354563	1.5344585
20.376901727964288	2.3709729	1.5397964
20.39470952586107	2.3414416	1.530177
20.41251782156899	2.3430326	1.5306967
20.430326615559935	2.3561327	1.5349699
20.448135908305886	2.3547666	1.5345249
20.465945700278965	2.3426802	1.5305817
20.483755991951384	2.3411171	1.5300709
20.50156678379548	2.3250663	1.5248169
20.519378076283708	2.3069088	1.5188512
20.537189869888635	2.33399	1.5277402
20.55500216508294	2.3389556	1.5293645
20.572814962339415	2.3331404	1.5274621
20.59062826213098	2.316682	1.522065
20.60844206493066	2.3146205	1.5213877
20.626256371211593	2.3333004	1.5275145
20.644071181447032	2.3332767	1.5275067
20.66188649611036	2.3380024	1.5290527
20.67970231567506	2.3407874	1.5299633
20.697518640614742	2.3094666	1.5196929
20.715335471403122	2.2757778	1.5085682
20.73315280851404	2.2644444	1.5048071
20.750970652421447	2.262318	1.5041003
20.768789003599412	2.2781618	1.509358
20.786607862522136	2.3084762	1.5193671
20.8044272296639	2.2950943	1.5149568
20.82224710549913	2.277218	1.5090455
20.84006749050237	2.2818482	1.5105788
20.857888385148268	3.869984	1.9672275
20.8757097899116	46.00761	6.782891
20.893531705267254	64.83717	8.052154
20.911354131690224	83.81314	9.154952
20.92917706965566	69.06221	8.310368
20.94700051963877	50.155254	7.0820374
20.96482448211493	29.450727	5.426852
20.982648957559622	4.1912746	2.0472603
21.00047394644843	2.2676919	1.5058857
21.01829944925707	2.248956	1.4996519
21.036125466461375	2.2400641	1.4966844
21.053951998537297	2.2501616	1.5000539
21.071779045960906	2.209399	1.4864048
21.089606609208378	2.1998777	1.4831985
21.10743468875603	2.1710713	1.4734555
21.12526328508028	2.1826944	1.4773945
21.143092398657675	2.2082076	1.4860039
21.16092202996488	2.2060251	1.4852694
21.17875217947867	2.1816409	1.4770379
21.19658284767596	2.1716347	1.4736468
21.21441403503377	2.2000027	1.4832406
21.232245742029225	2.1709342	1.473409
21.2500779691396	2.1559577	1.468318
21.26791071684227	2.1545384	1.4678346
21.28574398561475	2.142716	1.4638019
21.30357777593465	2.1388652	1.462486
21.321412088279704	2.1581538	1.4690657
21.339246923127792	2.181082	1.4768487
21.357082280956888	2.1813595	1.4769427
21.3749181622451	2.19101	1.480206
21.392754567470647	2.1845121	1.4780095
21.41059149711187	2.1866596	1.4787358
21.42842895164726	2.1621897	1.4704386
21.446266931555378	2.1459694	1.4649128
21.464105437314945	2.0813992	1.4427055
21.481944469404798	2.0759373	1.4408113
21.49978402830388	2.0657613	1.4372756
21.51762411449127	2.0948055	1.4473443
21.53546472844617	2.0749505	1.4404688
21.553305870647876	2.0629609	1.4363011
21.571147541575865	2.0571883	1.4342902
21.58898974170967	2.0789008	1.4418393
21.60683247152899	2.088129	1.445036
21.62467573151363	2.0484858	1.4312532
21.642519522143523	2.047498	1.4309081
21.660363843898722	2.0604832	1.4354384
21.6782086972594	2.0595396	1.4351096
21.696054082705864	2.0507576	1.4320467
21.713900000718535	2.0677712	1.4379747
21.73174645177795	2.0401812	1.4283491
21.749593436364794	2.035738	1.4267929
21.767440954959845	2.0211408	1.4216683
21.785289008044032	2.012238	1.4185338
21.803137596098388	2.0370233	1.4272432
21.820986719604086	2.0429292	1.4293107
21.838836379042412	2.0437882	1.4296112
21.85668657489478	1.9948286	1.412384
21.87453730764273	1.9648765	1.4017406
21.892388577767914	1.9670582	1.4025185
21.91024038575213	2.009457	1.4175532
21.928092732077285	2.025145	1.4230759
21.945945617225426	2.0115771	1.4183007
21.963799041678694	1.9757812	1.4056249
21.981653005919398	31.285744	5.593366
21.999507510429943	78.06876	8.835653
22.01736255569286	73.029274	8.545716
22.035218142190818	4.1555295	2.0385115
22.05307427040661	2.002061	1.414942
22.07093094082315	1.982036	1.407848
22.088788153923474	1.9839709	1.408535
22.106645910190746	2.012614	1.4186662
22.12450421010827	2.020816	1.4215541
22.142363054159464	1.9909316	1.4110037
22.16022244282787	1.9656405	1.4020131
22.178082376597164	1.9706061	1.4037827
22.195942855951145	1.9602832	1.4001011
22.213803881373742	1.9846207	1.4087657
22.231665453349002	2.000221	1.4142917
22.24952757236111	2.0039506	1.4156096
22.26739023889438	1.9851846	1.4089658
22.28525345343323	1.9968632	1.4131042
22.30311721646225	2.0116587	1.4183295
22.320981528466113	1.9811546	1.407535
22.33884638992964	1.9468796	1.3953062
22.356711801337788	1.9384421	1.3922795
22.37457776317561	1.9444722	1.3944433
22.392444275928337	1.9404618	1.3930045
22.410311340081282	1.9432632	1.3940097
22.428178956119904	1.9366729	1.391644
22.446047124529805	1.9728713	1.4045894
22.46391584579669	1.9733176	1.4047482
22.481785120406414	1.9818666	1.4077878
22.49965494884496	1.9596181	1.3998636
22.51752533159841	1.9660112	1.4021451
22.53539626915302	1.9492733	1.3961638
22.553267761995137	1.9537915	1.3977809
22.571139810611264	1.9478458	1.3956524
22.589012415488025	1.9326777	1.3902078
22.60688557711216	1.9479407	1.3956865
22.624759295970566	1.9526641	1.3973776
22.642633572550263	1.9623562	1.4008412
22.660508407338362	1.9256041	1.3876613
22.67838380082217	1.9498677	1.3963766
22.696259753489077	1.954649	1.3980876
22.714136265826614	1.9633427	1.4011933
22.73201333832246	1.9411032	1.3932348
22.74989097146439	1.9304473	1.3894054
22.76776916574035	1.9317653	1.3898796
22.785647921638393	1.9256204	1.3876673
22.803527239646712	1.9112839	1.382492
22.82140712025363	1.8924176	1.3756517
22.839287563947593	1.8626783	1.3647997
22.85716857121719	1.8674619	1.3665512
22.875050142551135	1.9069896	1.3809379
22.892932278438277	1.9446272	1.394499
22.910814979367604	1.9526992	1.3973901
22.928698245828222	1.947172	1.395411
22.946582078309387	1.9564284	1.3987238
22.96446647730047	1.9375552	1.3919609
22.98235144329098	1.9088051	1.3815951
23.000236976770562	1.8866327	1.3735474
23.018123078229	1.8685353	1.3669437
23.03600974815619	1.8866686	1.3735605
23.053896987042194	1.8926883	1.3757501
23.071784795377173	1.9082357	1.381389
23.08967317365145	1.9144411	1.3836333
23.10756212235546	1.9085174	1.381491
23.125451641979787	1.901422	1.3789206
23.143341733015134	1.9495772	1.3962727
23.161232395952357	1.9790102	1.406773
23.179123631282426	1.9494218	1.396217
23.197015439496468	1.9218231	1.3862984
23.214907821085717	1.9097781	1.3819473
23.23280077654157	1.9219211	1.3863337
23.250694306355538	1.8957812	1.3768737
23.268588411019277	1.8911629	1.3751956
23.28648309102458	1.927457	1.3883288
23.304378346863356	1.9906139	1.4108912
23.322274179027676	2.0096362	1.4176164
23.340170588009723	1.9960418	1.4128134
23.358067574301852	1.9757218	1.4056038
23.37596513839651	1.9235556	1.3869231
23.39386328078629	1.8933165	1.3759784
23.411762001963947	1.8834426	1.3723857
23.429661302422353	1.9241782	1.3871475
23.4475611826545	1.9519379	1.3971177
23.46546164315356	1.9459889	1.3949871
23.48336268441279	1.942573	1.3937621
23.501264306925638	1.9373989	1.3919048
23.51916651118564	1.9462341	1.395075
23.537069297686497	1.95025	1.3965136
23.554972666922037	1.965046	1.401801
23.57287661938623	1.9629787	1.4010634
23.59078115557318	1.9679472	1.4028355
23.608686275977128	1.9415777	1.3934051
23.62659198109246	1.911488	1.3825657
23.6444982714137	1.8970313	1.3773276
23.66240514743549	1.8947021	1.3764818
23.68031260965263	1.9073347	1.3810629
23.698220658560068	1.9357582	1.3913153
23.716129294652845	1.9604112	1.4001468
23.7340385184262	1.9365386	1.3915957
23.75194833037546	1.9245633	1.3872863
23.769858730996123	1.8768919	1.369997
23.78776972078382	1.8787094	1.3706602
23.80568130023431	1.8861626	1.3733764
23.823593469843495	1.8910913	1.3751695
23.841506230107424	1.8704793	1.3676547
23.859419581522275	1.8925159	1.3756875
23.87733352458438	1.8801212	1.3711752
23.89524805979019	1.8931836	1.3759301
23.913163187636318	1.8951045	1.3766279
23.931078908619508	1.9334426	1.3904829
23.948995223236633	1.970681	1.4038094
23.966912131984735	2.0138335	1.419096
23.98482963536096	2.007838	1.416982
24.002747733862616	1.9987391	1.4137677
24.020666427987155	2.0248117	1.4229589
24.038585718232156	2.0328999	1.4257979
24.056505605095353	2.0322645	1.4255751
24.074426089074617	2.0825424	1.4431016
24.092347170667946	2.040103	1.4283217
24.110268850373515	2.0283284	1.424194
24.128191128689586	2.0624716	1.4361308
24.146114006114626	2.0451975	1.430104
24.164037483147187	2.0378854	1.4275452
24.181961560286005	2.0307887	1.4250574
24.199886238029926	2.0446658	1.4299182
24.21781151687797	2.0767472	1.4410924
24.235737397329274	2.101812	1.4497627
24.253663879883135	2.0384285	1.4277354
24.271590965038975	2.0074396	1.4168414
24.289518653296376	1.9880929	1.4099975
24.30744694515505	2.005018	1.4159865
24.32537584111486	2.0304337	1.4249328
24.34330534167581	2.0105293	1.4179313
24.361235447338046	1.9887832	1.4102423
24.379166158601876	1.9821792	1.4078989
24.39709747596772	1.9625597	1.4009138
24.41502939993615	1.912116	1.3827928
24.432961931007917	1.8946736	1.3764714
24.450895069683856	1.9379185	1.3920914
24.468828816465	1.9818182	1.4077706
24.4867631718525	1.9821031	1.4078718
24.504698136347656	1.9458252	1.3949283
24.52263371045192	1.9526596	1.397376
24.540569894666874	1.9928782	1.4116933
24.558506689494266	1.967302	1.4026054
24.57644409543597	1.96977	1.403485
24.594382112994012	1.9436688	1.3941553
24.61232074267057	1.9921823	1.4114468
24.630259984967953	1.9985646	1.413706
24.64819984038863	1.9955872	1.4126525
24.66614030943522	1.9287472	1.3887935
24.684081392610462	1.9021109	1.3791704
24.702023090417274	1.9173877	1.3846977
24.7199654033587	1.9691693	1.403271
24.737908331937927	1.9848822	1.4088585
24.755851876658305	1.9925091	1.4115627
24.773796038023324	2.0076108	1.4169018
24.79174081653661	2.0560687	1.4338998
24.809686212701962	2.0706527	1.4389763
24.827632227023294	2.0784833	1.4416946
24.8455788600047	2.0417268	1.4288901
24.8635261121504	2.0630252	1.4363235
24.88147398396475	2.0960453	1.4477725
24.899422475952303	2.1238317	1.4573373
24.917371588617698	2.1296453	1.4593304
24.935321322465768	2.1419933	1.463555
24.953271678001478	2.2393336	1.4964403
24.97122265572994	2.4363177	1.5608708
24.989174256156414	2.8062649	1.675191
25.00712647978632	3.2786505	1.8107045
25.02507932712521	3.836562	1.9587144
25.043032798678798	4.320913	2.0786805
25.060986894952933	4.980044	2.2316012
25.078941616453637	5.7212443	2.3919122
25.096896963687055	6.698284	2.5881042
25.114852937159508	8.004675	2.8292534
25.132809537377444	8.591037	2.931047
25.150766764847468	8.59635	2.9319532
25.168724620076347	7.848968	2.801601
25.186683103570985	6.773891	2.60267
25.204642215838426	5.6226535	2.3712134
25.222601957385894	4.238148	2.0586762
25.24056232872074	3.118271	1.7658627
25.25852333035048	2.532303	1.5913212
25.276484962782778	2.1965218	1.4820668
25.294447226525435	2.045566	1.4302329
25.312410122086423	1.9403567	1.3929669
25.330373649973843	1.8695885	1.367329
25.348337810695988	1.8810573	1.3715165
25.366302604761245	1.886531	1.3735105
25.384268032678207	1.8968785	1.3772721
25.40223409495558	1.9276428	1.3883958
25.420200792102257	1.9252763	1.3875432
25.438168124627246	1.8908266	1.3750733
25.45613609303974	1.8736172	1.3688014
25.474104697849057	1.8760368	1.3696849
25.492073939564698	1.8569719	1.3627075
25.510043818696285	1.8658341	1.3659554
25.528014335753614	1.8840295	1.3725996
25.54598549124664	1.9215727	1.386208
25.56395728568544	1.9164008	1.3843412
25.58192971958028	1.8919438	1.3754795
25.59990279344156	1.8191224	1.3487484
25.617876507779833	1.784666	1.3359139
25.635850863105826	1.7889045	1.3374994
25.653825859930386	1.7972794	1.3406265
25.671801498764548	1.8253889	1.3510696
25.68977778011949	1.8558419	1.3622929
25.707754704506524	1.8397052	1.3563573
25.725732272437153	1.8245107	1.3507445
25.743710484423012	1.8591158	1.363494
25.761689340975888	1.9042157	1.3799332
25.77966884260774	1.9316256	1.3898294
25.797648989830662	1.914843	1.3837785
25.815629783156922	1.8750772	1.3693346
25.83361122309895	1.8452604	1.3584036
25.85159331016929	1.8158628	1.3475395
25.869576044880695	1.7910743	1.3383102
25.887559427746034	1.791489	1.3384652
25.90554345927836	1.8294559	1.3525738
25.92352813999086	1.870477	1.3676538
25.94151347039689	1.8898797	1.3747289
25.959499451009965	1.8716667	1.3680887
25.97748608234374	1.862317	1.3646673
25.995473364912062	1.8431842	1.3576392
26.013461299228904	1.8337381	1.3541559
26.03144988580839	1.7744851	1.332098
26.04943912516483	1.7452509	1.3210795
26.067429017812675	1.7351557	1.3172531
26.085419564266537	1.7761499	1.3327228
26.103410765041186	1.8513913	1.3606584
26.12140262065155	1.8612313	1.3642695
26.139395131612723	1.8350248	1.3546308
26.157388298439948	1.8168498	1.3479058
26.17538212164861	1.8141872	1.3469176
26.193376601754295	1.8232254	1.3502686
26.211371739272714	1.8167361	1.3478636
26.229367534719746	1.851774	1.3607991
26.247363988611433	1.8810225	1.3715037
26.26536110146397	1.8702797	1.3675817
26.283358873793727	1.8632009	1.3649912
26.301357306117204	1.8473877	1.3591864
26.319356398951104	1.8492607	1.3598752
26.33735615281224	1.8465916	1.3588935
26.35535656821762	1.8392646	1.3561949
26.373357645684404	1.8133554	1.3466089
26.39135938572991	1.8172483	1.3480536
26.409361788871614	1.8512104	1.3605919
26.427364855627165	1.8338095	1.3541822
26.445368586514352	1.7925254	1.3388523
26.46337298205115	1.8375055	1.3555462
26.48137804275568	1.8913722	1.3752717
26.499383769146217	1.9053028	1.3803271
26.517390161741215	1.8725971	1.3684287
26.53539722105928	1.7980729	1.3409225
26.553404947619182	1.7380499	1.3183511
26.571413341939856	1.7507017	1.3231409
26.589422404540397	1.7586585	1.3261442
26.60743213594006	1.759326	1.3263959
26.62544253665827	1.7735085	1.3317314
26.64345360721459	1.7489154	1.3224657
26.66146534812879	1.7492626	1.3225969
26.679477759920758	1.7426999	1.3201135
26.69749084311057	1.8052223	1.3435856
26.71550459821847	1.8734728	1.3687487
26.733519025764842	1.8489907	1.359776
26.751534126270258	1.755161	1.3248249
26.769549900255434	1.7641056	1.3281964
26.787566348241267	1.8069445	1.3442264
26.80558347074881	1.8283324	1.3521584
26.823601268299267	1.8279787	1.3520277
26.841619741414036	1.8255847	1.3511419
26.85963889061465	1.7711883	1.33086
26.877658716422832	1.8214028	1.3495935
26.89567921936045	1.879912	1.3710989
26.913700399949544	1.8564768	1.3625259
26.93172225871233	1.8125368	1.3463049
26.949744796171174	1.8357233	1.3548887
26.967768012848605	1.8460904	1.3587091
26.98579190926733	1.794847	1.339719
27.003816485950225	1.7846469	1.3359067
27.021841743420318	1.7585863	1.326117
27.039867682200814	1.7522233	1.3237157
27.057894302815072	1.7335848	1.3166567
27.07592160578664	1.7778184	1.3333486
27.0939495916392	1.8438784	1.3578948
27.111978260896635	1.874208	1.3690171
27.13000761408296	1.79101	1.3382863
27.148037651722397	1.752795	1.3239317
27.166068374339304	1.7747966	1.332215
27.184099782458215	1.7804323	1.3343284
27.20213187660384	1.7629555	1.3277633
27.22016465730105	1.7842286	1.3357502
27.23819812507487	1.812238	1.3461939
27.256232280450533	1.8245472	1.350758
27.274267123953383	1.8262924	1.3514038
27.292302656108987	1.834907	1.3545874
27.31033887744306	1.8234725	1.3503602
27.32837578848146	1.8600172	1.3638245
27.34641338975026	1.8739661	1.3689288
27.364451681775673	1.8542407	1.3617051
27.382490665084074	1.7983062	1.3410094
27.400530340202046	1.7586831	1.3261535
27.41857070765629	1.760109	1.326691
27.436611767973726	1.8226191	1.3500441
27.454653521681404	1.8761952	1.3697428
27.472695969306564	1.8091997	1.345065
27.490739111376627	1.7998536	1.3415862
27.508782948419153	1.8217652	1.3497279
27.526827480961902	1.8358636	1.3549404
27.54487270953279	1.8105316	1.34556
27.562918634659898	1.8180342	1.3483449
27.580965256871508	1.832696	1.353771
27.599012576696026	1.7822615	1.3350136
27.617060594662068	1.7546196	1.3246206
27.63510931129842	1.7866772	1.3366665
27.65315872713401	1.7995064	1.3414568
27.67120884269797	1.8026466	1.3426268
27.68925965851958	1.794175	1.3394682
27.707311175128307	1.8713027	1.3679557
27.725363393053787	1.888942	1.3743879
27.74341631282583	1.9008179	1.3787016
27.7614699349744	1.8623197	1.3646684
27.77952426002968	2.008233	1.4171214
27.797579288521973	2.1141315	1.4540054
27.815635020981784	2.4856248	1.5765865
27.83369145793979	2.5005798	1.5813222
27.85174859992682	2.3725443	1.5403066
27.869806447473923	2.2541583	1.5013855
27.887865001112267	1.9813628	1.4076089
27.905924261373233	1.8833942	1.3723681
27.92398422878836	1.8881978	1.3741171
27.94204490388936	1.8874209	1.3738344
27.96010628720813	1.8767847	1.3699579
27.978168379276728	1.8066938	1.3441331
27.9962311806274	1.7932035	1.3391055
28.014294691792568	1.8310627	1.3531677
28.0323589133048	1.8805146	1.3713186
28.050423845696887	1.862258	1.3646457
28.068489489501758	1.8898593	1.3747215
28.086555845252523	1.9382669	1.3922166
28.104622913482487	1.9407761	1.3931174
28.122690694725115	1.9198864	1.3855996
28.14075918951405	1.92967	1.3891256
28.15882839838312	1.9044942	1.3800341
28.176898321866304	1.8868668	1.3736327
28.1949689604978	1.8919477	1.3754809
28.213040314811945	1.8688071	1.3670431
28.23111238534327	1.8360903	1.3550241
28.249185172626493	1.8228303	1.3501223
28.267258677196473	1.9092336	1.3817502
28.285332899588294	1.9516268	1.3970064
28.303407840337172	1.9743621	1.40512
28.321483499978545	1.9609357	1.4003341
28.33955987904799	1.9973999	1.413294
28.357636978081285	1.9651842	1.4018502
28.37571479761439	1.9424394	1.3937143
28.393793338183425	1.9371058	1.3917994
28.41187260032469	1.9311883	1.389672
28.429952584574686	1.9291306	1.3889314
28.448033291470065	1.9470487	1.3953669
28.46611472154769	1.9600534	1.400019
28.484196875344566	1.9297639	1.3891594
28.502279753397914	1.9216189	1.3862247
28.52036335624511	1.9350543	1.3910623
28.538447684423716	1.952308	1.3972502
28.556532738471482	1.9727885	1.4045599
28.574618518926325	2.0308082	1.4250643
28.59270502632635	2.082591	1.4431186
28.61079226120985	2.096947	1.4480839
28.628880224115274	2.0933259	1.446833
28.646968915581287	2.0826552	1.4431407
28.66505833614671	2.0424752	1.4291519
28.68314848635055	2.0808196	1.4425046
28.701239366732004	2.100649	1.4493617
28.71933097783044	2.1152945	1.4544052
28.737423320185403	2.09874	1.4487029
28.75551639433665	2.119709	1.455922
28.773610200824074	2.0729296	1.4397672
28.791704740187793	2.070501	1.4389236
28.80980001296809	2.1190417	1.4556929
28.827896019705413	2.1584473	1.4691654
28.845992760940433	2.1414526	1.4633703
28.86409023721397	2.1705916	1.4732928
28.88218844906704	2.1811354	1.4768667
28.900287397040845	2.2344286	1.4948006
28.918387081676755	2.2357883	1.4952552
28.936487503516343	2.2988672	1.5162016
28.954588663101365	2.3468804	1.5319531
28.97269056097374	2.3118424	1.5204744
28.990793197675597	2.3051095	1.5182587
29.00889657374923	2.3454146	1.5314747
29.027000689737125	2.3889422	1.5456203
29.04510554618196	2.3669822	1.5385
29.06321114362659	2.3782904	1.5421706
29.08131748261405	2.4584846	1.5679556
29.099424563687567	2.5155094	1.5860357
29.11753238739057	2.5433445	1.5947866
29.13564095426663	2.561188	1.6003712
29.15375026485954	2.595832	1.6111586
29.171860319713275	2.5946658	1.6107966
29.18997111937199	2.5935996	1.6104656
29.20808266438002	2.6746712	1.6354421
29.226194955281898	2.783714	1.6684465
29.244307992622335	2.870541	1.6942672
29.26242177694624	2.8926892	1.7007908
29.2805363087987	2.857745	1.6904866
29.29865158872498	2.85105	1.6885052
29.316767617270557	2.8496509	1.6880909
29.334884394981064	2.908673	1.7054832
29.353001922402367	3.003475	1.7330537
29.37112020008047	3.0881307	1.7573078
29.389239228561596	3.1132286	1.7644343
29.407359008392152	3.2982283	1.8161025
29.42547954011872	3.5887904	1.8944103
29.44360082428809	4.3019204	2.0741072
29.46172286144722	5.4233723	2.3288136
29.479845652143283	7.048283	2.6548603
29.497969196923606	9.068282	3.0113587
29.516093496335728	11.734141	3.4255133
29.5342185509274	14.722258	3.8369594
29.55234436124651	17.22867	4.1507435
29.570470927841175	18.77343	4.332832
29.588598251259686	18.654186	4.3190494
29.60672633205055	17.126219	4.1383834
29.624855170762405	14.824939	3.8503168
29.642984767944146	11.98571	3.4620385
29.66111512414481	9.217427	3.0360217
29.67924623991366	6.818311	2.6111896
29.697378115800138	5.18765	2.2776413
29.71551075235387	4.235123	2.0579414
29.733644150124675	3.717636	1.9281173
29.751778309662576	3.458488	1.859701
29.769913231517766	3.4278376	1.851442
29.78804891624066	3.4134479	1.8475518
29.806185364381818	3.3937402	1.8422107
29.82432257649206	3.376899	1.8376341
29.842460553122333	3.366662	1.8348466
29.86059929482382	3.2986627	1.8162221
29.878738802147872	3.2912843	1.8141897
29.896879075646048	3.304912	1.8179417
29.915020115870114	3.2911644	1.8141567
29.933161923371976	3.2630138	1.8063815
29.951304498703777	3.2115865	1.7920899
29.969447842417857	3.1962655	1.7878102
29.987591955066733	3.1239243	1.7674626
30.005736837203123	3.1159568	1.7652073
30.023882489379943	3.172339	1.7811061
30.04202891215028	3.1737578	1.7815044
30.060176106067455	3.1396055	1.7718931
30.078324071684946	3.1061876	1.7624379
30.09647280955646	3.1911352	1.7863749
30.114622320235863	3.1886842	1.7856888
30.132772604277257	3.1263287	1.7681427
30.1509236622349	3.045355	1.7450945
30.16907549466328	3.0635064	1.7502875
30.18722810211705	3.0458481	1.7452358
30.205381485151097	3.0707262	1.7523488
30.22353564432045	3.0668643	1.7512465
30.241690580180403	3.0495777	1.746304
30.25984629328638	3.0279586	1.740103
30.278002784194037	3.0390885	1.7432982
30.296160053459246	3.0193367	1.7376238
30.314318101638033	2.9858801	1.72797
30.332476929286646	2.9418743	1.7151893
30.35063653696153	2.91752	1.7080749
30.368796925219307	2.917846	1.7081704
30.386958094616844	2.97488	1.724784
30.40512004571115	2.9692914	1.7231632
30.423282779059463	2.9321313	1.7123467
30.441446295219233	2.869692	1.6940166
30.459610594748067	2.8102365	1.676376
30.47777567820382	2.785788	1.669068
30.495941546144504	2.7427623	1.6561288
30.51410819912835	2.744362	1.6566117
30.532275637713795	2.7836149	1.6684169
30.55044386245946	2.8481905	1.6876583
30.56861287392416	2.8410633	1.6855454
30.586782672666956	2.7466824	1.6573118
30.604953259247047	2.703954	1.6443704
30.623124634223885	2.7552702	1.6599007
30.641296798157075	2.8315752	1.6827285
30.659469751606462	2.8677173	1.6934335
30.677643495132074	2.8422976	1.6859115
30.695818029294152	2.7930064	1.671229
30.713993354653116	2.786589	1.669308
30.73216947176962	2.8043954	1.6746329
30.75034638120448	2.8108966	1.6765729
30.768524083518756	2.7688303	1.6639802
30.786702579273673	2.8130288	1.6772087
30.80488186903069	2.874062	1.695306
30.82306195335144	2.9896927	1.7290728
30.841242832797782	3.1551096	1.7762629
30.85942450793176	3.4246495	1.8505808
30.877606979315637	3.735537	1.9327538
30.895790247511883	4.1096344	2.0272233
30.913974313083134	4.5634737	2.1362288
30.932159176592283	4.9121175	2.2163298
30.95034483860237	4.999115	2.2358701
30.968531299676698	4.800495	2.1910033
30.98671856037873	4.3932214	2.0960014
31.00490662127215	4.002043	2.0005107
31.023095482920848	3.5280776	1.8783177
31.04128514588892	3.0671277	1.7513217
31.059475610740662	2.815203	1.6778567
31.07766687804056	2.626449	1.6206323
31.09585894835335	2.4823537	1.5755486
31.11405182224393	2.4587803	1.5680498
31.132245500277417	2.508878	1.5839438
31.15043998301914	2.5561178	1.5987864
31.168635271034628	2.5815017	1.6067052
31.18683136488964	2.5492628	1.5966411
31.20502826515008	2.502079	1.5817962
31.223225972382135	2.447043	1.5643027
31.241424487152155	2.3363476	1.5285115
31.259623810026692	2.298834	1.5161906
31.27782394157253	2.3738828	1.540741
31.296024882356644	2.4318845	1.55945
31.314226632946237	2.514321	1.585661
31.332429193908684	2.5584705	1.599522
31.350632565811598	2.534267	1.5919381
31.368836749222787	2.4738076	1.5728343
31.387041744710295	2.5246246	1.5889068
31.40524755284232	2.5505717	1.5970509
31.423454174187317	2.4887748	1.5775851
31.441661609313922	2.5160995	1.5862217
31.459869858791002	2.4680905	1.5710157
31.478078923187628	2.3467908	1.5319239
31.496288803073064	2.286331	1.5120618
31.514499499016807	2.3151104	1.5215487
31.532711011588546	2.354311	1.5343764
31.550923341358178	2.4347963	1.5603834
31.56913648889584	2.4453971	1.5637766
31.587350454771844	2.3809774	1.5430416
31.605565239556732	2.317816	1.5224376
31.62378084382127	2.2895179	1.5131153
31.641997268136382	2.3278556	1.5257312
31.660214513073274	2.409484	1.5522512
31.67843257920331	2.3517065	1.5335275
31.6966514670981	2.28692	1.5122566
31.71487117732944	2.2863607	1.5120717
31.733091710469346	2.2338972	1.4946227
31.751313067090052	2.1845665	1.4780279
31.769535247764008	2.2436914	1.4978957
31.787758253063878	2.392128	1.5466505
31.805982083562526	2.4361475	1.5608163
31.824206739833024	2.3353512	1.5281856
31.84243222244869	2.27584	1.5085888
31.860658531983013	2.2784705	1.5094603
31.878885669009737	2.3380456	1.5290669
31.897113634102784	2.3032537	1.5176474
31.91534242783632	2.2187748	1.4895552
31.933572050784694	2.145363	1.4647058
31.951802503522508	2.2177145	1.4891993
31.970033786624548	2.2125988	1.4874806
31.988265900665834	2.2534738	1.5011575
32.006498846221575	2.2922843	1.5140291
32.02473262386724	2.2929282	1.5142418
32.04296723417845	2.2892	1.5130103
32.0612026777311	2.372635	1.540336
32.07943895510129	2.3120072	1.5205286
32.097676066865304	2.2433064	1.4977671
32.115914013599685	2.182003	1.4771605
32.13415279588115	2.187479	1.4790128
32.152392414286666	2.1896138	1.4797344
32.1706328693934	2.193143	1.4809264
32.18887416177875	2.1013389	1.4495995
32.20711629202032	2.0763085	1.4409401
32.225359260695924	2.051179	1.4321938
32.243603068383614	2.1526241	1.4671824
32.26184771566166	2.215979	1.4886165
32.28009320310852	2.1454763	1.4647444
32.2983395313029	2.1357937	1.4614354
32.31658670082372	2.228078	1.4926747
32.33483471225012	2.1832232	1.4775734
32.35308356616143	2.127312	1.4585308
32.371333263137245	2.1660528	1.4717516
32.38958380375734	2.1733127	1.474216
32.407835188601744	2.1507034	1.4665277
32.42608741825067	2.0976818	1.4483376
32.444340493284585	2.1146474	1.4541827
32.46259441428416	2.0811028	1.4426028
32.48084918183028	2.0967987	1.4480327
32.49910479650405	2.194848	1.4815019
32.51736125888683	2.2385077	1.4961643
32.53561856956014	2.1902335	1.4799438
32.5538767291058	2.116333	1.4547622
32.572135738105764	2.103106	1.4502089
32.59039559714228	2.03781	1.4275188
32.608656306797776	2.071887	1.4394051
32.62691786765491	2.1267827	1.4583493
32.645180280296586	2.0820894	1.4429448
32.663443545305896	2.0242708	1.4227687
32.68170766326619	2.0187974	1.420844
32.69997263476099	2.0864398	1.4444515
32.7182384603741	2.1848986	1.4781402
32.7365051406895	2.0436783	1.4295728
32.75477267629144	1.9825459	1.4080291
32.77304106776434	1.9158031	1.3841254
32.79131031569289	1.8937508	1.3761362
32.809580420661966	1.9482565	1.3957996
32.827851383256714	2.0120828	1.4184791
32.84612320406245	2.0327947	1.4257611
32.86439588366476	1.9983515	1.4136306
32.88266942264945	1.9618006	1.4006429
32.9009438216025	1.9175998	1.3847743
32.9192190811102	1.8994374	1.3782008
32.937495201758985	1.8493443	1.359906
32.95577218413556	1.9423523	1.393683
32.974050028826866	1.9713534	1.4040489
32.992328736420035	1.9599879	1.3999957
33.010608307502444	1.8569543	1.362701
33.02888874266169	1.9175538	1.3847576
33.047170042485604	1.926695	1.3880544
33.06545220756225	1.9014666	1.3789368
33.083735238479896	1.8832072	1.3722999
33.10201913582707	1.960209	1.4000746
33.12030390019248	2.008206	1.4171118
33.138589532165135	1.9731873	1.4047018
33.15687603233419	1.9855363	1.4090906
33.17516340128909	2.0064266	1.4164839
33.19345163961947	1.9779332	1.4063901
33.211740747915215	1.9484773	1.3958787
33.23003072676643	1.8568103	1.3626482
33.248321576763466	1.8195678	1.3489136
33.266613298496885	1.9750881	1.4053783
33.28490589255747	2.0197477	1.4211783
33.30319935953626	1.9234703	1.3868923
33.32149370002451	1.8532618	1.3613456
33.339788914613706	1.8568059	1.3626467
33.358085003895575	1.822306	1.3499281
33.376381968462034	1.8626772	1.3647994
33.39467980890529	1.9226705	1.386604
33.41297852581774	1.9617275	1.4006169
33.43127811979204	1.9742321	1.4050736
33.44957859142105	1.9109676	1.3823775
33.467879941297866	1.9207981	1.3859286
33.486182170015844	1.9037538	1.3797659
33.50448527816853	1.8459184	1.3586458
33.522789266349754	1.815162	1.3472794
33.541094135153514	1.9351269	1.3910884
33.55939988517411	2.0285442	1.4242697
33.57770651700602	2.0292292	1.4245101
33.59601403124398	1.9364179	1.3915523
33.61432242848296	1.8874209	1.3738344
33.632631709318154	1.8751855	1.3693742
33.650941874344994	1.8426514	1.357443
33.66925292415916	1.8283477	1.352164
33.68756485935654	1.9380339	1.3921329
33.70587768053328	1.9932245	1.411816
33.724191388285746	1.9694214	1.4033607
33.74250598321054	1.9713749	1.4040565
33.760821465904506	1.9507031	1.3966757
33.77913783696474	1.8947926	1.3765147
33.79745509698852	1.8160573	1.3476117
33.815773246573414	1.8695073	1.3672993
33.8340922863172	1.8967372	1.3772209
33.852412216817896	1.9636681	1.4013094
33.87073303867377	2.0145628	1.419353
33.889054752483304	2.1169777	1.4549837
33.907377358845245	2.0212092	1.4216924
33.92570085835853	1.912765	1.3830274
33.94402525162239	1.933617	1.3905456
33.96235053923627	1.9489778	1.396058
33.980676721799824	1.8694222	1.3672682
33.999003799912984	1.7964392	1.3403131
34.01733177417592	1.7530057	1.3240112
34.03566064518901	1.8015496	1.3422182
34.0539904135529	1.8131233	1.3465227
34.07232107986846	1.8121728	1.3461697
34.090652644736785	1.9420676	1.3935809
34.108985108759235	2.0356405	1.4267588
34.12731847253742	2.005587	1.4161875
34.14565273667313	1.8522853	1.3609868
34.16398790176847	1.785836	1.3363518
34.18232396842574	1.8520085	1.3608851
34.20066093724749	1.9924828	1.4115533
34.21899880883651	2.1126823	1.453507
34.23733758379583	2.1247153	1.4576403
34.25567726272874	1.9949023	1.4124101
34.27401784623872	2.0662386	1.4374417
34.29235933492957	1.9519322	1.3971157
34.31070172940526	1.8456845	1.3585597
34.32904503027003	1.9146754	1.3837179
34.347389238128386	1.9344813	1.3908563
34.36573435358502	1.8935381	1.3760589
34.38408037724492	1.981416	1.4076278
34.402427309713296	2.1062522	1.4512932
34.42077515159559	2.1473944	1.465399
34.43912390349752	2.0573554	1.4343485
34.45747356602499	1.9793606	1.4068975
34.47582413978423	1.9941643	1.4121488
34.49417562538163	1.9365038	1.3915832
34.51252802342388	1.9827513	1.408102
34.53088133451789	2.0227659	1.4222398
34.54923555927084	1.9281554	1.3885803
34.567590698290104	1.8205378	1.3492731
34.58594675218336	1.8760258	1.3696809
34.6043037215585	2.089518	1.4455166
34.62266160702365	2.023012	1.4223262
34.641020409187234	1.986985	1.4096045
34.65938012865785	1.9917504	1.4112939
34.677740766044394	1.9601284	1.4000459
34.69610232195598	1.963724	1.4013294
34.714464797002016	2.091907	1.4463426
34.73282819179208	2.1287467	1.4590225
34.751192506936064	2.021882	1.421929
34.76955774304408	1.9773171	1.4061711
34.7879239007265	1.9754578	1.4055098
34.80629098059391	2.064191	1.4367293
34.824658983257194	2.0366917	1.4271271
34.843027909327446	1.9878625	1.4099158
34.86139775941603	2.0539575	1.4331634
34.879768534134534	2.0328672	1.4257865
34.89814023409483	1.8528935	1.3612103
34.91651285990901	1.8776627	1.3702784
34.93488641218944	1.9596844	1.3998873
34.95326089154871	2.051772	1.4324008
34.97163629859967	2.135252	1.4612502
34.99001263395542	2.2404947	1.4968282
35.00838989822934	2.1522765	1.4670639
35.02676809203499	1.985965	1.4092427
35.04514721598624	2.0541582	1.4332335
35.063527270697215	2.1100502	1.4526012
35.081908256782256	2.1087544	1.4521551
35.10029017485597	2.0542188	1.4332546
35.11867302553321	1.7560644	1.3251657
35.137056809429104	1.8341186	1.3542963
35.155441527159006	2.036306	1.4269919
35.173827179338524	1.8579224	1.3630563
35.19221376658354	1.7397424	1.318993
35.21060128951017	1.848387	1.3595539
35.2289897487348	2.0813742	1.4426968
35.24737914487405	2.2815719	1.5104873
35.26576947854479	2.1482625	1.4656953
35.28416075036418	1.8915827	1.3753482
35.30255296094958	1.8167315	1.3478618
35.32094611091867	1.9995043	1.4140383
35.33934020088932	2.0415673	1.4288342
35.35773523147969	2.1000745	1.4491634
35.3761312033082	2.2558887	1.5019616
35.394528116993506	2.0606332	1.4354906
35.41292597315452	1.9443109	1.3943855
35.431324772410434	1.9353611	1.3911725
35.449724515380666	2.1791286	1.4761872
35.46812520268491	2.184081	1.4778637
35.486526834943106	2.0709002	1.4390622
35.504929412775454	2.3066692	1.5187722
35.52333293680242	2.365344	1.5379676
35.54173740764471	2.1441638	1.4642963
35.560142825923286	1.8354733	1.3547964
35.5785491922594	1.3355014	1.1556389
35.59695650727454	1.0181655	1.0090419
35.61536477159042	1.0391313	1.019378
