0.008763373481513119	0.56609195	0.7523908
0.026290120649546365	0.18888974	0.43461448
0.043816868432600686	0.0908709	0.30144802
0.06134361724069026	0.0	0.0
0.07887036748382949	0.070286326	0.26511568
0.0963971195720331	0.12057915	0.3472451
0.11392387391531617	0.16045341	0.40056637
0.1314506309236943	0.15309963	0.39127946
0.1489773910071836	0.082231514	0.2867604
0.16650415457580078	0.032282095	0.17967218
0.18403092203956356	0.047021214	0.21684375
0.20155769380849	0.08324055	0.28851438
0.2190844702925996	0.1336565	0.36559063
0.2366112519019124	0.18372263	0.42862877
0.2541380390464497	0.21030167	0.4585866
0.27166483213623416	0.21689616	0.46572113
0.28919163158128947	0.25559232	0.5055614
0.3067184377916406	0.26523143	0.51500624
0.324245251177314	0.2629502	0.5127867
0.34177207214833777	0.20514257	0.45292667
0.3592989011147415	0.14569768	0.38170364
0.37682573848655654	0.11006511	0.33176062
0.39435258467381573	0.09453792	0.3074702
0.41187944008655414	0.07568239	0.2751043
0.42940630513480854	0.068569794	0.26185834
0.446933180228618	0.11371426	0.33721545
0.4644600657780234	0.20137718	0.4487507
0.48198696219306775	0.22453299	0.47384912
0.49951386988379676	0.19677012	0.44358778
0.5170407892602581	0.17176595	0.41444656
0.5345677207325025	0.12639563	0.35552162
0.5520946647105822	0.15591198	0.3948569
0.5696216216045534	0.14971936	0.38693586
0.5871485918244737	0.14323431	0.3784631
0.6046755757804043	0.15783326	0.39728233
0.6222025738824094	0.15130198	0.38897556
0.6397295865405557	0.17519647	0.41856477
0.6572566141649129	0.1929578	0.43926963
0.6747836571655547	0.20437723	0.452081
0.6923107159525568	0.22351108	0.4727696
0.7098377909359992	0.22544472	0.47481018
0.7273648825259653	0.23466104	0.48441824
0.7448919911325411	0.22742401	0.47688994
0.762419117165817	0.1855105	0.4307093
0.7799462610358868	0.19336389	0.4397316
0.7974734231528482	0.20667823	0.45461878
0.8150006039268024	0.2023848	0.449872
0.8325278037678551	0.18522678	0.4303798
0.8500550230861152	0.21944208	0.46844646
0.8675822622916969	0.23367791	0.48340243
0.8851095217947171	0.28188556	0.53092897
0.9026368020052984	0.26788175	0.51757294
0.9201641033335665	0.25033388	0.5003338
0.9376914261896523	0.20424768	0.4519377
0.9552187709836915	0.19192418	0.43809152
0.9727461381258234	0.25038803	0.50038785
0.990273528026193	0.26743874	0.5171448
1.0078009410949496	0.26711997	0.5168365
1.0253283777422473	0.27520373	0.52459866
1.0428558383782454	0.29226005	0.5406108
1.0603833234131086	0.31324917	0.55968666
1.0779108332570058	0.34654084	0.58867717
1.0954383683201119	0.3644903	0.6037303
1.112965929012607	0.422837	0.6502592
1.1304935157446763	0.540653	0.73529106
1.1480211289265108	0.53393275	0.730707
1.1655487689683062	1.3350306	1.1554352
1.1830764362802655	1.593102	1.2621814
1.200604131272596	2.028703	1.4243255
1.2181318543555117	2.3033295	1.5176724
1.235659605939232	2.291662	1.5138236
1.253187386433982	3.6974695	1.9228805
1.270715196249994	5.885399	2.4259841
1.2882430357975057	11.45393	3.3843656
1.3057709054867608	16.278666	4.0346828
1.3232988057280106	22.201935	4.711893
1.3408267369315112	27.286995	5.2236958
1.358354699507526	30.637749	5.5351377
1.3758826938663256	34.37809	5.863283
1.3934107204181858	36.03747	6.003122
1.410938779573391	36.197346	6.016423
1.4284668717422309	36.742657	6.061572
1.4459949973350033	36.756596	6.0627217
1.4635231567620117	36.787582	6.0652766
1.4810513504335687	36.10752	6.0089536
1.4985795787599925	35.256363	5.937707
1.5161078421516088	34.747265	5.894681
1.5336361410187505	33.96627	5.8280587
1.5511644757717598	34.021206	5.83277
1.5686928468209842	34.65636	5.8869653
1.58622125457678	35.230553	5.935533
1.6037496994495108	36.186016	6.0154815
1.621278181849548	35.884205	5.9903426
1.6388067021872719	36.511467	6.042472
1.6563352608730693	36.19018	6.0158277
1.673863858317336	35.425587	5.9519396
1.6913924949304753	34.816833	5.900579
1.7089211711228998	33.564415	5.7934804
1.7264498873050296	33.341743	5.774231
1.7439786438872935	32.557915	5.7059546
1.7615074412801288	31.637718	5.6247416
1.779036279893981	30.59739	5.531491
1.796565160139305	29.365707	5.4190135
1.814094082426564	28.899406	5.375817
1.8316230471662298	28.175228	5.3080344
1.849152054768784	27.500648	5.2441063
1.8666811056447168	27.256437	5.22077
1.8842102002045273	26.827446	5.1795216
1.901739338858724	26.182386	5.116873
1.9192685220178245	25.325247	5.0324197
1.9367977500923557	24.461185	4.945825
1.9543270234928547	23.936611	4.8925056
1.971856342629867	23.22494	4.819226
1.9893857079139496	22.805176	4.7754765
2.006915119755667	22.390137	4.7318215
2.0244445785655945	21.715462	4.659985
2.0419740847543175	21.171412	4.60124
2.0595036387324317	20.64706	4.543904
2.0770332409105414	20.464457	4.5237656
2.094562891699263	20.059275	4.4787583
2.1120925915092217	19.425064	4.4073873
2.129622340751053	18.916573	4.3493185
2.1471521398354043	187.07497	13.677535
2.1646819891729323	443.51425	21.059778
2.182211889174303	439.92435	20.974373
2.1997418402501974	452.20834	21.26519
2.2172718428113023	431.9681	20.783842
2.234801897268317	319.9358	17.88675
2.2523320040319548	16.404726	4.050275
2.269862163512935	16.316364	4.039352
2.287392376121992	16.051548	4.0064383
2.304922642269869	15.924812	3.9905906
2.322452962367322	15.788179	3.9734342
2.3399833368251164	15.525163	3.9401984
2.357513766054032	15.168167	3.894633
2.3750442504648586	14.809825	3.8483536
2.3925747904683963	14.576886	3.8179688
2.410105386475459	14.519105	3.8103943
2.4276360388968707	14.28275	3.7792525
2.445166748143469	14.042022	3.7472687
2.4626975146261025	13.602403	3.6881435
2.4802283387556323	13.265155	3.642136
2.4977592209429305	13.00078	3.6056595
2.5152901615988825	12.815167	3.5798278
2.5328211611343865	12.618212	3.5522122
2.5503522199603523	12.359529	3.5156121
2.5678833384877024	12.07397	3.4747617
2.5854145171273712	11.897364	3.4492555
2.6029457562903064	11.74789	3.4275196
2.620477056387469	11.738623	3.4261672
2.6380084178298326	11.499114	3.3910344
2.655539841028383	11.208486	3.3479075
2.673071326394119	10.944897	3.3083072
2.6906028743380523	10.852689	3.294342
2.708134485271211	10.87873	3.298292
2.7256661596046325	10.634182	3.2610095
2.743197897749369	10.478119	3.2369924
2.760729700116486	10.288088	3.207505
2.778261567117063	10.071235	3.1735208
2.795793499162193	9.886641	3.1443028
2.8133254966629817	9.795776	3.1298206
2.830857560030551	9.652379	3.1068277
2.8483896896760337	9.580306	3.095207
2.865921886010578	9.388699	3.0640984
2.883454149445347	9.242937	3.04022
2.9009864803915177	9.010622	3.0017698
2.91851887926028	8.706145	2.9506178
2.9360513464628384	8.616524	2.9353917
2.953583882410413	8.562198	2.9261234
2.9711164875142373	8.4699955	2.9103258
2.9886491621855606	8.487611	2.9133503
3.0061819068356455	8.287474	2.8787973
3.023714721875769	8.229627	2.8687327
3.041247607717225	8.093134	2.8448434
3.0587805647713213	7.9577947	2.8209562
3.0763135934493806	8.048538	2.8369946
3.0938466941627407	7.9263983	2.815386
3.1113798673227544	7.9802647	2.8249362
3.1289131133407904	7.873725	2.8060157
3.1464464326282315	7.8179407	2.7960582
3.1639798255964786	7.652125	2.7662475
3.1815132926569443	7.36229	2.713354
3.1990468342210603	7.18236	2.6799927
3.216580450700272	7.1401296	2.672102
3.2341141425060416	7.105007	2.6655219
3.251647910049847	7.026408	2.6507373
3.2691817537431813	6.906784	2.628076
3.286715673997555	6.92613	2.6317542
3.3042496712244938	6.8891964	2.624728
3.32178374583554	6.893823	2.6256092
3.339317898242251	6.8272376	2.6128983
3.3568521288562034	6.809385	2.60948
3.3743864380889876	6.6794753	2.5844681
3.3919208263522127	6.5409923	2.5575364
3.4094552940575023	6.404055	2.5306234
3.4269898416164972	6.2397494	2.4979491
3.444524469440858	6.133584	2.4766073
3.4620591779422587	6.082148	2.466201
3.479593967532391	6.105181	2.4708664
3.4971288386229658	6.2395883	2.4979167
3.5146637916257086	6.3236785	2.5146925
3.5321988269523628	6.3326592	2.5164776
3.5497339450146903	6.280737	2.5061398
3.5672691462244708	6.18578	2.4871228
3.5848044309934988	6.1671233	2.4833694
3.60233979973359	6.1235557	2.474582
3.619875252856575	6.0857573	2.4669328
3.6374107907743034	5.9956627	2.4486043
3.6549464138986427	5.980895	2.445587
3.6724821226414788	6.060222	2.461752
3.690017917414714	6.126786	2.4752345
3.7075537986302702	6.2390294	2.4978049
3.7250897667000857	6.247232	2.4994464
3.7426258220361235	6.3331423	2.5165734
3.7601619650503553	6.6748004	2.5835636
3.777698196154779	7.2057953	2.6843612
3.7952345157614067	8.259872	2.8739994
3.8127709242822716	9.059567	3.0099115
3.830307422129425	11.096133	3.331086
3.847844009714936	12.443444	3.5275266
3.8653806874508954	15.709533	3.9635253
3.882917455749409	15.379605	3.921684
3.900454315022606	15.616058	3.951716
3.917991265682631	12.771788	3.5737638
3.9355283081416506	10.872169	3.2972972
3.9530654428118495	8.739572	2.9562767
3.970602670105433	7.4086666	2.7218866
3.9881399904346244	6.5627356	2.5617836
4.005677404211669	6.4907794	2.547701
4.023214911848827	6.4327455	2.5362859
4.0407525137583855	6.298103	2.509602
4.058290210352644	6.2267814	2.495352
4.075828002043927	6.1713595	2.4842222
4.0933658892445814	6.115635	2.472981
4.110903872366966	6.0823097	2.466234
4.128441951823468	6.0060387	2.450722
4.145980128026488	6.0591116	2.4615262
4.163518401388452	6.031166	2.4558432
4.181056772321807	5.983943	2.44621
4.1985952412390155	6.003389	2.4501815
4.216133808552567	6.0193768	2.4534419
4.233672474674966	6.047437	2.4591537
4.251211240018741	6.2466893	2.4993377
4.268750104996445	6.4139996	2.5325875
4.286289070020643	7.4467773	2.7288785
4.303828135503928	9.115914	3.0192573
4.3213673018589125	29.338531	5.4165053
4.3389065694982305	90.50692	9.513513
4.356445938834537	165.60889	12.868912
4.3739854102805085	171.07047	13.079391
4.391524984248844	171.99802	13.114801
4.409064661152262	136.21024	11.670914
4.426604441403504	96.597176	9.828386
4.444144325415337	75.74245	8.703013
4.461684313600543	21.669971	4.655102
4.47922440637193	22.023567	4.6929274
4.496764604142329	19.972107	4.4690166
4.5143049073245916	17.96406	4.238403
4.531845316331589	15.91138	3.988907
4.5493858315762195	13.181869	3.6306844
4.566926453471405	11.057133	3.3252268
4.584467182430081	9.062609	3.0104167
4.602008018865218	7.9542184	2.8203223
4.619548963189798	7.264848	2.6953382
4.637090015816834	6.7594147	2.5998874
4.654631177159353	6.615471	2.5720558
4.672172447630417	6.403381	2.5304902
4.689713827643102	6.266142	2.5032263
4.7072553176105085	5.9650016	2.4423354
4.724796917945764	5.64562	2.3760514
4.742338629062015	5.5576797	2.3574731
4.759880451372434	5.5572963	2.3573918
4.777422385290215	5.550869	2.3560283
4.794964431228581	5.50486	2.3462439
4.812506589600768	5.4519196	2.3349347
4.830048860820047	5.466302	2.3380125
4.847591245299709	5.472484	2.339334
4.8651337434530655	5.4166646	2.3273728
4.882676355693457	5.38678	2.3209438
4.900219082434242	5.3786693	2.3191957
4.917761924088813	5.4313607	2.330528
4.935304881070575	5.4751616	2.3399062
4.952847953792969	5.448836	2.334274
4.970391142669449	5.3694463	2.3172066
4.9879344481135055	5.261004	2.2936878
5.005477870538642	5.2264843	2.2861505
5.023021410358394	5.1788783	2.2757149
5.040565067986324	5.260123	2.2934957
5.05810884383601	5.2859306	2.2991152
5.075652738321066	5.3106413	2.304483
5.09319675185512	5.240401	2.2891922
5.110740884851836	5.216583	2.283984
5.128285137724894	5.1727967	2.2743783
5.145829510888007	5.139429	2.267031
5.163374004754908	5.154893	2.270439
5.1809186197393595	5.121988	2.263181
5.198463356255145	5.1733103	2.2744913
5.216008214716077	5.247581	2.2907598
5.233553195535998	5.25441	2.29225
5.251098299128764	5.2646523	2.294483
5.268643525908272	5.183572	2.2767458
5.286188876288432	5.181435	2.2762766
5.3037343506831895	5.1298604	2.2649195
5.32127994950651	5.1411204	2.2674038
5.3388256731723915	5.201087	2.280589
5.356371522094851	5.156105	2.270706
5.373917496687938	5.101972	2.2587545
5.391463597365729	5.08551	2.2551074
5.40900982454232	5.037543	2.244447
5.426556178631843	5.1062036	2.259691
5.444102660048449	5.1300206	2.2649548
5.4616492692063225	5.1683426	2.2733989
5.479196006519669	5.131335	2.265245
5.496742872402727	5.094977	2.2572055
5.514289867269756	5.070575	2.2517939
5.531836991535049	5.060495	2.2495544
5.549384245612924	5.036881	2.2442997
5.566931629917724	5.0702906	2.2517307
5.584479144863822	5.1347136	2.2659907
5.6020267908656205	5.252362	2.2918031
5.619574568337545	5.29341	2.3007412
5.637122477694054	5.237699	2.2886019
5.654670519349629	5.1490417	2.26915
5.672218693718784	5.0611606	2.2497022
5.689767001216059	5.0117574	2.2386954
5.707315442256021	5.029083	2.2425616
5.724864017253266	5.075453	2.2528765
5.7424127266224225	5.0630317	2.2501183
5.75996157077814	5.0538726	2.248082
5.777510550135105	4.981556	2.23194
5.795059665108022	4.9281588	2.2199457
5.812608916111639	4.9106164	2.215991
5.830158303560715	5.0853934	2.2550817
5.847707827870055	5.125182	2.2638865
5.86525748945448	5.174565	2.274767
5.8828072887288485	5.2065187	2.2817798
5.900357226108044	5.294038	2.3008776
5.917907302006979	5.4597077	2.3366017
5.9354575168406	6.0737185	2.4644916
5.9530078710238765	6.6648645	2.58164
5.970558364971812	7.1946144	2.682278
5.988108999099438	7.5203085	2.7423182
6.005659773821818	7.946106	2.818884
6.023210689554039	7.7377195	2.7816756
6.040761746711227	8.143167	2.8536234
6.058312945708531	7.589092	2.7548306
6.075864286961132	7.1140647	2.6672204
6.093415770884244	6.4148593	2.5327573
6.1109673978931065	5.935348	2.436257
6.128519168402993	5.4103208	2.3260095
6.146071082829204	5.362082	2.315617
6.163623141587075	5.2573633	2.2928941
6.181175345091969	5.1555724	2.2705886
6.198727693759281	5.037854	2.2445164
6.216280188004435	4.9796977	2.2315235
6.233832828242885	4.9841437	2.2325196
6.251385614890126	5.0154767	2.239526
6.268938548361669	4.9726143	2.229936
6.286491629073067	4.923077	2.2188008
6.304044857439898	4.897513	2.2130325
6.321598233877777	4.911553	2.2162023
6.339151758802344	4.8975735	2.2130463
6.356705432629277	4.931517	2.220702
6.37425925577428	4.8896947	2.2112653
6.391813228653095	4.821969	2.1958983
6.409367351681486	4.805324	2.192105
6.426921625275259	4.8791265	2.2088745
6.44447604985025	4.906938	2.2151608
6.46203062582232	4.8605795	2.204672
6.47958535360737	4.8564177	2.2037282
6.497140233621328	4.898405	2.2132342
6.514695266280161	4.9436736	2.2234373
6.532250451999859	5.0232115	2.2412522
6.549805791196454	5.019325	2.240385
6.567361284286002	4.986555	2.2330596
6.584916931684597	4.9594965	2.2269926
6.602472733808367	4.964815	2.2281866
6.6200286910734665	4.963621	2.2279186
6.637584803896092	4.9564033	2.226298
6.655141072692462	4.9452424	2.2237902
6.672697497878842	4.929122	2.2201626
6.690254079871514	4.9465184	2.224077
6.707810819086808	5.0144672	2.2393007
6.725367715941078	4.998788	2.235797
6.742924770850719	4.9395804	2.2225168
6.760481984232151	4.878572	2.208749
6.778039356501836	4.8216023	2.1958148
6.795596888076266	4.7981534	2.1904688
6.813154579371963	4.75368	2.1802936
6.830712430805492	4.7199974	2.1725554
6.84827044279344	4.774746	2.1851192
6.865828615752445	4.8666573	2.2060502
6.883386950099159	4.9044347	2.2145958
6.900945446250287	4.8683133	2.2064254
6.918504104622553	4.8203483	2.1955292
6.936062925632727	4.8152	2.1943564
6.953621909697607	4.8552327	2.2034593
6.971181057234028	4.9213867	2.2184198
6.988740368658859	5.0505586	2.2473447
7.006299844389007	5.157171	2.2709405
7.023859484841407	5.2595353	2.2933676
7.041419290433036	5.283104	2.2985003
7.058979261580902	5.421883	2.3284938
7.0765393987020495	5.6559005	2.3782136
7.094099702213559	6.027885	2.4551752
7.111660172532549	6.3722224	2.524326
7.129220810076164	6.671804	2.5829835
7.146781615261595	7.160607	2.675931
7.16434258850606	7.3398623	2.709218
7.181903730226821	7.7451334	2.7830079
7.1994650408411704	7.8717947	2.805672
7.217026520766437	8.078939	2.8423476
7.234588170419983	8.285734	2.8784952
7.252149990219215	8.319529	2.8843594
7.269711980581568	8.239847	2.8705134
7.2872741419245175	8.033475	2.8343384
7.304836474665574	7.7178946	2.7781098
7.322398979222286	7.428546	2.7255359
7.339961656012233	7.19285	2.681949
7.357524505453039	6.9038005	2.6275084
7.375087527962357	6.5487213	2.559047
7.392650723957886	6.19384	2.4887426
7.410214093857353	5.844722	2.4175858
7.427777638078528	5.619591	2.3705678
7.445341357039213	5.49097	2.343282
7.4629052511572525	5.367361	2.3167565
7.480469320850524	5.239341	2.2889607
7.498033566536948	5.1645923	2.272574
7.5155979886344735	5.126962	2.2642796
7.5331625875610975	5.129758	2.2648969
7.550727363734844	5.1715097	2.2740953
7.568292317573788	5.108921	2.2602923
7.585857449496025	5.1600027	2.271564
7.603422759919705	5.1570573	2.2709155
7.620988249263007	5.1779685	2.275515
7.638553917944147	5.098823	2.2580574
7.656119766381391	5.0545535	2.2482333
7.673685794993023	5.0429335	2.2456477
7.691252004197388	5.046674	2.2464802
7.70881839441285	5.110794	2.2607064
7.726384966057826	5.1571293	2.2709315
7.743951719550762	5.208595	2.2822347
7.761518655310149	5.145576	2.2683861
7.779085773754511	5.0816674	2.2542553
7.796653075302419	5.0113254	2.238599
7.814220560372475	5.0630145	2.2501144
7.831788229383323	5.0786505	2.253586
7.8493560827536495	5.189702	2.2780917
7.866924120902174	5.2481613	2.2908866
7.884492344247663	5.290575	2.300125
7.9020607532089135	5.258634	2.2931712
7.919629348204771	5.2578616	2.2930028
7.937198129654115	5.289931	2.299985
7.954767097975865	5.260453	2.293568
7.972336253588986	5.2138414	2.2833838
7.989905596912472	5.208059	2.2821171
8.007475128365371	5.207314	2.281954
8.025044848366756	5.3042684	2.3030996
8.042614757335754	5.4900203	2.3430793
8.060184855691523	5.5958133	2.3655472
8.07775514385327	5.7410593	2.3960507
8.095325622240228	5.6962404	2.38668
8.112896291271687	5.7030325	2.3881023
8.130467151366968	5.7077193	2.3890834
8.148038202945436	5.7503023	2.3979788
8.165609446426497	5.789971	2.406236
8.183180882229594	5.806667	2.4097025
8.200752510774217	5.825983	2.4137073
8.218324332479893	5.7700925	2.4021018
8.235896347766193	5.7626796	2.4005582
8.253468557052724	5.847879	2.4182389
8.27104096075914	5.8382673	2.4162507
8.288613559305137	5.862586	2.4212778
8.306186353110448	5.8491817	2.418508
8.32375934259485	6.032022	2.4560175
8.341332528178162	6.070009	2.463739
8.358905910280246	6.104564	2.4707415
8.376479489321003	6.086978	2.4671803
8.394053265720377	6.146014	2.4791157
8.411627239898356	6.1497707	2.4798732
8.42920141227497	6.167858	2.4835172
8.44677578327029	6.1810308	2.486168
8.464350353304427	6.1614027	2.4822173
8.48192512279754	6.1746364	2.4848816
8.499500092169827	6.096392	2.4690874
8.51707526184153	6.079088	2.4655807
8.534650632232934	6.1015153	2.4701245
8.552226203764365	6.0888524	2.46756
8.569801976856192	6.0164623	2.4528477
8.587377951928834	6.034307	2.4564826
8.60495412940274	6.0557747	2.4608483
8.622530509698416	6.1218753	2.4742424
8.6401070932364	6.2403836	2.498076
8.657683880437283	6.3295083	2.5158515
8.675260871721695	6.5282264	2.5550394
8.692838067510303	6.6772265	2.584033
8.710415468223834	6.797563	2.6072137
8.727993074283043	6.977222	2.6414433
8.745570886108737	6.9393225	2.6342595
8.763148904121765	6.9535637	2.636961
8.78072712874302	6.96834	2.6397614
8.798305560393441	7.248701	2.692341
8.815884199494006	7.458353	2.7309985
8.833463046465745	7.6381526	2.7637208
8.851042101729728	7.809232	2.7945004
8.86862136570707	8.150854	2.85497
8.886200838818924	8.323079	2.8849747
8.903780521486505	8.273254	2.8763266
8.921360414131055	8.324892	2.885289
8.938940517173874	8.41712	2.9012272
8.956520831036297	8.65135	2.9413178
8.97410135613971	8.8934965	2.9821966
8.99168209290554	9.069536	3.011567
9.009263041755265	9.399775	3.065905
9.026844203110405	9.5643635	3.0926306
9.044425577392525	9.696323	3.113892
9.062007165023239	9.687874	3.112535
9.079588966424197	9.96194	3.156254
9.097170982017108	10.116827	3.180696
9.11475321222372	11.017832	3.3193119
9.132335657465825	11.821597	3.4382548
9.149918318165264	11.767686	3.430406
9.167501194743924	12.398567	3.52116
9.18508428762374	12.094535	3.4777198
9.202667597226693	12.187125	3.4910064
9.220251123974803	11.907161	3.4506755
9.237834868290143	11.635031	3.411016
9.255418830594836	11.360745	3.3705704
9.273003011311046	10.82449	3.290059
9.290587410860985	10.7129345	3.273062
9.308172029666911	10.203921	3.1943576
9.32575686815113	9.963716	3.1565354
9.343341926735997	8.713129	2.951801
9.360927205843916	8.483792	2.912695
9.378512705897327	8.28932	2.879118
9.396098427318728	8.067368	2.8403113
9.413684370530664	7.9583335	2.8210518
9.431270535955722	7.7534976	2.7845104
9.448856924016539	7.682513	2.7717347
9.466443535135806	7.5905647	2.7550979
9.484030369736251	7.642455	2.7644992
9.501617428240658	7.664221	2.7684329
9.519204711071852	7.6589227	2.7674758
9.536792218652714	7.7092633	2.776556
9.55437995140617	7.737426	2.781623
9.571967909755191	7.7660403	2.7867615
9.589556094122802	7.740493	2.782174
9.60714450493207	7.729895	2.780269
9.624733142606116	7.6937065	2.7737532
9.642322007568108	7.725978	2.7795644
9.659911100241267	7.7303815	2.7803564
9.677500421048851	7.865812	2.8046055
9.695089970414175	7.87491	2.806227
9.712679748760609	7.878339	2.8068378
9.730269756511557	7.897207	2.8101969
9.747859994090492	7.943085	2.818348
9.765450461920915	8.040548	2.835586
9.78304116042639	8.106608	2.8472106
9.800632090030527	8.12207	2.8499246
9.81822325115699	8.092184	2.8446765
9.835814644229481	8.109234	2.8476717
9.853406269671762	8.154781	2.8556578
9.870998127907646	8.12353	2.8501809
9.888590219360985	8.143656	2.8537092
9.906182544455698	8.18131	2.8602989
9.923775103615734	8.216925	2.8665178
9.941367897265108	8.241505	2.8708022
9.958960925827878	8.265505	2.874979
9.97655418972816	8.192915	2.8623269
9.994147689390106	8.172822	2.8588147
10.011741425237934	8.09248	2.8447285
10.029335397695904	8.074955	2.8416464
10.04692960718833	8.0518265	2.837574
10.06452405413958	8.045063	2.836382
10.082118738974064	8.115172	2.848714
10.099713662116246	8.027868	2.8333492
10.117308823990651	8.035886	2.8347638
10.134904225021844	7.9748616	2.8239799
10.152499865634445	8.057078	2.8384993
10.170095746253125	8.055299	2.8381858
10.18769186730261	7.964713	2.8221824
10.205288229207675	7.9316506	2.8163188
10.222884832393145	7.8826523	2.8076062
10.2404816772839	7.953615	2.8202155
10.258078764304868	7.978447	2.8246145
10.275676093881035	7.9846854	2.8257186
10.293273666437438	8.011573	2.8304722
10.310871482399158	8.019874	2.831938
10.32846954219134	8.025628	2.832954
10.346067846239173	8.021475	2.8322208
10.363666394967908	8.055505	2.838222
10.38126518880283	8.133291	2.8518925
10.398864228169298	8.195979	2.862862
10.416463513492713	8.177709	2.8596692
10.434063045198531	8.12673	2.850742
10.451662823712262	8.087298	2.8438175
10.469262849459467	8.091796	2.8446083
10.486863122865758	7.99574	2.827674
10.504463644356806	7.8813696	2.8073778
10.522064414358338	7.8336883	2.7988727
10.539665433296118	7.8625817	2.8040295
10.557266701595987	7.8602424	2.8036125
10.574868219683818	7.8227057	2.79691
10.592469987985552	7.656059	2.7669585
10.610072006927185	7.466132	2.7324224
10.627674276934751	7.323412	2.7061803
10.64527679843435	7.1800137	2.6795547
10.662879571852143	7.1382008	2.6717412
10.680482597614331	7.081053	2.6610248
10.698085876147173	7.0193834	2.649412
10.715689407876988	6.8567977	2.6185489
10.733293193230146	6.7476187	2.5976179
10.750897232633072	6.5912843	2.5673497
10.76850152651225	6.537502	2.5568538
10.786106075294207	6.4582763	2.541314
10.803710879405534	6.383962	2.5266504
10.821315939272877	6.275844	2.5051634
10.83892125532294	6.2173743	2.4934664
10.856526827982472	6.1933184	2.488638
10.874132657678285	6.1803484	2.4860306
10.891738744837243	6.0808873	2.4659455
10.909345089886271	5.987763	2.4469905
10.926951693252343	5.9654856	2.4424343
10.944558555362494	5.9594946	2.4412076
10.96216567664381	5.9195657	2.4330158
10.979773057523436	5.889353	2.4267988
10.997380698428573	5.765571	2.4011605
11.014988599786477	5.6650314	2.3801327
11.032596762024461	5.5655	2.359131
11.050205185569892	5.517799	2.3489995
11.067813870850198	5.508313	2.3469796
11.085422818292859	5.450051	2.3345344
11.10303202832541	5.3771067	2.3188589
11.120641501375454	5.320151	2.3065453
11.138251237870636	5.2463617	2.2904937
11.155861238238671	5.1568074	2.2708604
11.173471502907317	5.0888515	2.2558482
11.191082032304402	5.0180526	2.240101
11.208692826857805	4.9973173	2.2354681
11.226303886995465	4.9838967	2.2324643
11.243915213145371	4.9718957	2.2297747
11.261526805735578	4.898741	2.21331
11.279138665194196	4.874922	2.2079225
11.296750791949393	4.8255486	2.1967132
11.314363186429393	4.814048	2.194094
11.331975849062479	4.7688603	2.183772
11.34958878027699	4.685454	2.1645908
11.36720198050133	4.583937	2.1410131
11.384815450163948	4.4438243	2.108038
11.402429189693366	4.365515	2.0893815
11.420043199518153	4.354467	2.086736
11.437657480066942	63.320103	7.957393
11.455272031768422	85.045425	9.222008
11.472886855051353	107.45735	10.366164
11.490501950344528	99.061745	9.952976
11.508117318076819	84.43187	9.188682
11.52573295867715	45.782505	6.766277
11.543348872574514	4.057365	2.01429
11.560965060197946	3.987689	1.9969199
11.57858152197655	3.9956245	1.9989058
11.59619825833949	3.9546204	1.9886228
11.613815269715985	3.9541779	1.9885114
11.631432556535323	38.47728	6.203006
11.649050119226837	83.01548	9.111283
11.666667958219929	93.39976	9.664355
11.68428607394406	107.62336	10.374167
11.701904466828756	82.439255	9.079606
11.719523137303586	65.2752	8.079307
11.737142085798196	4.5355186	2.1296756
11.754761312742286	3.6802838	1.9184066
11.772380818565619	3.6814895	1.9187208
11.790000603698015	3.6575496	1.9124721
11.80762066856935	3.6026347	1.8980608
11.825241013609572	3.5294235	1.8786759
11.842861639248683	3.4764335	1.8645196
11.860482545916748	3.464579	1.861338
11.878103734043883	3.435999	1.8536447
11.895725204060282	3.3570724	1.8322315
11.91334695639619	3.3016906	1.8170555
11.930968991481919	3.2970345	1.8157738
11.948591309747824	3.3200305	1.822095
11.966213911624347	3.3558848	1.8319074
11.98383679754198	3.3126876	1.820079
12.001459967931268	3.2947102	1.8151337
12.019083423222835	3.2740638	1.8094374
12.036707163847352	3.2063663	1.790633
12.05433119023556	3.1788752	1.78294
12.071955502818259	3.1597362	1.7775646
12.089580102026313	3.1723027	1.781096
12.107204988290643	3.1545265	1.7760986
12.12483016204224	3.1427252	1.7727733
12.142455623712152	3.1042278	1.7618818
12.16008137373149	3.085141	1.756457
12.177707412531431	3.032404	1.7413799
12.19533374054321	3.047772	1.7457869
12.212960358198126	3.032276	1.7413431
12.230587265927545	3.0100608	1.7349527
12.248214464162889	2.9844768	1.7275639
12.265841953335649	2.938647	1.7142483
12.283469733877375	2.8865218	1.6989768
12.301097806219685	2.920441	1.7089298
12.31872617079425	2.9101353	1.7059119
12.336354828032825	2.8830066	1.6979419
12.353983778367205	2.8575447	1.6904273
12.371613022229262	2.8643076	1.6924266
12.389242560050928	2.8583941	1.6906786
12.406872392264201	2.8123891	1.6770179
12.424502519301143	2.7910585	1.6706462
12.442132941593874	2.753714	1.6594318
12.459763659574586	2.750738	1.6585349
12.477394673675532	2.734236	1.6535525
12.49502598432903	2.741005	1.655598
12.51265759196746	2.7422526	1.6559749
12.530289497023267	2.7415144	1.655752
12.547921699928967	2.728381	1.6517811
12.565554201117134	2.7873101	1.669524
12.583187001020404	2.7581475	1.6607671
12.600820100071486	2.7563548	1.6602273
12.618453498703152	2.7457745	1.6570379
12.636087197348235	2.7426798	1.6561038
12.65372119643964	2.7611303	1.661665
12.671355496410326	2.7602873	1.6614113
12.68899009769333	2.792335	1.6710281
12.706625000721749	2.7975984	1.6726023
12.724260205928752	2.849359	1.6880045
12.741895713747551	2.870532	1.6942644
12.759531524611454	2.915523	1.7074903
12.777167638953818	2.9435296	1.7156718
12.794804057208072	2.9710028	1.7236598
12.812440779807702	3.0133452	1.735899
12.830077807186271	3.1576612	1.7769809
12.847715139777405	3.149248	1.7746121
12.865352778014795	3.3516507	1.8307514
12.882990722332197	3.4883735	1.8677188
12.90062897316344	3.5679777	1.8889091
12.918267530942412	3.6359153	1.9068077
12.935906396103071	3.4810815	1.8657657
12.953545569079449	3.6044111	1.8985287
12.971185050305628	3.430127	1.8520602
12.988824840215775	3.4661574	1.8617619
13.006464939244115	3.556864	1.885965
13.024105347824943	3.4360418	1.8536563
13.041746066392617	3.538395	1.8810622
13.05938709538157	3.3178642	1.8215005
13.077028435226296	3.3273582	1.8241048
13.094670086361363	3.2233784	1.795377
13.112312049221401	3.1561773	1.7765633
13.129954324241112	3.0439909	1.7447037
13.147596911855258	2.8340135	1.6834528
13.165239812498685	2.789246	1.6701037
13.182883026606293	2.7106633	1.6464093
13.200526554613058	2.6786878	1.6366698
13.218170396954017	2.661424	1.6313871
13.235814554064284	2.6689382	1.6336886
13.253459026379034	2.6494873	1.6277245
13.271103814333523	2.6021984	1.6131331
13.288748918363058	2.6236453	1.6197671
13.306394338903031	2.639728	1.624724
13.32404007638889	2.6521845	1.6285529
13.341686131256164	2.6434915	1.6258818
13.359332503940449	2.6195729	1.6185094
13.376979194877402	2.6130939	1.6165067
13.394626204502751	2.6555498	1.6295857
13.412273533252307	2.6430926	1.6257591
13.429921181561937	2.6428385	1.6256809
13.447569149867581	2.653324	1.6289027
13.465217438605247	2.6837027	1.6382011
13.482866048211022	2.6803143	1.6371665
13.500514979121052	2.6860733	1.6389245
13.518164231771568	2.700581	1.6433445
13.535813806598844	2.686502	1.6390553
13.553463704039254	2.660687	1.6311612
13.571113924529229	2.6435099	1.6258874
13.588764468505275	2.64378	1.6259705
13.606415336403956	2.6723626	1.6347362
13.624066528661917	2.6916475	1.6406242
13.641718045715882	2.7369084	1.6543604
13.659369888002635	2.8039358	1.6744957
13.67702205595903	2.8559973	1.6899697
13.694674550021993	2.8967392	1.701981
13.712327370628532	2.9471817	1.7167357
13.729980518215713	3.0355742	1.7422899
13.747633993220681	3.1525552	1.7755437
13.765287796080647	3.1942413	1.7872441
13.7829419272329	3.2253413	1.7959235
13.800596387114801	3.2375698	1.7993249
13.818251176163775	3.2391348	1.7997596
13.835906294817324	3.2478864	1.8021894
13.853561743513023	3.279407	1.8109133
13.871217522688525	3.3370416	1.8267571
13.888873632781538	3.3927846	1.8419513
13.906530074229858	3.4295728	1.8519106
13.92418684747135	3.4491062	1.8571769
13.941843952943948	3.4331627	1.8528795
13.959501391085665	3.4590232	1.8598449
13.977159162334578	3.4098682	1.8465829
13.994817267128846	3.3632414	1.8339143
14.012475705906693	3.2414331	1.800398
14.030134479106424	3.1957684	1.7876712
14.047793587166414	3.1275804	1.7684966
14.065453030525108	3.0524652	1.7471305
14.083112809621026	2.9445906	1.7159809
14.100772924892766	2.8840775	1.6982572
14.118433376778997	2.851693	1.6886957
14.136094165718458	2.8001819	1.6733744
14.153755292149969	2.7568119	1.660365
14.171416756512416	2.7256873	1.6509656
14.189078559244768	2.6804774	1.6372163
14.20674070078606	2.5829973	1.6071706
14.224403181575408	2.481962	1.5754244
14.242066002051999	2.4386392	1.5616143
14.259729162655093	2.4597356	1.5683545
14.277392663824022	2.44231	1.5627892
14.295056505998208	2.403944	1.5504657
14.312720689617128	2.3331964	1.5274804
14.330385215120348	2.3302488	1.5265152
14.348050082947497	2.3443263	1.5311192
14.3657152935383	2.3816204	1.54325
14.383380847332528	2.3874164	1.5451267
14.401046744770051	2.3740468	1.5407943
14.418712986290798	2.3740888	1.5408078
14.436379572334793	2.3678806	1.5387919
14.454046503342123	2.3722298	1.5402045
14.471713779752946	2.381136	1.543093
14.489381402007504	2.395977	1.5478944
14.507049370546113	2.3942752	1.5473446
14.524717685809168	2.415687	1.5542481
14.542386348237134	2.4322476	1.5595665
14.560055358270553	2.3990986	1.5489024
14.577724716350051	2.4344761	1.5602808
14.595394422916325	2.425115	1.5572782
14.61306447841015	2.4748394	1.5731622
14.63073488327237	2.4379985	1.5614091
14.648405637943917	2.4637704	1.5696402
14.6660767428658	2.4326897	1.5597082
14.683748198479094	2.489875	1.5779338
14.701420005224954	2.5049436	1.5827013
14.719092163544628	2.5763066	1.6050878
14.73676467387942	2.6553726	1.6295314
14.754437536670727	2.6940029	1.6413418
14.772110752360014	2.6777987	1.6363981
14.78978432138882	2.6393862	1.6246188
14.807458244198777	2.621902	1.6192288
14.82513252123159	2.586709	1.6083249
14.842807152929028	2.6015768	1.6129404
14.860482139732962	2.6072233	1.6146898
14.87815748208531	2.5947883	1.6108347
14.8958331804281	2.593942	1.610572
14.91350923520342	2.5752802	1.6047679
14.931185646853438	2.6156003	1.6172818
14.948862415820408	2.6019847	1.6130669
14.966539542546656	2.631918	1.6223187
14.98421702747459	2.5661342	1.6019158
15.001894871046696	2.5520535	1.5975147
15.019573073705542	2.5088356	1.5839304
15.037251635893766	2.518893	1.587102
15.054930558054092	2.6098795	1.6155121
15.072609840629323	2.6645281	1.6323383
15.090289484062351	2.7813475	1.6677372
15.107969488796124	2.921304	1.7091823
15.125649855273691	3.1489003	1.7745141
15.14333058393817	3.5103073	1.8735814
15.161011675232768	4.0571294	2.0142317
15.17869312960076	4.7034755	2.1687498
15.196374947485506	5.409401	2.3258119
15.214057129330447	6.7338433	2.594965
15.231739675579114	8.896035	2.9826221
15.249422586675102	13.492609	3.6732287
15.267105863062092	18.016932	4.2446356
15.284789505183847	25.007412	5.000741
15.302473513484218	29.727613	5.4523034
15.320157888407127	33.744816	5.8090286
15.337842630396578	32.583477	5.708194
15.355527739896656	29.80842	5.4597087
15.37321321735153	23.295244	4.8265147
15.39089906320545	15.969962	3.9962435
15.408585277902748	10.321889	3.2127697
15.42627186188783	6.426438	2.535042
15.443958815605198	4.5934706	2.1432383
15.461646139499424	3.7575698	1.9384452
15.479333834015168	3.3442526	1.8287297
15.497021899597165	3.0523567	1.7470995
15.514710336690234	2.847333	1.6874042
15.53239914573928	2.6581688	1.6303891
15.550088327189297	2.5417845	1.5942975
15.567777881485336	2.502729	1.5820016
15.58546780907256	2.5083215	1.5837681
15.6031581103962	2.4936316	1.5791237
15.620848785901568	2.4269626	1.5578712
15.638539836034063	2.390396	1.5460906
15.656231261239173	2.4095361	1.552268
15.673923061962451	2.409002	1.552096
15.691615238649552	2.4178102	1.5549309
15.709307791746202	2.406605	1.5513237
15.727000721698221	2.387556	1.5451719
15.744694028951498	2.3451333	1.5313828
15.76238771395202	2.2958856	1.515218
15.780081777145844	2.277663	1.5091928
15.797776218979125	2.3066478	1.5187652
15.815471039898094	2.3351083	1.5281061
15.833166240349064	2.3528388	1.5338966
15.850861820778437	2.3663738	1.5383022
15.868557781632699	2.3969913	1.548222
15.886254123358412	2.4410274	1.5623788
15.903950846402232	2.483098	1.5757849
15.921647951210897	2.5072525	1.5834306
15.939345438231225	2.5109363	1.5845934
15.957043307910133	2.500074	1.5811622
15.974741560694602	2.526303	1.5894349
15.992440197031714	2.5122688	1.5850139
16.01013921736862	2.4672835	1.5707589
16.02783862215259	2.417781	1.5549216
16.045538411830933	2.408021	1.55178
16.06323858685107	2.4400325	1.5620604
16.080939147660512	2.4436326	1.5632123
16.09864009470684	2.4197354	1.5555499
16.11634142843774	2.409927	1.5523939
16.134043149300954	2.3992393	1.5489478
16.15174525774433	2.394505	1.5474188
16.169447754215817	2.400699	1.5494189
16.18715063916342	2.412471	1.5532131
16.204853913035244	2.4170914	1.5546998
16.222557576279478	2.4452753	1.5637376
16.240261629344403	22.417704	4.7347336
16.257966072678386	42.93673	6.5526123
16.275670906729868	37.98445	6.1631527
16.293376131947387	2.4425275	1.5628588
16.31108174877957	2.4887168	1.5775667
16.328787757675133	2.5138378	1.5855087
16.34649415908287	2.5462193	1.5956877
16.364200953451657	2.5511596	1.597235
16.38190814123048	2.5942762	1.6106757
16.39961572286839	2.5855858	1.6079757
16.41732369881455	2.583204	1.607235
16.43503206951817	2.5930564	1.610297
16.45274083542859	2.6935475	1.641203
16.47044999699522	2.752828	1.6591648
16.488159554667558	2.8325255	1.6830108
16.505869508895184	2.8779726	1.6964588
16.523579860127786	2.9248812	1.7102284
16.541290608815117	2.973193	1.7242949
16.559001755407035	3.0433023	1.7445064
16.57671330035348	3.149431	1.7746637
16.59442524410448	3.2642393	1.8067206
16.61213758711015	3.422444	1.8499849
16.629850329820705	3.478656	1.8651155
16.647563472686436	3.5154548	1.8749546
16.665277016157724	3.4825535	1.86616
16.682990960685053	3.5318294	1.8793162
16.70070530671898	3.5313373	1.8791853
16.718420054710155	3.5143538	1.874661
16.736135205109335	3.4955614	1.869642
16.753850758367335	3.5452104	1.8828729
16.771566714935087	3.6197133	1.9025544
16.789283075263597	3.6525292	1.9111592
16.80699983980398	3.668258	1.9152697
16.82471700900741	3.7447178	1.9351274
16.84243458332518	3.8557568	1.9636081
16.860152563208665	3.9543257	1.9885486
16.87787094910932	4.0033355	2.0008337
16.89558974147871	4.0357037	2.0089061
16.913308940768466	4.0622315	2.015498
16.931028547430333	4.129927	2.0322223
16.94874856191613	4.1765375	2.0436578
16.966468984677785	4.2521577	2.062076
16.98418981616729	4.3278775	2.0803552
17.00191105683676	4.371838	2.090894
17.019632707138374	4.4273663	2.1041307
17.03735476752442	4.4332848	2.1055367
17.05507723844728	4.4779487	2.1161165
17.072800120359403	4.504118	2.1222908
17.090523413713353	4.56512	2.136614
17.108247118961785	4.6020117	2.14523
17.125971236557437	4.6259	2.1507905
17.143695766953133	4.575823	2.1391172
17.161420710601806	4.593091	2.1431499
17.179146067956477	4.5908074	2.142617
17.19687183947025	4.5343347	2.1293976
17.21459802559634	4.484748	2.1177223
17.232324626788028	4.5008445	2.1215193
17.25005164349871	4.5146785	2.1247773
17.267779076181863	4.514981	2.1248484
17.285506925291074	4.5218964	2.126475
17.30323519127999	4.5139766	2.124612
17.320963874602384	4.5425844	2.131334
17.33869297571211	4.5413284	2.1310394
17.356422495063114	4.509604	2.1235828
17.37415243310944	4.401822	2.098052
17.391882790305218	4.339726	2.083201
17.40961356710468	4.3825226	2.0934474
17.42734476396215	4.4490223	2.1092706
17.445076381332044	4.5485377	2.13273
17.462808419668868	4.587436	2.1418302
17.48054087942723	4.6831527	2.1640594
17.498273761061835	4.7754364	2.1852772
17.51600706502747	5.111907	2.2609527
17.533740791779024	5.678287	2.3829157
17.551474941771485	6.5846705	2.5660613
17.56920951545993	8.459183	2.9084675
17.586944513299528	9.74295	3.12137
17.60467993574556	12.687451	3.561945
17.622415783253373	15.326108	3.9148574
17.64015205627843	18.09263	4.2535434
17.657888755276293	20.269346	4.502149
17.675625880702604	21.815458	4.670702
17.69336343301311	20.469988	4.524377
17.71110141266366	18.35932	4.2847776
17.728839820110178	15.548982	3.9432197
17.746578655808705	12.355506	3.51504
17.764317920215372	10.2753315	3.2055159
17.7820576137864	8.691421	2.9481215
17.79979773697811	7.327408	2.7069185
17.81753829024692	6.0128264	2.4521065
17.835279274049356	5.1821547	2.2764347
17.85302068884201	4.4305754	2.1048932
17.870762535081607	4.0535545	2.013344
17.888504813224934	3.8624287	1.9653063
17.90624752372891	3.6990616	1.9232944
17.923990667050536	3.573709	1.8904256
17.941734243646895	3.4710648	1.8630794
17.959478253975185	3.4317036	1.8524858
17.9772226984927	3.409124	1.8463813
17.994967577656833	3.3999643	1.8438993
18.01271289192506	3.4076478	1.8459816
18.030458641754965	3.3623264	1.8336648
18.04820482760425	3.3061202	1.8182739
18.06595144993067	3.2544527	1.8040102
18.083698509192125	3.2554417	1.8042842
18.101446005846576	3.2090983	1.7913957
18.119193940352105	3.201087	1.7891582
18.136942313166887	3.1471195	1.7740122
18.1546911247492	3.1195693	1.7662302
18.1724403755574	3.1069098	1.7626429
18.19019006604997	3.1259964	1.7680488
18.207940196685467	3.0962427	1.7596143
18.225690767922575	3.0767713	1.7540728
18.243441780220046	3.0175846	1.7371197
18.261193234036764	3.014231	1.7361541
18.278945129831676	2.9938343	1.73027
18.29669746806386	3.0238328	1.7389171
18.314450249192483	3.0028667	1.7328782
18.3322034736768	2.9690897	1.7231047
18.349957141976184	2.928228	1.7112066
18.3677112545501	2.9272733	1.7109276
18.385465811858108	2.9901807	1.729214
18.403220814359884	3.043939	1.7446889
18.420976262515172	3.0555315	1.7480079
18.43873215678387	3.0558918	1.7481109
18.456488497625923	3.067515	1.7514323
18.474245285501407	3.21171	1.7921244
18.492002520870486	3.26599	1.8072051
18.50976020419343	3.3068335	1.8184701
18.527518335930615	3.5465465	1.8832277
18.545276916542516	4.1477222	2.0365958
18.563035946489688	4.3716908	2.090859
18.580795426232832	4.793969	2.1895134
18.598555356232698	4.6947327	2.1667333
18.616315736950185	4.9149017	2.2169578
18.63407656884626	4.5718493	2.1381884
18.65183785238201	4.7324467	2.1754186
18.669599588018617	4.538496	2.1303747
18.68736177621737	4.534731	2.1294909
18.705124417439652	4.5148582	2.1248195
18.72288751214696	4.3728275	2.0911307
18.740651060800886	4.5163455	2.1251695
18.758415063863115	4.234204	2.057718
18.77617952179546	4.3536572	2.086542
18.793944435059814	4.156175	2.0386698
18.811709804118184	4.137783	2.0341542
18.829475629432675	4.0904245	2.0224798
18.8472419114655	3.8893626	1.9721467
18.86500865067897	4.0143437	2.0035827
18.88277584753551	3.723262	1.9295756
18.90054350249763	3.7267141	1.9304699
18.918311616027957	3.4025176	1.8445914
18.936080188589226	3.2944386	1.8150588
18.953849220644265	3.0176046	1.7371254
18.971618712656007	2.8797803	1.6969916
18.9893886650875	2.8131762	1.6772525
19.007159078401887	7.9770665	2.8243701
19.024929953062408	32.835224	5.7302027
19.042701289532435	32.76018	5.723651
19.060473088275405	25.29286	5.0292006
19.07824534975489	2.5739667	1.6043587
19.096018074434568	2.5759082	1.6049637
19.113791262778197	2.5723891	1.6038669
19.13156491524966	2.5577111	1.5992845
19.149339032312945	2.5535314	1.5979773
19.167113614432136	2.542406	1.5944924
19.184888662071433	2.5461369	1.5956619
19.202664175695123	2.5023344	1.5818769
19.220440155767623	2.5078027	1.5836043
19.238216602753447	2.5141165	1.5855966
19.2559935171172	2.5220854	1.5881075
19.27377089932361	2.5212276	1.5878373
19.291548749837514	2.5265207	1.5895033
19.309327069123835	2.5135722	1.5854249
19.32710585764763	2.488901	1.577625
19.344885115874032	2.4694748	1.5714563
19.362664844268313	2.4657815	1.5702807
19.380445043295822	2.425836	1.5575095
19.39822571342203	2.4346454	1.560335
19.41600685511252	2.4290082	1.5585276
19.43378846883297	2.4379616	1.5613973
19.451570555049173	2.4298928	1.5588113
19.469353114227037	2.4656417	1.5702362
19.48713614683254	2.4787931	1.5744183
19.50491965333182	2.4548311	1.5667901
19.52270363419109	2.43498	1.5604422
19.540488089876686	2.4765363	1.5737015
19.55827302085503	2.4987454	1.580742
19.576058427592674	2.4551487	1.5668914
19.593844310556282	2.4127252	1.5532949
19.611630670212598	2.4311295	1.5592079
19.629417507028506	2.4618392	1.5690249
19.64720482147098	2.4782648	1.5742506
19.6649926140071	2.4758053	1.5734692
19.682780885104084	2.487673	1.5772359
19.70056963522921	2.467088	1.5706967
19.718358864849908	2.46387	1.569672
19.7361485744337	2.464449	1.5698563
19.753938764448215	2.480197	1.5748641
19.771729435361202	2.497442	1.5803297
19.789520587640506	2.4975972	1.5803788
19.807312221754092	2.4767745	1.5737771
19.825104338170043	2.495942	1.5798551
19.842896937356517	2.5002859	1.5812292
19.860690019781824	2.5090125	1.5839863
19.87848358591436	2.4867828	1.5769536
19.896277636222635	2.475611	1.5734074
19.914072171175278	2.444484	1.5634845
19.931867191241015	2.4238107	1.5568593
19.94966269688869	2.4431121	1.5630457
19.967458688587264	2.4684968	1.571145
19.985255166805807	2.4771938	1.5739104
20.00305213201348	2.4306574	1.5590565
20.020849584679578	2.4088962	1.5520619
20.038647525273507	2.3875642	1.5451745
20.05644595426477	2.356189	1.5349883
20.07424487212299	2.38593	1.5446457
20.092044279317903	2.4130566	1.5534016
20.109844176319353	2.460646	1.5686446
20.127644563597304	2.4337656	1.5600531
20.145445441621817	2.445156	1.5636995
20.16324681086307	2.435257	1.560531
20.181048671791373	2.4312568	1.5592488
20.198851024877122	2.3950703	1.5476015
20.216653870590836	2.3998067	1.5491309
20.234457209403146	2.385285	1.5444368
20.252261041784802	2.364198	1.5375949
20.270065368206662	2.3611875	1.5366156
20.287870189139685	2.343951	1.5309967
20.305675505054968	2.32558	1.5249852
20.323481316423702	2.2778387	1.509251
20.341287623717207	2.2915893	1.5137997
20.359094427406884	2.318509	1.5226651
20.376901727964288	2.3223937	1.5239402
20.39470952586107	2.2840521	1.5113081
20.41251782156899	2.303274	1.5176541
20.430326615559935	2.3055763	1.5184125
20.448135908305886	2.2814817	1.5104575
20.465945700278965	2.263535	1.5045049
20.483755991951384	2.2688053	1.5062554
20.50156678379548	2.296192	1.5153191
20.519378076283708	2.281173	1.5103552
20.537189869888635	2.2906272	1.5134819
20.55500216508294	2.2952554	1.51501
20.572814962339415	2.303041	1.5175773
20.59062826213098	2.2638328	1.5046039
20.60844206493066	2.2443817	1.498126
20.626256371211593	2.2603374	1.5034418
20.644071181447032	2.3011394	1.5169507
20.66188649611036	2.3105505	1.5200495
20.67970231567506	2.2946804	1.5148202
20.697518640614742	2.3039594	1.5178798
20.715335471403122	2.2972236	1.5156595
20.73315280851404	2.2752182	1.5083827
20.750970652421447	2.2651756	1.5050501
20.768789003599412	2.2646363	1.5048709
20.786607862522136	2.2597106	1.5032333
20.8044272296639	2.2602134	1.5034006
20.82224710549913	2.2347348	1.494903
20.84006749050237	2.2178926	1.4892591
20.857888385148268	3.7739022	1.9426534
20.8757097899116	45.926357	6.776899
20.893531705267254	64.82741	8.051547
20.911354131690224	83.84066	9.156454
20.92917706965566	69.05393	8.30987
20.94700051963877	50.08774	7.0772696
20.96482448211493	29.373196	5.4197044
20.982648957559622	4.130109	2.0322669
21.00047394644843	2.2279599	1.4926353
21.01829944925707	2.199238	1.4829829
21.036125466461375	2.2016225	1.4837866
21.053951998537297	2.2130852	1.4876442
21.071779045960906	2.2137609	1.4878713
21.089606609208378	2.2264185	1.4921188
21.10743468875603	2.2100506	1.4866239
21.12526328508028	2.233511	1.4944936
21.143092398657675	2.224176	1.4913671
21.16092202996488	2.2051203	1.4849647
21.17875217947867	2.177493	1.4756331
21.19658284767596	2.1562595	1.4684207
21.21441403503377	2.1706402	1.4733093
21.232245742029225	2.1589222	1.4693271
21.2500779691396	2.1359875	1.4615018
21.26791071684227	2.1227384	1.456962
21.28574398561475	2.1309493	1.4597771
21.30357777593465	2.1606743	1.4699233
21.321412088279704	2.1455452	1.4647679
21.339246923127792	2.117856	1.4552855
21.357082280956888	2.0822852	1.4430125
21.3749181622451	2.0979097	1.4484162
21.392754567470647	2.0979466	1.448429
21.41059149711187	2.0757375	1.440742
21.42842895164726	2.0382006	1.4276556
21.446266931555378	2.0809927	1.4425646
21.464105437314945	2.0938034	1.4469981
21.481944469404798	2.0659225	1.4373317
21.49978402830388	2.0290294	1.42444
21.51762411449127	2.050862	1.4320831
21.53546472844617	2.0644236	1.4368103
21.553305870647876	2.0643945	1.4368001
21.571147541575865	2.079796	1.4421498
21.58898974170967	2.0785313	1.4417112
21.60683247152899	2.054579	1.4333802
21.62467573151363	2.080891	1.4425293
21.642519522143523	2.0909889	1.4460253
21.660363843898722	2.085699	1.4441949
21.6782086972594	2.0462549	1.4304737
21.696054082705864	2.0160174	1.4198653
21.713900000718535	2.0079963	1.4170378
21.73174645177795	2.0076618	1.4169198
21.749593436364794	2.0161707	1.4199193
21.767440954959845	2.0221868	1.4220362
21.785289008044032	2.0149217	1.4194794
21.803137596098388	2.0074654	1.4168506
21.820986719604086	1.9915727	1.4112309
21.838836379042412	1.9979665	1.4134945
21.85668657489478	1.9885578	1.4101623
21.87453730764273	2.0051954	1.4160492
21.892388577767914	1.9846399	1.4087725
21.91024038575213	1.9969611	1.4131387
21.928092732077285	1.9796249	1.4069915
21.945945617225426	2.002578	1.4151248
21.963799041678694	2.0061743	1.4163948
21.981653005919398	31.303219	5.594928
21.999507510429943	78.058304	8.835061
22.01736255569286	72.99828	8.543903
22.035218142190818	4.1480756	2.0366826
22.05307427040661	1.9949098	1.4124128
22.07093094082315	1.9834241	1.4083409
22.088788153923474	1.9690255	1.4032197
22.106645910190746	1.9371723	1.3918234
22.12450421010827	1.9343776	1.3908191
22.142363054159464	1.9113842	1.3825282
22.16022244282787	1.943287	1.3940183
22.178082376597164	1.9457581	1.3949044
22.195942855951145	1.9861616	1.4093125
22.213803881373742	2.0292814	1.4245285
22.231665453349002	2.0308928	1.425094
22.24952757236111	1.971648	1.4041538
22.26739023889438	1.9308963	1.3895669
22.28525345343323	1.9421873	1.3936238
22.30311721646225	1.9347142	1.3909401
22.320981528466113	1.9046246	1.3800814
22.33884638992964	1.8766226	1.3698988
22.356711801337788	1.9112607	1.3824835
22.37457776317561	1.9434092	1.3940622
22.392444275928337	1.9639382	1.4014058
22.410311340081282	1.950545	1.3966191
22.428178956119904	1.9389102	1.3924476
22.446047124529805	1.894759	1.3765025
22.46391584579669	1.8873944	1.3738247
22.481785120406414	1.9070601	1.3809634
22.49965494884496	1.9309219	1.3895762
22.51752533159841	1.9185956	1.3851337
22.53539626915302	1.8919225	1.3754717
22.553267761995137	1.8808092	1.371426
22.571139810611264	1.930246	1.3893329
22.589012415488025	1.9732286	1.4047165
22.60688557711216	1.9669794	1.4024904
22.624759295970566	1.9493673	1.3961974
22.642633572550263	1.9793726	1.4069018
22.660508407338362	1.9704384	1.403723
22.67838380082217	1.9525733	1.3973451
22.696259753489077	1.9382042	1.392194
22.714136265826614	1.9351082	1.3910817
22.73201333832246	1.8852698	1.3730513
22.74989097146439	1.8904716	1.3749442
22.76776916574035	1.8786544	1.3706402
22.785647921638393	1.8907397	1.3750417
22.803527239646712	1.8892219	1.3744897
22.82140712025363	1.9014359	1.3789256
22.839287563947593	1.8810076	1.3714983
22.85716857121719	1.8727084	1.3684694
22.875050142551135	1.8816198	1.3717215
22.892932278438277	1.880147	1.3711845
22.910814979367604	1.9004409	1.3785648
22.928698245828222	1.9079922	1.3813009
22.946582078309387	1.9355268	1.3912321
22.96446647730047	1.9058847	1.3805379
22.98235144329098	1.8763866	1.3698126
23.000236976770562	1.8604298	1.3639758
23.018123078229	1.8848069	1.3728827
23.03600974815619	1.8787283	1.3706671
23.053896987042194	1.8670878	1.3664142
23.071784795377173	1.8634712	1.3650901
23.08967317365145	1.9167466	1.3844662
23.10756212235546	1.9304655	1.3894119
23.125451641979787	1.913885	1.3834323
23.143341733015134	1.8781675	1.3704625
23.161232395952357	1.8748631	1.3692564
23.179123631282426	1.9502817	1.3965249
23.197015439496468	1.9717917	1.404205
23.214907821085717	1.9366888	1.3916496
23.23280077654157	1.8865707	1.3735249
23.250694306355538	1.9008019	1.3786957
23.268588411019277	1.9147898	1.3837593
23.28648309102458	1.9509813	1.3967754
23.304378346863356	1.9196699	1.3855215
23.322274179027676	1.8802255	1.3712132
23.340170588009723	1.8452332	1.3583937
23.358067574301852	1.8775198	1.3702261
23.37596513839651	1.9082079	1.381379
23.39386328078629	1.9475529	1.3955475
23.411762001963947	1.9560673	1.3985947
23.429661302422353	1.9271448	1.3882164
23.4475611826545	1.8884016	1.3741913
23.46546164315356	1.8555367	1.3621808
23.48336268441279	1.8833596	1.3723555
23.501264306925638	1.9092858	1.3817691
23.51916651118564	1.9339104	1.3906511
23.537069297686497	1.9215813	1.3862112
23.554972666922037	1.8734584	1.3687433
23.57287661938623	1.8229272	1.3501582
23.59078115557318	1.8442005	1.3580134
23.608686275977128	1.8661184	1.3660594
23.62659198109246	1.905476	1.3803898
23.6444982714137	1.9213907	1.3861424
23.66240514743549	1.9273587	1.3882935
23.68031260965263	1.9061394	1.38063
23.698220658560068	1.911913	1.3827194
23.716129294652845	1.915768	1.3841127
23.7340385184262	1.9171622	1.3846163
23.75194833037546	1.9080359	1.3813167
23.769858730996123	1.9222337	1.3864465
23.78776972078382	1.9108237	1.3823254
23.80568130023431	1.8972471	1.3774059
23.823593469843495	1.882588	1.3720744
23.841506230107424	1.9007436	1.3786746
23.859419581522275	1.8961267	1.3769991
23.87733352458438	1.8759263	1.3696445
23.89524805979019	1.8498951	1.3601085
23.913163187636318	1.8792948	1.3708737
23.931078908619508	1.917779	1.3848389
23.948995223236633	1.9401823	1.3929043
23.966912131984735	1.9377636	1.3920357
23.98482963536096	1.9979388	1.4134846
24.002747733862616	2.0056612	1.4162138
24.020666427987155	2.0205991	1.4214778
24.038585718232156	2.0066278	1.4165549
24.056505605095353	2.0033112	1.4153837
24.074426089074617	2.0140603	1.4191759
24.092347170667946	1.9825526	1.4080315
24.110268850373515	1.9669241	1.4024707
24.128191128689586	2.017882	1.4205217
24.146114006114626	2.0617845	1.4358915
24.164037483147187	2.090563	1.4458779
24.181961560286005	2.0969265	1.4480768
24.199886238029926	2.0683143	1.4381635
24.21781151687797	2.0737977	1.4400686
24.235737397329274	2.0948215	1.4473498
24.253663879883135	2.086308	1.4444058
24.271590965038975	2.0848455	1.4438994
24.289518653296376	2.0677574	1.4379699
24.30744694515505	2.0566514	1.434103
24.32537584111486	2.033003	1.4258342
24.34330534167581	1.9857501	1.4091665
24.361235447338046	1.9863278	1.4093714
24.379166158601876	1.9754832	1.4055188
24.39709747596772	1.9565948	1.3987833
24.41502939993615	1.9310218	1.3896121
24.432961931007917	1.9405092	1.3930216
24.450895069683856	1.9512218	1.3968614
24.468828816465	1.9838299	1.4084849
24.4867631718525	1.9432421	1.3940022
24.504698136347656	1.9152359	1.3839204
24.52263371045192	1.9130781	1.3831407
24.540569894666874	1.9439116	1.3942423
24.558506689494266	1.9225415	1.3865575
24.57644409543597	1.870465	1.3676494
24.594382112994012	1.859218	1.3635315
24.61232074267057	1.8918853	1.3754582
24.630259984967953	1.9403147	1.3929517
24.64819984038863	1.9092891	1.3817703
24.66614030943522	1.8849952	1.3729513
24.684081392610462	1.8758832	1.3696289
24.702023090417274	1.9299303	1.3892193
24.7199654033587	2.009329	1.417508
24.737908331937927	2.0650425	1.4370255
24.755851876658305	2.075643	1.4407092
24.773796038023324	2.0735893	1.4399962
24.79174081653661	2.1177812	1.4552598
24.809686212701962	2.0999656	1.4491258
24.827632227023294	2.1205158	1.456199
24.8455788600047	2.1049874	1.4508575
24.8635261121504	2.1182976	1.4554373
24.88147398396475	2.0915997	1.4462364
24.899422475952303	2.0592248	1.435
24.917371588617698	2.0714068	1.4392383
24.935321322465768	2.1784005	1.4759406
24.953271678001478	2.289813	1.5132128
24.97122265572994	2.4402401	1.5621268
24.989174256156414	2.7058015	1.644932
25.00712647978632	3.2697725	1.8082513
25.02507932712521	4.378301	2.092439
25.043032798678798	6.0060444	2.4507232
25.060986894952933	7.6361294	2.7633548
25.078941616453637	9.055499	3.0092356
25.096896963687055	9.895097	3.1456473
25.114852937159508	10.513124	3.242395
25.132809537377444	10.323319	3.2129922
25.150766764847468	9.734375	3.119996
25.168724620076347	8.425182	2.9026165
25.186683103570985	7.1998143	2.683247
25.204642215838426	5.8050275	2.4093626
25.222601957385894	4.68454	2.1643798
25.24056232872074	3.5756805	1.890947
25.25852333035048	2.852517	1.6889396
25.276484962782778	2.4457057	1.5638752
25.294447226525435	2.2345164	1.4948299
25.312410122086423	2.0974944	1.448273
25.330373649973843	2.0270343	1.4237396
25.348337810695988	1.9733524	1.4047606
25.366302604761245	1.922188	1.3864299
25.384268032678207	1.8661615	1.3660752
25.40223409495558	1.8277384	1.3519387
25.420200792102257	1.8346211	1.3544818
25.438168124627246	1.8888092	1.3743396
25.45613609303974	1.9006726	1.3786488
25.474104697849057	1.8644624	1.3654531
25.492073939564698	1.8547609	1.361896
25.510043818696285	1.8914864	1.3753132
25.528014335753614	1.8946625	1.3764673
25.54598549124664	1.8535888	1.3614657
25.56395728568544	1.8195797	1.348918
25.58192971958028	1.796899	1.3404846
25.59990279344156	1.8051972	1.3435763
25.617876507779833	1.8270407	1.3516806
25.635850863105826	1.8382173	1.3558087
25.653825859930386	1.842474	1.3573776
25.671801498764548	1.8545531	1.3618197
25.68977778011949	1.8265406	1.3514957
25.707754704506524	1.8096949	1.345249
25.725732272437153	1.8110502	1.3457526
25.743710484423012	1.7993423	1.3413956
25.761689340975888	1.7928967	1.3389909
25.77966884260774	1.7989054	1.3412328
25.797648989830662	1.8391261	1.3561438
25.815629783156922	1.8448536	1.3582538
25.83361122309895	1.836149	1.3550458
25.85159331016929	1.8135909	1.3466963
25.869576044880695	1.7842407	1.3357548
25.887559427746034	1.7823898	1.3350617
25.90554345927836	1.8273041	1.3517781
25.92352813999086	1.8369372	1.3553365
25.94151347039689	1.8350176	1.3546282
25.959499451009965	1.8243495	1.3506849
25.97748608234374	1.8358144	1.3549223
25.995473364912062	1.8557074	1.3622435
26.013461299228904	1.8766237	1.3698992
26.03144988580839	1.8662536	1.3661089
26.04943912516483	1.8458036	1.3586036
26.067429017812675	1.8135664	1.3466872
26.085419564266537	1.777057	1.333063
26.103410765041186	1.7966527	1.3403927
26.12140262065155	1.802835	1.3426969
26.139395131612723	1.8528631	1.3611991
26.157388298439948	1.848467	1.3595834
26.17538212164861	1.833113	1.353925
26.193376601754295	1.796273	1.3402511
26.211371739272714	1.7829636	1.3352766
26.229367534719746	1.7692604	1.3301355
26.247363988611433	1.8077652	1.3445317
26.26536110146397	1.8030853	1.3427901
26.283358873793727	1.7916374	1.3385206
26.301357306117204	1.7734588	1.3317127
26.319356398951104	1.8326924	1.3537697
26.33735615281224	1.8538542	1.3615631
26.35535656821762	1.8421772	1.3572682
26.373357645684404	1.8152894	1.3473268
26.39135938572991	1.7921977	1.3387299
26.409361788871614	1.7851187	1.3360833
26.427364855627165	1.8392347	1.3561839
26.445368586514352	1.8896911	1.3746604
26.46337298205115	1.8525326	1.3610778
26.48137804275568	1.8170738	1.3479888
26.499383769146217	1.8244902	1.3507369
26.517390161741215	1.808744	1.3448955
26.53539722105928	1.7604086	1.3268039
26.553404947619182	1.7102197	1.3077537
26.571413341939856	1.7342185	1.3168973
26.589422404540397	1.7890539	1.3375552
26.60743213594006	1.8373394	1.355485
26.62544253665827	1.816605	1.3478149
26.64345360721459	1.7877215	1.337057
26.66146534812879	1.7873281	1.3369099
26.679477759920758	1.7993554	1.3414005
26.69749084311057	1.7582964	1.3260077
26.71550459821847	1.7668734	1.3292379
26.733519025764842	1.8264954	1.3514789
26.751534126270258	1.8503308	1.3602687
26.769549900255434	1.8612292	1.3642688
26.787566348241267	1.8731966	1.3686477
26.80558347074881	1.8454735	1.3584821
26.823601268299267	1.7711936	1.3308619
26.841619741414036	1.7030269	1.3050008
26.85963889061465	1.7242426	1.3131042
26.877658716422832	1.7939599	1.3393879
26.89567921936045	1.8997114	1.3783002
26.913700399949544	1.9101756	1.382091
26.93172225871233	1.8542814	1.36172
26.949744796171174	1.8229667	1.3501729
26.967768012848605	1.8117582	1.3460157
26.98579190926733	1.8324112	1.3536658
27.003816485950225	1.7942469	1.3394951
27.021841743420318	1.810573	1.3455753
27.039867682200814	1.8135762	1.3466909
27.057894302815072	1.8099844	1.3453566
27.07592160578664	1.8374112	1.3555114
27.0939495916392	1.842087	1.3572351
27.111978260896635	1.7991608	1.341328
27.13000761408296	1.7270273	1.3141642
27.148037651722397	1.7637575	1.3280653
27.166068374339304	1.8289953	1.3524035
27.184099782458215	1.8703794	1.3676182
27.20213187660384	1.8325777	1.3537273
27.22016465730105	1.8017089	1.3422775
27.23819812507487	1.7796125	1.3340212
27.256232280450533	1.8605676	1.3640262
27.274267123953383	1.8814616	1.3716638
27.292302656108987	1.8200458	1.3490907
27.31033887744306	1.7945101	1.3395933
27.32837578848146	1.8356146	1.3548485
27.34641338975026	1.8472605	1.3591396
27.364451681775673	1.8401246	1.356512
27.382490665084074	1.826458	1.3514651
27.400530340202046	1.7816341	1.3347787
27.41857070765629	1.7707325	1.3306887
27.436611767973726	1.7882713	1.3372626
27.454653521681404	1.8321933	1.3535854
27.472695969306564	1.858828	1.3633884
27.490739111376627	1.829018	1.3524119
27.508782948419153	1.8143655	1.3469839
27.526827480961902	1.8164033	1.34774
27.54487270953279	1.835822	1.354925
27.562918634659898	1.8599837	1.3638122
27.580965256871508	1.8607416	1.3640901
27.599012576696026	1.8686749	1.3669949
27.617060594662068	1.8399733	1.3564562
27.63510931129842	1.7789246	1.3337634
27.65315872713401	1.7617583	1.3273125
27.67120884269797	1.7801262	1.3342137
27.68925965851958	1.7983748	1.341035
27.707311175128307	1.7800239	1.3341753
27.725363393053787	1.7720263	1.3311747
27.74341631282583	1.834063	1.3542758
27.7614699349744	1.8989727	1.3780322
27.77952426002968	2.1058912	1.4511689
27.797579288521973	2.1344004	1.4609587
27.815635020981784	2.5081658	1.583719
27.83369145793979	2.5904868	1.6094989
27.85174859992682	2.4889445	1.5776389
27.869806447473923	2.3362756	1.528488
27.887865001112267	2.0012124	1.4146421
27.905924261373233	1.8907735	1.375054
27.92398422878836	1.8863304	1.3734374
27.94204490388936	1.8611662	1.3642457
27.96010628720813	1.8373272	1.3554804
27.978168379276728	1.8264838	1.3514746
27.9962311806274	1.8384197	1.3558834
28.014294691792568	1.8682349	1.3668339
28.0323589133048	1.8810978	1.3715311
28.050423845696887	1.8797194	1.3710285
28.068489489501758	1.8986819	1.3779267
28.086555845252523	1.911958	1.3827357
28.104622913482487	1.8808007	1.3714229
28.122690694725115	1.8476183	1.3592713
28.14075918951405	1.8427924	1.357495
28.15882839838312	1.8591312	1.3634996
28.176898321866304	1.8533198	1.3613669
28.1949689604978	1.8544749	1.361791
28.213040314811945	1.883718	1.3724861
28.23111238534327	1.8585464	1.3632852
28.249185172626493	1.8279141	1.3520037
28.267258677196473	1.8125478	1.346309
28.285332899588294	1.888421	1.3741983
28.303407840337172	1.9267626	1.3880787
28.321483499978545	1.974022	1.4049989
28.33955987904799	1.9668537	1.4024457
28.357636978081285	1.9169445	1.3845377
28.37571479761439	1.8981277	1.3777256
28.393793338183425	1.9276739	1.388407
28.41187260032469	1.9450027	1.3946335
28.429952584574686	1.9549537	1.3981966
28.448033291470065	2.0140524	1.4191731
28.46611472154769	2.0439165	1.429656
28.484196875344566	2.0864623	1.4444592
28.502279753397914	2.0697107	1.4386489
28.52036335624511	2.0257459	1.423287
28.538447684423716	1.958045	1.3993016
28.556532738471482	1.937839	1.3920629
28.574618518926325	1.9749444	1.4053271
28.59270502632635	1.9932684	1.4118316
28.61079226120985	2.0049422	1.4159598
28.628880224115274	1.966193	1.40221
28.646968915581287	1.9632138	1.4011474
28.66505833614671	2.0130105	1.418806
28.68314848635055	2.1065152	1.4513838
28.701239366732004	2.0463986	1.4305239
28.71933097783044	2.0302289	1.424861
28.737423320185403	2.0218565	1.4219201
28.75551639433665	2.0323632	1.4256097
28.773610200824074	2.0947068	1.4473102
28.791704740187793	2.1085107	1.4520712
28.80980001296809	2.077672	1.4414132
28.827896019705413	2.0672164	1.4377818
28.845992760940433	2.167448	1.4722255
28.86409023721397	2.1544383	1.4678005
28.88218844906704	2.1457124	1.464825
28.900287397040845	2.094112	1.4471047
28.918387081676755	2.1149535	1.454288
28.936487503516343	2.1824164	1.4773004
28.954588663101365	2.2570205	1.5023383
28.97269056097374	2.3130467	1.5208703
28.990793197675597	2.3629873	1.5372012
29.00889657374923	2.4062126	1.5511972
29.027000689737125	2.3856745	1.5445628
29.04510554618196	2.4184306	1.5551304
29.06321114362659	2.4550915	1.5668732
29.08131748261405	2.43171	1.5593941
29.099424563687567	2.447905	1.5645783
29.11753238739057	2.520128	1.5874912
29.13564095426663	2.52924	1.5903584
29.15375026485954	2.541249	1.5941296
29.171860319713275	2.533822	1.5917984
29.18997111937199	2.5837169	1.6073945
29.20808266438002	2.6576648	1.6302346
29.226194955281898	2.7122066	1.6468779
29.244307992622335	2.7983751	1.6728345
29.26242177694624	2.7885504	1.6698953
29.2805363087987	2.77476	1.6657611
29.29865158872498	2.8339117	1.6834226
29.316767617270557	2.892289	1.7006731
29.334884394981064	2.958812	1.7201197
29.353001922402367	3.0535505	1.7474412
29.37112020008047	3.1478899	1.7742294
29.389239228561596	3.2009294	1.7891141
29.407359008392152	3.2888799	1.8135269
29.42547954011872	3.596654	1.8964846
29.44360082428809	4.016932	2.0042286
29.46172286144722	4.914116	2.2167804
29.479845652143283	6.5147295	2.5523968
29.497969196923606	9.125533	3.0208497
29.516093496335728	12.947651	3.5982845
29.5342185509274	16.764978	4.094506
29.55234436124651	19.906143	4.46163
29.570470927841175	21.232468	4.60787
29.588598251259686	20.959433	4.5781474
29.60672633205055	19.422363	4.407081
29.624855170762405	16.363934	4.045236
29.642984767944146	12.903302	3.5921166
29.66111512414481	9.42136	3.0694234
29.67924623991366	6.998287	2.6454277
29.697378115800138	5.204948	2.2814355
29.71551075235387	4.303908	2.0745862
29.733644150124675	3.8319921	1.9575474
29.751778309662576	3.5630918	1.8876153
29.769913231517766	3.3931851	1.84206
29.78804891624066	3.329019	1.8245599
29.806185364381818	3.329371	1.8246564
29.82432257649206	3.3470263	1.829488
29.842460553122333	3.334227	1.8259866
29.86059929482382	3.3304563	1.8249538
29.878738802147872	3.2825878	1.8117913
29.896879075646048	3.2532601	1.8036796
29.915020115870114	3.2148583	1.7930026
29.933161923371976	3.2059183	1.7905078
29.951304498703777	3.2824984	1.8117666
29.969447842417857	3.2994685	1.8164439
29.987591955066733	3.265041	1.8069425
30.005736837203123	3.19028	1.7861354
30.023882489379943	3.1077578	1.7628834
30.04202891215028	3.1353526	1.7706927
30.060176106067455	3.1601887	1.777692
30.078324071684946	3.1762908	1.7822151
30.09647280955646	3.1413949	1.772398
30.114622320235863	3.115538	1.7650887
30.132772604277257	3.1590002	1.7773576
30.1509236622349	3.1495893	1.7747083
30.16907549466328	3.0702229	1.7522051
30.18722810211705	3.0236654	1.738869
30.205381485151097	3.0775168	1.7542852
30.22353564432045	3.1223342	1.7670128
30.241690580180403	3.069139	1.7518958
30.25984629328638	2.980409	1.7263861
30.278002784194037	2.9618905	1.7210144
30.296160053459246	2.9615438	1.7209136
30.314318101638033	2.9836094	1.7273128
30.332476929286646	2.9300895	1.7117504
30.35063653696153	2.8797803	1.6969916
30.368796925219307	2.811607	1.6767846
30.386958094616844	2.8308744	1.6825203
30.40512004571115	2.8252132	1.680837
30.423282779059463	2.8980124	1.7023549
30.441446295219233	2.9347022	1.7130972
30.459610594748067	2.9138327	1.7069952
30.47777567820382	2.8683403	1.6936175
30.495941546144504	2.8426166	1.6860061
30.51410819912835	2.886093	1.6988505
30.532275637713795	2.8830242	1.697947
30.55044386245946	2.8869684	1.6991081
30.56861287392416	2.8731399	1.6950339
30.586782672666956	2.829966	1.6822503
30.604953259247047	2.8419788	1.685817
30.623124634223885	2.7968063	1.6723655
30.641296798157075	2.7370808	1.6544125
30.659469751606462	2.7310827	1.6525987
30.677643495132074	2.7789667	1.6670233
30.695818029294152	2.7632322	1.6622972
30.713993354653116	2.788568	1.6699007
30.73216947176962	2.812546	1.6770647
30.75034638120448	2.8261206	1.6811069
30.768524083518756	2.826351	1.6811755
30.786702579273673	2.876118	1.6959121
30.80488186903069	2.982194	1.726903
30.82306195335144	3.108344	1.7630496
30.841242832797782	3.2423663	1.8006572
30.85942450793176	3.55562	1.8856351
30.877606979315637	4.019653	2.0049071
30.895790247511883	4.457193	2.1112065
30.913974313083134	4.785236	2.1875181
30.932159176592283	5.10118	2.2585793
30.95034483860237	5.4602346	2.3367145
30.968531299676698	5.562284	2.3584495
30.98671856037873	5.338323	2.310481
31.00490662127215	4.940927	2.2228196
31.023095482920848	4.379469	2.0927181
31.04128514588892	3.7522886	1.9370825
31.059475610740662	3.249125	1.8025329
31.07766687804056	2.9064236	1.7048236
31.09585894835335	2.6816652	1.6375791
31.11405182224393	2.5713732	1.6035502
31.132245500277417	2.5304513	1.5907393
31.15043998301914	2.4411922	1.5624315
31.168635271034628	2.3711896	1.5398668
31.18683136488964	2.3784192	1.5422124
31.20502826515008	2.396613	1.5480998
31.223225972382135	2.3829134	1.5436687
31.241424487152155	2.391905	1.5465785
31.259623810026692	2.3935282	1.5471032
31.27782394157253	2.4146016	1.5538988
31.296024882356644	2.4315262	1.5593352
31.314226632946237	2.476804	1.5737865
31.332429193908684	2.506709	1.583259
31.350632565811598	2.524443	1.5888495
31.368836749222787	2.5211105	1.5878005
31.387041744710295	2.4784937	1.5743233
31.40524755284232	2.4874265	1.5771577
31.423454174187317	2.4645734	1.569896
31.441661609313922	2.4861732	1.5767603
31.459869858791002	2.4618077	1.5690149
31.478078923187628	2.3912964	1.5463817
31.496288803073064	2.3612192	1.5366259
31.514499499016807	2.3344512	1.527891
31.532711011588546	2.2861514	1.5120025
31.550923341358178	2.3176706	1.5223898
31.56913648889584	2.3602862	1.5363224
31.587350454771844	2.32689	1.5254147
31.605565239556732	2.2828562	1.5109124
31.62378084382127	2.3007452	1.5168208
31.641997268136382	2.357662	1.535468
31.660214513073274	2.3565516	1.5351064
31.67843257920331	2.3415222	1.5302033
31.6966514670981	2.2544405	1.5014795
31.71487117732944	2.2014148	1.4837166
31.733091710469346	2.2835128	1.5111296
31.751313067090052	2.3730183	1.5404603
31.769535247764008	2.35831	1.535679
31.787758253063878	2.269628	1.5065285
31.805982083562526	2.294456	1.5147462
31.824206739833024	2.2552907	1.5017625
31.84243222244869	2.2504404	1.5001467
31.860658531983013	2.2583468	1.5027797
31.878885669009737	2.2496994	1.4998997
31.897113634102784	2.2407079	1.4968994
31.91534242783632	2.2433496	1.4977815
31.933572050784694	2.2339702	1.4946471
31.951802503522508	2.1881099	1.4792261
31.970033786624548	2.202423	1.4840564
31.988265900665834	2.151418	1.4667712
32.006498846221575	2.0819442	1.4428943
32.02473262386724	2.1085443	1.4520828
32.04296723417845	2.1369286	1.4618237
32.0612026777311	2.151437	1.4667778
32.07943895510129	2.1449943	1.4645799
32.097676066865304	2.2074854	1.4857609
32.115914013599685	2.258484	1.5028253
32.13415279588115	2.2312434	1.4937347
32.152392414286666	2.1580122	1.4690174
32.1706328693934	2.1314244	1.4599398
32.18887416177875	2.1609824	1.470028
32.20711629202032	2.1487653	1.4658668
32.225359260695924	2.0777519	1.4414409
32.243603068383614	2.0582552	1.4346621
32.26184771566166	2.1137595	1.4538774
32.28009320310852	2.0946167	1.4472791
32.2983395313029	2.1086988	1.4521359
32.31658670082372	2.1478417	1.4655516
32.33483471225012	2.1865137	1.4786865
32.35308356616143	2.2239516	1.4912919
32.371333263137245	2.187856	1.4791403
32.38958380375734	2.0460806	1.4304128
32.407835188601744	2.0171385	1.42026
32.42608741825067	2.0660768	1.4373854
32.444340493284585	2.0215683	1.4218186
32.46259441428416	2.0354624	1.4266963
32.48084918183028	2.0526507	1.4327074
32.49910479650405	2.0415335	1.4288224
32.51736125888683	2.015968	1.419848
32.53561856956014	1.9790013	1.4067698
32.5538767291058	2.0012543	1.414657
32.572135738105764	2.0014875	1.4147394
32.59039559714228	1.9642328	1.401511
32.608656306797776	1.9329641	1.3903108
32.62691786765491	1.9714568	1.4040858
32.645180280296586	1.9891127	1.410359
32.663443545305896	2.033454	1.4259923
32.68170766326619	2.0654466	1.4371662
32.69997263476099	2.0755646	1.440682
32.7182384603741	2.0523238	1.4325933
32.7365051406895	2.051935	1.4324577
32.75477267629144	2.0103333	1.4178622
32.77304106776434	1.9627272	1.4009737
32.79131031569289	1.9234459	1.3868835
32.809580420661966	1.8643442	1.36541
32.827851383256714	1.8811213	1.3715397
32.84612320406245	1.9589342	1.3996193
32.86439588366476	1.9600216	1.4000077
32.88266942264945	1.951154	1.3968371
32.9009438216025	1.9483805	1.395844
32.9192190811102	1.9305484	1.3894417
32.937495201758985	1.8973639	1.3774483
32.95577218413556	1.9178013	1.384847
32.974050028826866	1.9772804	1.406158
32.992328736420035	2.0163054	1.4199667
33.010608307502444	1.9192705	1.3853774
33.02888874266169	1.8715515	1.3680466
33.047170042485604	1.9162815	1.3842982
33.06545220756225	1.9988397	1.4138033
33.083735238479896	2.0441518	1.4297384
33.10201913582707	1.9909414	1.4110073
33.12030390019248	1.8837786	1.3725082
33.138589532165135	1.912648	1.3829851
33.15687603233419	1.8792887	1.3708715
33.17516340128909	1.8934742	1.3760357
33.19345163961947	1.8054574	1.3436731
33.211740747915215	1.8172156	1.3480414
33.23003072676643	1.8270199	1.351673
33.248321576763466	1.9482037	1.3957807
33.266613298496885	1.9530663	1.3975215
33.28490589255747	1.8854274	1.3731086
33.30319935953626	1.899112	1.3780828
33.32149370002451	2.0438645	1.4296379
33.339788914613706	2.0174375	1.4203652
33.358085003895575	1.9460231	1.3949993
33.376381968462034	1.8710183	1.3678517
33.39467980890529	1.9258755	1.3877592
33.41297852581774	1.9986073	1.4137211
33.43127811979204	1.934162	1.3907416
33.44957859142105	1.8754783	1.369481
33.467879941297866	1.910401	1.3821726
33.486182170015844	1.9352643	1.3911378
33.50448527816853	1.9102477	1.3821172
33.522789266349754	1.9770484	1.4060755
33.541094135153514	2.1133761	1.4537456
33.55939988517411	2.0390441	1.427951
33.57770651700602	1.9603797	1.4001356
33.59601403124398	1.9335283	1.3905137
33.61432242848296	1.852174	1.360946
33.632631709318154	1.8874184	1.3738334
33.650941874344994	1.964266	1.4015228
33.66925292415916	1.8697985	1.3674058
33.68756485935654	1.9243629	1.3872141
33.70587768053328	2.0863283	1.4444128
33.724191388285746	2.0609417	1.435598
33.74250598321054	1.9796299	1.4069932
33.760821465904506	1.8983302	1.377799
33.77913783696474	1.8746428	1.369176
33.79745509698852	1.9835927	1.4084008
33.815773246573414	2.1160738	1.454673
33.8340922863172	1.8813224	1.371613
33.852412216817896	1.7434353	1.3203921
33.87073303867377	1.8637584	1.3651954
33.889054752483304	1.9227258	1.3866239
33.907377358845245	1.8353622	1.3547554
33.92570085835853	1.9242432	1.3871709
33.94402525162239	2.115472	1.4544662
33.96235053923627	2.1174536	1.4551473
33.980676721799824	1.9661222	1.4021847
33.999003799912984	1.9699041	1.4035327
34.01733177417592	1.9880812	1.4099933
34.03566064518901	2.0279465	1.4240599
34.0539904135529	1.9442207	1.3943532
34.07232107986846	1.8836017	1.3724437
34.090652644736785	1.9898654	1.4106259
34.108985108759235	2.0129173	1.4187732
34.12731847253742	1.8831517	1.3722798
34.14565273667313	1.9338282	1.3906215
34.16398790176847	2.0150049	1.4195087
34.18232396842574	1.8890716	1.374435
34.20066093724749	1.795129	1.3398242
34.21899880883651	1.8455839	1.3585227
34.23733758379583	1.8768926	1.3699973
34.25567726272874	1.9183478	1.3850443
34.27401784623872	1.9980289	1.4135165
34.29235933492957	2.059143	1.4349715
34.31070172940526	2.0717986	1.4393743
34.32904503027003	1.9656961	1.4020329
34.347389238128386	1.8931366	1.375913
34.36573435358502	2.0922387	1.4464573
34.38408037724492	2.0603962	1.435408
34.402427309713296	1.8001812	1.3417083
34.42077515159559	1.7206615	1.3117399
34.43912390349752	1.8457781	1.3585942
34.45747356602499	1.9111347	1.382438
34.47582413978423	1.9579091	1.399253
34.49417562538163	1.9079368	1.3812809
34.51252802342388	1.720145	1.311543
34.53088133451789	1.6703538	1.2924217
34.54923555927084	1.6947849	1.301839
34.567590698290104	1.7305353	1.3154981
34.58594675218336	1.6247257	1.2746472
34.6043037215585	1.7599872	1.3266451
34.62266160702365	1.9910985	1.411063
34.641020409187234	2.0112457	1.4181839
34.65938012865785	1.9658691	1.4020945
34.677740766044394	2.0588882	1.4348826
34.69610232195598	2.059792	1.4351976
34.714464797002016	1.8550926	1.3620179
34.73282819179208	1.7196561	1.3113565
34.751192506936064	1.8091636	1.3450515
34.76955774304408	1.9596783	1.399885
34.7879239007265	1.9239734	1.3870738
34.80629098059391	1.8869928	1.3736786
34.824658983257194	1.8557415	1.362256
34.843027909327446	1.7142799	1.3093051
34.86139775941603	1.8184351	1.3484936
34.879768534134534	2.0623112	1.436075
34.89814023409483	2.0859575	1.4442844
34.91651285990901	2.031751	1.425395
34.93488641218944	1.9405743	1.393045
34.95326089154871	1.6932306	1.301242
34.97163629859967	1.7667037	1.329174
34.99001263395542	1.9425493	1.3937536
35.00838989822934	1.8036511	1.3430008
35.02676809203499	1.8168858	1.3479191
35.04514721598624	1.7755672	1.3325042
35.063527270697215	1.7297775	1.31521
35.081908256782256	1.7444346	1.3207705
35.10029017485597	1.8959194	1.3769239
35.11867302553321	2.008624	1.4172593
35.137056809429104	1.9209528	1.3859844
35.155441527159006	1.694703	1.3018076
35.173827179338524	1.7048526	1.3057001
35.19221376658354	1.9718511	1.4042262
35.21060128951017	2.0197966	1.4211955
35.2289897487348	1.8838812	1.3725455
35.24737914487405	1.9894515	1.4104792
35.26576947854479	2.018149	1.4206157
35.28416075036418	2.0383258	1.4276994
35.30255296094958	2.0257962	1.4233047
35.32094611091867	2.2064736	1.4854203
35.33934020088932	2.1551905	1.4680567
35.35773523147969	1.8988806	1.3779987
35.3761312033082	1.6974936	1.302879
35.394528116993506	1.6674411	1.2912943
35.41292597315452	1.6130109	1.2700436
35.431324772410434	1.639864	1.2805717
35.449724515380666	1.8375025	1.355545
35.46812520268491	1.6231836	1.2740422
35.486526834943106	1.5688685	1.2525448
35.504929412775454	1.5181136	1.2321175
35.52333293680242	1.5180919	1.2321087
35.54173740764471	1.7960203	1.3401568
35.560142825923286	1.7288378	1.3148528
35.5785491922594	1.4454046	1.2022499
35.59695650727454	1.2725397	1.128069
35.61536477159042	2.20624	1.4853417
