0.008763373481513119	0.3822274	0.6182454
0.026290120649546365	0.19633481	0.44309685
0.043816868432600686	0.2273939	0.47685835
0.06134361724069026	0.18048935	0.4248404
0.07887036748382949	0.12902643	0.35920247
0.0963971195720331	0.1066771	0.32661462
0.11392387391531617	0.056245223	0.23716076
0.1314506309236943	0.07478063	0.27346048
0.1489773910071836	0.069606885	0.26383117
0.16650415457580078	0.057029355	0.2388082
0.18403092203956356	0.11761823	0.34295514
0.20155769380849	0.14054365	0.37489152
0.2190844702925996	0.20120811	0.44856226
0.2366112519019124	0.14780945	0.38445994
0.2541380390464497	0.12729348	0.3567821
0.27166483213623416	0.10731278	0.3275863
0.28919163158128947	0.1101839	0.3319396
0.3067184377916406	0.09877034	0.3142775
0.324245251177314	0.17811398	0.42203552
0.34177207214833777	0.15522218	0.39398247
0.3592989011147415	0.14755797	0.38413274
0.37682573848655654	0.13003829	0.36060822
0.39435258467381573	0.1282712	0.3581497
0.41187944008655414	0.17136116	0.41395792
0.42940630513480854	0.19867085	0.44572508
0.446933180228618	0.1972462	0.44412407
0.4644600657780234	0.1529718	0.3911161
0.48198696219306775	0.13938624	0.37334466
0.49951386988379676	0.19906391	0.4461658
0.5170407892602581	0.21152085	0.45991397
0.5345677207325025	0.21137945	0.45976022
0.5520946647105822	0.1882477	0.4338752
0.5696216216045534	0.16274789	0.40342024
0.5871485918244737	0.14529285	0.38117298
0.6046755757804043	0.121951126	0.349215
0.6222025738824094	0.12045804	0.34707066
0.6397295865405557	0.10169721	0.3189
0.6572566141649129	0.13526562	0.36778474
0.6747836571655547	0.15230475	0.39026242
0.6923107159525568	0.15806869	0.39757854
0.7098377909359992	0.15304357	0.39120784
0.7273648825259653	0.15914418	0.3989288
0.7448919911325411	0.17761464	0.42144352
0.762419117165817	0.2250039	0.47434574
0.7799462610358868	0.19486967	0.44144043
0.7974734231528482	0.20423253	0.45192093
0.8150006039268024	0.19714268	0.44400752
0.8325278037678551	0.2131484	0.46167997
0.8500550230861152	0.24445148	0.49442035
0.8675822622916969	0.22811384	0.47761264
0.8851095217947171	0.2193276	0.46832424
0.9026368020052984	0.20441043	0.4521177
0.9201641033335665	0.18859965	0.4342806
0.9376914261896523	0.2270625	0.47651076
0.9552187709836915	0.25154373	0.5015414
0.9727461381258234	0.27867594	0.52789766
0.990273528026193	0.25959474	0.5095044
1.0078009410949496	0.21695097	0.46577996
1.0253283777422473	0.20689254	0.4548544
1.0428558383782454	0.21072385	0.45904666
1.0603833234131086	0.20573637	0.45358172
1.0779108332570058	0.25869873	0.5086244
1.0954383683201119	0.23594928	0.48574612
1.112965929012607	0.27942443	0.5286061
1.1304935157446763	0.42460576	0.6516178
1.1480211289265108	0.51634747	0.7185732
1.1655487689683062	1.4235983	1.1931463
1.1830764362802655	1.6829187	1.2972735
1.200604131272596	2.0056388	1.4162058
1.2181318543555117	2.1943645	1.4813387
1.235659605939232	2.2405784	1.4968562
1.253187386433982	3.7551332	1.9378166
1.270715196249994	5.9230084	2.4337232
1.2882430357975057	10.931713	3.3063142
1.3057709054867608	15.339311	3.9165432
1.3232988057280106	20.69312	4.548969
1.3408267369315112	25.40027	5.039868
1.358354699507526	29.248295	5.4081693
1.3758826938663256	33.353188	5.775222
1.3934107204181858	35.50136	5.958302
1.410938779573391	35.597393	5.9663553
1.4284668717422309	36.11273	6.0093865
1.4459949973350033	35.819523	5.9849415
1.4635231567620117	36.12101	6.0100756
1.4810513504335687	35.09235	5.9238796
1.4985795787599925	34.327084	5.858932
1.5161078421516088	33.936245	5.8254824
1.5336361410187505	33.210487	5.762854
1.5511644757717598	33.255802	5.766784
1.5686928468209842	33.71578	5.806529
1.58622125457678	34.413494	5.8663015
1.6037496994495108	35.663525	5.9718947
1.621278181849548	35.661034	5.971686
1.6388067021872719	36.19118	6.0159106
1.6563352608730693	35.515953	5.959526
1.673863858317336	34.31898	5.8582406
1.6913924949304753	33.453842	5.78393
1.7089211711228998	32.320133	5.68508
1.7264498873050296	31.718983	5.631961
1.7439786438872935	31.083935	5.575297
1.7615074412801288	30.035183	5.4804363
1.779036279893981	29.439615	5.4258285
1.796565160139305	28.524683	5.3408504
1.814094082426564	28.089617	5.299964
1.8316230471662298	27.78133	5.2707996
1.849152054768784	26.990108	5.1952004
1.8666811056447168	26.509905	5.148777
1.8842102002045273	25.695778	5.0691004
1.901739338858724	25.06846	5.006841
1.9192685220178245	24.525774	4.95235
1.9367977500923557	23.74508	4.8728924
1.9543270234928547	23.288317	4.825797
1.971856342629867	22.533516	4.7469482
1.9893857079139496	22.260695	4.718124
2.006915119755667	21.638687	4.65174
2.0244445785655945	21.29395	4.614537
2.0419740847543175	21.04239	4.5871987
2.0595036387324317	20.644398	4.5436106
2.0770332409105414	20.108402	4.484239
2.094562891699263	19.64411	4.4321675
2.1120925915092217	19.159412	4.3771467
2.129622340751053	18.835047	4.3399363
2.1471521398354043	187.10469	13.678621
2.1646819891729323	443.20517	21.052439
2.182211889174303	439.5638	20.965776
2.1997418402501974	452.0254	21.26089
2.2172718428113023	431.99033	20.784376
2.234801897268317	319.85184	17.884401
2.2523320040319548	16.30684	4.038173
2.269862163512935	16.195667	4.024384
2.287392376121992	15.908131	3.9884999
2.304922642269869	15.466034	3.9326878
2.322452962367322	15.227323	3.9022202
2.3399833368251164	14.869996	3.8561635
2.357513766054032	14.766097	3.842668
2.3750442504648586	14.523375	3.8109546
2.3925747904683963	14.168346	3.7640865
2.410105386475459	13.911945	3.729872
2.4276360388968707	13.647812	3.6942945
2.445166748143469	13.428091	3.6644359
2.4626975146261025	13.200775	3.6332872
2.4802283387556323	13.02003	3.6083279
2.4977592209429305	12.769366	3.573425
2.5152901615988825	12.411853	3.523046
2.5328211611343865	12.126062	3.4822495
2.5503522199603523	11.985666	3.462032
2.5678833384877024	11.986812	3.4621975
2.5854145171273712	11.769479	3.4306674
2.6029457562903064	11.392898	3.3753366
2.620477056387469	11.146108	3.3385787
2.6380084178298326	11.14235	3.3380158
2.655539841028383	11.078703	3.3284686
2.673071326394119	10.989922	3.315105
2.6906028743380523	10.643657	3.2624617
2.708134485271211	10.315954	3.2118459
2.7256661596046325	10.071431	3.1735518
2.743197897749369	9.831982	3.1355991
2.760729700116486	9.854652	3.1392121
2.778261567117063	9.82917	3.1351507
2.795793499162193	9.793494	3.1294558
2.8133254966629817	9.5577135	3.091555
2.830857560030551	9.429746	3.070789
2.8483896896760337	9.302142	3.0499413
2.865921886010578	9.321161	3.0530577
2.883454149445347	9.144651	3.0240126
2.9009864803915177	9.016597	3.002765
2.91851887926028	8.890366	2.9816716
2.9360513464628384	8.856604	2.9760046
2.953583882410413	8.723481	2.953554
2.9711164875142373	8.532456	2.921037
2.9886491621855606	8.197403	2.8631108
3.0061819068356455	7.9855266	2.8258674
3.023714721875769	7.9975944	2.8280017
3.041247607717225	7.916134	2.8135624
3.0587805647713213	7.87464	2.8061788
3.0763135934493806	7.8035975	2.793492
3.0938466941627407	7.70309	2.775444
3.1113798673227544	7.6538215	2.766554
3.1289131133407904	7.501807	2.7389426
3.1464464326282315	7.458858	2.731091
3.1639798255964786	7.449425	2.7293634
3.1815132926569443	7.398692	2.7200537
3.1990468342210603	7.2356105	2.689909
3.216580450700272	7.0473895	2.654692
3.2341141425060416	7.020585	2.6496387
3.251647910049847	6.9960976	2.6450138
3.2691817537431813	6.9203033	2.630647
3.286715673997555	6.7624903	2.600479
3.3042496712244938	6.7025604	2.5889304
3.32178374583554	6.580789	2.5653048
3.339317898242251	6.537102	2.5567758
3.3568521288562034	6.427416	2.535235
3.3743864380889876	6.361109	2.5221238
3.3919208263522127	6.3590417	2.521714
3.4094552940575023	6.415633	2.53291
3.4269898416164972	6.4108624	2.531968
3.444524469440858	6.272799	2.5045557
3.4620591779422587	6.1780734	2.485573
3.479593967532391	6.05988	2.4616823
3.4971288386229658	6.019732	2.453514
3.5146637916257086	5.995891	2.4486508
3.5321988269523628	6.011155	2.4517658
3.5497339450146903	6.0275073	2.4550982
3.5672691462244708	6.094397	2.4686832
3.5848044309934988	6.0020585	2.44991
3.60233979973359	5.9483414	2.4389222
3.619875252856575	5.9230075	2.433723
3.6374107907743034	5.9857607	2.4465814
3.6549464138986427	5.99523	2.448516
3.6724821226414788	5.967625	2.4428723
3.690017917414714	5.965995	2.4425385
3.7075537986302702	6.1029615	2.4704173
3.7250897667000857	6.1027846	2.4703815
3.7426258220361235	6.2014565	2.4902723
3.7601619650503553	6.414473	2.532681
3.777698196154779	7.010999	2.647829
3.7952345157614067	8.209553	2.8652318
3.8127709242822716	9.115765	3.0192325
3.830307422129425	11.440584	3.3823934
3.847844009714936	30.310896	5.505533
3.8653806874508954	97.69921	9.884291
3.882917455749409	96.848404	9.841159
3.900454315022606	96.41531	9.81913
3.917991265682631	41.015495	6.404334
3.9355283081416506	10.695177	3.270348
3.9530654428118495	8.480879	2.9121947
3.970602670105433	7.330649	2.7075171
3.9881399904346244	6.2787952	2.5057523
4.005677404211669	6.1874638	2.4874613
4.023214911848827	6.087453	2.4672763
4.0407525137583855	6.1083603	2.4715097
4.058290210352644	6.1395354	2.4778085
4.075828002043927	6.0796475	2.4656942
4.0933658892445814	5.9923787	2.4479337
4.110903872366966	5.9259415	2.4343257
4.128441951823468	5.8628154	2.4213252
4.145980128026488	5.8601356	2.4207716
4.163518401388452	5.73598	2.3949907
4.181056772321807	5.756996	2.399374
4.1985952412390155	5.713455	2.3902836
4.216133808552567	5.765333	2.401111
4.233672474674966	5.868111	2.4224184
4.251211240018741	6.068343	2.4634008
4.268750104996445	6.2819533	2.5063825
4.286289070020643	7.1213984	2.6685948
4.303828135503928	8.669248	2.9443586
4.3213673018589125	29.07346	5.391981
4.3389065694982305	90.193375	9.497019
4.356445938834537	165.53279	12.865954
4.3739854102805085	170.28998	13.0495205
4.391524984248844	170.96925	13.075521
4.409064661152262	134.7432	11.607894
4.426604441403504	95.016815	9.747657
4.444144325415337	74.58045	8.635998
4.461684313600543	20.891766	4.570751
4.47922440637193	21.677166	4.6558743
4.496764604142329	20.073704	4.4803686
4.5143049073245916	18.08023	4.2520857
4.531845316331589	15.903961	3.987977
4.5493858315762195	12.707037	3.5646932
4.566926453471405	10.490333	3.2388783
4.584467182430081	8.381459	2.895075
4.602008018865218	7.546577	2.7471035
4.619548963189798	6.9401555	2.6344175
4.637090015816834	6.5771565	2.5645967
4.654631177159353	6.3518553	2.5202887
4.672172447630417	6.115549	2.4729636
4.689713827643102	5.954626	2.4402103
4.7072553176105085	5.766273	2.4013066
4.724796917945764	5.638271	2.3745043
4.742338629062015	5.614238	2.3694382
4.759880451372434	5.566215	2.3592827
4.777422385290215	5.472254	2.339285
4.794964431228581	5.4658155	2.3379083
4.812506589600768	5.4675546	2.3382802
4.830048860820047	5.508772	2.3470774
4.847591245299709	5.423532	2.328848
4.8651337434530655	5.3891034	2.3214443
4.882676355693457	5.302033	2.3026145
4.900219082434242	5.235578	2.2881386
4.917761924088813	5.236323	2.2883012
4.935304881070575	5.191986	2.278593
4.952847953792969	5.20303	2.2810152
4.970391142669449	5.2228484	2.285355
4.9879344481135055	5.264678	2.2944887
5.005477870538642	5.2445893	2.2901068
5.023021410358394	5.267778	2.295164
5.040565067986324	5.240384	2.2891886
5.05810884383601	5.1808877	2.2761564
5.075652738321066	5.100608	2.2584527
5.09319675185512	5.1351576	2.2660887
5.110740884851836	5.161894	2.27198
5.128285137724894	5.173141	2.274454
5.145829510888007	5.070611	2.2518017
5.163374004754908	5.0343924	2.243745
5.1809186197393595	5.0198503	2.240502
5.198463356255145	5.033089	2.2434547
5.216008214716077	5.032018	2.243216
5.233553195535998	5.0830374	2.2545593
5.251098299128764	5.0748167	2.2527354
5.268643525908272	5.079294	2.2537289
5.286188876288432	5.046054	2.2463424
5.3037343506831895	5.066162	2.2508137
5.32127994950651	5.047147	2.2465856
5.3388256731723915	4.9959183	2.235155
5.356371522094851	4.962436	2.2276525
5.373917496687938	4.9112186	2.216127
5.391463597365729	4.913961	2.2167456
5.40900982454232	4.9604435	2.2272053
5.426556178631843	4.9885516	2.2335067
5.444102660048449	5.035526	2.2439978
5.4616492692063225	5.074408	2.2526448
5.479196006519669	5.0973372	2.2577283
5.496742872402727	5.086362	2.2552965
5.514289867269756	5.017354	2.2399452
5.531836991535049	5.036119	2.24413
5.549384245612924	5.075389	2.2528625
5.566931629917724	5.120374	2.2628243
5.584479144863822	5.062503	2.2500007
5.6020267908656205	5.0280466	2.2423306
5.619574568337545	5.000193	2.2361112
5.637122477694054	4.9921985	2.2343228
5.654670519349629	5.044641	2.246028
5.672218693718784	5.027215	2.242145
5.689767001216059	4.951779	2.2252593
5.707315442256021	4.9435124	2.223401
5.724864017253266	4.9863424	2.233012
5.7424127266224225	4.951639	2.2252278
5.75996157077814	4.9213405	2.2184095
5.777510550135105	4.853049	2.2029636
5.795059665108022	4.902419	2.2141407
5.812608916111639	4.9820905	2.2320597
5.830158303560715	5.115028	2.2616427
5.847707827870055	5.155197	2.270506
5.86525748945448	5.2277756	2.286433
5.8828072887288485	5.319492	2.3064024
5.900357226108044	5.387928	2.321191
5.917907302006979	5.448937	2.3342957
5.9354575168406	6.0778427	2.4653282
5.9530078710238765	6.78619	2.6050317
5.970558364971812	7.4063644	2.7214637
5.988108999099438	7.7160263	2.7777736
6.005659773821818	8.282013	2.8778486
6.023210689554039	8.051395	2.8374982
6.040761746711227	8.521089	2.9190903
6.058312945708531	7.824902	2.7973027
6.075864286961132	7.267633	2.6958547
6.093415770884244	6.524034	2.5542188
6.1109673978931065	5.9186883	2.4328353
6.128519168402993	5.225016	2.2858293
6.146071082829204	5.1143627	2.2614956
6.163623141587075	5.0306606	2.2429135
6.181175345091969	4.9793806	2.2314525
6.198727693759281	4.979729	2.2315307
6.216280188004435	5.018928	2.2402964
6.233832828242885	5.052996	2.2478871
6.251385614890126	5.062605	2.2500234
6.268938548361669	5.0178022	2.240045
6.286491629073067	4.867335	2.2062037
6.304044857439898	4.825777	2.1967652
6.321598233877777	4.770288	2.184099
6.339151758802344	4.789443	2.1884797
6.356705432629277	4.799686	2.1908185
6.37425925577428	4.776571	2.1855366
6.391813228653095	4.7750406	2.1851866
6.409367351681486	4.7859354	2.187678
6.426921625275259	4.77423	2.1850011
6.44447604985025	4.681995	2.163792
6.46203062582232	4.6203017	2.1494887
6.47958535360737	4.6065264	2.146282
6.497140233621328	4.644665	2.1551485
6.514695266280161	4.688084	2.1651983
6.532250451999859	4.7175555	2.1719935
6.549805791196454	4.731412	2.175181
6.567361284286002	4.727529	2.1742883
6.584916931684597	4.763504	2.1825454
6.602472733808367	4.7696314	2.1839485
6.6200286910734665	4.75678	2.1810043
6.637584803896092	4.786967	2.187914
6.655141072692462	4.748385	2.1790788
6.672697497878842	4.816114	2.1945646
6.690254079871514	4.7833276	2.187082
6.707810819086808	4.762375	2.1822865
6.725367715941078	4.768697	2.1837347
6.742924770850719	4.8357396	2.1990316
6.760481984232151	4.919487	2.2179916
6.778039356501836	4.9322376	2.220864
6.795596888076266	4.8986955	2.2132998
6.813154579371963	4.8648763	2.2056465
6.830712430805492	4.864487	2.2055583
6.84827044279344	4.8511167	2.2025251
6.865828615752445	4.7716465	2.1844099
6.883386950099159	4.767104	2.1833699
6.900945446250287	4.7564964	2.1809394
6.918504104622553	4.842211	2.2005024
6.936062925632727	4.885057	2.2102165
6.953621909697607	4.8893723	2.2111926
6.971181057234028	4.9184494	2.2177577
6.988740368658859	4.9038086	2.2144544
7.006299844389007	4.978975	2.2313616
7.023859484841407	5.0380516	2.2445605
7.041419290433036	5.114909	2.2616165
7.058979261580902	5.23301	2.2875774
7.0765393987020495	5.4641194	2.3375456
7.094099702213559	5.749614	2.3978353
7.111660172532549	6.0016847	2.4498336
7.129220810076164	6.3261266	2.5151792
7.146781615261595	6.8372574	2.614815
7.16434258850606	7.146155	2.6732292
7.181903730226821	7.48131	2.7351983
7.1994650408411704	7.660659	2.7677896
7.217026520766437	7.7721534	2.7878582
7.234588170419983	8.002894	2.8289387
7.252149990219215	8.096224	2.8453865
7.269711980581568	8.041829	2.8358119
7.2872741419245175	7.9079227	2.8121028
7.304836474665574	7.60632	2.7579558
7.322398979222286	7.193812	2.6821282
7.339961656012233	6.888182	2.6245346
7.357524505453039	6.5404496	2.5574303
7.375087527962357	6.2998056	2.5099413
7.392650723957886	6.018841	2.4533327
7.410214093857353	5.68279	2.3838603
7.427777638078528	5.4354024	2.331395
7.445341357039213	5.2944827	2.3009744
7.4629052511572525	5.112694	2.2611268
7.480469320850524	4.9982634	2.2356796
7.498033566536948	4.9427977	2.2232404
7.5155979886344735	4.9273586	2.2197654
7.5331625875610975	4.9017167	2.213982
7.550727363734844	4.871343	2.2071118
7.568292317573788	4.848669	2.2019694
7.585857449496025	4.85688	2.203833
7.603422759919705	4.8400517	2.2000117
7.620988249263007	4.8949475	2.212453
7.638553917944147	4.968792	2.2290788
7.656119766381391	5.0447655	2.2460556
7.673685794993023	5.086498	2.2553265
7.691252004197388	5.052203	2.2477107
7.70881839441285	5.0241203	2.2414548
7.726384966057826	4.9993796	2.2359293
7.743951719550762	4.988399	2.2334723
7.761518655310149	4.9863143	2.2330058
7.779085773754511	4.9738355	2.2302098
7.796653075302419	4.962597	2.2276888
7.814220560372475	5.011565	2.2386525
7.831788229383323	5.0460434	2.24634
7.8493560827536495	5.0720634	2.2521243
7.866924120902174	5.072394	2.2521975
7.884492344247663	5.011682	2.2386787
7.9020607532089135	5.0237246	2.2413666
7.919629348204771	5.047044	2.2465627
7.937198129654115	5.119745	2.2626853
7.954767097975865	5.1218133	2.2631423
7.972336253588986	5.1486516	2.269064
7.989905596912472	5.1716647	2.2741294
8.007475128365371	5.1833997	2.2767081
8.025044848366756	5.18468	2.2769892
8.042614757335754	5.2759533	2.2969444
8.060184855691523	5.3635516	2.3159342
8.07775514385327	5.5090966	2.3471465
8.095325622240228	5.498747	2.3449407
8.112896291271687	5.4757743	2.3400373
8.130467151366968	5.510107	2.3473618
8.148038202945436	5.4970655	2.344582
8.165609446426497	5.4809923	2.341152
8.183180882229594	5.51287	2.3479502
8.200752510774217	5.5432205	2.3544044
8.218324332479893	5.5568295	2.357293
8.235896347766193	5.608657	2.3682604
8.253468557052724	5.6229734	2.371281
8.27104096075914	5.6750174	2.3822296
8.288613559305137	5.7571287	2.3994017
8.306186353110448	5.8753395	2.42391
8.32375934259485	6.0272603	2.4550478
8.341332528178162	6.030564	2.4557207
8.358905910280246	5.9816437	2.44574
8.376479489321003	5.9117575	2.4314106
8.394053265720377	5.942639	2.4377527
8.411627239898356	5.9486594	2.4389875
8.42920141227497	6.0022945	2.449958
8.44677578327029	6.004661	2.450441
8.464350353304427	5.961634	2.4416459
8.48192512279754	5.8984766	2.428678
8.499500092169827	5.8845463	2.4258084
8.51707526184153	5.857183	2.4201617
8.534650632232934	5.8572416	2.420174
8.552226203764365	5.8719273	2.423206
8.569801976856192	5.8854	2.4259844
8.587377951928834	5.8954287	2.4280503
8.60495412940274	5.9360228	2.4363954
8.622530509698416	6.00136	2.4497674
8.6401070932364	6.1970572	2.489389
8.657683880437283	6.310951	2.5121608
8.675260871721695	6.3989944	2.5296233
8.692838067510303	6.4209642	2.5339622
8.710415468223834	6.4646206	2.5425618
8.727993074283043	6.612689	2.5715148
8.745570886108737	6.6254816	2.574001
8.763148904121765	6.7301946	2.594262
8.78072712874302	6.759284	2.5998623
8.798305560393441	6.973641	2.6407652
8.815884199494006	7.062567	2.6575491
8.833463046465745	7.201621	2.6835837
8.851042101729728	7.371204	2.714996
8.86862136570707	7.6605916	2.7677774
8.886200838818924	7.829587	2.7981398
8.903780521486505	7.927649	2.815608
8.921360414131055	8.052378	2.8376713
8.938940517173874	8.178879	2.859874
8.956520831036297	8.263553	2.8746395
8.97410135613971	8.4642725	2.9093423
8.99168209290554	8.604344	2.9333162
9.009263041755265	8.869932	2.978243
9.026844203110405	9.16442	3.0272794
9.044425577392525	9.405699	3.0668712
9.062007165023239	9.52749	3.0866632
9.079588966424197	9.823609	3.1342638
9.097170982017108	9.954942	3.1551452
9.11475321222372	11.185014	3.3444004
9.132335657465825	12.102851	3.4789152
9.149918318165264	12.276958	3.503849
9.167501194743924	12.951324	3.598795
9.18508428762374	12.569942	3.5454116
9.202667597226693	12.461822	3.5301306
9.220251123974803	11.993106	3.4631064
9.237834868290143	11.596387	3.4053469
9.255418830594836	11.557841	3.3996825
9.273003011311046	11.041675	3.3229015
9.290587410860985	10.796233	3.2857623
9.308172029666911	10.104421	3.178745
9.32575686815113	9.785671	3.1282058
9.343341926735997	8.42769	2.9030483
9.360927205843916	8.217067	2.8665426
9.378512705897327	8.022547	2.83241
9.396098427318728	7.8064885	2.7940094
9.413684370530664	7.6458035	2.7651045
9.431270535955722	7.5474977	2.747271
9.448856924016539	7.469365	2.7330139
9.466443535135806	7.357782	2.7125232
9.484030369736251	7.3158655	2.7047856
9.501617428240658	7.308828	2.7034843
9.519204711071852	7.443553	2.7282875
9.536792218652714	7.5857463	2.7542233
9.55437995140617	7.595567	2.7560058
9.571967909755191	7.475519	2.7341397
9.589556094122802	7.365218	2.7138937
9.60714450493207	7.392109	2.7188432
9.624733142606116	7.47428	2.733913
9.642322007568108	7.5739284	2.752077
9.659911100241267	7.650122	2.7658854
9.677500421048851	7.6733885	2.7700882
9.695089970414175	7.7289104	2.7800918
9.712679748760609	7.7244596	2.7792912
9.730269756511557	7.7822723	2.7896724
9.747859994090492	7.818097	2.796086
9.765450461920915	7.8270826	2.7976923
9.78304116042639	7.8416796	2.8003
9.800632090030527	7.81186	2.7949705
9.81822325115699	7.83737	2.7995303
9.835814644229481	7.940645	2.817915
9.853406269671762	7.9734893	2.8237367
9.870998127907646	7.966477	2.8224947
9.888590219360985	7.9145656	2.8132837
9.906182544455698	7.978117	2.824556
9.923775103615734	8.052464	2.8376863
9.941367897265108	8.04589	2.8365278
9.958960925827878	8.006298	2.8295403
9.97655418972816	7.905626	2.8116944
9.994147689390106	7.9426017	2.818262
10.011741425237934	7.937891	2.8174262
10.029335397695904	7.900241	2.8107367
10.04692960718833	7.825469	2.797404
10.06452405413958	7.823853	2.797115
10.082118738974064	7.834493	2.7990165
10.099713662116246	7.8525534	2.8022408
10.117308823990651	7.8268867	2.7976573
10.134904225021844	7.7667885	2.7868958
10.152499865634445	7.7421136	2.7824655
10.170095746253125	7.7598305	2.7856472
10.18769186730261	7.831863	2.7985466
10.205288229207675	7.8513083	2.8020186
10.222884832393145	7.8948803	2.809783
10.2404816772839	7.8751616	2.8062718
10.258078764304868	7.8167787	2.7958503
10.275676093881035	7.782635	2.7897375
10.293273666437438	7.7067556	2.7761045
10.310871482399158	7.7766194	2.788659
10.32846954219134	7.7504263	2.7839587
10.346067846239173	7.7761493	2.7885747
10.363666394967908	7.7771006	2.7887454
10.38126518880283	7.842072	2.80037
10.398864228169298	7.901438	2.8109498
10.416463513492713	7.902562	2.8111496
10.434063045198531	7.869982	2.8053489
10.451662823712262	7.8413267	2.800237
10.469262849459467	7.9056096	2.8116915
10.486863122865758	7.8695683	2.8052752
10.504463644356806	7.8529077	2.802304
10.522064414358338	7.7742853	2.7882404
10.539665433296118	7.6910667	2.7732773
10.557266701595987	7.626486	2.7616093
10.574868219683818	7.476743	2.7343633
10.592469987985552	7.4248056	2.7248497
10.610072006927185	7.345714	2.7102978
10.627674276934751	7.244757	2.6916087
10.64527679843435	7.109469	2.6663587
10.662879571852143	6.9461164	2.6355486
10.680482597614331	6.867464	2.6205847
10.698085876147173	6.7938724	2.6065059
10.715689407876988	6.683196	2.585188
10.733293193230146	6.5854516	2.5662134
10.750897232633072	6.427531	2.5352576
10.76850152651225	6.3120685	2.512383
10.786106075294207	6.2202983	2.4940526
10.803710879405534	6.111609	2.4721668
10.821315939272877	6.0433435	2.4583213
10.83892125532294	6.0253534	2.4546595
10.856526827982472	5.9731197	2.4439967
10.874132657678285	5.9671693	2.442779
10.891738744837243	5.9427767	2.437781
10.909345089886271	5.942307	2.4376848
10.926951693252343	5.9121027	2.4314816
10.944558555362494	5.8320827	2.4149706
10.96216567664381	5.7532654	2.3985965
10.979773057523436	5.6490793	2.376779
10.997380698428573	5.5375514	2.3532002
11.014988599786477	5.4457755	2.3336186
11.032596762024461	5.419198	2.327917
11.050205185569892	5.3993506	2.3236504
11.067813870850198	5.3898544	2.321606
11.085422818292859	5.382683	2.320061
11.10303202832541	5.2949743	2.3010812
11.120641501375454	5.2090225	2.2823284
11.138251237870636	5.105513	2.2595382
11.155861238238671	5.0614486	2.2497663
11.173471502907317	4.993391	2.2345896
11.191082032304402	4.91849	2.2177668
11.208692826857805	4.8564773	2.2037416
11.226303886995465	4.831695	2.1981118
11.243915213145371	4.860917	2.2047489
11.261526805735578	4.784635	2.1873808
11.279138665194196	4.691368	2.1659567
11.296750791949393	4.570107	2.137781
11.314363186429393	4.5084105	2.1233017
11.331975849062479	4.516623	2.1252348
11.34958878027699	4.4590635	2.1116495
11.36720198050133	4.433669	2.105628
11.384815450163948	4.3790536	2.092619
11.402429189693366	4.3633847	2.0888717
11.420043199518153	4.306842	2.0752933
11.437657480066942	63.26674	7.954039
11.455272031768422	85.0112	9.220152
11.472886855051353	107.41235	10.363993
11.490501950344528	98.98783	9.949263
11.508117318076819	84.28191	9.180518
11.52573295867715	45.68724	6.759234
11.543348872574514	3.990006	1.9975
11.560965060197946	3.9580908	1.9894952
11.57858152197655	3.9185202	1.9795252
11.59619825833949	3.895026	1.973582
11.613815269715985	3.8956532	1.9737409
11.631432556535323	38.40486	6.1971655
11.649050119226837	82.93782	9.10702
11.666667958219929	93.28919	9.658633
11.68428607394406	107.532684	10.369797
11.701904466828756	82.35821	9.075142
11.719523137303586	65.21741	8.075729
11.737142085798196	4.4807587	2.1167803
11.754761312742286	3.576208	1.8910865
11.772380818565619	3.5321994	1.8794147
11.790000603698015	3.474941	1.8641194
11.80762066856935	3.465177	1.8614986
11.825241013609572	3.4009404	1.8441639
11.842861639248683	3.3928633	1.8419727
11.860482545916748	3.3764553	1.8375133
11.878103734043883	3.3576272	1.8323829
11.895725204060282	3.2758024	1.8099178
11.91334695639619	3.2246687	1.7957363
11.930968991481919	3.2282515	1.7967335
11.948591309747824	3.2528396	1.803563
11.966213911624347	3.2089014	1.7913407
11.98383679754198	3.1909773	1.7863307
12.001459967931268	3.1339738	1.7703034
12.019083423222835	3.136446	1.7710015
12.036707163847352	3.1569655	1.7767851
12.05433119023556	3.1486504	1.7744437
12.071955502818259	3.0906844	1.7580342
12.089580102026313	3.0569885	1.7484245
12.107204988290643	3.044024	1.7447132
12.12483016204224	3.0260324	1.7395495
12.142455623712152	2.985804	1.727948
12.16008137373149	2.9751296	1.7248564
12.177707412531431	3.028625	1.7402946
12.19533374054321	3.0044746	1.733342
12.212960358198126	2.9666965	1.7224101
12.230587265927545	2.8995607	1.7028097
12.248214464162889	2.8975375	1.7022154
12.265841953335649	2.847397	1.6874232
12.283469733877375	2.8325753	1.6830256
12.301097806219685	2.82294	1.6801608
12.31872617079425	2.8214352	1.6797129
12.336354828032825	2.8157873	1.6780307
12.353983778367205	2.8060584	1.6751294
12.371613022229262	2.8080497	1.6757237
12.389242560050928	2.8235404	1.6803393
12.406872392264201	2.7699163	1.6643065
12.424502519301143	2.7408829	1.6555612
12.442132941593874	2.6986434	1.6427548
12.459763659574586	2.6987374	1.6427834
12.477394673675532	2.7108474	1.6464651
12.49502598432903	2.7168014	1.6482723
12.51265759196746	2.7207465	1.6494685
12.530289497023267	2.715251	1.6478019
12.547921699928967	2.7003238	1.6432662
12.565554201117134	2.6987529	1.6427882
12.583187001020404	2.6529539	1.6287891
12.600820100071486	2.6404386	1.6249427
12.618453498703152	2.639576	1.6246772
12.636087197348235	2.6775515	1.6363225
12.65372119643964	2.6745224	1.6353967
12.671355496410326	2.6846642	1.6384945
12.68899009769333	2.6948252	1.6415923
12.706625000721749	2.7102287	1.6462772
12.724260205928752	2.7391696	1.6550437
12.741895713747551	2.7837176	1.6684476
12.759531524611454	2.840175	1.6852819
12.777167638953818	2.813439	1.6773309
12.794804057208072	2.796388	1.6722404
12.812440779807702	2.824312	1.6805689
12.830077807186271	3.0613585	1.7496738
12.847715139777405	3.1288333	1.7688508
12.865352778014795	3.3297029	1.8247473
12.882990722332197	3.4093246	1.8464357
12.90062897316344	3.487892	1.8675898
12.918267530942412	3.5901937	1.8947806
12.935906396103071	3.4851997	1.866869
12.953545569079449	3.6519678	1.9110123
12.971185050305628	3.4868343	1.8673067
12.988824840215775	3.5070257	1.8727055
13.006464939244115	3.5153499	1.8749267
13.024105347824943	3.3427718	1.8283248
13.041746066392617	3.470966	1.8630528
13.05938709538157	3.3226933	1.8228257
13.077028435226296	3.3194623	1.8219391
13.094670086361363	3.1962516	1.7878064
13.112312049221401	3.0493388	1.7462356
13.129954324241112	2.9596858	1.7203737
13.147596911855258	2.7674603	1.6635686
13.165239812498685	2.7563117	1.6602143
13.182883026606293	2.6959424	1.6419325
13.200526554613058	2.6375747	1.6240611
13.218170396954017	2.5877726	1.6086556
13.235814554064284	2.5838113	1.6074238
13.253459026379034	2.5819874	1.6068563
13.271103814333523	2.5239105	1.588682
13.288748918363058	2.4834192	1.5758868
13.306394338903031	2.5067968	1.5832868
13.32404007638889	2.5281603	1.590019
13.341686131256164	2.5653613	1.6016746
13.359332503940449	2.53296	1.5915276
13.376979194877402	2.4882646	1.5774233
13.394626204502751	2.5427258	1.5945927
13.412273533252307	2.5937433	1.6105102
13.429921181561937	2.6162734	1.6174898
13.447569149867581	2.618635	1.6182197
13.465217438605247	2.5769494	1.6052879
13.482866048211022	2.5785701	1.6057926
13.500514979121052	2.5715597	1.6036084
13.518164231771568	2.5473757	1.59605
13.535813806598844	2.5170093	1.5865085
13.553463704039254	2.5155275	1.5860415
13.571113924529229	2.5189784	1.587129
13.588764468505275	2.5555284	1.598602
13.606415336403956	2.578536	1.605782
13.624066528661917	2.6076949	1.6148359
13.641718045715882	2.644366	1.6261507
13.659369888002635	2.6901622	1.6401714
13.67702205595903	2.7699063	1.6643035
13.694674550021993	2.8666246	1.693111
13.712327370628532	2.9163928	1.707745
13.729980518215713	2.9879444	1.7285671
13.747633993220681	3.0431046	1.7444496
13.765287796080647	3.1316688	1.7696521
13.7829419272329	3.1972847	1.7880952
13.800596387114801	3.2043133	1.7900596
13.818251176163775	3.2160516	1.7933353
13.835906294817324	3.2455149	1.8015313
13.853561743513023	3.261109	1.8058541
13.871217522688525	3.3110447	1.8196276
13.888873632781538	3.3406296	1.8277389
13.906530074229858	3.378905	1.8381798
13.92418684747135	3.3726902	1.8364886
13.941843952943948	3.398177	1.8434144
13.959501391085665	3.373846	1.8368032
13.977159162334578	3.3160388	1.8209994
13.994817267128846	3.30018	1.8166398
14.012475705906693	3.2541833	1.8039355
14.030134479106424	3.1516235	1.7752812
14.047793587166414	3.0336998	1.7417519
14.065453030525108	2.9291766	1.7114837
14.083112809621026	2.889813	1.699945
14.100772924892766	2.8460155	1.6870137
14.118433376778997	2.8122764	1.6769843
14.136094165718458	2.7032967	1.6441705
14.153755292149969	2.604867	1.61396
14.171416756512416	2.5383048	1.5932058
14.189078559244768	2.4766462	1.5737364
14.20674070078606	2.4236038	1.5567927
14.224403181575408	2.3789601	1.5423878
14.242066002051999	2.3639553	1.5375159
14.259729162655093	2.3802018	1.5427903
14.277392663824022	2.363461	1.5373552
14.295056505998208	2.3238053	1.5244032
14.312720689617128	2.3097482	1.5197855
14.330385215120348	2.3265097	1.52529
14.348050082947497	2.3169715	1.5221602
14.3657152935383	2.3205945	1.5233498
14.383380847332528	2.3323486	1.5272028
14.401046744770051	2.3259041	1.5250915
14.418712986290798	2.310552	1.5200499
14.436379572334793	2.3022943	1.5173312
14.454046503342123	2.3045607	1.518078
14.471713779752946	2.2869356	1.5122617
14.489381402007504	2.2885985	1.5128114
14.507049370546113	2.2735493	1.5078293
14.524717685809168	2.255764	1.5019201
14.542386348237134	2.2411273	1.4970394
14.560055358270553	2.2306578	1.4935387
14.577724716350051	2.2669048	1.5056244
14.595394422916325	2.3071575	1.518933
14.61306447841015	2.3824234	1.5435101
14.63073488327237	2.4132245	1.5534556
14.648405637943917	2.4266164	1.5577601
14.6660767428658	2.3957508	1.5478213
14.683748198479094	2.3867178	1.5449005
14.701420005224954	2.373704	1.5406829
14.719092163544628	2.4303262	1.5589503
14.73676467387942	2.4570382	1.5674943
14.754437536670727	2.5292802	1.5903711
14.772110752360014	2.5555992	1.5986241
14.78978432138882	2.59526	1.610981
14.807458244198777	2.6490164	1.6275799
14.82513252123159	2.6659114	1.632762
14.842807152929028	2.686081	1.6389267
14.860482139732962	2.5971215	1.6115587
14.87815748208531	2.5579376	1.5993553
14.8958331804281	2.5686069	1.6026874
14.91350923520342	2.5657954	1.6018101
14.931185646853438	2.6043737	1.6138072
14.948862415820408	2.560853	1.6002666
14.966539542546656	2.5581198	1.5994123
14.98421702747459	2.508407	1.5837952
15.001894871046696	2.5190713	1.5871582
15.019573073705542	2.507802	1.5836041
15.037251635893766	2.502269	1.5818563
15.054930558054092	2.5510948	1.5972147
15.072609840629323	2.625887	1.6204588
15.090289484062351	2.7486901	1.6579174
15.107969488796124	2.987013	1.7282977
15.125649855273691	3.3370001	1.8267457
15.14333058393817	3.8082693	1.9514787
15.161011675232768	4.6725945	2.1616185
15.17869312960076	5.8944287	2.4278445
15.196374947485506	7.6119533	2.758977
15.214057129330447	10.597602	3.255396
15.231739675579114	15.427117	3.927737
15.249422586675102	20.85118	4.566309
15.267105863062092	24.35524	4.935103
15.284789505183847	24.962452	4.996244
15.302473513484218	23.273653	4.8242774
15.320157888407127	19.793121	4.448946
15.337842630396578	15.521852	3.939778
15.355527739896656	12.026549	3.4679315
15.37321321735153	9.175868	3.0291696
15.39089906320545	6.506909	2.5508645
15.408585277902748	4.765833	2.1830788
15.42627186188783	3.6097887	1.8999444
15.443958815605198	3.0149014	1.7363472
15.461646139499424	2.7224882	1.6499964
15.479333834015168	2.5515058	1.5973433
15.497021899597165	2.4707363	1.5718576
15.514710336690234	2.3855035	1.5445075
15.53239914573928	2.3658018	1.5381163
15.550088327189297	2.351707	1.5335276
15.567777881485336	2.3604286	1.5363686
15.58546780907256	2.3838627	1.5439763
15.6031581103962	2.4110641	1.5527601
15.620848785901568	2.4038844	1.5504465
15.638539836034063	2.3677485	1.538749
15.656231261239173	2.35348	1.5341057
15.673923061962451	2.3619027	1.5368483
15.691615238649552	2.3693357	1.5392647
15.709307791746202	2.356792	1.5351846
15.727000721698221	2.328873	1.5260645
15.744694028951498	2.298647	1.5161289
15.76238771395202	2.2847183	1.5115285
15.780081777145844	2.3049684	1.5182122
15.797776218979125	2.3323371	1.5271991
15.815471039898094	2.3620012	1.5368804
15.833166240349064	2.327842	1.5257267
15.850861820778437	2.3172302	1.5222452
15.868557781632699	2.2868145	1.5122217
15.886254123358412	2.298135	1.5159601
15.903950846402232	2.2979426	1.5158967
15.921647951210897	2.2839432	1.5112721
15.939345438231225	2.2555575	1.5018513
15.957043307910133	2.2383091	1.4960979
15.974741560694602	2.2659667	1.5053128
15.992440197031714	2.2799385	1.5099465
16.01013921736862	2.2967768	1.5155121
16.02783862215259	2.2640765	1.5046848
16.045538411830933	2.2738595	1.5079322
16.06323858685107	2.2942812	1.5146885
16.080939147660512	2.3305867	1.5266259
16.09864009470684	2.3312185	1.5268328
16.11634142843774	2.3154097	1.521647
16.134043149300954	2.3197916	1.5230862
16.15174525774433	2.3068922	1.5188457
16.169447754215817	2.3238668	1.5244235
16.18715063916342	2.2957716	1.5151803
16.204853913035244	2.3181667	1.5225527
16.222557576279478	2.3338888	1.527707
16.240261629344403	22.329271	4.7253857
16.257966072678386	42.85931	6.5467024
16.275670906729868	37.97086	6.16205
16.293376131947387	2.4393725	1.5618491
16.31108174877957	2.445428	1.5637864
16.328787757675133	2.4679017	1.5709556
16.34649415908287	2.448442	1.5647498
16.364200953451657	2.4519563	1.5658723
16.38190814123048	2.4696727	1.5715193
16.39961572286839	2.4955475	1.5797302
16.41732369881455	2.5447273	1.5952202
16.43503206951817	2.599732	1.6123685
16.45274083542859	2.6753032	1.6356354
16.47044999699522	2.719862	1.6492004
16.488159554667558	2.7515712	1.658786
16.505869508895184	2.7655003	1.6629794
16.523579860127786	2.7777207	1.6666496
16.541290608815117	2.831433	1.6826862
16.559001755407035	2.879352	1.6968653
16.57671330035348	2.9685986	1.7229621
16.59442524410448	3.030772	1.7409112
16.61213758711015	3.0686224	1.7517483
16.629850329820705	3.0979128	1.7600888
16.647563472686436	3.1658938	1.7792959
16.665277016157724	3.2503035	1.8028598
16.682990960685053	3.3259025	1.8237057
16.70070530671898	3.3685467	1.83536
16.718420054710155	3.4005332	1.8440535
16.736135205109335	3.4365683	1.8537984
16.753850758367335	3.4825199	1.8661511
16.771566714935087	3.542541	1.8821639
16.789283075263597	3.5927074	1.8954438
16.80699983980398	3.6217327	1.903085
16.82471700900741	3.6881063	1.9204443
16.84243458332518	3.7805293	1.9443583
16.860152563208665	3.8745472	1.968387
16.87787094910932	3.9024706	1.9754672
16.89558974147871	3.919655	1.9798119
16.913308940768466	3.9537706	1.988409
16.931028547430333	3.9941003	1.9985245
16.94874856191613	4.085102	2.0211635
16.966468984677785	4.1969104	2.0486362
16.98418981616729	4.2589536	2.0637233
17.00191105683676	4.267497	2.065792
17.019632707138374	4.268694	2.0660818
17.03735476752442	4.334734	2.0820024
17.05507723844728	4.373971	2.091404
17.072800120359403	4.432643	2.1053843
17.090523413713353	4.437382	2.1065094
17.108247118961785	4.4719095	2.1146889
17.125971236557437	4.461748	2.1122851
17.143695766953133	4.4477835	2.1089768
17.161420710601806	4.480248	2.1166596
17.179146067956477	4.4585137	2.1115193
17.19687183947025	4.468195	2.1138105
17.21459802559634	4.4583845	2.1114886
17.232324626788028	4.473826	2.115142
17.25005164349871	4.4163985	2.101523
17.267779076181863	4.4290094	2.1045213
17.285506925291074	4.453526	2.110338
17.30323519127999	4.49991	2.121299
17.320963874602384	4.473644	2.115099
17.33869297571211	4.4025726	2.0982308
17.356422495063114	4.339884	2.0832388
17.37415243310944	4.274838	2.067568
17.391882790305218	4.2990727	2.0734205
17.40961356710468	4.2980657	2.0731776
17.42734476396215	4.301044	2.073896
17.445076381332044	4.291615	2.0716214
17.462808419668868	4.3655763	2.0893962
17.48054087942723	4.5030694	2.1220436
17.498273761061835	4.7808	2.1865041
17.51600706502747	5.1960936	2.279494
17.533740791779024	5.792977	2.4068604
17.551474941771485	7.15709	2.675274
17.56920951545993	8.2603655	2.8740852
17.586944513299528	10.586167	3.253639
17.60467993574556	12.409811	3.522756
17.622415783253373	14.465839	3.8033984
17.64015205627843	16.249365	4.03105
17.657888755276293	17.651579	4.2013783
17.675625880702604	18.26936	4.274267
17.69336343301311	18.177095	4.2634606
17.71110141266366	17.195534	4.14675
17.728839820110178	16.050268	4.0062785
17.746578655808705	14.705297	3.8347487
17.764317920215372	12.875053	3.5881824
17.7820576137864	11.088353	3.329918
17.79979773697811	8.9861355	2.9976883
17.81753829024692	7.032775	2.651938
17.835279274049356	5.4520974	2.3349726
17.85302068884201	4.4961443	2.1204114
17.870762535081607	3.9221478	1.9804413
17.888504813224934	3.7188454	1.9284308
17.90624752372891	3.5595064	1.8866655
17.923990667050536	3.4972568	1.8700954
17.941734243646895	3.4088607	1.84631
17.959478253975185	3.376283	1.8374665
17.9772226984927	3.3267717	1.823944
17.994967577656833	3.2956076	1.8153808
18.01271289192506	3.2653208	1.8070198
18.030458641754965	3.240185	1.8000515
18.04820482760425	3.2033427	1.7897885
18.06595144993067	3.1603208	1.7777292
18.083698509192125	3.1335127	1.7701731
18.101446005846576	3.1258004	1.7679933
18.119193940352105	3.1171288	1.7655393
18.136942313166887	3.1051273	1.7621372
18.1546911247492	3.0814571	1.7554079
18.1724403755574	3.0795975	1.7548782
18.19019006604997	3.0215936	1.7382731
18.207940196685467	2.9385855	1.7142303
18.225690767922575	2.9447947	1.7160404
18.243441780220046	2.9855223	1.7278664
18.261193234036764	2.9840667	1.7274451
18.278945129831676	2.9393451	1.7144518
18.29669746806386	2.9095275	1.7057338
18.314450249192483	2.94807	1.7169945
18.3322034736768	3.0022357	1.732696
18.349957141976184	3.0239654	1.7389553
18.3677112545501	3.0447736	1.744928
18.385465811858108	2.9945815	1.7304859
18.403220814359884	2.9815376	1.726713
18.420976262515172	3.0094316	1.7347714
18.43873215678387	3.061944	1.7498411
18.456488497625923	3.1004832	1.7608188
18.474245285501407	3.1481571	1.7743046
18.492002520870486	3.1869366	1.7851993
18.50976020419343	3.2417643	1.80049
18.527518335930615	3.4785256	1.8650806
18.545276916542516	4.0062423	2.00156
18.563035946489688	4.1394534	2.0345647
18.580795426232832	4.5127907	2.124333
18.598555356232698	4.3701053	2.0904796
18.616315736950185	4.6093383	2.146937
18.63407656884626	4.3089333	2.075797
18.65183785238201	4.4971323	2.1206443
18.669599588018617	4.363429	2.0888822
18.68736177621737	4.3766084	2.0920346
18.705124417439652	4.3606267	2.0882113
18.72288751214696	4.166329	2.0411587
18.740651060800886	4.2957	2.072607
18.758415063863115	4.0765896	2.0190566
18.77617952179546	4.2106643	2.0519903
18.793944435059814	3.938968	1.9846834
18.811709804118184	3.9803011	1.9950693
18.829475629432675	3.9443674	1.9860431
18.8472419114655	3.7417037	1.9343483
18.86500865067897	3.7801657	1.9442648
18.88277584753551	3.5514355	1.8845253
18.90054350249763	3.6013844	1.8977314
18.918311616027957	3.330834	1.8250573
18.936080188589226	3.2068253	1.7907611
18.953849220644265	2.8998418	1.7028922
18.971618712656007	2.7324977	1.6530268
18.9893886650875	2.69337	1.641149
19.007159078401887	7.9095464	2.8123915
19.024929953062408	32.75921	5.723566
19.042701289532435	32.715755	5.719769
19.060473088275405	25.292315	5.0291467
19.07824534975489	2.575214	1.6047473
19.096018074434568	2.5665855	1.6020566
19.113791262778197	2.5345054	1.592013
19.13156491524966	2.4808059	1.5750574
19.149339032312945	2.454918	1.5668178
19.167113614432136	2.485736	1.5766217
19.184888662071433	2.486986	1.577018
19.202664175695123	2.4783084	1.5742644
19.220440155767623	2.4621406	1.569121
19.238216602753447	2.478369	1.5742836
19.2559935171172	2.4341254	1.5601684
19.27377089932361	2.4030528	1.5501783
19.291548749837514	2.407061	1.5514706
19.309327069123835	2.4538293	1.5664704
19.32710585764763	2.4698656	1.5715806
19.344885115874032	2.425078	1.5572661
19.362664844268313	2.384812	1.5442837
19.380445043295822	2.394069	1.5472779
19.39822571342203	2.4091344	1.5521387
19.41600685511252	2.4256394	1.5574465
19.43378846883297	2.392711	1.546839
19.451570555049173	2.3642645	1.5376165
19.469353114227037	2.3679936	1.5388286
19.48713614683254	2.366111	1.5382168
19.50491965333182	2.3988283	1.5488151
19.52270363419109	2.431181	1.5592245
19.540488089876686	2.4136739	1.5536003
19.55827302085503	2.3866992	1.5448946
19.576058427592674	2.3704844	1.5396377
19.593844310556282	2.3966305	1.5481055
19.611630670212598	2.3765004	1.5415902
19.629417507028506	2.3686202	1.5390322
19.64720482147098	2.3621235	1.5369202
19.6649926140071	2.384276	1.5441101
19.682780885104084	2.3787463	1.5423185
19.70056963522921	2.4088833	1.5520577
19.718358864849908	2.4334598	1.559955
19.7361485744337	2.422489	1.5564346
19.753938764448215	2.4075794	1.5516376
19.771729435361202	2.4100401	1.5524304
19.789520587640506	2.4360604	1.5607884
19.807312221754092	2.4303808	1.5589678
19.825104338170043	2.4160752	1.5543729
19.842896937356517	2.429237	1.5586009
19.860690019781824	2.421638	1.5561613
19.87848358591436	2.4320788	1.5595124
19.896277636222635	2.460893	1.5687233
19.914072171175278	2.440917	1.5623435
19.931867191241015	2.3851926	1.5444069
19.94966269688869	2.3444548	1.5311612
19.967458688587264	2.342067	1.5303813
19.985255166805807	2.349172	1.5327009
20.00305213201348	2.3813007	1.5431464
20.020849584679578	2.3915546	1.5464652
20.038647525273507	2.3785553	1.5422566
20.05644595426477	2.3745224	1.5409485
20.07424487212299	2.3587925	1.5358361
20.092044279317903	2.33827	1.5291402
20.109844176319353	2.3409967	1.5300316
20.127644563597304	2.330685	1.526658
20.145445441621817	2.3334029	1.527548
20.16324681086307	2.3060274	1.518561
20.181048671791373	2.2995594	1.5164298
20.198851024877122	2.2857144	1.5118579
20.216653870590836	2.2901359	1.5133195
20.234457209403146	2.2972991	1.5156844
20.252261041784802	2.2853363	1.5117328
20.270065368206662	2.286453	1.5121021
20.287870189139685	2.2441113	1.4980358
20.305675505054968	2.2792053	1.5097038
20.323481316423702	2.2760835	1.5086695
20.341287623717207	2.283019	1.5109663
20.359094427406884	2.252927	1.5009754
20.376901727964288	2.2822897	1.5107249
20.39470952586107	2.305533	1.5183982
20.41251782156899	2.280278	1.5100589
20.430326615559935	2.2245436	1.4914904
20.448135908305886	2.225561	1.4918314
20.465945700278965	2.2586355	1.5028758
20.483755991951384	2.274142	1.5080259
20.50156678379548	2.2994027	1.5163782
20.519378076283708	2.3099222	1.5198429
20.537189869888635	2.297157	1.5156375
20.55500216508294	2.3049219	1.518197
20.572814962339415	2.2800112	1.5099705
20.59062826213098	2.2526867	1.5008953
20.60844206493066	2.2012923	1.4836752
20.626256371211593	2.2023137	1.4840194
20.644071181447032	2.1888044	1.4794608
20.66188649611036	2.2040458	1.4846029
20.67970231567506	2.1983297	1.4826765
20.697518640614742	2.1909635	1.4801904
20.715335471403122	2.1891482	1.4795771
20.73315280851404	2.199949	1.4832225
20.750970652421447	2.226128	1.4920214
20.768789003599412	2.2381334	1.4960393
20.786607862522136	2.2417266	1.4972397
20.8044272296639	2.2483552	1.4994516
20.82224710549913	2.276832	1.5089176
20.84006749050237	2.2723038	1.5074162
20.857888385148268	3.794416	1.947926
20.8757097899116	45.847916	6.771109
20.893531705267254	64.684135	8.0426445
20.911354131690224	83.70556	9.149075
20.92917706965566	68.99979	8.306611
20.94700051963877	50.038845	7.073814
20.96482448211493	29.294533	5.412442
20.982648957559622	4.030446	2.007597
21.00047394644843	2.1706946	1.4733278
21.01829944925707	2.19721	1.482299
21.036125466461375	2.2331622	1.4943769
21.053951998537297	2.1971717	1.482286
21.071779045960906	2.1529765	1.4673024
21.089606609208378	2.1214046	1.4565042
21.10743468875603	2.133961	1.4608083
21.12526328508028	2.118691	1.4555724
21.143092398657675	2.110732	1.4528359
21.16092202996488	2.09778	1.4483715
21.17875217947867	2.1179073	1.4553032
21.19658284767596	2.0945785	1.4472659
21.21441403503377	2.0813727	1.4426963
21.232245742029225	2.071902	1.4394103
21.2500779691396	2.1086774	1.4521285
21.26791071684227	2.1302397	1.459534
21.28574398561475	2.100321	1.4492484
21.30357777593465	2.0679858	1.4380493
21.321412088279704	2.0738683	1.4400932
21.339246923127792	2.0770123	1.4411843
21.357082280956888	2.050294	1.4318848
21.3749181622451	2.0599537	1.4352539
21.392754567470647	2.0446944	1.4299281
21.41059149711187	2.0250943	1.423058
21.42842895164726	2.0116408	1.4183233
21.446266931555378	2.0109243	1.4180707
21.464105437314945	2.0528255	1.4327685
21.481944469404798	2.048776	1.4313545
21.49978402830388	2.0485556	1.4312776
21.51762411449127	2.0163867	1.4199953
21.53546472844617	2.011913	1.4184192
21.553305870647876	2.0120907	1.4184818
21.571147541575865	1.9987754	1.4137806
21.58898974170967	1.9919016	1.4113475
21.60683247152899	1.9806165	1.4073437
21.62467573151363	1.9532326	1.397581
21.642519522143523	1.9596138	1.399862
21.660363843898722	1.9871244	1.409654
21.6782086972594	1.9880651	1.4099877
21.696054082705864	1.9718499	1.4042257
21.713900000718535	1.981389	1.4076182
21.73174645177795	1.9864606	1.4094185
21.749593436364794	2.0032775	1.4153719
21.767440954959845	2.0093808	1.4175262
21.785289008044032	2.0051315	1.4160267
21.803137596098388	1.9751126	1.4053869
21.820986719604086	1.9276232	1.3883886
21.838836379042412	1.9082714	1.381402
21.85668657489478	1.9063984	1.3807238
21.87453730764273	1.920441	1.3857998
21.892388577767914	1.9391344	1.392528
21.91024038575213	1.9528534	1.3974453
21.928092732077285	1.9206772	1.385885
21.945945617225426	1.9137913	1.3833984
21.963799041678694	1.9049774	1.3802092
21.981653005919398	31.22275	5.587732
21.999507510429943	78.027306	8.833306
22.01736255569286	73.01256	8.544739
22.035218142190818	4.1058197	2.0262823
22.05307427040661	1.8965037	1.377136
22.07093094082315	1.8934292	1.3760194
22.088788153923474	1.9256772	1.3876877
22.106645910190746	1.9316993	1.3898559
22.12450421010827	1.9064525	1.3807435
22.142363054159464	1.918337	1.3850404
22.16022244282787	1.9154209	1.3839873
22.178082376597164	1.9452521	1.3947229
22.195942855951145	1.9414382	1.393355
22.213803881373742	1.9244621	1.3872498
22.231665453349002	1.9058383	1.380521
22.24952757236111	1.9201452	1.3856931
22.26739023889438	1.9088017	1.381594
22.28525345343323	1.8826646	1.3721023
22.30311721646225	1.8665922	1.3662329
22.320981528466113	1.8683698	1.3668833
22.33884638992964	1.8843734	1.3727248
22.356711801337788	1.8826565	1.3720993
22.37457776317561	1.8801154	1.371173
22.392444275928337	1.8815684	1.3717028
22.410311340081282	1.9019775	1.379122
22.428178956119904	1.9038656	1.3798064
22.446047124529805	1.8942916	1.3763326
22.46391584579669	1.884485	1.3727654
22.481785120406414	1.8716697	1.3680898
22.49965494884496	1.8623178	1.3646677
22.51752533159841	1.8538878	1.3615755
22.53539626915302	1.8737283	1.368842
22.553267761995137	1.8685595	1.3669527
22.571139810611264	1.8601635	1.3638781
22.589012415488025	1.8445922	1.3581576
22.60688557711216	1.8697419	1.367385
22.624759295970566	1.8868189	1.3736153
22.642633572550263	1.9078132	1.3812361
22.660508407338362	1.9059993	1.3805794
22.67838380082217	1.8798523	1.3710771
22.696259753489077	1.8667586	1.3662938
22.714136265826614	1.8359503	1.3549724
22.73201333832246	1.8375095	1.3555477
22.74989097146439	1.8475666	1.3592522
22.76776916574035	1.8789481	1.3707473
22.785647921638393	1.8552825	1.3620876
22.803527239646712	1.8153439	1.347347
22.82140712025363	1.8304628	1.3529459
22.839287563947593	1.8534861	1.3614279
22.85716857121719	1.8578467	1.3630285
22.875050142551135	1.8272063	1.3517419
22.892932278438277	1.836546	1.3551922
22.910814979367604	1.8224317	1.3499748
22.928698245828222	1.7995187	1.3414614
22.946582078309387	1.7800202	1.334174
22.96446647730047	1.8048608	1.3434511
22.98235144329098	1.8256648	1.3511716
23.000236976770562	1.8301524	1.3528312
23.018123078229	1.8462113	1.3587536
23.03600974815619	1.829676	1.3526552
23.053896987042194	1.8315477	1.3533468
23.071784795377173	1.8319767	1.3535054
23.08967317365145	1.8450472	1.3583251
23.10756212235546	1.8220085	1.349818
23.125451641979787	1.8059311	1.3438493
23.143341733015134	1.8034601	1.3429297
23.161232395952357	1.8189611	1.3486887
23.179123631282426	1.8367894	1.3552821
23.197015439496468	1.8066316	1.34411
23.214907821085717	1.8045496	1.3433353
23.23280077654157	1.8306779	1.3530254
23.250694306355538	1.8311123	1.353186
23.268588411019277	1.7998291	1.341577
23.28648309102458	1.8047838	1.3434224
23.304378346863356	1.8569901	1.3627143
23.322274179027676	1.8969042	1.3772814
23.340170588009723	1.8713549	1.3679748
23.358067574301852	1.869513	1.3673013
23.37596513839651	1.8843154	1.3727037
23.39386328078629	1.8971881	1.3773845
23.411762001963947	1.9349235	1.3910153
23.429661302422353	1.9034504	1.3796558
23.4475611826545	1.8302088	1.3528521
23.46546164315356	1.8267026	1.3515556
23.48336268441279	1.8454279	1.3584653
23.501264306925638	1.8656179	1.3658762
23.51916651118564	1.8657806	1.3659358
23.537069297686497	1.8700104	1.3674833
23.554972666922037	1.8614146	1.3643367
23.57287661938623	1.8641835	1.3653511
23.59078115557318	1.8473063	1.3591565
23.608686275977128	1.8320205	1.3535216
23.62659198109246	1.8480023	1.3594124
23.6444982714137	1.8382156	1.3558081
23.66240514743549	1.8350892	1.3546547
23.68031260965263	1.8076768	1.3444988
23.698220658560068	1.8035042	1.342946
23.716129294652845	1.8486876	1.3596646
23.7340385184262	1.8822886	1.3719652
23.75194833037546	1.8754936	1.3694867
23.769858730996123	1.8316324	1.3533782
23.78776972078382	1.8631974	1.3649899
23.80568130023431	1.8712635	1.3679414
23.823593469843495	1.8467906	1.3589667
23.841506230107424	1.8118335	1.3460437
23.859419581522275	1.820106	1.3491131
23.87733352458438	1.8179988	1.3483318
23.89524805979019	1.8013886	1.3421582
23.913163187636318	1.8364836	1.3551692
23.931078908619508	1.8940781	1.3762552
23.948995223236633	1.9180392	1.3849329
23.966912131984735	1.9238193	1.3870181
23.98482963536096	1.9282916	1.3886294
24.002747733862616	1.9308577	1.3895531
24.020666427987155	1.9189255	1.3852528
24.038585718232156	1.932561	1.3901658
24.056505605095353	1.9451059	1.3946705
24.074426089074617	1.9794495	1.4069291
24.092347170667946	2.0207925	1.4215459
24.110268850373515	2.0130596	1.4188234
24.128191128689586	2.0008442	1.414512
24.146114006114626	1.952375	1.3972741
24.164037483147187	1.9702421	1.4036531
24.181961560286005	1.9944195	1.4122392
24.199886238029926	1.9611382	1.4004065
24.21781151687797	1.9654791	1.4019555
24.235737397329274	1.9590166	1.3996488
24.253663879883135	1.9644421	1.4015856
24.271590965038975	1.9250683	1.3874683
24.289518653296376	1.8744161	1.3690932
24.30744694515505	1.8764514	1.3698362
24.32537584111486	1.9326007	1.3901801
24.34330534167581	2.005031	1.4159912
24.361235447338046	2.0061903	1.4164004
24.379166158601876	1.9860932	1.4092882
24.39709747596772	1.962783	1.4009936
24.41502939993615	1.9756932	1.4055935
24.432961931007917	1.9742001	1.4050623
24.450895069683856	1.9620949	1.400748
24.468828816465	1.9083196	1.3814194
24.4867631718525	1.9247246	1.3873445
24.504698136347656	1.9395586	1.3926804
24.52263371045192	1.931231	1.3896874
24.540569894666874	1.9027656	1.3794078
24.558506689494266	1.8649111	1.3656175
24.57644409543597	1.8341788	1.3543186
24.594382112994012	1.8460433	1.3586918
24.61232074267057	1.868814	1.3670458
24.630259984967953	1.871046	1.3678619
24.64819984038863	1.8453971	1.358454
24.66614030943522	1.8110944	1.345769
24.684081392610462	1.8125914	1.3463252
24.702023090417274	1.8632321	1.3650026
24.7199654033587	1.8933961	1.3760073
24.737908331937927	1.9368417	1.3917046
24.755851876658305	1.9857624	1.4091707
24.773796038023324	1.9975138	1.4133343
24.79174081653661	2.030243	1.424866
24.809686212701962	2.0455818	1.4302384
24.827632227023294	2.0334477	1.4259901
24.8455788600047	2.0261054	1.4234133
24.8635261121504	2.0427902	1.4292622
24.88147398396475	2.0193274	1.4210304
24.899422475952303	1.9840833	1.4085749
24.917371588617698	1.9903048	1.4107816
24.935321322465768	2.103978	1.4505095
24.953271678001478	2.2100525	1.4866245
24.97122265572994	2.3780005	1.5420767
24.989174256156414	2.658575	1.6305138
25.00712647978632	3.1131427	1.76441
25.02507932712521	3.7405992	1.9340628
25.043032798678798	4.359068	2.0878382
25.060986894952933	5.1323133	2.265461
25.078941616453637	6.0388107	2.4573991
25.096896963687055	7.1321588	2.6706102
25.114852937159508	8.265122	2.8749125
25.132809537377444	8.71864	2.9527345
25.150766764847468	8.677228	2.9457135
25.168724620076347	7.9710336	2.8233018
25.186683103570985	6.773373	2.6025705
25.204642215838426	5.5006475	2.345346
25.222601957385894	4.1211843	2.03007
25.24056232872074	3.0887415	1.7574816
25.25852333035048	2.4444544	1.5634751
25.276484962782778	2.1027226	1.4500768
25.294447226525435	1.940885	1.3931565
25.312410122086423	1.8615538	1.3643878
25.330373649973843	1.8866931	1.3735695
25.348337810695988	1.949521	1.3962525
25.366302604761245	1.9285078	1.3887073
25.384268032678207	1.8869843	1.3736755
25.40223409495558	1.8503397	1.3602719
25.420200792102257	1.8695885	1.367329
25.438168124627246	1.8418082	1.3571323
25.45613609303974	1.8331426	1.353936
25.474104697849057	1.8159407	1.3475685
25.492073939564698	1.7913789	1.338424
25.510043818696285	1.7699298	1.3303871
25.528014335753614	1.7890227	1.3375435
25.54598549124664	1.8065999	1.3440982
25.56395728568544	1.8258965	1.3512573
25.58192971958028	1.8199685	1.3490621
25.59990279344156	1.7997555	1.3415496
25.617876507779833	1.7787185	1.333686
25.635850863105826	1.7511744	1.3233194
25.653825859930386	1.7361754	1.3176401
25.671801498764548	1.7800893	1.3341999
25.68977778011949	1.8240091	1.3505588
25.707754704506524	1.8523356	1.3610053
25.725732272437153	1.8603488	1.3639461
25.743710484423012	1.8538287	1.3615538
25.761689340975888	1.8276193	1.3518947
25.77966884260774	1.7969742	1.3405126
25.797648989830662	1.8240176	1.350562
25.815629783156922	1.8293703	1.3525422
25.83361122309895	1.8106185	1.3455923
25.85159331016929	1.8267728	1.3515816
25.869576044880695	1.852188	1.3609512
25.887559427746034	1.8454938	1.3584895
25.90554345927836	1.7962388	1.3402383
25.92352813999086	1.763875	1.3281095
25.94151347039689	1.790072	1.3379357
25.959499451009965	1.8217754	1.3497316
25.97748608234374	1.8152698	1.3473195
25.995473364912062	1.7811543	1.3345989
26.013461299228904	1.78789	1.33712
26.03144988580839	1.8004485	1.341808
26.04943912516483	1.8111188	1.3457781
26.067429017812675	1.7701429	1.3304672
26.085419564266537	1.7328982	1.3163959
26.103410765041186	1.7796128	1.3340213
26.12140262065155	1.816926	1.347934
26.139395131612723	1.7989703	1.341257
26.157388298439948	1.7839936	1.3356622
26.17538212164861	1.7710439	1.3308058
26.193376601754295	1.7607002	1.3269138
26.211371739272714	1.7640401	1.3281717
26.229367534719746	1.762582	1.3276227
26.247363988611433	1.7711161	1.3308328
26.26536110146397	1.7638301	1.3280927
26.283358873793727	1.7528131	1.3239385
26.301357306117204	1.7425526	1.3200579
26.319356398951104	1.7356043	1.3174233
26.33735615281224	1.7138591	1.3091444
26.35535656821762	1.7150316	1.3095921
26.373357645684404	1.7836866	1.3355473
26.39135938572991	1.8380471	1.355746
26.409361788871614	1.8427186	1.3574678
26.427364855627165	1.7666584	1.329157
26.445368586514352	1.7362483	1.3176677
26.46337298205115	1.7345023	1.317005
26.48137804275568	1.7147975	1.3095027
26.499383769146217	1.7375542	1.3181632
26.517390161741215	1.7486252	1.3223559
26.53539722105928	1.7937434	1.3393071
26.553404947619182	1.7839348	1.3356402
26.571413341939856	1.7874612	1.3369597
26.589422404540397	1.7831011	1.3353281
26.60743213594006	1.7786012	1.3336421
26.62544253665827	1.7449565	1.320968
26.64345360721459	1.737828	1.3182671
26.66146534812879	1.7361045	1.3176131
26.679477759920758	1.741443	1.3196374
26.69749084311057	1.7400261	1.3191005
26.71550459821847	1.7686747	1.3299153
26.733519025764842	1.7919434	1.338635
26.751534126270258	1.8267317	1.3515664
26.769549900255434	1.809928	1.3453357
26.787566348241267	1.7497876	1.3227954
26.80558347074881	1.7098694	1.3076197
26.823601268299267	1.7630476	1.327798
26.841619741414036	1.7998434	1.3415824
26.85963889061465	1.7821149	1.3349588
26.877658716422832	1.7680506	1.3296806
26.89567921936045	1.7827741	1.3352057
26.913700399949544	1.7442899	1.3207157
26.93172225871233	1.7375104	1.3181466
26.949744796171174	1.7233769	1.3127745
26.967768012848605	1.7312957	1.3157871
26.98579190926733	1.7493166	1.3226173
27.003816485950225	1.7524084	1.3237857
27.021841743420318	1.7227116	1.3125211
27.039867682200814	1.7348604	1.317141
27.057894302815072	1.7308778	1.3156283
27.07592160578664	1.7658466	1.3288516
27.0939495916392	1.7713692	1.330928
27.111978260896635	1.7710321	1.3308012
27.13000761408296	1.7836276	1.3355253
27.148037651722397	1.8101536	1.3454195
27.166068374339304	1.8133873	1.3466207
27.184099782458215	1.7969356	1.3404982
27.20213187660384	1.7949694	1.3397647
27.22016465730105	1.7797719	1.3340809
27.23819812507487	1.7646059	1.3283846
27.256232280450533	1.7717072	1.3310549
27.274267123953383	1.772172	1.3312294
27.292302656108987	1.7440392	1.3206208
27.31033887744306	1.7554237	1.324924
27.32837578848146	1.7816975	1.3348024
27.34641338975026	1.7659433	1.3288879
27.364451681775673	1.7301947	1.3153687
27.382490665084074	1.7070637	1.3065464
27.400530340202046	1.6875616	1.2990618
27.41857070765629	1.6913453	1.3005173
27.436611767973726	1.7199922	1.3114847
27.454653521681404	1.7491541	1.3225559
27.472695969306564	1.7587796	1.3261899
27.490739111376627	1.7923421	1.3387839
27.508782948419153	1.8157011	1.3474796
27.526827480961902	1.7905016	1.3380963
27.54487270953279	1.7810931	1.334576
27.562918634659898	1.7630496	1.3277987
27.580965256871508	1.7446429	1.3208493
27.599012576696026	1.7640731	1.3281841
27.617060594662068	1.7904016	1.3380588
27.63510931129842	1.8074471	1.3444133
27.65315872713401	1.7904004	1.3380585
27.67120884269797	1.7337748	1.3167288
27.68925965851958	1.7283425	1.3146644
27.707311175128307	1.7687889	1.3299582
27.725363393053787	1.7922571	1.338752
27.74341631282583	1.7945387	1.3396039
27.7614699349744	1.7559545	1.3251244
27.77952426002968	1.8688016	1.3670412
27.797579288521973	1.9606371	1.4002275
27.815635020981784	2.2518122	1.5006039
27.83369145793979	2.3496842	1.532868
27.85174859992682	2.2514746	1.5004915
27.869806447473923	2.0908267	1.4459691
27.887865001112267	1.855309	1.3620973
27.905924261373233	1.7977291	1.3407942
27.92398422878836	1.778634	1.3336544
27.94204490388936	1.7925515	1.3388621
27.96010628720813	1.8099122	1.3453298
27.978168379276728	1.8318998	1.3534769
27.9962311806274	1.8598231	1.3637533
28.014294691792568	1.8331683	1.3539455
28.0323589133048	1.787535	1.3369873
28.050423845696887	1.7703956	1.3305621
28.068489489501758	1.747455	1.3219134
28.086555845252523	1.7711879	1.3308598
28.104622913482487	1.7728943	1.3315008
28.122690694725115	1.80785	1.3445631
28.14075918951405	1.8305525	1.3529791
28.15882839838312	1.8520112	1.3608862
28.176898321866304	1.8596554	1.3636918
28.1949689604978	1.8334962	1.3540665
28.213040314811945	1.8483366	1.3595355
28.23111238534327	1.865278	1.3657519
28.249185172626493	1.8418449	1.3571459
28.267258677196473	1.7827973	1.3352144
28.285332899588294	1.8079654	1.344606
28.303407840337172	1.8831462	1.3722777
28.321483499978545	1.8837725	1.3725059
28.33955987904799	1.8884437	1.3742065
28.357636978081285	1.8721839	1.3682777
28.37571479761439	1.8462757	1.3587773
28.393793338183425	1.8215604	1.3496519
28.41187260032469	1.833391	1.3540276
28.429952584574686	1.9018552	1.3790777
28.448033291470065	1.9659935	1.402139
28.46611472154769	1.9472456	1.3954375
28.484196875344566	1.9386405	1.3923507
28.502279753397914	1.951308	1.3968923
28.52036335624511	1.9751858	1.405413
28.538447684423716	1.9268047	1.388094
28.556532738471482	1.9062529	1.3806711
28.574618518926325	1.9217552	1.3862739
28.59270502632635	1.8963301	1.377073
28.61079226120985	1.8941386	1.3762771
28.628880224115274	1.8713396	1.3679692
28.646968915581287	1.8792489	1.370857
28.66505833614671	1.9272896	1.3882686
28.68314848635055	1.9514934	1.3969586
28.701239366732004	1.9596797	1.3998857
28.71933097783044	1.9682286	1.4029357
28.737423320185403	2.058893	1.4348843
28.75551639433665	2.1751215	1.4748293
28.773610200824074	2.1571631	1.4687284
28.791704740187793	2.0971284	1.4481466
28.80980001296809	2.1086624	1.4521234
28.827896019705413	2.1573648	1.4687971
28.845992760940433	2.142179	1.4636185
28.86409023721397	2.144047	1.4642565
28.88218844906704	2.1045372	1.4507023
28.900287397040845	2.0979738	1.4484384
28.918387081676755	2.1046193	1.4507306
28.936487503516343	2.1412597	1.4633044
28.954588663101365	2.1632817	1.4708098
28.97269056097374	2.2042382	1.4846677
28.990793197675597	2.2346516	1.4948751
29.00889657374923	2.2441633	1.4980532
29.027000689737125	2.2300596	1.4933385
29.04510554618196	2.2769053	1.5089418
29.06321114362659	2.3348475	1.5280207
29.08131748261405	2.337493	1.5288862
29.099424563687567	2.337255	1.5288084
29.11753238739057	2.4118493	1.553013
29.13564095426663	2.4619675	1.5690658
29.15375026485954	2.4619606	1.5690635
29.171860319713275	2.4111972	1.552803
29.18997111937199	2.4380226	1.5614169
29.20808266438002	2.6182766	1.618109
29.226194955281898	2.6901767	1.6401758
29.244307992622335	2.7033842	1.6441971
29.26242177694624	2.7285407	1.6518295
29.2805363087987	2.7941508	1.6715714
29.29865158872498	2.8358302	1.6839924
29.316767617270557	2.8220618	1.6798993
29.334884394981064	2.82911	1.6819959
29.353001922402367	2.8681228	1.6935533
29.37112020008047	2.9930868	1.730054
29.389239228561596	3.1070364	1.7626787
29.407359008392152	3.2723947	1.8089762
29.42547954011872	3.5801992	1.8921415
29.44360082428809	4.116253	2.028855
29.46172286144722	5.249632	2.2912076
29.479845652143283	7.0147247	2.6485326
29.497969196923606	9.37949	3.0625954
29.516093496335728	12.146965	3.4852495
29.5342185509274	15.317021	3.9136965
29.55234436124651	18.35453	4.284219
29.570470927841175	20.303307	4.505919
29.588598251259686	19.927288	4.4639993
29.60672633205055	18.244158	4.271318
29.624855170762405	15.743607	3.9678214
29.642984767944146	12.694447	3.5629268
29.66111512414481	9.523017	3.0859387
29.67924623991366	6.7913933	2.6060302
29.697378115800138	4.883518	2.2098684
29.71551075235387	3.9640677	1.9909967
29.733644150124675	3.615205	1.9013692
29.751778309662576	3.438179	1.8542328
29.769913231517766	3.3747492	1.837049
29.78804891624066	3.264332	1.8067462
29.806185364381818	3.1495757	1.7747045
29.82432257649206	3.2186553	1.7940612
29.842460553122333	3.2327302	1.7979795
29.86059929482382	3.2103355	1.7917409
29.878738802147872	3.1948771	1.787422
29.896879075646048	3.2068465	1.790767
29.915020115870114	3.1745458	1.7817255
29.933161923371976	3.1525507	1.7755424
29.951304498703777	3.142607	1.77274
29.969447842417857	3.1096358	1.7634159
29.987591955066733	3.1260922	1.7680758
30.005736837203123	3.179985	1.7832513
30.023882489379943	3.1987646	1.788509
30.04202891215028	3.125866	1.7680118
30.060176106067455	3.0450315	1.7450019
30.078324071684946	3.0479877	1.7458487
30.09647280955646	3.066795	1.7512268
30.114622320235863	3.0409784	1.7438401
30.132772604277257	3.013036	1.7358099
30.1509236622349	3.0600927	1.749312
30.16907549466328	2.9891205	1.7289073
30.18722810211705	2.9038873	1.7040796
30.205381485151097	2.8530118	1.6890861
30.22353564432045	2.8383505	1.6847405
30.241690580180403	2.841044	1.6855396
30.25984629328638	2.8255	1.6809224
30.278002784194037	2.7611265	1.6616638
30.296160053459246	2.7371464	1.6544323
30.314318101638033	2.7916458	1.6708219
30.332476929286646	2.8064232	1.6752383
30.35063653696153	2.8234875	1.6803236
30.368796925219307	2.8492029	1.6879582
30.386958094616844	2.8201132	1.6793193
30.40512004571115	2.7777054	1.6666449
30.423282779059463	2.8513455	1.6885928
30.441446295219233	2.8208306	1.6795329
30.459610594748067	2.7957401	1.6720467
30.47777567820382	2.7847364	1.6687529
30.495941546144504	2.7557325	1.6600399
30.51410819912835	2.7080073	1.6456025
30.532275637713795	2.6999485	1.643152
30.55044386245946	2.7030854	1.6441063
30.56861287392416	2.7291942	1.6520272
30.586782672666956	2.7308135	1.6525173
30.604953259247047	2.7145994	1.6476041
30.623124634223885	2.7100654	1.6462276
30.641296798157075	2.6980252	1.6425667
30.659469751606462	2.6730235	1.6349384
30.677643495132074	2.6549358	1.6293974
30.695818029294152	2.654363	1.6292216
30.713993354653116	2.608689	1.6151437
30.73216947176962	2.6198707	1.6186014
30.75034638120448	2.6573591	1.6301408
30.768524083518756	2.6201391	1.6186844
30.786702579273673	2.6318767	1.622306
30.80488186903069	2.6960323	1.6419599
30.82306195335144	2.863747	1.6922609
30.841242832797782	3.048937	1.7461206
30.85942450793176	3.3540668	1.8314111
30.877606979315637	3.7913592	1.9471413
30.895790247511883	4.176507	2.0436504
30.913974313083134	4.562745	2.1360583
30.932159176592283	4.9850945	2.2327325
30.95034483860237	5.166375	2.2729661
30.968531299676698	4.8199425	2.1954367
30.98671856037873	4.294064	2.0722125
31.00490662127215	3.8625324	1.9653326
31.023095482920848	3.5354455	1.880278
31.04128514588892	3.089647	1.7577392
31.059475610740662	2.7240071	1.6504567
31.07766687804056	2.567792	1.6024331
31.09585894835335	2.5259907	1.5893365
31.11405182224393	2.5187654	1.5870619
31.132245500277417	2.4443974	1.5634569
31.15043998301914	2.4066038	1.5513233
31.168635271034628	2.3917239	1.5465199
31.18683136488964	2.395224	1.5476512
31.20502826515008	2.3523815	1.5337476
31.223225972382135	2.3550644	1.534622
31.241424487152155	2.3844974	1.5441818
31.259623810026692	2.3817637	1.5432963
31.27782394157253	2.3339307	1.5277208
31.296024882356644	2.3009174	1.5168775
31.314226632946237	2.2717867	1.5072447
31.332429193908684	2.2928135	1.5142039
31.350632565811598	2.3336163	1.5276178
31.368836749222787	2.3276734	1.5256715
31.387041744710295	2.3839679	1.5440103
31.40524755284232	2.4511786	1.565624
31.423454174187317	2.372866	1.540411
31.441661609313922	2.301755	1.5171536
31.459869858791002	2.293714	1.5145012
31.478078923187628	2.32399	1.5244639
31.496288803073064	2.3300173	1.5264394
31.514499499016807	2.3048687	1.5181794
31.532711011588546	2.2266428	1.4921939
31.550923341358178	2.225435	1.4917892
31.56913648889584	2.2461379	1.4987121
31.587350454771844	2.2656767	1.5052165
31.605565239556732	2.3119252	1.5205016
31.62378084382127	2.2614045	1.5037967
31.641997268136382	2.18703	1.4788611
31.660214513073274	2.142246	1.4636414
31.67843257920331	2.1296275	1.4593244
31.6966514670981	2.168364	1.4725366
31.71487117732944	2.1854699	1.4783335
31.733091710469346	2.2208343	1.4902464
31.751313067090052	2.2685905	1.5061841
31.769535247764008	2.2683785	1.5061136
31.787758253063878	2.3127189	1.5207626
31.805982083562526	2.286468	1.5121071
31.824206739833024	2.2209864	1.4902974
31.84243222244869	2.185463	1.4783311
31.860658531983013	2.157213	1.4687454
31.878885669009737	2.1541133	1.4676898
31.897113634102784	2.1179655	1.4553231
31.91534242783632	2.085222	1.4440298
31.933572050784694	2.0889168	1.4453086
31.951802503522508	2.1380265	1.4621992
31.970033786624548	2.1263518	1.4582015
31.988265900665834	2.0775802	1.4413813
32.006498846221575	2.0574462	1.43438
32.02473262386724	2.0735302	1.4399757
32.04296723417845	2.129462	1.4592676
32.0612026777311	2.153909	1.4676201
32.07943895510129	2.2222192	1.490711
32.097676066865304	2.206821	1.4855373
32.115914013599685	2.1679893	1.4724094
32.13415279588115	2.1458468	1.4648709
32.152392414286666	2.125646	1.4579595
32.1706328693934	2.038854	1.4278845
32.18887416177875	2.0600505	1.4352876
32.20711629202032	2.0655146	1.4371898
32.225359260695924	2.06055	1.4354616
32.243603068383614	1.9888363	1.410261
32.26184771566166	1.9450239	1.3946412
32.28009320310852	1.9817232	1.4077369
32.2983395313029	2.0316715	1.4253671
32.31658670082372	2.0521078	1.432518
32.33483471225012	2.0251322	1.4230714
32.35308356616143	1.9687108	1.4031075
32.371333263137245	2.0176167	1.4204284
32.38958380375734	2.14517	1.4646399
32.407835188601744	2.146805	1.4651979
32.42608741825067	2.0771053	1.4412166
32.444340493284585	1.9767236	1.40596
32.46259441428416	2.0016837	1.4148088
32.48084918183028	1.9923807	1.4115171
32.49910479650405	1.9992204	1.4139379
32.51736125888683	1.9633219	1.4011859
32.53561856956014	1.975186	1.4054132
32.5538767291058	1.9755508	1.4055429
32.572135738105764	1.9747552	1.4052598
32.59039559714228	2.0423102	1.4290942
32.608656306797776	2.02177	1.4218895
32.62691786765491	2.0055854	1.4161869
32.645180280296586	1.9855485	1.4090949
32.663443545305896	1.962144	1.4007655
32.68170766326619	1.9506835	1.3966687
32.69997263476099	1.9582579	1.3993777
32.7182384603741	2.0065734	1.4165357
32.7365051406895	1.9827139	1.4080888
32.75477267629144	1.9279695	1.3885134
32.77304106776434	1.8747145	1.3692021
32.79131031569289	1.8598909	1.3637782
32.809580420661966	1.836684	1.3552432
32.827851383256714	1.8331391	1.3539346
32.84612320406245	1.8446707	1.3581865
32.86439588366476	1.8905673	1.374979
32.88266942264945	1.8616291	1.3644153
32.9009438216025	1.8634479	1.3650817
32.9192190811102	1.8637831	1.3652045
32.937495201758985	1.8855791	1.3731639
32.95577218413556	1.8494234	1.359935
32.974050028826866	1.8109537	1.3457168
32.992328736420035	1.8665992	1.3662354
33.010608307502444	1.870183	1.3675463
33.02888874266169	1.8118563	1.346052
33.047170042485604	1.7799063	1.3341312
33.06545220756225	1.828918	1.3523749
33.083735238479896	1.8547544	1.3618937
33.10201913582707	1.868006	1.3667501
33.12030390019248	1.8729401	1.368554
33.138589532165135	1.8764446	1.3698338
33.15687603233419	1.8928946	1.375825
33.17516340128909	1.9561371	1.3986197
33.19345163961947	1.9918777	1.4113389
33.211740747915215	1.9813653	1.4076098
33.23003072676643	1.9474198	1.3954998
33.248321576763466	1.8457713	1.3585917
33.266613298496885	1.8696824	1.3673633
33.28490589255747	1.8002962	1.3417512
33.30319935953626	1.7334883	1.31662
33.32149370002451	1.7574978	1.3257065
33.339788914613706	1.9247845	1.387366
33.358085003895575	1.9838865	1.4085051
33.376381968462034	1.9458462	1.394936
33.39467980890529	1.9636475	1.4013021
33.41297852581774	1.8794646	1.3709357
33.43127811979204	1.7199689	1.3114759
33.44957859142105	1.7233768	1.3127744
33.467879941297866	1.8775822	1.3702489
33.486182170015844	1.9167114	1.3844535
33.50448527816853	1.9060154	1.3805852
33.522789266349754	1.9395288	1.3926697
33.541094135153514	1.8608129	1.3641162
33.55939988517411	1.8330092	1.3538867
33.57770651700602	1.9095689	1.3818716
33.59601403124398	1.8926665	1.3757422
33.61432242848296	1.8579618	1.3630707
33.632631709318154	1.832214	1.353593
33.650941874344994	1.8895974	1.3746263
33.66925292415916	1.9122663	1.3828472
33.68756485935654	1.8647457	1.365557
33.70587768053328	1.738532	1.318534
33.724191388285746	1.7597811	1.3265674
33.74250598321054	1.789905	1.3378733
33.760821465904506	1.8314441	1.3533086
33.77913783696474	1.8539417	1.3615953
33.79745509698852	1.9019926	1.3791275
33.815773246573414	1.8735116	1.3687627
33.8340922863172	1.7822357	1.335004
33.852412216817896	1.702249	1.3047026
33.87073303867377	1.8114752	1.3459105
33.889054752483304	1.8985698	1.377886
33.907377358845245	1.8899984	1.3747722
33.92570085835853	1.8758943	1.369633
33.94402525162239	1.8413725	1.3569719
33.96235053923627	1.7568437	1.3254598
33.980676721799824	1.7418532	1.3197929
33.999003799912984	1.7890708	1.3375615
34.01733177417592	1.8178709	1.3482844
34.03566064518901	1.8449589	1.3582927
34.0539904135529	1.922693	1.386612
34.07232107986846	1.928787	1.3888078
34.090652644736785	1.8583237	1.3632035
34.108985108759235	1.8416244	1.3570646
34.12731847253742	1.7886107	1.3373895
34.14565273667313	1.80241	1.3425386
34.16398790176847	1.9495219	1.3962528
34.18232396842574	1.8825716	1.3720684
34.20066093724749	1.6992183	1.3035407
34.21899880883651	1.7430648	1.3202518
34.23733758379583	1.9645916	1.4016389
34.25567726272874	2.1269553	1.4584085
34.27401784623872	2.0279427	1.4240586
34.29235933492957	1.8908722	1.3750899
34.31070172940526	1.9051548	1.3802735
34.32904503027003	1.8954927	1.376769
34.347389238128386	1.7395545	1.3189217
34.36573435358502	1.8710762	1.3678728
34.38408037724492	2.065825	1.4372978
34.402427309713296	2.0810409	1.4425813
34.42077515159559	2.0048454	1.4159256
34.43912390349752	1.9925491	1.4115767
34.45747356602499	1.8947723	1.3765073
34.47582413978423	1.9321676	1.3900243
34.49417562538163	2.0235767	1.4225248
34.51252802342388	2.0314906	1.4253037
34.53088133451789	1.9462701	1.3950878
34.54923555927084	1.8158787	1.3475455
34.567590698290104	1.980821	1.4074165
34.58594675218336	1.9949279	1.4124192
34.6043037215585	1.7134988	1.3090068
34.62266160702365	1.7137494	1.3091025
34.641020409187234	1.9545661	1.3980579
34.65938012865785	2.05629	1.433977
34.677740766044394	1.9719326	1.4042552
34.69610232195598	1.8366687	1.3552375
34.714464797002016	1.7253731	1.3135346
34.73282819179208	1.9326882	1.3902116
34.751192506936064	2.1502275	1.4663655
34.76955774304408	2.0391438	1.4279859
34.7879239007265	1.9271904	1.3882328
34.80629098059391	2.0593908	1.4350578
34.824658983257194	1.9981825	1.4135709
34.843027909327446	1.9501443	1.3964757
34.86139775941603	1.9661332	1.4021888
34.879768534134534	1.9775789	1.4062642
34.89814023409483	1.8388193	1.3560307
34.91651285990901	1.8306501	1.3530152
34.93488641218944	1.7645301	1.3283561
34.95326089154871	1.8605266	1.3640112
34.97163629859967	1.9134947	1.3832912
34.99001263395542	1.9227417	1.3866296
35.00838989822934	1.9537789	1.3977764
35.02676809203499	2.1044436	1.45067
35.04514721598624	1.9818841	1.4077941
35.063527270697215	1.8750861	1.3693378
35.081908256782256	1.8891941	1.3744795
35.10029017485597	1.8145877	1.3470663
35.11867302553321	1.7974058	1.3406737
35.137056809429104	1.7965077	1.3403387
35.155441527159006	1.6322778	1.2776062
35.173827179338524	1.7794505	1.3339604
35.19221376658354	1.9794564	1.4069315
35.21060128951017	1.8469654	1.3590311
35.2289897487348	1.6519288	1.2852738
35.24737914487405	1.4304388	1.1960095
35.26576947854479	1.4655048	1.2105803
35.28416075036418	1.5606427	1.2492568
35.30255296094958	1.6680032	1.291512
35.32094611091867	1.9517065	1.3970349
35.33934020088932	2.2702086	1.5067211
35.35773523147969	2.0723982	1.4395826
35.3761312033082	1.7515337	1.3234552
35.394528116993506	1.5707792	1.2533073
35.41292597315452	1.736457	1.3177469
35.431324772410434	1.9048913	1.380178
35.449724515380666	2.0109797	1.4180901
35.46812520268491	2.227314	1.4924189
35.486526834943106	2.1795998	1.4763467
35.504929412775454	1.8919604	1.3754855
35.52333293680242	1.7649146	1.3285009
35.54173740764471	1.4728355	1.2136043
35.560142825923286	1.5132079	1.2301252
35.5785491922594	1.5830607	1.2581974
35.59695650727454	1.1869521	1.0894734
35.61536477159042	1.2298433	1.108983
