0.008763373481513119	0.051685803	0.22734512
0.026290120649546365	0.18429624	0.4292974
0.043816868432600686	0.18843815	0.43409464
0.06134361724069026	0.2521123	0.50210786
0.07887036748382949	0.1502389	0.38760662
0.0963971195720331	0.107694246	0.328168
0.11392387391531617	0.10925623	0.33053932
0.1314506309236943	0.124344364	0.35262495
0.1489773910071836	0.13114922	0.3621453
0.16650415457580078	0.15735914	0.39668518
0.18403092203956356	0.15347777	0.3917624
0.20155769380849	0.13814676	0.37168097
0.2190844702925996	0.17726831	0.42103243
0.2366112519019124	0.18621708	0.43152878
0.2541380390464497	0.17641336	0.4200159
0.27166483213623416	0.17879075	0.42283654
0.28919163158128947	0.15759355	0.39698052
0.3067184377916406	0.13048673	0.36122948
0.324245251177314	0.14915906	0.38621116
0.34177207214833777	0.232023	0.48168766
0.3592989011147415	0.26783022	0.51752317
0.37682573848655654	0.24878952	0.49878806
0.39435258467381573	0.15764736	0.3970483
0.41187944008655414	0.11154257	0.3339799
0.42940630513480854	0.13903657	0.37287608
0.446933180228618	0.17336135	0.41636685
0.4644600657780234	0.17472075	0.4179961
0.48198696219306775	0.16980205	0.41207045
0.49951386988379676	0.13122925	0.36225578
0.5170407892602581	0.13931844	0.37325385
0.5345677207325025	0.1334174	0.36526346
0.5520946647105822	0.1017646	0.31900564
0.5696216216045534	0.13968314	0.37374207
0.5871485918244737	0.16686861	0.40849555
0.6046755757804043	0.20465098	0.45238367
0.6222025738824094	0.17750514	0.42131358
0.6397295865405557	0.13968843	0.37374917
0.6572566141649129	0.13307865	0.36479947
0.6747836571655547	0.11371053	0.3372099
0.6923107159525568	0.13480718	0.36716098
0.7098377909359992	0.14203797	0.37687925
0.7273648825259653	0.15617752	0.395193
0.7448919911325411	0.16470699	0.40584108
0.762419117165817	0.15360817	0.3919288
0.7799462610358868	0.14056574	0.37492096
0.7974734231528482	0.17012236	0.41245893
0.8150006039268024	0.17053437	0.4129581
0.8325278037678551	0.22423357	0.47353306
0.8500550230861152	0.22382154	0.4730978
0.8675822622916969	0.23513891	0.48491123
0.8851095217947171	0.22633055	0.4757421
0.9026368020052984	0.24986948	0.49986947
0.9201641033335665	0.23617087	0.48597416
0.9376914261896523	0.23620795	0.48601228
0.9552187709836915	0.2261656	0.4755687
0.9727461381258234	0.22027366	0.4693332
0.990273528026193	0.22619094	0.47559536
1.0078009410949496	0.21028988	0.45857376
1.0253283777422473	0.21200787	0.4604431
1.0428558383782454	0.26261744	0.51246214
1.0603833234131086	0.29486054	0.54301065
1.0779108332570058	0.33005884	0.5745075
1.0954383683201119	0.34291774	0.5855918
1.112965929012607	0.35719267	0.59765595
1.1304935157446763	0.4276527	0.6539516
1.1480211289265108	0.4681556	0.68421894
1.1655487689683062	1.3495399	1.161697
1.1830764362802655	1.6578642	1.2875807
1.200604131272596	2.087365	1.4447715
1.2181318543555117	2.460233	1.568513
1.235659605939232	2.502349	1.5818814
1.253187386433982	3.9221768	1.9804486
1.270715196249994	6.4178305	2.5333438
1.2882430357975057	12.034602	3.4690924
1.3057709054867608	17.109709	4.1363883
1.3232988057280106	22.874413	4.78272
1.3408267369315112	27.604786	5.2540255
1.358354699507526	31.256422	5.5907445
1.3758826938663256	35.190987	5.932199
1.3934107204181858	37.300503	6.107414
1.410938779573391	37.78289	6.146779
1.4284668717422309	38.287243	6.187669
1.4459949973350033	37.9573	6.160949
1.4635231567620117	37.98034	6.162819
1.4810513504335687	37.14998	6.0950785
1.4985795787599925	36.244755	6.020362
1.5161078421516088	35.65418	5.971112
1.5336361410187505	34.885014	5.9063535
1.5511644757717598	35.21166	5.9339414
1.5686928468209842	36.13714	6.0114174
1.58622125457678	36.4825	6.0400743
1.6037496994495108	37.151436	6.0951977
1.621278181849548	37.178993	6.097458
1.6388067021872719	38.24408	6.18418
1.6563352608730693	37.936325	6.159247
1.673863858317336	36.92377	6.0764933
1.6913924949304753	35.879303	5.9899335
1.7089211711228998	34.4925	5.8730316
1.7264498873050296	33.49801	5.7877464
1.7439786438872935	32.857155	5.732116
1.7615074412801288	32.0857	5.664424
1.779036279893981	31.466597	5.6095095
1.796565160139305	30.567999	5.5288334
1.814094082426564	29.824919	5.4612193
1.8316230471662298	28.97171	5.3825374
1.849152054768784	28.272625	5.3172007
1.8666811056447168	27.761751	5.2689424
1.8842102002045273	27.016737	5.1977625
1.901739338858724	26.35244	5.133463
1.9192685220178245	25.98711	5.0977554
1.9367977500923557	25.321724	5.0320697
1.9543270234928547	24.852808	4.985259
1.971856342629867	24.206402	4.92
1.9893857079139496	23.557451	4.853602
2.006915119755667	23.165361	4.8130407
2.0244445785655945	22.601385	4.7540913
2.0419740847543175	22.362827	4.7289352
2.0595036387324317	21.987942	4.6891303
2.0770332409105414	21.476337	4.634257
2.094562891699263	20.984825	4.5809197
2.1120925915092217	20.392345	4.5157886
2.129622340751053	20.083906	4.4815073
2.1471521398354043	188.2519	13.720492
2.1646819891729323	444.45334	21.082062
2.182211889174303	440.60007	20.990475
2.1997418402501974	453.01636	21.284182
2.2172718428113023	433.0849	20.810692
2.234801897268317	321.1115	17.919584
2.2523320040319548	17.709608	4.2082787
2.269862163512935	17.473267	4.180104
2.287392376121992	17.210827	4.1485934
2.304922642269869	16.649073	4.0803275
2.322452962367322	16.22659	4.028224
2.3399833368251164	15.742734	3.9677114
2.357513766054032	15.299619	3.9114728
2.3750442504648586	14.90089	3.860167
2.3925747904683963	14.6569	3.828433
2.410105386475459	14.633367	3.8253584
2.4276360388968707	14.261576	3.7764502
2.445166748143469	13.922694	3.7313128
2.4626975146261025	13.702547	3.7016952
2.4802283387556323	13.65758	3.6956165
2.4977592209429305	13.433372	3.6651564
2.5152901615988825	13.212907	3.6349561
2.5328211611343865	13.077718	3.6163127
2.5503522199603523	13.079181	3.616515
2.5678833384877024	12.963881	3.600539
2.5854145171273712	12.687389	3.5619361
2.6029457562903064	12.254062	3.5005803
2.620477056387469	11.938336	3.4551897
2.6380084178298326	11.62586	3.4096715
2.655539841028383	11.51655	3.3936043
2.673071326394119	11.464143	3.385874
2.6906028743380523	11.313474	3.3635507
2.708134485271211	11.141997	3.337963
2.7256661596046325	10.959023	3.3104415
2.743197897749369	10.858138	3.2951689
2.760729700116486	10.671336	3.2667012
2.778261567117063	10.468359	3.2354844
2.795793499162193	10.283314	3.2067606
2.8133254966629817	10.289459	3.2077186
2.830857560030551	10.157043	3.1870117
2.8483896896760337	10.039324	3.1684892
2.865921886010578	9.808286	3.1318183
2.883454149445347	9.564352	3.0926287
2.9009864803915177	9.31994	3.0528576
2.91851887926028	9.024167	3.0040252
2.9360513464628384	8.954234	2.9923627
2.953583882410413	8.974061	2.9956737
2.9711164875142373	8.993464	2.9989107
2.9886491621855606	9.000382	3.0000637
3.0061819068356455	8.890041	2.9816172
3.023714721875769	8.757436	2.9592965
3.041247607717225	8.6581	2.942465
3.0587805647713213	8.449982	2.9068851
3.0763135934493806	8.293543	2.879851
3.0938466941627407	8.097913	2.845683
3.1113798673227544	8.153395	2.8554149
3.1289131133407904	8.196525	2.8629572
3.1464464326282315	8.121323	2.8497934
3.1639798255964786	8.04955	2.837173
3.1815132926569443	7.9089775	2.8122904
3.1990468342210603	7.869273	2.8052225
3.216580450700272	7.715408	2.7776623
3.2341141425060416	7.498551	2.7383482
3.251647910049847	7.333456	2.7080355
3.2691817537431813	7.2902355	2.7000437
3.286715673997555	7.3185873	2.7052886
3.3042496712244938	7.304912	2.70276
3.32178374583554	7.2469134	2.6920092
3.339317898242251	7.1731844	2.67828
3.3568521288562034	7.0863547	2.6620207
3.3743864380889876	6.978498	2.6416848
3.3919208263522127	6.881773	2.6233134
3.4094552940575023	6.7735915	2.6026125
3.4269898416164972	6.6891813	2.5863452
3.444524469440858	6.595149	2.5681021
3.4620591779422587	6.585563	2.5662353
3.479593967532391	6.50616	2.5507176
3.4971288386229658	6.4255395	2.534865
3.5146637916257086	6.3470187	2.519329
3.5321988269523628	6.301912	2.510361
3.5497339450146903	6.3476586	2.519456
3.5672691462244708	6.2816143	2.506315
3.5848044309934988	6.29842	2.5096653
3.60233979973359	6.380195	2.525905
3.619875252856575	6.499471	2.549406
3.6374107907743034	6.5112314	2.5517116
3.6549464138986427	6.463226	2.5422876
3.6724821226414788	6.3828435	2.526429
3.690017917414714	6.404288	2.5306695
3.7075537986302702	6.417326	2.5332441
3.7250897667000857	6.4859257	2.5467482
3.7426258220361235	6.6237526	2.5736651
3.7601619650503553	6.86489	2.6200936
3.777698196154779	7.4820266	2.7353294
3.7952345157614067	8.519937	2.918893
3.8127709242822716	9.413966	3.0682187
3.830307422129425	11.665509	3.4154809
3.847844009714936	30.455374	5.5186386
3.8653806874508954	97.87887	9.893375
3.882917455749409	97.07034	9.852428
3.900454315022606	96.80339	9.838871
3.917991265682631	41.299984	6.4265065
3.9355283081416506	10.935645	3.3069086
3.9530654428118495	8.901202	2.9834883
3.970602670105433	7.780845	2.7894166
3.9881399904346244	6.8348055	2.614346
4.005677404211669	6.621225	2.573174
4.023214911848827	6.459378	2.5415306
4.0407525137583855	6.3685875	2.523606
4.058290210352644	6.4325347	2.5362442
4.075828002043927	6.370765	2.5240376
4.0933658892445814	6.337465	2.5174322
4.110903872366966	6.2739205	2.5047796
4.128441951823468	6.2116857	2.4923253
4.145980128026488	6.2403736	2.498074
4.163518401388452	6.32479	2.5149136
4.181056772321807	6.355959	2.5211027
4.1985952412390155	6.3369656	2.517333
4.216133808552567	6.3375545	2.51745
4.233672474674966	6.486375	2.5468361
4.251211240018741	6.745646	2.597238
4.268750104996445	6.962207	2.6385994
4.286289070020643	7.7455735	2.783087
4.303828135503928	9.209135	3.0346556
4.3213673018589125	29.509554	5.4322696
4.3389065694982305	90.62823	9.519886
4.356445938834537	165.92784	12.881298
4.3739854102805085	171.4941	13.095575
4.391524984248844	172.39082	13.129768
4.409064661152262	136.54073	11.685064
4.426604441403504	96.75717	9.836522
4.444144325415337	75.60249	8.694969
4.461684313600543	21.66473	4.6545386
4.47922440637193	22.203537	4.712063
4.496764604142329	20.62606	4.541592
4.5143049073245916	18.810917	4.3371553
4.531845316331589	16.69305	4.085713
4.5493858315762195	13.953545	3.7354443
4.566926453471405	11.599475	3.4058
4.584467182430081	9.411085	3.0677493
4.602008018865218	8.163331	2.8571544
4.619548963189798	7.456196	2.7306035
4.637090015816834	7.0074854	2.6471655
4.654631177159353	6.781612	2.604153
4.672172447630417	6.496505	2.5488243
4.689713827643102	6.3126073	2.5124903
4.7072553176105085	6.004502	2.4504085
4.724796917945764	5.926968	2.4345365
4.742338629062015	5.891113	2.4271615
4.759880451372434	5.904075	2.4298303
4.777422385290215	5.8188286	2.4122248
4.794964431228581	5.692227	2.3858387
4.812506589600768	5.642455	2.3753853
4.830048860820047	5.633365	2.373471
4.847591245299709	5.6857038	2.3844714
4.8651337434530655	5.6585374	2.378768
4.882676355693457	5.618421	2.3703208
4.900219082434242	5.5171747	2.3488667
4.917761924088813	5.465181	2.3377726
4.935304881070575	5.4237165	2.3288875
4.952847953792969	5.4240484	2.3289587
4.970391142669449	5.4520903	2.3349712
4.9879344481135055	5.481135	2.3411825
5.005477870538642	5.484815	2.3419683
5.023021410358394	5.452145	2.3349829
5.040565067986324	5.4548745	2.3355672
5.05810884383601	5.457735	2.3361795
5.075652738321066	5.5273657	2.351035
5.09319675185512	5.4404254	2.3324718
5.110740884851836	5.4137297	2.3267422
5.128285137724894	5.398096	2.3233802
5.145829510888007	5.4263706	2.329457
5.163374004754908	5.4109254	2.3261397
5.1809186197393595	5.3694186	2.3172007
5.198463356255145	5.439013	2.332169
5.216008214716077	5.5151787	2.3484418
5.233553195535998	5.453731	2.3353224
5.251098299128764	5.4491262	2.3343363
5.268643525908272	5.3468375	2.3123229
5.286188876288432	5.3737497	2.318135
5.3037343506831895	5.358459	2.3148346
5.32127994950651	5.3628325	2.315779
5.3388256731723915	5.3316097	2.309028
5.356371522094851	5.2982225	2.301787
5.373917496687938	5.3269544	2.3080196
5.391463597365729	5.3492856	2.3128524
5.40900982454232	5.373089	2.3179924
5.426556178631843	5.3282285	2.3082955
5.444102660048449	5.2793164	2.2976763
5.4616492692063225	5.160269	2.2716224
5.479196006519669	5.1112585	2.2608092
5.496742872402727	5.1188965	2.262498
5.514289867269756	5.148167	2.2689574
5.531836991535049	5.2437987	2.2899342
5.549384245612924	5.2750616	2.2967503
5.566931629917724	5.2948923	2.3010633
5.584479144863822	5.2498865	2.291263
5.6020267908656205	5.201841	2.2807546
5.619574568337545	5.2340217	2.2877984
5.637122477694054	5.252759	2.29189
5.654670519349629	5.2993155	2.3020241
5.672218693718784	5.2643447	2.294416
5.689767001216059	5.2575736	2.29294
5.707315442256021	5.241317	2.2893922
5.724864017253266	5.221659	2.285095
5.7424127266224225	5.2648497	2.294526
5.75996157077814	5.214389	2.2835035
5.777510550135105	5.2552996	2.292444
5.795059665108022	5.214778	2.283589
5.812608916111639	5.2787747	2.2975585
5.830158303560715	5.372684	2.3179052
5.847707827870055	5.3749294	2.3183894
5.86525748945448	5.3307147	2.308834
5.8828072887288485	5.4231777	2.3287718
5.900357226108044	5.5033097	2.3459134
5.917907302006979	5.6398764	2.3748424
5.9354575168406	6.2977233	2.5095265
5.9530078710238765	6.915115	2.6296606
5.970558364971812	7.4313107	2.726043
5.988108999099438	7.7274194	2.7798235
6.005659773821818	8.336169	2.8872426
6.023210689554039	8.0619135	2.839351
6.040761746711227	8.4942255	2.9144855
6.058312945708531	7.9106545	2.8125887
6.075864286961132	7.3759127	2.7158632
6.093415770884244	6.7119727	2.5907476
6.1109673978931065	6.1627493	2.4824886
6.128519168402993	5.5986714	2.366151
6.146071082829204	5.40271	2.324373
6.163623141587075	5.2642093	2.2943864
6.181175345091969	5.1469035	2.268679
6.198727693759281	5.1932974	2.2788808
6.216280188004435	5.2414384	2.2894187
6.233832828242885	5.2159224	2.2838395
6.251385614890126	5.244192	2.2900202
6.268938548361669	5.227451	2.286362
6.286491629073067	5.202888	2.280984
6.304044857439898	5.172339	2.2742777
6.321598233877777	5.1148977	2.261614
6.339151758802344	5.020418	2.240629
6.356705432629277	4.984661	2.2326355
6.37425925577428	4.9870753	2.233176
6.391813228653095	5.0231705	2.2412431
6.409367351681486	5.0513887	2.2475295
6.426921625275259	5.0122547	2.2388065
6.44447604985025	4.9589677	2.2268739
6.46203062582232	4.887825	2.2108426
6.47958535360737	4.8866057	2.2105668
6.497140233621328	4.9393716	2.2224698
6.514695266280161	4.9875803	2.233289
6.532250451999859	5.0422726	2.2455006
6.549805791196454	4.993673	2.2346528
6.567361284286002	5.012956	2.2389631
6.584916931684597	5.0104904	2.2384124
6.602472733808367	5.060357	2.2495236
6.6200286910734665	5.0464783	2.2464368
6.637584803896092	5.049025	2.2470036
6.655141072692462	4.9629927	2.2277775
6.672697497878842	4.940123	2.2226388
6.690254079871514	4.980229	2.2316427
6.707810819086808	5.0470924	2.2465734
6.725367715941078	5.1046596	2.2593493
6.742924770850719	5.0887413	2.2558239
6.760481984232151	5.011533	2.2386453
6.778039356501836	4.9772296	2.2309706
6.795596888076266	4.9604487	2.2272065
6.813154579371963	5.0209455	2.2407467
6.830712430805492	5.028323	2.2423923
6.84827044279344	5.0303154	2.2428365
6.865828615752445	4.963397	2.2278683
6.883386950099159	4.99893	2.2358286
6.900945446250287	4.99652	2.2352898
6.918504104622553	4.9695854	2.2292566
6.936062925632727	4.953573	2.2256625
6.953621909697607	5.021473	2.2408643
6.971181057234028	5.136519	2.266389
6.988740368658859	5.212962	2.2831912
7.006299844389007	5.184975	2.277054
7.023859484841407	5.1553187	2.2705326
7.041419290433036	5.290551	2.3001199
7.058979261580902	5.492155	2.3435347
7.0765393987020495	5.7134576	2.390284
7.094099702213559	6.0267334	2.4549406
7.111660172532549	6.3945603	2.5287468
7.129220810076164	6.7837696	2.604567
7.146781615261595	7.4352293	2.7267616
7.16434258850606	7.693755	2.773762
7.181903730226821	8.176251	2.8594146
7.1994650408411704	8.196724	2.862992
7.217026520766437	8.266821	2.875208
7.234588170419983	8.45171	2.9071825
7.252149990219215	8.48732	2.9133005
7.269711980581568	8.429419	2.903346
7.2872741419245175	8.318355	2.8841558
7.304836474665574	7.9292464	2.8158917
7.322398979222286	7.631383	2.7624958
7.339961656012233	7.3379765	2.70887
7.357524505453039	6.993275	2.6444802
7.375087527962357	6.7637277	2.6007168
7.392650723957886	6.4640303	2.5424457
7.410214093857353	6.1181817	2.473496
7.427777638078528	5.779299	2.4040172
7.445341357039213	5.5941315	2.3651917
7.4629052511572525	5.443813	2.333198
7.480469320850524	5.3927193	2.322223
7.498033566536948	5.320169	2.306549
7.5155979886344735	5.284522	2.2988088
7.5331625875610975	5.2294354	2.2867959
7.550727363734844	5.2689714	2.295424
7.568292317573788	5.2803736	2.2979064
7.585857449496025	5.2810287	2.298049
7.603422759919705	5.228699	2.286635
7.620988249263007	5.244373	2.2900596
7.638553917944147	5.3067036	2.3036284
7.656119766381391	5.294907	2.3010664
7.673685794993023	5.3084316	2.3040035
7.691252004197388	5.338228	2.3104606
7.70881839441285	5.3170714	2.3058777
7.726384966057826	5.314411	2.3053007
7.743951719550762	5.3386283	2.310547
7.761518655310149	5.331367	2.3089752
7.779085773754511	5.33553	2.3098767
7.796653075302419	5.26785	2.2951796
7.814220560372475	5.302701	2.3027594
7.831788229383323	5.3390303	2.3106341
7.8493560827536495	5.375971	2.318614
7.866924120902174	5.3822417	2.3199658
7.884492344247663	5.358219	2.3147829
7.9020607532089135	5.334187	2.3095858
7.919629348204771	5.325314	2.3076642
7.937198129654115	5.2945676	2.3009927
7.954767097975865	5.2408214	2.289284
7.972336253588986	5.252085	2.2917428
7.989905596912472	5.3258896	2.3077888
8.007475128365371	5.370066	2.3173404
8.025044848366756	5.4383583	2.3320289
8.042614757335754	5.617251	2.370074
8.060184855691523	5.716946	2.3910136
8.07775514385327	5.889478	2.4268248
8.095325622240228	5.8918915	2.427322
8.112896291271687	5.9124675	2.4315567
8.130467151366968	5.9957266	2.4486172
8.148038202945436	6.1222587	2.47432
8.165609446426497	6.139017	2.477704
8.183180882229594	6.0895395	2.4676993
8.200752510774217	6.009011	2.4513283
8.218324332479893	5.955051	2.4402974
8.235896347766193	5.9614215	2.4416022
8.253468557052724	6.023865	2.4543564
8.27104096075914	6.0245013	2.454486
8.288613559305137	6.1565447	2.4812386
8.306186353110448	6.235688	2.497136
8.32375934259485	6.3422256	2.5183775
8.341332528178162	6.3632326	2.5225449
8.358905910280246	6.343014	2.518534
8.376479489321003	6.3187323	2.5137088
8.394053265720377	6.3335	2.5166445
8.411627239898356	6.3379917	2.5175369
8.42920141227497	6.34398	2.5187259
8.44677578327029	6.3524213	2.520401
8.464350353304427	6.368969	2.5236816
8.48192512279754	6.34162	2.5182574
8.499500092169827	6.255162	2.501032
8.51707526184153	6.18124	2.4862099
8.534650632232934	6.157073	2.481345
8.552226203764365	6.123874	2.4746463
8.569801976856192	6.1909904	2.4881701
8.587377951928834	6.2281055	2.4956172
8.60495412940274	6.256306	2.501261
8.622530509698416	6.3381095	2.5175602
8.6401070932364	6.4555817	2.5407836
8.657683880437283	6.5674386	2.5627015
8.675260871721695	6.7208743	2.592465
8.692838067510303	6.85554	2.6183085
8.710415468223834	7.023869	2.6502583
8.727993074283043	7.1924267	2.68187
8.745570886108737	7.1882086	2.6810834
8.763148904121765	7.2540627	2.6933367
8.78072712874302	7.2814217	2.698411
8.798305560393441	7.541823	2.746238
8.815884199494006	7.736556	2.7814665
8.833463046465745	7.9693146	2.8229973
8.851042101729728	8.183747	2.860725
8.86862136570707	8.453706	2.9075258
8.886200838818924	8.565002	2.9266026
8.903780521486505	8.521129	2.9190972
8.921360414131055	8.613021	2.934795
8.938940517173874	8.736532	2.9557626
8.956520831036297	8.868985	2.978084
8.97410135613971	9.148073	3.024578
8.99168209290554	9.375097	3.061878
9.009263041755265	9.674394	3.1103687
9.026844203110405	9.890533	3.1449218
9.044425577392525	10.031344	3.1672297
9.062007165023239	10.140855	3.184471
9.079588966424197	10.433063	3.230025
9.097170982017108	10.566359	3.2505937
9.11475321222372	11.536722	3.396575
9.132335657465825	12.337403	3.512464
9.149918318165264	12.358068	3.5154045
9.167501194743924	12.9075985	3.5927145
9.18508428762374	12.689401	3.5622184
9.202667597226693	12.714089	3.5656822
9.220251123974803	12.397196	3.520965
9.237834868290143	12.144195	3.484852
9.255418830594836	11.877058	3.4463108
9.273003011311046	11.27076	3.3571951
9.290587410860985	10.947509	3.308702
9.308172029666911	10.261958	3.2034292
9.32575686815113	9.941734	3.1530516
9.343341926735997	8.652837	2.9415705
9.360927205843916	8.410849	2.9001462
9.378512705897327	8.311002	2.882881
9.396098427318728	8.17567	2.8593128
9.413684370530664	8.063581	2.8396447
9.431270535955722	7.9500365	2.819581
9.448856924016539	7.87895	2.8069468
9.466443535135806	7.8116155	2.7949266
9.484030369736251	7.8248777	2.7972982
9.501617428240658	7.8704157	2.8054261
9.519204711071852	7.894207	2.809663
9.536792218652714	7.884001	2.8078463
9.55437995140617	7.902697	2.8111737
9.571967909755191	7.9231706	2.8148127
9.589556094122802	7.9934607	2.827271
9.60714450493207	7.9663577	2.8224738
9.624733142606116	7.933548	2.8166554
9.642322007568108	7.9127665	2.812964
9.659911100241267	8.000784	2.8285656
9.677500421048851	8.129943	2.8513055
9.695089970414175	8.184045	2.860777
9.712679748760609	8.194053	2.8625255
9.730269756511557	8.154703	2.855644
9.747859994090492	8.197788	2.863178
9.765450461920915	8.192449	2.8622453
9.78304116042639	8.226971	2.8682697
9.800632090030527	8.255126	2.8731735
9.81822325115699	8.321353	2.8846755
9.835814644229481	8.34497	2.888766
9.853406269671762	8.331975	2.886516
9.870998127907646	8.341749	2.8882086
9.888590219360985	8.348997	2.8894632
9.906182544455698	8.371562	2.8933651
9.923775103615734	8.354473	2.8904107
9.941367897265108	8.317673	2.8840375
9.958960925827878	8.315305	2.883627
9.97655418972816	8.305979	2.8820095
9.994147689390106	8.336937	2.8873754
10.011741425237934	8.3801155	2.8948429
10.029335397695904	8.410743	2.9001281
10.04692960718833	8.412051	2.9003537
10.06452405413958	8.308758	2.8824916
10.082118738974064	8.291552	2.8795054
10.099713662116246	8.30938	2.8825994
10.117308823990651	8.310758	2.8828385
10.134904225021844	8.322997	2.8849604
10.152499865634445	8.296405	2.880348
10.170095746253125	8.310029	2.8827121
10.18769186730261	8.2666025	2.87517
10.205288229207675	8.336578	2.8873134
10.222884832393145	8.311292	2.882931
10.2404816772839	8.375641	2.89407
10.258078764304868	8.297016	2.880454
10.275676093881035	8.284538	2.8782873
10.293273666437438	8.272512	2.8761976
10.310871482399158	8.323501	2.8850477
10.32846954219134	8.251416	2.8725278
10.346067846239173	8.245073	2.8714235
10.363666394967908	8.232261	2.8691916
10.38126518880283	8.265367	2.874955
10.398864228169298	8.25619	2.8733587
10.416463513492713	8.220665	2.86717
10.434063045198531	8.151904	2.855154
10.451662823712262	8.166093	2.8576376
10.469262849459467	8.23817	2.8702211
10.486863122865758	8.202343	2.8639734
10.504463644356806	8.149206	2.8546815
10.522064414358338	8.033373	2.8343205
10.539665433296118	7.895536	2.8098996
10.557266701595987	7.9072285	2.8119795
10.574868219683818	7.899331	2.8105748
10.592469987985552	7.9458327	2.8188353
10.610072006927185	7.847742	2.801382
10.627674276934751	7.7242937	2.7792614
10.64527679843435	7.5460463	2.747007
10.662879571852143	7.434198	2.7265725
10.680482597614331	7.3215914	2.705844
10.698085876147173	7.221715	2.6873248
10.715689407876988	7.1259108	2.6694403
10.733293193230146	7.002168	2.646161
10.750897232633072	6.873597	2.6217546
10.76850152651225	6.7347417	2.595138
10.786106075294207	6.6093125	2.5708582
10.803710879405534	6.5668616	2.562589
10.821315939272877	6.5185356	2.5531423
10.83892125532294	6.44394	2.5384917
10.856526827982472	6.390566	2.527957
10.874132657678285	6.379468	2.525761
10.891738744837243	6.340182	2.5179718
10.909345089886271	6.2292333	2.4958432
10.926951693252343	6.0809865	2.4659657
10.944558555362494	6.043664	2.4583864
10.96216567664381	6.0340385	2.456428
10.979773057523436	5.934208	2.436023
10.997380698428573	5.860715	2.4208913
11.014988599786477	5.7834816	2.404887
11.032596762024461	5.7450995	2.3968937
11.050205185569892	5.6571546	2.3784773
11.067813870850198	5.5908513	2.3644981
11.085422818292859	5.5448637	2.3547535
11.10303202832541	5.488335	2.3427196
11.120641501375454	5.447813	2.334055
11.138251237870636	5.373013	2.317976
11.155861238238671	5.3197856	2.306466
11.173471502907317	5.221696	2.285103
11.191082032304402	5.208109	2.282128
11.208692826857805	5.1614976	2.271893
11.226303886995465	5.106766	2.2598155
11.243915213145371	5.022625	2.2411213
11.261526805735578	4.989128	2.2336357
11.279138665194196	4.967469	2.228782
11.296750791949393	4.920653	2.2182546
11.314363186429393	4.839342	2.1998506
11.331975849062479	4.6997113	2.1678817
11.34958878027699	4.6347322	2.1528428
11.36720198050133	4.573545	2.1385849
11.384815450163948	4.589426	2.1422946
11.402429189693366	4.5676994	2.1372178
11.420043199518153	4.5761843	2.1392019
11.437657480066942	63.53218	7.970708
11.455272031768422	85.24488	9.232816
11.472886855051353	107.59059	10.372588
11.490501950344528	99.175255	9.958677
11.508117318076819	84.504974	9.192658
11.52573295867715	45.889847	6.7742047
11.543348872574514	4.199479	2.049263
11.560965060197946	4.1652	2.040882
11.57858152197655	4.2175956	2.0536785
11.59619825833949	4.1846795	2.0456488
11.613815269715985	4.1208224	2.029981
11.631432556535323	38.58932	6.2120304
11.649050119226837	83.12271	9.117166
11.666667958219929	93.526146	9.670892
11.68428607394406	107.81214	10.383263
11.701904466828756	82.66152	9.091838
11.719523137303586	65.49057	8.092625
11.737142085798196	4.6765404	2.162531
11.754761312742286	3.7334478	1.9322132
11.772380818565619	3.635287	1.9066429
11.790000603698015	3.6229181	1.9033965
11.80762066856935	3.609959	1.8999891
11.825241013609572	3.5841677	1.8931898
11.842861639248683	3.562584	1.8874809
11.860482545916748	3.5288544	1.8785245
11.878103734043883	3.491843	1.8686473
11.895725204060282	3.4682765	1.8623309
11.91334695639619	3.4603596	1.8602042
11.930968991481919	3.4636958	1.8611007
11.948591309747824	3.4421046	1.855291
11.966213911624347	3.439688	1.8546395
11.98383679754198	3.4188678	1.8490181
12.001459967931268	3.3375587	1.8268987
12.019083423222835	3.2827404	1.8118334
12.036707163847352	3.2511103	1.8030835
12.05433119023556	3.2543285	1.8039757
12.071955502818259	3.2284446	1.7967873
12.089580102026313	3.19656	1.7878926
12.107204988290643	3.190503	1.7861979
12.12483016204224	3.2146008	1.7929308
12.142455623712152	3.2458162	1.8016149
12.16008137373149	3.2576149	1.8048863
12.177707412531431	3.2529101	1.8035825
12.19533374054321	3.178728	1.7828988
12.212960358198126	3.1053913	1.762212
12.230587265927545	3.0826159	1.755738
12.248214464162889	3.0918202	1.7583573
12.265841953335649	3.035966	1.7424023
12.283469733877375	3.0231097	1.7387092
12.301097806219685	3.016892	1.7369202
12.31872617079425	3.0257316	1.739463
12.336354828032825	3.025405	1.7393692
12.353983778367205	2.9598076	1.7204092
12.371613022229262	2.9508376	1.7178003
12.389242560050928	2.9358845	1.7134423
12.406872392264201	2.9787593	1.7259083
12.424502519301143	2.9634116	1.7214563
12.442132941593874	2.9145195	1.7071964
12.459763659574586	2.840747	1.6854516
12.477394673675532	2.8195605	1.6791548
12.49502598432903	2.8429096	1.686093
12.51265759196746	2.8472452	1.6873782
12.530289497023267	2.8436415	1.68631
12.547921699928967	2.8231926	1.6802359
12.565554201117134	2.7800941	1.6673614
12.583187001020404	2.7457845	1.6570408
12.600820100071486	2.7517512	1.6588403
12.618453498703152	2.792459	1.6710652
12.636087197348235	2.8169775	1.6783854
12.65372119643964	2.82208	1.6799047
12.671355496410326	2.8103914	1.6764222
12.68899009769333	2.8131394	1.6772416
12.706625000721749	2.8484192	1.687726
12.724260205928752	2.9219298	1.7093654
12.741895713747551	2.9445577	1.7159714
12.759531524611454	3.0179687	1.7372302
12.777167638953818	3.0039866	1.7332013
12.794804057208072	3.0160987	1.736692
12.812440779807702	3.0446963	1.7449058
12.830077807186271	3.2505255	1.8029214
12.847715139777405	3.2873952	1.8131175
12.865352778014795	3.486861	1.8673139
12.882990722332197	3.5569785	1.8859954
12.90062897316344	3.6704345	1.9158378
12.918267530942412	3.7980688	1.9488635
12.935906396103071	3.7150009	1.9274337
12.953545569079449	3.892942	1.9730539
12.971185050305628	3.648422	1.9100842
12.988824840215775	3.6396644	1.9077904
13.006464939244115	3.5600019	1.8867967
13.024105347824943	3.4200218	1.8493301
13.041746066392617	3.515729	1.8750278
13.05938709538157	3.3562675	1.8320118
13.077028435226296	3.355081	1.831688
13.094670086361363	3.2645936	1.8068186
13.112312049221401	3.1791596	1.7830198
13.129954324241112	3.098202	1.760171
13.147596911855258	2.9428823	1.7154831
13.165239812498685	2.9247305	1.7101843
13.182883026606293	2.8464649	1.687147
13.200526554613058	2.7727468	1.6651567
13.218170396954017	2.7489667	1.6580008
13.235814554064284	2.770478	1.6644753
13.253459026379034	2.7745626	1.6657019
13.271103814333523	2.7397242	1.6552112
13.288748918363058	2.6926084	1.640917
13.306394338903031	2.6897025	1.6400312
13.32404007638889	2.66633	1.6328901
13.341686131256164	2.6849601	1.6385849
13.359332503940449	2.67623	1.6359187
13.376979194877402	2.674829	1.6354904
13.394626204502751	2.7192442	1.6490132
13.412273533252307	2.74799	1.6577063
13.429921181561937	2.7489736	1.6580029
13.447569149867581	2.7227201	1.6500667
13.465217438605247	2.7441251	1.6565402
13.482866048211022	2.7342	1.6535417
13.500514979121052	2.7095847	1.6460816
13.518164231771568	2.6636727	1.6320761
13.535813806598844	2.6673098	1.63319
13.553463704039254	2.6984925	1.6427089
13.571113924529229	2.708585	1.645778
13.588764468505275	2.7003124	1.6432627
13.606415336403956	2.7135088	1.6472732
13.624066528661917	2.7541852	1.6595738
13.641718045715882	2.8060544	1.6751281
13.659369888002635	2.8812668	1.6974294
13.67702205595903	2.929745	1.7116498
13.694674550021993	3.0254965	1.7393954
13.712327370628532	3.0589979	1.7489991
13.729980518215713	3.1298003	1.7691242
13.747633993220681	3.171642	1.7809105
13.765287796080647	3.2273924	1.7964945
13.7829419272329	3.2755468	1.8098471
13.800596387114801	3.3150249	1.8207209
13.818251176163775	3.359807	1.8329777
13.835906294817324	3.4463427	1.8564328
13.853561743513023	3.4884639	1.867743
13.871217522688525	3.532713	1.8795513
13.888873632781538	3.486178	1.8671309
13.906530074229858	3.5580692	1.8862845
13.92418684747135	3.5489283	1.88386
13.941843952943948	3.5685303	1.8890554
13.959501391085665	3.5325754	1.8795147
13.977159162334578	3.4572518	1.8593687
13.994817267128846	3.4100573	1.846634
14.012475705906693	3.309391	1.8191732
14.030134479106424	3.2203913	1.7945448
14.047793587166414	3.124622	1.76766
14.065453030525108	3.0680218	1.7515769
14.083112809621026	3.0727863	1.7529365
14.100772924892766	3.0439367	1.7446882
14.118433376778997	2.9497683	1.717489
14.136094165718458	2.8382986	1.684725
14.153755292149969	2.7634828	1.6623726
14.171416756512416	2.72123	1.6496152
14.189078559244768	2.7297347	1.6521909
14.20674070078606	2.701559	1.6436421
14.224403181575408	2.6597455	1.6308726
14.242066002051999	2.5579324	1.5993538
14.259729162655093	2.5033345	1.5821929
14.277392663824022	2.4767916	1.5737826
14.295056505998208	2.4641383	1.5697573
14.312720689617128	2.4535782	1.5663902
14.330385215120348	2.4278767	1.5581645
14.348050082947497	2.448047	1.5646236
14.3657152935383	2.4534047	1.5663348
14.383380847332528	2.4605508	1.5686142
14.401046744770051	2.3963654	1.5480199
14.418712986290798	2.3671346	1.5385495
14.436379572334793	2.3422754	1.5304494
14.454046503342123	2.4132633	1.5534681
14.471713779752946	2.4142425	1.5537833
14.489381402007504	2.4301157	1.5588828
14.507049370546113	2.4176831	1.55489
14.524717685809168	2.414005	1.5537069
14.542386348237134	2.4537902	1.5664579
14.560055358270553	2.4961133	1.5799093
14.577724716350051	2.5366836	1.5926969
14.595394422916325	2.5237129	1.5886198
14.61306447841015	2.5144036	1.585687
14.63073488327237	2.4850116	1.5763919
14.648405637943917	2.4835873	1.5759401
14.6660767428658	2.5150478	1.5858902
14.683748198479094	2.5872283	1.6084863
14.701420005224954	2.6515987	1.628373
14.719092163544628	2.7081258	1.6456385
14.73676467387942	2.732628	1.6530663
14.754437536670727	2.724653	1.6506523
14.772110752360014	2.6929955	1.641035
14.78978432138882	2.6586556	1.6305385
14.807458244198777	2.687153	1.6392539
14.82513252123159	2.691029	1.6404356
14.842807152929028	2.7456582	1.6570028
14.860482139732962	2.73626	1.6541644
14.87815748208531	2.735547	1.6539489
14.8958331804281	2.7120268	1.6468233
14.91350923520342	2.6943274	1.6414406
14.931185646853438	2.7417917	1.6558356
14.948862415820408	2.7153766	1.64784
14.966539542546656	2.7042909	1.6444728
14.98421702747459	2.6400962	1.6248373
15.001894871046696	2.6760762	1.6358716
15.019573073705542	2.6796365	1.6369596
15.037251635893766	2.696982	1.642249
15.054930558054092	2.7165723	1.6482028
15.072609840629323	2.7540243	1.6595253
15.090289484062351	2.8651996	1.69269
15.107969488796124	3.1640782	1.7787856
15.125649855273691	3.600653	1.8975387
15.14333058393817	4.1598444	2.0395696
15.161011675232768	5.056029	2.2485616
15.17869312960076	6.306031	2.5111814
15.196374947485506	8.169509	2.8582354
15.214057129330447	11.30747	3.3626583
15.231739675579114	16.067865	4.0084743
15.249422586675102	21.16044	4.600048
15.267105863062092	24.248371	4.9242635
15.284789505183847	24.565596	4.9563694
15.302473513484218	22.572748	4.7510786
15.320157888407127	19.096401	4.369943
15.337842630396578	14.9333725	3.8643723
15.355527739896656	11.649848	3.4131873
15.37321321735153	9.0351	3.0058444
15.39089906320545	6.606852	2.5703797
15.408585277902748	4.912126	2.2163317
15.42627186188783	3.7773545	1.9435418
15.443958815605198	3.2425885	1.8007189
15.461646139499424	2.94896	1.7172537
15.479333834015168	2.7787025	1.666944
15.497021899597165	2.6802104	1.6371348
15.514710336690234	2.6205919	1.6188242
15.53239914573928	2.5920105	1.6099722
15.550088327189297	2.553881	1.5980866
15.567777881485336	2.498364	1.5806214
15.58546780907256	2.4802978	1.5748961
15.6031581103962	2.4932065	1.578989
15.620848785901568	2.5200708	1.587473
15.638539836034063	2.5143266	1.5856628
15.656231261239173	2.532131	1.5912671
15.673923061962451	2.518218	1.5868894
15.691615238649552	2.5184693	1.5869685
15.709307791746202	2.4498496	1.5651995
15.727000721698221	2.4521453	1.5659328
15.744694028951498	2.4677029	1.5708923
15.76238771395202	2.4500124	1.5652516
15.780081777145844	2.4367526	1.5610101
15.797776218979125	2.4102716	1.552505
15.815471039898094	2.4064372	1.5512695
15.833166240349064	2.3854418	1.5444876
15.850861820778437	2.362233	1.5369557
15.868557781632699	2.3487055	1.5325487
15.886254123358412	2.3696995	1.5393828
15.903950846402232	2.378176	1.5421336
15.921647951210897	2.3818583	1.5433271
15.939345438231225	2.406211	1.5511966
15.957043307910133	2.4262276	1.5576353
15.974741560694602	2.4478712	1.5645674
15.992440197031714	2.3942146	1.547325
16.01013921736862	2.3807042	1.542953
16.02783862215259	2.392492	1.5467683
16.045538411830933	2.4242408	1.5569974
16.06323858685107	2.4481473	1.5646557
16.080939147660512	2.427064	1.5579036
16.09864009470684	2.4201875	1.5556952
16.11634142843774	2.418567	1.5551742
16.134043149300954	2.4456747	1.5638653
16.15174525774433	2.476355	1.5736439
16.169447754215817	2.459306	1.5682175
16.18715063916342	2.415852	1.5543011
16.204853913035244	2.3820832	1.5433999
16.222557576279478	2.412286	1.5531536
16.240261629344403	22.41249	4.7341833
16.257966072678386	42.957497	6.554197
16.275670906729868	38.057568	6.1690817
16.293376131947387	2.530257	1.5906781
16.31108174877957	2.53904	1.5934366
16.328787757675133	2.552112	1.5975331
16.34649415908287	2.5703588	1.6032338
16.364200953451657	2.5744183	1.6044993
16.38190814123048	2.6312413	1.6221101
16.39961572286839	2.6737368	1.6351565
16.41732369881455	2.6997533	1.6430926
16.43503206951817	2.7180574	1.6486531
16.45274083542859	2.7787557	1.66696
16.47044999699522	2.8156962	1.6780037
16.488159554667558	2.818542	1.6788514
16.505869508895184	2.8462498	1.6870832
16.523579860127786	2.9052796	1.704488
16.541290608815117	3.0047543	1.7334228
16.559001755407035	3.0494184	1.7462584
16.57671330035348	3.1055222	1.7622492
16.59442524410448	3.1432402	1.7729186
16.61213758711015	3.2203386	1.7945302
16.629850329820705	3.2763858	1.810079
16.647563472686436	3.3394315	1.8274112
16.665277016157724	3.398553	1.8435165
16.682990960685053	3.4764256	1.8645176
16.70070530671898	3.49908	1.8705828
16.718420054710155	3.5134354	1.874416
16.736135205109335	3.5445523	1.8826982
16.753850758367335	3.6004684	1.89749
16.771566714935087	3.6418908	1.9083738
16.789283075263597	3.707506	1.9254885
16.80699983980398	3.7982204	1.9489024
16.82471700900741	3.8510802	1.9624169
16.84243458332518	3.9181252	1.9794254
16.860152563208665	3.9596512	1.9898872
16.87787094910932	4.003487	2.0008717
16.89558974147871	4.0816464	2.0203085
16.913308940768466	4.1523685	2.0377362
16.931028547430333	4.259869	2.063945
16.94874856191613	4.3426595	2.0839047
16.966468984677785	4.44323	2.107897
16.98418981616729	4.461835	2.1123056
17.00191105683676	4.4873676	2.1183407
17.019632707138374	4.5097194	2.12361
17.03735476752442	4.5298123	2.1283355
17.05507723844728	4.532632	2.1289978
17.072800120359403	4.5232143	2.126785
17.090523413713353	4.5611515	2.1356852
17.108247118961785	4.603948	2.1456814
17.125971236557437	4.6639752	2.1596239
17.143695766953133	4.6802936	2.1633985
17.161420710601806	4.698115	2.1675136
17.179146067956477	4.72555	2.1738331
17.19687183947025	4.7402782	2.177218
17.21459802559634	4.754032	2.1803744
17.232324626788028	4.726526	2.1740575
17.25005164349871	4.7140117	2.1711774
17.267779076181863	4.645599	2.1553652
17.285506925291074	4.6012335	2.1450486
17.30323519127999	4.597124	2.1440904
17.320963874602384	4.5990305	2.144535
17.33869297571211	4.6251144	2.1506078
17.356422495063114	4.5832286	2.1408477
17.37415243310944	4.5490365	2.132847
17.391882790305218	4.552612	2.133685
17.40961356710468	4.5639133	2.1363318
17.42734476396215	4.545987	2.132132
17.445076381332044	4.528949	2.1281326
17.462808419668868	4.558085	2.134967
17.48054087942723	4.7180886	2.1721163
17.498273761061835	5.0283813	2.2424052
17.51600706502747	5.509943	2.3473268
17.533740791779024	6.2121615	2.492421
17.551474941771485	7.6634784	2.7682989
17.56920951545993	8.765556	2.9606683
17.586944513299528	10.959911	3.3105757
17.60467993574556	12.663122	3.5585282
17.622415783253373	14.410775	3.7961526
17.64015205627843	15.837678	3.9796581
17.657888755276293	16.941656	4.1160245
17.675625880702604	17.401833	4.1715503
17.69336343301311	17.197302	4.146963
17.71110141266366	16.404291	4.050221
17.728839820110178	15.427573	3.927795
17.746578655808705	14.44308	3.8004053
17.764317920215372	12.86658	3.5870016
17.7820576137864	11.36113	3.3706274
17.79979773697811	9.334346	3.055216
17.81753829024692	7.4913225	2.7370281
17.835279274049356	5.8469863	2.4180543
17.85302068884201	4.8707952	2.2069879
17.870762535081607	4.233887	2.0576413
17.888504813224934	3.9133632	1.9782223
17.90624752372891	3.7321444	1.9318758
17.923990667050536	3.6682773	1.9152747
17.941734243646895	3.5716584	1.8898832
17.959478253975185	3.524035	1.8772414
17.9772226984927	3.484818	1.8667667
17.994967577656833	3.4628897	1.8608841
18.01271289192506	3.4601536	1.8601488
18.030458641754965	3.4593108	1.8599223
18.04820482760425	3.3741515	1.8368864
18.06595144993067	3.3442056	1.8287169
18.083698509192125	3.29876	1.8162489
18.101446005846576	3.2714493	1.8087149
18.119193940352105	3.2457256	1.8015897
18.136942313166887	3.2666042	1.807375
18.1546911247492	3.2890024	1.8135607
18.1724403755574	3.2602477	1.8056155
18.19019006604997	3.2341254	1.7983674
18.207940196685467	3.202723	1.7896153
18.225690767922575	3.1234515	1.7673289
18.243441780220046	3.0809143	1.7552533
18.261193234036764	3.0824018	1.755677
18.278945129831676	3.0870683	1.7570055
18.29669746806386	3.0684507	1.7516993
18.314450249192483	3.0656955	1.7509128
18.3322034736768	3.0819325	1.7555434
18.349957141976184	3.0659394	1.7509824
18.3677112545501	3.0576901	1.7486252
18.385465811858108	3.050645	1.7466096
18.403220814359884	3.0589573	1.7489876
18.420976262515172	3.0977275	1.7600362
18.43873215678387	3.1543179	1.77604
18.456488497625923	3.190787	1.7862774
18.474245285501407	3.2659605	1.8071969
18.492002520870486	3.3304126	1.8249419
18.50976020419343	3.412726	1.8473564
18.527518335930615	3.693603	1.9218749
18.545276916542516	4.2746863	2.0675313
18.563035946489688	4.4684854	2.1138792
18.580795426232832	4.877685	2.208548
18.598555356232698	4.738811	2.176881
18.616315736950185	5.0401316	2.2450237
18.63407656884626	4.7160335	2.171643
18.65183785238201	4.9567256	2.2263706
18.669599588018617	4.7686605	2.1837263
18.68736177621737	4.7722545	2.184549
18.705124417439652	4.706608	2.1694717
18.72288751214696	4.484364	2.1176317
18.740651060800886	4.6445074	2.155112
18.758415063863115	4.3515058	2.0860262
18.77617952179546	4.4929953	2.1196687
18.793944435059814	4.222549	2.0548842
18.811709804118184	4.2579684	2.0634844
18.829475629432675	4.271177	2.0666826
18.8472419114655	4.08641	2.021487
18.86500865067897	4.182412	2.0450947
18.88277584753551	3.8285325	1.9566636
18.90054350249763	3.8279223	1.9565077
18.918311616027957	3.4960384	1.8697696
18.936080188589226	3.3804927	1.8386116
18.953849220644265	3.0441215	1.7447411
18.971618712656007	2.862272	1.691825
18.9893886650875	2.8182464	1.6787634
19.007159078401887	8.02822	2.8334115
19.024929953062408	32.896675	5.7355623
19.042701289532435	32.78892	5.726161
19.060473088275405	25.310263	5.0309305
19.07824534975489	2.5685406	1.6026667
19.096018074434568	2.5709133	1.6034068
19.113791262778197	2.5707076	1.6033427
19.13156491524966	2.588547	1.6088963
19.149339032312945	2.587384	1.6085347
19.167113614432136	2.5606701	1.6002094
19.184888662071433	2.5383582	1.5932226
19.202664175695123	2.53758	1.5929784
19.220440155767623	2.5469058	1.5959028
19.238216602753447	2.5490048	1.5965604
19.2559935171172	2.6001515	1.6124985
19.27377089932361	2.5907838	1.6095912
19.291548749837514	2.567955	1.602484
19.309327069123835	2.5308986	1.5908798
19.32710585764763	2.5042033	1.5824674
19.344885115874032	2.5019898	1.5817679
19.362664844268313	2.5279353	1.5899482
19.380445043295822	2.5401645	1.5937893
19.39822571342203	2.5452442	1.5953821
19.41600685511252	2.5650558	1.6015792
19.43378846883297	2.565781	1.6018056
19.451570555049173	2.5445898	1.595177
19.469353114227037	2.546003	1.5956199
19.48713614683254	2.5573397	1.5991684
19.50491965333182	2.5568008	1.599
19.52270363419109	2.5838149	1.607425
19.540488089876686	2.582799	1.6071088
19.55827302085503	2.540105	1.5937707
19.576058427592674	2.5087175	1.5838932
19.593844310556282	2.475356	1.5733265
19.611630670212598	2.4948719	1.5795163
19.629417507028506	2.4866502	1.5769116
19.64720482147098	2.5086596	1.5838748
19.6649926140071	2.5245776	1.588892
19.682780885104084	2.5157506	1.5861118
19.70056963522921	2.5375319	1.5929632
19.718358864849908	2.526678	1.5895528
19.7361485744337	2.5204353	1.587588
19.753938764448215	2.5221655	1.5881327
19.771729435361202	2.547656	1.5961379
19.789520587640506	2.5351412	1.5922127
19.807312221754092	2.5299203	1.5905724
19.825104338170043	2.5392869	1.593514
19.842896937356517	2.5588343	1.5996357
19.860690019781824	2.535499	1.5923251
19.87848358591436	2.53468	1.5920678
19.896277636222635	2.5108109	1.5845538
19.914072171175278	2.5256402	1.5892262
19.931867191241015	2.525879	1.5893013
19.94966269688869	2.5463953	1.5957428
19.967458688587264	2.521363	1.58788
19.985255166805807	2.5020247	1.581779
20.00305213201348	2.4913394	1.5783978
20.020849584679578	2.4511418	1.5656123
20.038647525273507	2.4522681	1.565972
20.05644595426477	2.4840746	1.5760947
20.07424487212299	2.4943557	1.579353
20.092044279317903	2.485025	1.5763962
20.109844176319353	2.4741504	1.5729432
20.127644563597304	2.4682195	1.5710568
20.145445441621817	2.4661913	1.5704112
20.16324681086307	2.459525	1.5682874
20.181048671791373	2.476206	1.5735966
20.198851024877122	2.5020852	1.5817981
20.216653870590836	2.493363	1.5790386
20.234457209403146	2.4505076	1.5654098
20.252261041784802	2.3829458	1.5436794
20.270065368206662	2.3668072	1.5384431
20.287870189139685	2.3726432	1.5403386
20.305675505054968	2.3861716	1.5447237
20.323481316423702	2.3720255	1.5401381
20.341287623717207	2.3967783	1.5481532
20.359094427406884	2.4205084	1.5557983
20.376901727964288	2.431176	1.5592228
20.39470952586107	2.3946285	1.5474588
20.41251782156899	2.3964055	1.5480328
20.430326615559935	2.3376663	1.5289428
20.448135908305886	2.3410506	1.5300492
20.465945700278965	2.3147125	1.521418
20.483755991951384	2.3644848	1.5376881
20.50156678379548	2.350192	1.5330336
20.519378076283708	2.3297234	1.5263431
20.537189869888635	2.3040874	1.517922
20.55500216508294	2.3041449	1.517941
20.572814962339415	2.3362248	1.5284714
20.59062826213098	2.3151636	1.5215662
20.60844206493066	2.337474	1.52888
20.626256371211593	2.2941713	1.5146523
20.644071181447032	2.3011932	1.5169685
20.66188649611036	2.2863228	1.5120591
20.67970231567506	2.320978	1.5234756
20.697518640614742	2.3253691	1.524916
20.715335471403122	2.320751	1.5234011
20.73315280851404	2.297138	1.5156312
20.750970652421447	2.3259034	1.5250913
20.768789003599412	2.347525	1.5321635
20.786607862522136	2.3265493	1.525303
20.8044272296639	2.2899354	1.5132532
20.82224710549913	2.274738	1.5082235
20.84006749050237	2.2607327	1.5035733
20.857888385148268	3.7985988	1.9489994
20.8757097899116	45.936928	6.7776785
20.893531705267254	64.84856	8.05286
20.911354131690224	83.89768	9.159568
20.92917706965566	69.11657	8.313638
20.94700051963877	50.162437	7.0825443
20.96482448211493	29.406425	5.422769
20.982648957559622	4.151971	2.0376387
21.00047394644843	2.2520716	1.5006903
21.01829944925707	2.2341235	1.4946984
21.036125466461375	2.2259405	1.4919586
21.053951998537297	2.23784	1.4959412
21.071779045960906	2.2371907	1.4957242
21.089606609208378	2.2314951	1.493819
21.10743468875603	2.2191904	1.4896947
21.12526328508028	2.2074673	1.4857548
21.143092398657675	2.2274628	1.4924687
21.16092202996488	2.246848	1.498949
21.17875217947867	2.2193847	1.4897599
21.19658284767596	2.212756	1.4875335
21.21441403503377	2.2258844	1.4919398
21.232245742029225	2.2288096	1.4929198
21.2500779691396	2.2110875	1.4869726
21.26791071684227	2.1950192	1.4815598
21.28574398561475	2.193901	1.4811823
21.30357777593465	2.181191	1.4768856
21.321412088279704	2.1563041	1.468436
21.339246923127792	2.1460366	1.4649357
21.357082280956888	2.1875696	1.4790435
21.3749181622451	2.2148778	1.4882466
21.392754567470647	2.2001858	1.4833024
21.41059149711187	2.2042878	1.4846843
21.42842895164726	2.203357	1.484371
21.446266931555378	2.220478	1.4901268
21.464105437314945	2.2043362	1.4847007
21.481944469404798	2.181665	1.477046
21.49978402830388	2.146132	1.4649682
21.51762411449127	2.120854	1.4563152
21.53546472844617	2.1022968	1.44993
21.553305870647876	2.0930974	1.4467541
21.571147541575865	2.1047685	1.4507821
21.58898974170967	2.113797	1.4538903
21.60683247152899	2.1208005	1.4562968
21.62467573151363	2.119222	1.4557548
21.642519522143523	2.0907762	1.4459517
21.660363843898722	2.0438817	1.4296439
21.6782086972594	2.021569	1.4218189
21.696054082705864	2.0468569	1.4306841
21.713900000718535	2.0575433	1.4344139
21.73174645177795	2.064179	1.436725
21.749593436364794	2.068444	1.4382086
21.767440954959845	2.0820963	1.4429471
21.785289008044032	2.049303	1.4315387
21.803137596098388	2.0063622	1.4164611
21.820986719604086	1.9848083	1.4088323
21.838836379042412	1.9768167	1.4059931
21.85668657489478	1.9867929	1.4095364
21.87453730764273	2.0076344	1.4169102
21.892388577767914	2.0372837	1.4273344
21.91024038575213	2.0453763	1.4301665
21.928092732077285	2.0577312	1.4344794
21.945945617225426	2.0546556	1.433407
21.963799041678694	2.0595112	1.4350997
21.981653005919398	31.361511	5.600135
21.999507510429943	78.13927	8.839642
22.01736255569286	73.092545	8.5494175
22.035218142190818	4.1879025	2.0464365
22.05307427040661	2.039223	1.4280137
22.07093094082315	2.0528853	1.4327893
22.088788153923474	2.051513	1.4323103
22.106645910190746	2.0410733	1.4286613
22.12450421010827	2.006684	1.4165747
22.142363054159464	1.9462119	1.395067
22.16022244282787	1.9519653	1.3971275
22.178082376597164	1.9929872	1.411732
22.195942855951145	2.0391207	1.4279778
22.213803881373742	2.0261776	1.4234387
22.231665453349002	1.9879041	1.4099305
22.24952757236111	1.9836313	1.4084145
22.26739023889438	1.9526966	1.3973892
22.28525345343323	1.9201317	1.3856882
22.30311721646225	1.9432905	1.3940195
22.320981528466113	1.975508	1.4055276
22.33884638992964	2.0020766	1.4149476
22.356711801337788	1.9738572	1.4049402
22.37457776317561	1.9963812	1.4129336
22.392444275928337	2.000314	1.4143245
22.410311340081282	1.9908334	1.4109689
22.428178956119904	1.9700981	1.4036019
22.446047124529805	1.948891	1.3960268
22.46391584579669	1.9746611	1.4052263
22.481785120406414	1.9983006	1.4136126
22.49965494884496	2.0027988	1.4152027
22.51752533159841	1.9525034	1.3973202
22.53539626915302	1.9284035	1.3886697
22.553267761995137	1.9418082	1.3934878
22.571139810611264	1.9354082	1.3911895
22.589012415488025	1.9118016	1.3826791
22.60688557711216	1.9222434	1.3864499
22.624759295970566	1.9158748	1.3841513
22.642633572550263	1.9113111	1.3825017
22.660508407338362	1.943183	1.393981
22.67838380082217	1.9692436	1.4032974
22.696259753489077	1.9772917	1.406162
22.714136265826614	1.9482086	1.3957825
22.73201333832246	1.9434111	1.3940628
22.74989097146439	1.9807211	1.4073809
22.76776916574035	2.0079973	1.4170382
22.785647921638393	1.9722	1.4043504
22.803527239646712	1.9467653	1.3952653
22.82140712025363	1.9339869	1.3906785
22.839287563947593	1.9126003	1.382968
22.85716857121719	1.9240863	1.3871144
22.875050142551135	1.9476098	1.3955679
22.892932278438277	1.9782425	1.4065001
22.910814979367604	1.9277142	1.3884215
22.928698245828222	1.8908203	1.375071
22.946582078309387	1.8810806	1.3715249
22.96446647730047	1.8780692	1.3704267
22.98235144329098	1.8941712	1.3762889
23.000236976770562	1.9212404	1.3860881
23.018123078229	1.9457288	1.3948938
23.03600974815619	1.9215442	1.3861978
23.053896987042194	1.9023068	1.3792413
23.071784795377173	1.8987736	1.37796
23.08967317365145	1.9089966	1.3816644
23.10756212235546	1.9487717	1.3959842
23.125451641979787	1.9809356	1.4074571
23.143341733015134	2.0106912	1.4179884
23.161232395952357	2.0271416	1.4237772
23.179123631282426	2.001325	1.4146819
23.197015439496468	1.966424	1.4022924
23.214907821085717	1.9355677	1.3912468
23.23280077654157	1.9449804	1.3946255
23.250694306355538	1.9286122	1.3887448
23.268588411019277	1.9224664	1.3865304
23.28648309102458	1.9386474	1.3923532
23.304378346863356	1.9701023	1.4036033
23.322274179027676	1.9564111	1.3987176
23.340170588009723	1.9626514	1.4009466
23.358067574301852	1.9528795	1.3974546
23.37596513839651	1.9467297	1.3952526
23.39386328078629	1.9405973	1.3930532
23.411762001963947	1.9293548	1.3890122
23.429661302422353	1.9688818	1.4031686
23.4475611826545	1.9734429	1.4047928
23.46546164315356	1.9517984	1.3970678
23.48336268441279	1.9321765	1.3900275
23.501264306925638	1.9436729	1.3941567
23.51916651118564	1.9816728	1.407719
23.537069297686497	1.9537648	1.3977714
23.554972666922037	1.9482403	1.3957938
23.57287661938623	1.9141632	1.3835329
23.59078115557318	1.9005446	1.3786024
23.608686275977128	1.8912874	1.3752409
23.62659198109246	1.9345638	1.390886
23.6444982714137	1.95056	1.3966244
23.66240514743549	1.9383333	1.3922404
23.68031260965263	1.9266095	1.3880236
23.698220658560068	1.9391663	1.3925395
23.716129294652845	1.9435258	1.3941039
23.7340385184262	1.9437839	1.3941965
23.75194833037546	1.9471675	1.3954095
23.769858730996123	1.9372114	1.3918374
23.78776972078382	1.9311271	1.38965
23.80568130023431	1.9609805	1.4003501
23.823593469843495	1.9628878	1.401031
23.841506230107424	1.8890693	1.3744342
23.859419581522275	1.8390486	1.3561152
23.87733352458438	1.8778243	1.3703372
23.89524805979019	1.890762	1.3750498
23.913163187636318	1.8873334	1.3738025
23.931078908619508	1.9513623	1.3969117
23.948995223236633	1.9964036	1.4129415
23.966912131984735	2.0125868	1.4186567
23.98482963536096	2.042527	1.42917
24.002747733862616	2.0756845	1.4407237
24.020666427987155	2.08519	1.4440187
24.038585718232156	2.0943258	1.4471786
24.056505605095353	2.0799873	1.4422162
24.074426089074617	2.1040993	1.4505514
24.092347170667946	2.0600417	1.4352845
24.110268850373515	2.1027138	1.4500737
24.128191128689586	2.0925653	1.4465702
24.146114006114626	2.057224	1.4343027
24.164037483147187	2.0481288	1.4311285
24.181961560286005	2.1021354	1.4498743
24.199886238029926	2.0906897	1.4459218
24.21781151687797	2.0514512	1.4322888
24.235737397329274	2.0130224	1.4188102
24.253663879883135	2.0360723	1.42691
24.271590965038975	2.0532274	1.4329088
24.289518653296376	2.0598946	1.4352332
24.30744694515505	2.0776572	1.441408
24.32537584111486	2.128403	1.4589047
24.34330534167581	2.129639	1.4593283
24.361235447338046	2.0627484	1.4362272
24.379166158601876	2.001515	1.414749
24.39709747596772	2.006301	1.4164395
24.41502939993615	1.9992213	1.4139383
24.432961931007917	1.9772023	1.4061303
24.450895069683856	1.9903795	1.4108081
24.468828816465	1.986542	1.4094474
24.4867631718525	1.9883956	1.4101048
24.504698136347656	1.9575975	1.3991417
24.52263371045192	1.9397199	1.3927382
24.540569894666874	1.9483734	1.3958415
24.558506689494266	1.9891691	1.410379
24.57644409543597	1.9635733	1.4012756
24.594382112994012	1.9899255	1.4106472
24.61232074267057	2.0079002	1.417004
24.630259984967953	2.0057714	1.4162526
24.64819984038863	2.0120256	1.4184589
24.66614030943522	2.014336	1.4192731
24.684081392610462	2.0025296	1.4151076
24.702023090417274	1.9689767	1.4032023
24.7199654033587	1.9509387	1.3967601
24.737908331937927	1.9789371	1.406747
24.755851876658305	1.984096	1.4085795
24.773796038023324	2.0185053	1.4207411
24.79174081653661	2.0714264	1.4392451
24.809686212701962	2.109246	1.4523244
24.827632227023294	2.1078053	1.4518282
24.8455788600047	2.1095495	1.4524288
24.8635261121504	2.10331	1.4502794
24.88147398396475	2.0955048	1.4475858
24.899422475952303	2.1091936	1.4523063
24.917371588617698	2.1353118	1.4612706
24.935321322465768	2.2397037	1.4965639
24.953271678001478	2.3326032	1.5272862
24.97122265572994	2.5350025	1.5921692
24.989174256156414	2.8301623	1.6823087
25.00712647978632	3.2131088	1.7925147
25.02507932712521	3.7566266	1.9382019
25.043032798678798	4.336703	2.0824752
25.060986894952933	4.984421	2.2325816
25.078941616453637	5.6975408	2.3869522
25.096896963687055	6.668241	2.5822937
25.114852937159508	7.9399858	2.8177981
25.132809537377444	8.420656	2.9018366
25.150766764847468	8.4410305	2.9053452
25.168724620076347	7.803528	2.7934794
25.186683103570985	6.7519403	2.5984495
25.204642215838426	5.5735006	2.3608263
25.222601957385894	4.230792	2.0568888
25.24056232872074	3.2335138	1.7981974
25.25852333035048	2.6849475	1.6385809
25.276484962782778	2.2926986	1.514166
25.294447226525435	2.0771556	1.441234
25.312410122086423	1.976655	1.4059356
25.330373649973843	1.9860319	1.4092665
25.348337810695988	2.0115306	1.4182844
25.366302604761245	1.9385886	1.3923321
25.384268032678207	1.8452594	1.3584032
25.40223409495558	1.8025342	1.3425848
25.420200792102257	1.8103222	1.3454821
25.438168124627246	1.839238	1.3561851
25.45613609303974	1.8374363	1.3555207
25.474104697849057	1.8832389	1.3723115
25.492073939564698	1.9388165	1.392414
25.510043818696285	1.9675001	1.4026761
25.528014335753614	1.9245677	1.3872879
25.54598549124664	1.8780211	1.3704091
25.56395728568544	1.8254598	1.3510958
25.58192971958028	1.8733376	1.3686992
25.59990279344156	1.8995563	1.3782439
25.617876507779833	1.8733957	1.3687204
25.635850863105826	1.8298779	1.3527298
25.653825859930386	1.8411772	1.3568999
25.671801498764548	1.8442955	1.3580484
25.68977778011949	1.8632516	1.3650098
25.707754704506524	1.8209339	1.3494198
25.725732272437153	1.8809308	1.3714703
25.743710484423012	1.9247993	1.3873714
25.761689340975888	1.9358221	1.3913382
25.77966884260774	1.9063665	1.3807123
25.797648989830662	1.9038787	1.379811
25.815629783156922	1.8768188	1.3699703
25.83361122309895	1.8450097	1.3583113
25.85159331016929	1.8093249	1.3451115
25.869576044880695	1.7969332	1.3404974
25.887559427746034	1.8063884	1.3440195
25.90554345927836	1.8275454	1.3518673
25.92352813999086	1.8588102	1.3633819
25.94151347039689	1.8823651	1.3719931
25.959499451009965	1.8808796	1.3714516
25.97748608234374	1.8616589	1.3644263
25.995473364912062	1.8323642	1.3536484
26.013461299228904	1.8328674	1.3538343
26.03144988580839	1.7980436	1.3409115
26.04943912516483	1.8221648	1.3498758
26.067429017812675	1.8306799	1.3530262
26.085419564266537	1.8242284	1.3506399
26.103410765041186	1.821844	1.349757
26.12140262065155	1.873989	1.3689371
26.139395131612723	1.8848343	1.3728926
26.157388298439948	1.8650817	1.36568
26.17538212164861	1.7817248	1.3348126
26.193376601754295	1.7544905	1.3245718
26.211371739272714	1.7841954	1.3357378
26.229367534719746	1.8031689	1.3428212
26.247363988611433	1.8321608	1.3535733
26.26536110146397	1.8290607	1.3524277
26.283358873793727	1.8050085	1.3435061
26.301357306117204	1.8097626	1.3452742
26.319356398951104	1.7968377	1.3404617
26.33735615281224	1.7619529	1.3273858
26.35535656821762	1.795744	1.3400537
26.373357645684404	1.8666568	1.3662565
26.39135938572991	1.9421155	1.3935981
26.409361788871614	1.9119582	1.3827357
26.427364855627165	1.8257091	1.3511881
26.445368586514352	1.7926778	1.3389091
26.46337298205115	1.8380647	1.3557525
26.48137804275568	1.8505875	1.360363
26.499383769146217	1.8801713	1.3711934
26.517390161741215	1.8746413	1.3691754
26.53539722105928	1.862542	1.3647498
26.553404947619182	1.8554235	1.3621393
26.571413341939856	1.8262384	1.3513839
26.589422404540397	1.8050427	1.3435187
26.60743213594006	1.7953566	1.3399092
26.62544253665827	1.8054674	1.3436768
26.64345360721459	1.8070713	1.3442736
26.66146534812879	1.7902067	1.337986
26.679477759920758	1.8050598	1.3435252
26.69749084311057	1.8566196	1.3625783
26.71550459821847	1.845411	1.358459
26.733519025764842	1.7888082	1.3374634
26.751534126270258	1.7553637	1.3249013
26.769549900255434	1.7772728	1.333144
26.787566348241267	1.7928541	1.338975
26.80558347074881	1.8262932	1.3514042
26.823601268299267	1.7994217	1.3414252
26.841619741414036	1.8195406	1.3489035
26.85963889061465	1.8511736	1.3605784
26.877658716422832	1.8607873	1.3641068
26.89567921936045	1.7936023	1.3392544
26.913700399949544	1.7693332	1.3301629
26.93172225871233	1.8000555	1.3416615
26.949744796171174	1.8525207	1.3610734
26.967768012848605	1.9018713	1.3790835
26.98579190926733	1.900577	1.3786142
27.003816485950225	1.8501576	1.3602049
27.021841743420318	1.8275719	1.3518772
27.039867682200814	1.8100532	1.3453822
27.057894302815072	1.7651445	1.3285874
27.07592160578664	1.7513008	1.3233672
27.0939495916392	1.7883308	1.3372848
27.111978260896635	1.8198773	1.3490282
27.13000761408296	1.8146639	1.3470947
27.148037651722397	1.8066933	1.3441329
27.166068374339304	1.8253019	1.3510374
27.184099782458215	1.8540552	1.361637
27.20213187660384	1.8228041	1.3501127
27.22016465730105	1.8026541	1.3426296
27.23819812507487	1.792321	1.3387759
27.256232280450533	1.8414105	1.3569858
27.274267123953383	1.8503948	1.3602922
27.292302656108987	1.8577168	1.3629808
27.31033887744306	1.842499	1.3573868
27.32837578848146	1.8440808	1.3579694
27.34641338975026	1.8729606	1.3685615
27.364451681775673	1.8835499	1.3724248
27.382490665084074	1.8529862	1.3612443
27.400530340202046	1.8199104	1.3490405
27.41857070765629	1.8067313	1.3441471
27.436611767973726	1.7911663	1.3383446
27.454653521681404	1.816277	1.3476932
27.472695969306564	1.8151122	1.347261
27.490739111376627	1.8351578	1.35468
27.508782948419153	1.8681017	1.3667852
27.526827480961902	1.8504243	1.360303
27.54487270953279	1.837867	1.3556795
27.562918634659898	1.8475789	1.3592567
27.580965256871508	1.835902	1.3549546
27.599012576696026	1.8506215	1.3603755
27.617060594662068	1.8567172	1.3626142
27.63510931129842	1.8668022	1.3663098
27.65315872713401	1.8171642	1.3480223
27.67120884269797	1.7949032	1.3397399
27.68925965851958	1.8614914	1.3643649
27.707311175128307	1.9054267	1.3803719
27.725363393053787	1.9108268	1.3823266
27.74341631282583	1.8657242	1.3659152
27.7614699349744	1.8654872	1.3658284
27.77952426002968	2.0534704	1.4329935
27.797579288521973	2.135326	1.4612755
27.815635020981784	2.638959	1.6244873
27.83369145793979	2.7739007	1.6655031
27.85174859992682	2.5083742	1.5837848
27.869806447473923	2.298141	1.5159621
27.887865001112267	1.9908856	1.4109875
27.905924261373233	1.9206448	1.3858733
27.92398422878836	1.9434773	1.3940865
27.94204490388936	1.9295145	1.3890697
27.96010628720813	1.9303079	1.3893552
27.978168379276728	1.9524087	1.3972862
27.9962311806274	1.9377043	1.3920145
28.014294691792568	1.9043491	1.3799815
28.0323589133048	1.9095775	1.3818747
28.050423845696887	1.9310077	1.3896071
28.068489489501758	1.9192094	1.3853554
28.086555845252523	1.8912039	1.3752105
28.104622913482487	1.8894507	1.3745729
28.122690694725115	1.9202508	1.3857311
28.14075918951405	1.9565594	1.3987707
28.15882839838312	1.9821638	1.4078934
28.176898321866304	1.8987988	1.3779691
28.1949689604978	1.850917	1.3604841
28.213040314811945	1.8737648	1.3688552
28.23111238534327	1.8975673	1.3775221
28.249185172626493	1.9124241	1.3829042
28.267258677196473	1.900407	1.3785524
28.285332899588294	1.8896847	1.374658
28.303407840337172	1.8784025	1.3705482
28.321483499978545	1.9187096	1.385175
28.33955987904799	1.9446652	1.3945125
28.357636978081285	1.9803483	1.4072485
28.37571479761439	1.995405	1.412588
28.393793338183425	1.9957376	1.4127058
28.41187260032469	1.9573274	1.3990451
28.429952584574686	1.9177474	1.3848276
28.448033291470065	1.9397075	1.3927338
28.46611472154769	1.9939144	1.4120604
28.484196875344566	1.9908822	1.4109862
28.502279753397914	1.9432101	1.3939908
28.52036335624511	1.9567423	1.398836
28.538447684423716	1.9971144	1.413193
28.556532738471482	2.0004666	1.4143785
28.574618518926325	1.9939969	1.4120896
28.59270502632635	2.007719	1.41694
28.61079226120985	2.023363	1.4224497
28.628880224115274	2.0313387	1.4252504
28.646968915581287	1.9785519	1.40661
28.66505833614671	1.9626738	1.4009546
28.68314848635055	2.0336921	1.4260758
28.701239366732004	2.0975196	1.4482816
28.71933097783044	2.1470187	1.4652709
28.737423320185403	2.170388	1.4732237
28.75551639433665	2.187582	1.4790477
28.773610200824074	2.1589527	1.4693375
28.791704740187793	2.1509635	1.4666164
28.80980001296809	2.12647	1.4582422
28.827896019705413	2.1136951	1.4538553
28.845992760940433	2.1290998	1.4591435
28.86409023721397	2.159141	1.4694016
28.88218844906704	2.1864061	1.4786501
28.900287397040845	2.1951592	1.481607
28.918387081676755	2.2160134	1.488628
28.936487503516343	2.252218	1.5007391
28.954588663101365	2.2783368	1.509416
28.97269056097374	2.3179052	1.5224668
28.990793197675597	2.3946755	1.5474739
29.00889657374923	2.4126768	1.5532794
29.027000689737125	2.4090438	1.5521095
29.04510554618196	2.4468977	1.5642563
29.06321114362659	2.4882991	1.5774343
29.08131748261405	2.5356903	1.592385
29.099424563687567	2.5456243	1.5955013
29.11753238739057	2.535184	1.592226
29.13564095426663	2.5073094	1.5834486
29.15375026485954	2.5143769	1.5856787
29.171860319713275	2.5457265	1.5955333
29.18997111937199	2.6451254	1.6263841
29.20808266438002	2.652903	1.6287735
29.226194955281898	2.67783	1.6364076
29.244307992622335	2.787805	1.6696721
29.26242177694624	2.8227537	1.6801052
29.2805363087987	2.9148018	1.7072791
29.29865158872498	3.0340438	1.7418507
29.316767617270557	3.0253086	1.7393414
29.334884394981064	2.9911196	1.7294854
29.353001922402367	2.9943976	1.7304327
29.37112020008047	3.0823178	1.7556531
29.389239228561596	3.2004244	1.788973
29.407359008392152	3.34309	1.8284119
29.42547954011872	3.6248217	1.9038965
29.44360082428809	4.2349944	2.0579102
29.46172286144722	5.2243176	2.2856767
29.479845652143283	6.904012	2.6275487
29.497969196923606	9.011166	3.0018604
29.516093496335728	11.546504	3.3980148
29.5342185509274	14.267772	3.7772703
29.55234436124651	16.700533	4.0866284
29.570470927841175	18.203684	4.2665777
29.588598251259686	17.803606	4.219432
29.60672633205055	16.336124	4.041797
29.624855170762405	14.296629	3.7810884
29.642984767944146	11.744123	3.42697
29.66111512414481	9.062345	3.0103729
29.67924623991366	6.707547	2.5898933
29.697378115800138	5.1694713	2.273647
29.71551075235387	4.175342	2.0433655
29.733644150124675	3.719574	1.9286197
29.751778309662576	3.534493	1.8800247
29.769913231517766	3.4718175	1.8632814
29.78804891624066	3.4282374	1.85155
29.806185364381818	3.3804264	1.8385936
29.82432257649206	3.2667685	1.8074204
29.842460553122333	3.2353444	1.7987063
29.86059929482382	3.281314	1.8114398
29.878738802147872	3.2077749	1.7910262
29.896879075646048	3.1290717	1.7689183
29.915020115870114	3.28979	1.8137778
29.933161923371976	3.3858721	1.840074
29.951304498703777	3.2998881	1.8165594
29.969447842417857	3.233484	1.798189
29.987591955066733	3.2314065	1.7976114
30.005736837203123	3.1847668	1.7845914
30.023882489379943	3.1127267	1.7642921
30.04202891215028	3.1265671	1.7682102
30.060176106067455	3.1929343	1.7868783
30.078324071684946	3.2069302	1.7907903
30.09647280955646	3.0572002	1.7484851
30.114622320235863	3.0576117	1.7486027
30.132772604277257	3.081012	1.7552812
30.1509236622349	3.1073315	1.7627624
30.16907549466328	3.0670822	1.7513087
30.18722810211705	3.1245084	1.767628
30.205381485151097	3.1395662	1.771882
30.22353564432045	3.0710268	1.7524345
30.241690580180403	3.0181727	1.737289
30.25984629328638	3.0007093	1.7322556
30.278002784194037	3.008314	1.7344491
30.296160053459246	2.9783638	1.7257936
30.314318101638033	2.9606738	1.7206608
30.332476929286646	2.9863837	1.7281157
30.35063653696153	3.041442	1.743973
30.368796925219307	3.0863008	1.7567871
30.386958094616844	3.0569797	1.748422
30.40512004571115	2.9776773	1.7255948
30.423282779059463	2.9555697	1.719177
30.441446295219233	2.8823926	1.697761
30.459610594748067	2.8672993	1.6933101
30.47777567820382	2.8787606	1.696691
30.495941546144504	2.8875444	1.6992776
30.51410819912835	2.8333972	1.6832697
30.532275637713795	2.8449762	1.6867057
30.55044386245946	2.8839986	1.698234
30.56861287392416	2.8737073	1.6952013
30.586782672666956	2.8845294	1.6983902
30.604953259247047	2.869341	1.6939129
30.623124634223885	2.8836277	1.6981248
30.641296798157075	2.8592684	1.6909372
30.659469751606462	2.8141425	1.6775405
30.677643495132074	2.7486334	1.6579003
30.695818029294152	2.7441652	1.6565522
30.713993354653116	2.7434824	1.6563461
30.73216947176962	2.6850526	1.638613
30.75034638120448	2.718017	1.648641
30.768524083518756	2.7736042	1.6654141
30.786702579273673	2.7289674	1.6519587
30.80488186903069	2.7190042	1.6489403
30.82306195335144	2.8454823	1.6868558
30.841242832797782	3.0878603	1.7572309
30.85942450793176	3.3615043	1.8334405
30.877606979315637	3.781091	1.9445027
30.895790247511883	4.185172	2.0457692
30.913974313083134	4.6047263	2.1458626
30.932159176592283	4.8914385	2.2116597
30.95034483860237	4.9716964	2.2297301
30.968531299676698	4.7962613	2.1900368
30.98671856037873	4.483442	2.117414
31.00490662127215	3.9901195	1.9975283
31.023095482920848	3.4702756	1.8628676
31.04128514588892	3.0292952	1.7404871
31.059475610740662	2.698194	1.6426181
31.07766687804056	2.5677269	1.6024128
31.09585894835335	2.488873	1.5776162
31.11405182224393	2.4212093	1.5560236
31.132245500277417	2.4244926	1.5570782
31.15043998301914	2.4771678	1.5739021
31.168635271034628	2.4836845	1.575971
31.18683136488964	2.4184382	1.5551329
31.20502826515008	2.4149554	1.5540127
31.223225972382135	2.4058645	1.5510849
31.241424487152155	2.4354432	1.5605906
31.259623810026692	2.4415476	1.5625453
31.27782394157253	2.43838	1.5615313
31.296024882356644	2.4340293	1.5601376
31.314226632946237	2.4342406	1.5602053
31.332429193908684	2.5042737	1.5824897
31.350632565811598	2.5000534	1.5811558
31.368836749222787	2.4270022	1.5578839
31.387041744710295	2.391686	1.5465077
31.40524755284232	2.473972	1.5728866
31.423454174187317	2.5553715	1.598553
31.441661609313922	2.6053596	1.6141126
31.459869858791002	2.5795834	1.6061082
31.478078923187628	2.5063946	1.5831597
31.496288803073064	2.4731367	1.572621
31.514499499016807	2.3922825	1.5467005
31.532711011588546	2.3323183	1.527193
31.550923341358178	2.345527	1.5315113
31.56913648889584	2.3702292	1.5395548
31.587350454771844	2.3671656	1.5385596
31.605565239556732	2.3322794	1.5271802
31.62378084382127	2.3541143	1.5343124
31.641997268136382	2.355648	1.5348121
31.660214513073274	2.3008842	1.5168666
31.67843257920331	2.3175921	1.522364
31.6966514670981	2.3124263	1.5206664
31.71487117732944	2.2905984	1.5134723
31.733091710469346	2.2256892	1.4918743
31.751313067090052	2.281722	1.510537
31.769535247764008	2.3116925	1.5204251
31.787758253063878	2.3202002	1.5232203
31.805982083562526	2.2761927	1.5087056
31.824206739833024	2.2029781	1.4842433
31.84243222244869	2.1590679	1.4693767
31.860658531983013	2.1623495	1.470493
31.878885669009737	2.2682285	1.5060639
31.897113634102784	2.2838564	1.5112433
31.91534242783632	2.1975634	1.4824181
31.933572050784694	2.163991	1.471051
31.951802503522508	2.1564732	1.4684935
31.970033786624548	2.1869159	1.4788225
31.988265900665834	2.2742586	1.5080645
32.006498846221575	2.281754	1.5105476
32.02473262386724	2.1602995	1.4697957
32.04296723417845	2.0993557	1.4489154
32.0612026777311	2.1470127	1.4652689
32.07943895510129	2.157899	1.4689789
32.097676066865304	2.1279023	1.4587331
32.115914013599685	2.1360466	1.461522
32.13415279588115	2.1315851	1.4599949
32.152392414286666	2.1007428	1.449394
32.1706328693934	2.0885258	1.4451733
32.18887416177875	2.1778305	1.4757475
32.20711629202032	2.196273	1.4819828
32.225359260695924	2.1462543	1.46501
32.243603068383614	2.0905123	1.4458604
32.26184771566166	2.1427362	1.4638088
32.28009320310852	2.1603632	1.4698174
32.2983395313029	2.136768	1.4617689
32.31658670082372	2.1765702	1.4753203
32.33483471225012	2.2096648	1.4864942
32.35308356616143	2.2291908	1.4930475
32.371333263137245	2.2077444	1.4858481
32.38958380375734	2.2208712	1.4902588
32.407835188601744	2.2085135	1.4861069
32.42608741825067	2.1273332	1.458538
32.444340493284585	2.0381033	1.4276216
32.46259441428416	2.0376387	1.4274588
32.48084918183028	2.0336838	1.4260728
32.49910479650405	2.0277941	1.4240063
32.51736125888683	2.0107703	1.4180163
32.53561856956014	2.0199554	1.4212513
32.5538767291058	2.0344527	1.4263424
32.572135738105764	2.0447698	1.4299544
32.59039559714228	2.109391	1.4523742
32.608656306797776	2.0828094	1.4431942
32.62691786765491	2.0378144	1.4275204
32.645180280296586	2.0382516	1.4276735
32.663443545305896	2.024042	1.4226882
32.68170766326619	2.0015724	1.4147694
32.69997263476099	2.0095758	1.4175951
32.7182384603741	2.0213718	1.4217496
32.7365051406895	2.0404	1.4284257
32.75477267629144	2.014088	1.4191856
32.77304106776434	1.8914087	1.3752849
32.79131031569289	1.841452	1.3570011
32.809580420661966	1.8365653	1.3551993
32.827851383256714	1.8458257	1.3586117
32.84612320406245	1.889881	1.3747294
32.86439588366476	1.9583375	1.3994062
32.88266942264945	2.0291674	1.4244884
32.9009438216025	2.0433095	1.4294437
32.9192190811102	1.9958084	1.4127308
32.937495201758985	1.9187521	1.3851902
32.95577218413556	1.8905725	1.3749809
32.974050028826866	1.9251484	1.3874972
32.992328736420035	2.0641296	1.4367079
33.010608307502444	2.0785835	1.4417293
33.02888874266169	1.9634598	1.4012351
33.047170042485604	1.9569514	1.3989108
33.06545220756225	2.0200744	1.4212933
33.083735238479896	2.0140529	1.4191734
33.10201913582707	2.0200272	1.4212766
33.12030390019248	2.0534716	1.4329939
33.138589532165135	2.0118747	1.4184057
33.15687603233419	1.895961	1.376939
33.17516340128909	1.8757174	1.3695683
33.19345163961947	2.0157523	1.4197719
33.211740747915215	2.0412421	1.4287205
33.23003072676643	2.0091193	1.4174341
33.248321576763466	1.963682	1.4013144
33.266613298496885	1.9309121	1.3895726
33.28490589255747	1.9570228	1.3989363
33.30319935953626	1.995149	1.4124974
33.32149370002451	2.038746	1.4278467
33.339788914613706	2.1057656	1.4511256
33.358085003895575	2.087077	1.4446719
33.376381968462034	2.0427527	1.429249
33.39467980890529	1.8948972	1.3765527
33.41297852581774	1.926084	1.3878343
33.43127811979204	1.9464824	1.3951639
33.44957859142105	1.9319477	1.3899453
33.467879941297866	1.9749233	1.4053196
33.486182170015844	1.974663	1.4052271
33.50448527816853	1.8877732	1.3739625
33.522789266349754	1.8106481	1.3456032
33.541094135153514	1.8404064	1.3566158
33.55939988517411	1.8455445	1.3585082
33.57770651700602	1.8691107	1.3671542
33.59601403124398	1.912021	1.3827585
33.61432242848296	1.9067012	1.3808335
33.632631709318154	1.8443676	1.358075
33.650941874344994	1.8328053	1.3538114
33.66925292415916	1.9161752	1.3842598
33.68756485935654	2.0045302	1.4158143
33.70587768053328	2.0466306	1.4306049
33.724191388285746	2.1308584	1.459746
33.74250598321054	2.086061	1.4443202
33.760821465904506	2.0139086	1.4191225
33.77913783696474	1.9604692	1.4001676
33.79745509698852	1.9506596	1.3966602
33.815773246573414	1.9604799	1.4001714
33.8340922863172	1.9558506	1.3985173
33.852412216817896	1.901722	1.3790294
33.87073303867377	1.8545942	1.3618349
33.889054752483304	1.8679328	1.3667234
33.907377358845245	1.9284203	1.3886757
33.92570085835853	1.9421761	1.3936198
33.94402525162239	1.9158422	1.3841395
33.96235053923627	2.0147014	1.4194018
33.980676721799824	2.127847	1.4587141
33.999003799912984	2.0913258	1.4461417
34.01733177417592	1.9970113	1.4131565
34.03566064518901	1.9384114	1.3922684
34.0539904135529	1.9579315	1.3992611
34.07232107986846	1.9996568	1.4140922
34.090652644736785	2.044972	1.4300251
34.108985108759235	2.1575458	1.4688587
34.12731847253742	2.0486114	1.4312971
34.14565273667313	1.9139804	1.3834668
34.16398790176847	1.8484608	1.3595811
34.18232396842574	1.7481234	1.3221662
34.20066093724749	1.922207	1.3864368
34.21899880883651	2.125697	1.4579769
34.23733758379583	2.0443878	1.4298209
34.25567726272874	1.8808286	1.371433
34.27401784623872	1.8886621	1.374286
34.29235933492957	2.0077605	1.4169546
34.31070172940526	1.9939084	1.4120582
34.32904503027003	2.018224	1.4206421
34.347389238128386	2.056934	1.4342016
34.36573435358502	1.9926578	1.4116153
34.38408037724492	2.1108608	1.4528801
34.402427309713296	2.095129	1.447456
34.42077515159559	2.1771173	1.4755058
34.43912390349752	2.2296264	1.4931934
34.45747356602499	2.0583658	1.4347006
34.47582413978423	1.865205	1.3657252
34.49417562538163	1.8978174	1.377613
34.51252802342388	1.9299887	1.3892404
34.53088133451789	1.9942741	1.4121877
34.54923555927084	2.1154482	1.454458
34.567590698290104	2.1531684	1.4673679
34.58594675218336	2.1610126	1.4700383
34.6043037215585	2.1667666	1.4719942
34.62266160702365	2.0017555	1.414834
34.641020409187234	1.9378786	1.3920771
34.65938012865785	2.0530493	1.4328465
34.677740766044394	2.0451834	1.4300991
34.69610232195598	1.987447	1.4097685
34.714464797002016	1.9609174	1.4003276
34.73282819179208	2.0408204	1.4285729
34.751192506936064	2.0787594	1.4417903
34.76955774304408	2.050846	1.4320775
34.7879239007265	1.9397752	1.3927581
34.80629098059391	1.9232107	1.3867987
34.824658983257194	1.9426167	1.3937778
34.843027909327446	2.0544972	1.4333518
34.86139775941603	2.2373157	1.4957659
34.879768534134534	2.3038375	1.5178398
34.89814023409483	2.146089	1.4649537
34.91651285990901	1.9747117	1.4052444
34.93488641218944	1.9876862	1.4098532
34.95326089154871	2.0029292	1.4152489
34.97163629859967	1.9874187	1.4097583
34.99001263395542	2.1993167	1.4830093
35.00838989822934	2.2968898	1.5155493
35.02676809203499	2.0962424	1.4478406
35.04514721598624	1.9503746	1.3965582
35.063527270697215	2.03864	1.4278095
35.081908256782256	2.0456052	1.4302466
35.10029017485597	1.8697189	1.3673767
35.11867302553321	2.2104616	1.4867622
35.137056809429104	2.5047138	1.5826287
35.155441527159006	2.367288	1.5385994
35.173827179338524	2.261042	1.5036762
35.19221376658354	2.2953556	1.5150431
35.21060128951017	2.0614393	1.4357713
35.2289897487348	1.6620617	1.2892097
35.24737914487405	1.6549678	1.2864555
35.26576947854479	2.13768	1.4620807
35.28416075036418	2.3415089	1.5301989
35.30255296094958	2.1045525	1.4507076
35.32094611091867	1.6983948	1.3032248
35.33934020088932	1.5749066	1.2549528
35.35773523147969	1.8963856	1.3770932
35.3761312033082	2.0719893	1.4394406
35.394528116993506	1.9599284	1.3999745
35.41292597315452	2.4650927	1.5700613
35.431324772410434	2.8311348	1.6825976
35.449724515380666	2.6276371	1.6209989
35.46812520268491	2.3095996	1.5197366
35.486526834943106	2.050014	1.431787
35.504929412775454	1.8062112	1.3439536
35.52333293680242	2.1868374	1.4787959
35.54173740764471	2.534799	1.5921053
35.560142825923286	2.7605956	1.661504
35.5785491922594	2.4759195	1.5735055
35.59695650727454	1.639038	1.2802492
35.61536477159042	0.89267194	0.9448132
