0.008763373481513119	0.3822274	0.6182454
0.026290120649546365	0.19633481	0.44309685
0.043816868432600686	0.1865037	0.43186074
0.06134361724069026	0.1158588	0.34038037
0.07887036748382949	0.11150715	0.33392686
0.0963971195720331	0.1428999	0.37802103
0.11392387391531617	0.12874176	0.358806
0.1314506309236943	0.14986779	0.3871276
0.1489773910071836	0.18185185	0.4264409
0.16650415457580078	0.1554842	0.39431486
0.18403092203956356	0.18888919	0.43461385
0.20155769380849	0.1129865	0.33613464
0.2190844702925996	0.118869506	0.34477457
0.2366112519019124	0.13559185	0.368228
0.2541380390464497	0.15849082	0.39810905
0.27166483213623416	0.15451355	0.3930821
0.28919163158128947	0.14194429	0.37675494
0.3067184377916406	0.13405502	0.36613524
0.324245251177314	0.14737687	0.38389695
0.34177207214833777	0.17686452	0.42055264
0.3592989011147415	0.22210962	0.47128507
0.37682573848655654	0.19468693	0.44123343
0.39435258467381573	0.14940505	0.3865295
0.41187944008655414	0.1650557	0.40627047
0.42940630513480854	0.18747504	0.43298388
0.446933180228618	0.16854791	0.4105459
0.4644600657780234	0.14893143	0.38591635
0.48198696219306775	0.12239287	0.34984693
0.49951386988379676	0.16609988	0.40755352
0.5170407892602581	0.17126343	0.41383985
0.5345677207325025	0.15688865	0.39609173
0.5520946647105822	0.1696419	0.41187608
0.5696216216045534	0.19063307	0.43661547
0.5871485918244737	0.20358434	0.45120323
0.6046755757804043	0.19612254	0.44285724
0.6222025738824094	0.18943769	0.4352444
0.6397295865405557	0.17198299	0.41470832
0.6572566141649129	0.1423304	0.377267
0.6747836571655547	0.10690771	0.32696745
0.6923107159525568	0.09229966	0.3038086
0.7098377909359992	0.108317584	0.32911637
0.7273648825259653	0.14110482	0.3756392
0.7448919911325411	0.16833895	0.4102913
0.762419117165817	0.198139	0.44512805
0.7799462610358868	0.19102772	0.43706718
0.7974734231528482	0.18529332	0.43045712
0.8150006039268024	0.17983352	0.42406783
0.8325278037678551	0.1400008	0.37416682
0.8500550230861152	0.15633596	0.39539343
0.8675822622916969	0.15730037	0.3966111
0.8851095217947171	0.1645674	0.40566906
0.9026368020052984	0.15282112	0.3909234
0.9201641033335665	0.19294873	0.4392593
0.9376914261896523	0.23211645	0.48178464
0.9552187709836915	0.25079766	0.50079703
0.9727461381258234	0.23584469	0.48563844
0.990273528026193	0.22809002	0.4775877
1.0078009410949496	0.23146547	0.48110858
1.0253283777422473	0.26804557	0.5177312
1.0428558383782454	0.27823088	0.52747595
1.0603833234131086	0.30465773	0.5519581
1.0779108332570058	0.35844144	0.5986998
1.0954383683201119	0.35997596	0.59998
1.112965929012607	0.40988827	0.6402252
1.1304935157446763	0.4901961	0.70014006
1.1480211289265108	0.5355305	0.7317995
1.1655487689683062	1.2889278	1.1353096
1.1830764362802655	1.5268389	1.2356533
1.200604131272596	1.8794214	1.37092
1.2181318543555117	2.3335345	1.5275911
1.235659605939232	2.4693108	1.5714041
1.253187386433982	4.121047	2.0300362
1.270715196249994	6.6927714	2.5870392
1.2882430357975057	12.468576	3.5310872
1.3057709054867608	17.433508	4.1753454
1.3232988057280106	23.43333	4.8407984
1.3408267369315112	28.234966	5.313658
1.358354699507526	31.679245	5.628432
1.3758826938663256	35.668415	5.972304
1.3934107204181858	37.67433	6.137942
1.410938779573391	38.342148	6.192104
1.4284668717422309	38.77137	6.226666
1.4459949973350033	37.84266	6.1516385
1.4635231567620117	37.752243	6.144285
1.4810513504335687	37.368565	6.112983
1.4985795787599925	36.955917	6.079138
1.5161078421516088	36.812775	6.0673532
1.5336361410187505	35.61554	5.9678755
1.5511644757717598	35.46171	5.9549737
1.5686928468209842	35.83625	5.9863386
1.58622125457678	36.816437	6.067655
1.6037496994495108	38.054295	6.168816
1.621278181849548	38.066315	6.1697903
1.6388067021872719	38.676544	6.219047
1.6563352608730693	38.081593	6.1710286
1.673863858317336	37.03519	6.0856543
1.6913924949304753	36.134712	6.0112157
1.7089211711228998	35.041096	5.919552
1.7264498873050296	34.208908	5.8488383
1.7439786438872935	33.063976	5.7501283
1.7615074412801288	31.905546	5.6484995
1.779036279893981	31.221254	5.5875983
1.796565160139305	30.731731	5.5436206
1.814094082426564	30.6545	5.5366507
1.8316230471662298	29.6824	5.4481554
1.849152054768784	28.554388	5.343631
1.8666811056447168	27.726097	5.265558
1.8842102002045273	27.073076	5.2031794
1.901739338858724	26.605259	5.1580286
1.9192685220178245	26.146532	5.113368
1.9367977500923557	25.354681	5.035343
1.9543270234928547	24.985254	4.998525
1.971856342629867	24.36058	4.9356437
1.9893857079139496	23.85034	4.883681
2.006915119755667	23.229294	4.819678
2.0244445785655945	22.6537	4.75959
2.0419740847543175	22.199883	4.711675
2.0595036387324317	21.899073	4.6796446
2.0770332409105414	21.141203	4.597956
2.094562891699263	20.579517	4.536465
2.1120925915092217	19.866768	4.4572153
2.129622340751053	19.635094	4.4311504
2.1471521398354043	188.09773	13.714872
2.1646819891729323	444.43942	21.081732
2.182211889174303	440.52753	20.988749
2.1997418402501974	453.03616	21.284647
2.2172718428113023	433.09964	20.811047
2.234801897268317	321.21094	17.92236
2.2523320040319548	17.70497	4.2077274
2.269862163512935	17.585938	4.193559
2.287392376121992	17.132605	4.139155
2.304922642269869	16.651766	4.0806575
2.322452962367322	16.276882	4.034462
2.3399833368251164	15.923611	3.99044
2.357513766054032	15.601843	3.9499168
2.3750442504648586	15.217926	3.901016
2.3925747904683963	14.8607645	3.8549662
2.410105386475459	14.637542	3.8259041
2.4276360388968707	14.267943	3.7772932
2.445166748143469	14.095637	3.7544158
2.4626975146261025	13.9692335	3.7375438
2.4802283387556323	13.826492	3.718399
2.4977592209429305	13.463567	3.6692734
2.5152901615988825	13.096451	3.618902
2.5328211611343865	13.17659	3.6299572
2.5503522199603523	12.908459	3.5928345
2.5678833384877024	12.649789	3.5566542
2.5854145171273712	12.280453	3.5043478
2.6029457562903064	12.082281	3.4759576
2.620477056387469	12.014334	3.4661698
2.6380084178298326	12.002681	3.4644885
2.655539841028383	11.830027	3.4394805
2.673071326394119	11.56959	3.4014099
2.6906028743380523	11.338148	3.3672166
2.708134485271211	11.253761	3.3546627
2.7256661596046325	11.109694	3.3331206
2.743197897749369	10.78433	3.2839503
2.760729700116486	10.586872	3.2537475
2.778261567117063	10.358255	3.2184243
2.795793499162193	10.217679	3.1965106
2.8133254966629817	10.178579	3.1903887
2.830857560030551	10.028288	3.166747
2.8483896896760337	9.903699	3.1470144
2.865921886010578	9.751805	3.122788
2.883454149445347	9.706378	3.1155062
2.9009864803915177	9.629402	3.1031277
2.91851887926028	9.3727865	3.0615008
2.9360513464628384	9.1898155	3.0314708
2.953583882410413	9.045963	3.0076509
2.9711164875142373	8.981551	2.9969237
2.9886491621855606	8.89242	2.982016
3.0061819068356455	8.774903	2.9622464
3.023714721875769	8.618212	2.9356792
3.041247607717225	8.52508	2.9197738
3.0587805647713213	8.450572	2.9069867
3.0763135934493806	8.36886	2.8928983
3.0938466941627407	8.248987	2.8721051
3.1113798673227544	8.228311	2.868503
3.1289131133407904	8.147035	2.854301
3.1464464326282315	8.038804	2.8352785
3.1639798255964786	7.8700953	2.805369
3.1815132926569443	7.8122687	2.7950437
3.1990468342210603	7.809931	2.7946253
3.216580450700272	7.739766	2.7820435
3.2341141425060416	7.5994825	2.756716
3.251647910049847	7.4923024	2.737207
3.2691817537431813	7.304661	2.7027135
3.286715673997555	7.3105483	2.7038026
3.3042496712244938	7.1865087	2.6807663
3.32178374583554	7.0286856	2.651167
3.339317898242251	6.8666277	2.620425
3.3568521288562034	6.8465605	2.6165934
3.3743864380889876	6.7744746	2.602782
3.3919208263522127	6.806576	2.6089416
3.4094552940575023	6.61271	2.571519
3.4269898416164972	6.49516	2.5485604
3.444524469440858	6.541999	2.557733
3.4620591779422587	6.602929	2.5696166
3.479593967532391	6.5865755	2.5664325
3.4971288386229658	6.5313287	2.5556464
3.5146637916257086	6.4505224	2.5397878
3.5321988269523628	6.4955425	2.5486355
3.5497339450146903	6.398303	2.5294867
3.5672691462244708	6.382765	2.5264134
3.5848044309934988	6.444052	2.538514
3.60233979973359	6.442363	2.538181
3.619875252856575	6.454659	2.5406022
3.6374107907743034	6.376985	2.5252693
3.6549464138986427	6.404399	2.5306914
3.6724821226414788	6.3593707	2.5217793
3.690017917414714	6.362403	2.5223804
3.7075537986302702	6.399707	2.5297642
3.7250897667000857	6.480031	2.5455904
3.7426258220361235	6.708	2.5899808
3.7601619650503553	6.9984474	2.645458
3.777698196154779	7.4522905	2.7298884
3.7952345157614067	8.297786	2.8805878
3.8127709242822716	9.141626	3.0235124
3.830307422129425	11.41356	3.378396
3.847844009714936	30.364983	5.510443
3.8653806874508954	97.877975	9.89333
3.882917455749409	97.010735	9.849402
3.900454315022606	96.779884	9.837677
3.917991265682631	41.31027	6.4273067
3.9355283081416506	10.863313	3.295954
3.9530654428118495	8.677431	2.9457479
3.970602670105433	7.357848	2.7125354
3.9881399904346244	6.57993	2.5651374
4.005677404211669	6.6426196	2.577328
4.023214911848827	6.7024198	2.5889032
4.0407525137583855	6.7065845	2.5897074
4.058290210352644	6.662417	2.5811658
4.075828002043927	6.4799066	2.545566
4.0933658892445814	6.4207954	2.5339289
4.110903872366966	6.375123	2.5249007
4.128441951823468	6.2995625	2.509893
4.145980128026488	6.315463	2.5130584
4.163518401388452	6.213672	2.492724
4.181056772321807	6.2236753	2.4947295
4.1985952412390155	6.1911373	2.4881997
4.216133808552567	6.17974	2.4859083
4.233672474674966	6.2782326	2.5056403
4.251211240018741	6.4105744	2.5319111
4.268750104996445	6.6935906	2.5871975
4.286289070020643	7.6810102	2.7714636
4.303828135503928	9.486662	3.0800426
4.3213673018589125	29.802979	5.4592104
4.3389065694982305	90.99179	9.538961
4.356445938834537	166.16824	12.890626
4.3739854102805085	171.9132	13.1115675
4.391524984248844	172.85538	13.147448
4.409064661152262	136.86607	11.698977
4.426604441403504	97.211426	9.859586
4.444144325415337	76.16013	8.726977
4.461684313600543	22.169415	4.708441
4.47922440637193	22.381933	4.7309546
4.496764604142329	20.571363	4.5355663
4.5143049073245916	18.78345	4.3339877
4.531845316331589	16.693521	4.0857706
4.5493858315762195	13.806249	3.715676
4.566926453471405	11.372955	3.3723812
4.584467182430081	9.367853	3.060695
4.602008018865218	8.198574	2.863315
4.619548963189798	7.460572	2.7314048
4.637090015816834	7.025451	2.6505568
4.654631177159353	6.783062	2.6044312
4.672172447630417	6.5489163	2.5590851
4.689713827643102	6.3314776	2.5162427
4.7072553176105085	6.048158	2.4593003
4.724796917945764	5.9405875	2.4373322
4.742338629062015	6.015889	2.452731
4.759880451372434	5.974706	2.4443212
4.777422385290215	5.9362674	2.4364457
4.794964431228581	5.8289557	2.414323
4.812506589600768	5.7620277	2.4004223
4.830048860820047	5.699035	2.3872652
4.847591245299709	5.64804	2.3765604
4.8651337434530655	5.5791364	2.3620195
4.882676355693457	5.592384	2.3648221
4.900219082434242	5.620811	2.370825
4.917761924088813	5.634466	2.373703
4.935304881070575	5.6704097	2.3812623
4.952847953792969	5.662017	2.3794992
4.970391142669449	5.6470976	2.3763623
4.9879344481135055	5.6430817	2.3755171
5.005477870538642	5.5974646	2.3658962
5.023021410358394	5.5902286	2.3643665
5.040565067986324	5.600408	2.366518
5.05810884383601	5.6248703	2.371681
5.075652738321066	5.6058345	2.3676643
5.09319675185512	5.523646	2.3502438
5.110740884851836	5.5250864	2.3505502
5.128285137724894	5.539894	2.353698
5.145829510888007	5.5520434	2.3562775
5.163374004754908	5.600146	2.3664627
5.1809186197393595	5.5708556	2.360266
5.198463356255145	5.535384	2.3527398
5.216008214716077	5.5372596	2.3531382
5.233553195535998	5.508243	2.3469646
5.251098299128764	5.536154	2.3529034
5.268643525908272	5.4495616	2.3344295
5.286188876288432	5.4470944	2.3339012
5.3037343506831895	5.363366	2.3158941
5.32127994950651	5.357912	2.3147163
5.3388256731723915	5.351131	2.3132513
5.356371522094851	5.2347646	2.2879608
5.373917496687938	5.202181	2.280829
5.391463597365729	5.1973324	2.2797658
5.40900982454232	5.2422605	2.2895982
5.426556178631843	5.2206664	2.2848778
5.444102660048449	5.2263865	2.2861292
5.4616492692063225	5.184925	2.277043
5.479196006519669	5.1872854	2.2775612
5.496742872402727	5.1561117	2.2707074
5.514289867269756	5.2319865	2.2873535
5.531836991535049	5.2676034	2.295126
5.549384245612924	5.2455196	2.29031
5.566931629917724	5.215311	2.2837055
5.584479144863822	5.174415	2.274734
5.6020267908656205	5.1762056	2.2751276
5.619574568337545	5.1822166	2.2764482
5.637122477694054	5.1603656	2.2716439
5.654670519349629	5.1791563	2.275776
5.672218693718784	5.145522	2.2683744
5.689767001216059	5.0980325	2.2578824
5.707315442256021	5.0352864	2.2439444
5.724864017253266	5.0377607	2.2444956
5.7424127266224225	5.1518183	2.2697618
5.75996157077814	5.1286564	2.2646537
5.777510550135105	5.102834	2.2589455
5.795059665108022	5.1000376	2.2583263
5.812608916111639	5.185036	2.2770674
5.830158303560715	5.3391666	2.3106637
5.847707827870055	5.384332	2.3204165
5.86525748945448	5.4433637	2.3331017
5.8828072887288485	5.550021	2.3558483
5.900357226108044	5.551541	2.356171
5.917907302006979	5.6065693	2.3678195
5.9354575168406	6.17968	2.485896
5.9530078710238765	6.8032618	2.6083064
5.970558364971812	7.4043784	2.7210987
5.988108999099438	7.8211846	2.796638
6.005659773821818	8.408123	2.8996763
6.023210689554039	8.117905	2.8491936
6.040761746711227	8.526564	2.920028
6.058312945708531	7.8478303	2.8013978
6.075864286961132	7.413396	2.7227552
6.093415770884244	6.7931514	2.6063673
6.1109673978931065	6.318515	2.5136657
6.128519168402993	5.765253	2.4010942
6.146071082829204	5.536072	2.3528857
6.163623141587075	5.2854276	2.2990057
6.181175345091969	5.215851	2.2838237
6.198727693759281	5.198902	2.2801101
6.216280188004435	5.232837	2.2875395
6.233832828242885	5.1830487	2.276631
6.251385614890126	5.2227745	2.285339
6.268938548361669	5.2899413	2.2999873
6.286491629073067	5.206775	2.281836
6.304044857439898	5.2125273	2.283096
6.321598233877777	5.1336646	2.2657592
6.339151758802344	5.199704	2.280286
6.356705432629277	5.2013435	2.2806454
6.37425925577428	5.162428	2.2720976
6.391813228653095	5.06268	2.25004
6.409367351681486	5.01755	2.2399888
6.426921625275259	5.0372834	2.2443893
6.44447604985025	5.0667224	2.2509382
6.46203062582232	5.071006	2.2518895
6.47958535360737	5.0106244	2.2384424
6.497140233621328	5.037732	2.2444892
6.514695266280161	5.0677133	2.2511582
6.532250451999859	5.0503016	2.2472875
6.549805791196454	5.055629	2.2484725
6.567361284286002	5.1050177	2.2594285
6.584916931684597	5.2224298	2.2852635
6.602472733808367	5.30644	2.3035712
6.6200286910734665	5.208895	2.2823005
6.637584803896092	5.082747	2.254495
6.655141072692462	5.0483556	2.2468545
6.672697497878842	5.059967	2.249437
6.690254079871514	5.106696	2.2598
6.707810819086808	5.1550603	2.2704759
6.725367715941078	5.1582093	2.2711692
6.742924770850719	5.12693	2.2642725
6.760481984232151	5.0675173	2.2511146
6.778039356501836	4.989414	2.2336996
6.795596888076266	4.97053	2.2294686
6.813154579371963	4.9107094	2.216012
6.830712430805492	4.979958	2.231582
6.84827044279344	5.049722	2.2471588
6.865828615752445	5.0907397	2.2562668
6.883386950099159	5.1620717	2.2720194
6.900945446250287	5.1957035	2.2794087
6.918504104622553	5.186527	2.2773948
6.936062925632727	5.1708646	2.2739534
6.953621909697607	5.1611376	2.2718136
6.971181057234028	5.1910777	2.2783937
6.988740368658859	5.2414	2.2894104
7.006299844389007	5.3215904	2.3068573
7.023859484841407	5.390094	2.3216577
7.041419290433036	5.463851	2.3374882
7.058979261580902	5.620623	2.3707852
7.0765393987020495	5.7752366	2.4031723
7.094099702213559	6.124044	2.4746807
7.111660172532549	6.3700523	2.5238962
7.129220810076164	6.7366853	2.5955126
7.146781615261595	7.34938	2.710974
7.16434258850606	7.6455946	2.7650669
7.181903730226821	8.082775	2.843022
7.1994650408411704	8.178163	2.8597486
7.217026520766437	8.315269	2.883621
7.234588170419983	8.469188	2.910187
7.252149990219215	8.477373	2.911593
7.269711980581568	8.418017	2.901382
7.2872741419245175	8.246275	2.8716328
7.304836474665574	7.842354	2.8004203
7.322398979222286	7.4887896	2.7365654
7.339961656012233	7.2527814	2.6930988
7.357524505453039	6.936882	2.6337962
7.375087527962357	6.7422347	2.5965815
7.392650723957886	6.4936986	2.5482736
7.410214093857353	6.149834	2.4798858
7.427777638078528	5.851912	2.4190726
7.445341357039213	5.5831933	2.362878
7.4629052511572525	5.387348	2.3210661
7.480469320850524	5.284826	2.2988749
7.498033566536948	5.238615	2.2888021
7.5155979886344735	5.2292128	2.2867472
7.5331625875610975	5.2301593	2.2869542
7.550727363734844	5.253103	2.2919648
7.568292317573788	5.28111	2.2980666
7.585857449496025	5.3200703	2.3065279
7.603422759919705	5.3160787	2.3056624
7.620988249263007	5.36271	2.3157525
7.638553917944147	5.366685	2.3166106
7.656119766381391	5.4257874	2.3293319
7.673685794993023	5.36025	2.3152213
7.691252004197388	5.344766	2.311875
7.70881839441285	5.319221	2.3063436
7.726384966057826	5.328914	2.308444
7.743951719550762	5.3440843	2.3117275
7.761518655310149	5.374912	2.3183856
7.779085773754511	5.379806	2.3194408
7.796653075302419	5.3453765	2.312007
7.814220560372475	5.267218	2.295042
7.831788229383323	5.2546096	2.2922935
7.8493560827536495	5.3252397	2.3076482
7.866924120902174	5.375578	2.3185294
7.884492344247663	5.3816285	2.3198338
7.9020607532089135	5.403271	2.3244936
7.919629348204771	5.4069324	2.3252811
7.937198129654115	5.441234	2.3326454
7.954767097975865	5.4580135	2.336239
7.972336253588986	5.432014	2.3306682
7.989905596912472	5.433414	2.3309684
8.007475128365371	5.4790893	2.3407454
8.025044848366756	5.5166497	2.348755
8.042614757335754	5.653391	2.377686
8.060184855691523	5.7071433	2.3889627
8.07775514385327	5.8394413	2.4164937
8.095325622240228	5.9035063	2.4297132
8.112896291271687	5.972143	2.4437969
8.130467151366968	6.006112	2.450737
8.148038202945436	5.994151	2.4482956
8.165609446426497	5.9865327	2.4467392
8.183180882229594	5.9818196	2.445776
8.200752510774217	6.0362515	2.4568784
8.218324332479893	6.052963	2.460277
8.235896347766193	6.1316724	2.4762213
8.253468557052724	6.189681	2.487907
8.27104096075914	6.1286283	2.4756067
8.288613559305137	6.087297	2.4672449
8.306186353110448	6.0579133	2.461283
8.32375934259485	6.2139688	2.4927833
8.341332528178162	6.2579603	2.5015914
8.358905910280246	6.313106	2.5125895
8.376479489321003	6.3057218	2.5111196
8.394053265720377	6.3469706	2.5193195
8.411627239898356	6.365277	2.52295
8.42920141227497	6.3319077	2.5163283
8.44677578327029	6.315672	2.5131001
8.464350353304427	6.27687	2.5053682
8.48192512279754	6.2384367	2.4976864
8.499500092169827	6.1927576	2.4885252
8.51707526184153	6.200903	2.4901612
8.534650632232934	6.2323217	2.4964619
8.552226203764365	6.2667327	2.5033443
8.569801976856192	6.2922974	2.5084453
8.587377951928834	6.3409114	2.5181167
8.60495412940274	6.4184213	2.5334604
8.622530509698416	6.5139933	2.5522525
8.6401070932364	6.677964	2.5841758
8.657683880437283	6.7262564	2.5935028
8.675260871721695	6.889663	2.624817
8.692838067510303	7.040012	2.653302
8.710415468223834	7.163276	2.6764297
8.727993074283043	7.2582507	2.694114
8.745570886108737	7.2901225	2.7000227
8.763148904121765	7.375924	2.7158654
8.78072712874302	7.4068465	2.7215521
8.798305560393441	7.544694	2.7467606
8.815884199494006	7.713561	2.77733
8.833463046465745	7.933767	2.8166943
8.851042101729728	8.090998	2.8444679
8.86862136570707	8.4334545	2.904041
8.886200838818924	8.568988	2.9272833
8.903780521486505	8.591362	2.9311025
8.921360414131055	8.683952	2.9468546
8.938940517173874	8.82987	2.9715097
8.956520831036297	8.954569	2.9924185
8.97410135613971	9.215985	3.0357842
8.99168209290554	9.3570175	3.0589242
9.009263041755265	9.62341	3.1021621
9.026844203110405	9.816313	3.1330996
9.044425577392525	9.955904	3.1552978
9.062007165023239	9.943075	3.1532643
9.079588966424197	10.261929	3.2034245
9.097170982017108	10.348463	3.2169027
9.11475321222372	11.411003	3.3780177
9.132335657465825	12.317093	3.5095716
9.149918318165264	12.488691	3.5339344
9.167501194743924	13.08468	3.6172752
9.18508428762374	12.746119	3.5701706
9.202667597226693	12.729828	3.5678885
9.220251123974803	12.454286	3.529063
9.237834868290143	12.2122555	3.4946039
9.255418830594836	11.974447	3.4604113
9.273003011311046	11.307395	3.362647
9.290587410860985	10.9892	3.3149962
9.308172029666911	10.324574	3.2131877
9.32575686815113	10.106932	3.17914
9.343341926735997	8.944517	2.9907386
9.360927205843916	8.664299	2.9435182
9.378512705897327	8.441598	2.9054427
9.396098427318728	8.184145	2.8607945
9.413684370530664	8.156501	2.855959
9.431270535955722	8.02566	2.8329594
9.448856924016539	7.936272	2.817139
9.466443535135806	7.765864	2.78673
9.484030369736251	7.7451735	2.7830153
9.501617428240658	7.847584	2.801354
9.519204711071852	7.869329	2.8052325
9.536792218652714	7.9261074	2.8153343
9.55437995140617	7.9143763	2.81325
9.571967909755191	7.9656467	2.8223476
9.589556094122802	8.016176	2.8312852
9.60714450493207	8.07386	2.8414538
9.624733142606116	8.141719	2.8533697
9.642322007568108	8.181216	2.8602827
9.659911100241267	8.212095	2.8656754
9.677500421048851	8.146097	2.854137
9.695089970414175	8.09963	2.845985
9.712679748760609	8.156639	2.855983
9.730269756511557	8.24244	2.870965
9.747859994090492	8.287603	2.8788197
9.765450461920915	8.301106	2.881164
9.78304116042639	8.323144	2.884986
9.800632090030527	8.333046	2.8867016
9.81822325115699	8.296997	2.880451
9.835814644229481	8.3239355	2.8851233
9.853406269671762	8.324764	2.8852668
9.870998127907646	8.399927	2.8982627
9.888590219360985	8.37713	2.8943272
9.906182544455698	8.38658	2.8959594
9.923775103615734	8.446708	2.906322
9.941367897265108	8.4867935	2.9132102
9.958960925827878	8.529548	2.920539
9.97655418972816	8.517497	2.9184752
9.994147689390106	8.551309	2.924262
10.011741425237934	8.527463	2.920182
10.029335397695904	8.467933	2.9099712
10.04692960718833	8.360625	2.8914745
10.06452405413958	8.295225	2.8801432
10.082118738974064	8.288836	2.8790338
10.099713662116246	8.291955	2.8795755
10.117308823990651	8.287413	2.8787866
10.134904225021844	8.263706	2.8746662
10.152499865634445	8.266746	2.8751948
10.170095746253125	8.238936	2.8703547
10.18769186730261	8.238575	2.8702917
10.205288229207675	8.238106	2.8702102
10.222884832393145	8.256892	2.8734808
10.2404816772839	8.356559	2.8907714
10.258078764304868	8.388937	2.8963661
10.275676093881035	8.303522	2.8815832
10.293273666437438	8.216497	2.8664434
10.310871482399158	8.241259	2.8707592
10.32846954219134	8.241365	2.8707778
10.346067846239173	8.291479	2.8794928
10.363666394967908	8.311681	2.8829985
10.38126518880283	8.297371	2.8805158
10.398864228169298	8.311862	2.88303
10.416463513492713	8.33627	2.88726
10.434063045198531	8.348749	2.8894203
10.451662823712262	8.368822	2.8928916
10.469262849459467	8.361844	2.8916852
10.486863122865758	8.303052	2.8815017
10.504463644356806	8.273232	2.8763227
10.522064414358338	8.223701	2.8676996
10.539665433296118	8.144571	2.8538694
10.557266701595987	8.083006	2.8430629
10.574868219683818	7.925787	2.8152773
10.592469987985552	7.73318	2.7808595
10.610072006927185	7.574923	2.7522578
10.627674276934751	7.4558306	2.7305367
10.64527679843435	7.330682	2.707523
10.662879571852143	7.34348	2.7098856
10.680482597614331	7.2919803	2.7003667
10.698085876147173	7.2445674	2.6915734
10.715689407876988	7.0353127	2.6524165
10.733293193230146	6.9433904	2.6350315
10.750897232633072	6.8579297	2.6187649
10.76850152651225	6.8604856	2.619253
10.786106075294207	6.794632	2.6066515
10.803710879405534	6.6863766	2.5858028
10.821315939272877	6.5846934	2.5660658
10.83892125532294	6.5696225	2.5631275
10.856526827982472	6.4650097	2.5426383
10.874132657678285	6.3927636	2.5283916
10.891738744837243	6.2719474	2.5043857
10.909345089886271	6.2803826	2.5060692
10.926951693252343	6.2529764	2.5005953
10.944558555362494	6.1897626	2.4879234
10.96216567664381	6.118491	2.4735584
10.979773057523436	6.014544	2.4524567
10.997380698428573	5.9183464	2.4327652
11.014988599786477	5.8823533	2.4253564
11.032596762024461	5.8475103	2.4181626
11.050205185569892	5.8285804	2.4142454
11.067813870850198	5.774994	2.4031217
11.085422818292859	5.7153506	2.3906798
11.10303202832541	5.6045837	2.3674002
11.120641501375454	5.5348897	2.3526347
11.138251237870636	5.440062	2.3323941
11.155861238238671	5.3927135	2.3222218
11.173471502907317	5.3006415	2.3023121
11.191082032304402	5.2414827	2.2894285
11.208692826857805	5.1708736	2.2739556
11.226303886995465	5.076769	2.2531686
11.243915213145371	5.020015	2.2405388
11.261526805735578	4.982042	2.2320487
11.279138665194196	4.9459176	2.2239418
11.296750791949393	4.8972373	2.2129703
11.314363186429393	4.875119	2.2079673
11.331975849062479	4.7921715	2.189103
11.34958878027699	4.7515397	2.1798027
11.36720198050133	4.7035394	2.1687646
11.384815450163948	4.6999936	2.1679468
11.402429189693366	4.671561	2.1613793
11.420043199518153	4.694591	2.1667006
11.437657480066942	63.680256	7.979991
11.455272031768422	85.375854	9.239905
11.472886855051353	107.72493	10.379062
11.490501950344528	99.252754	9.962567
11.508117318076819	84.569565	9.196171
11.52573295867715	45.924152	6.7767363
11.543348872574514	4.2036166	2.0502722
11.560965060197946	4.210912	2.0520508
11.57858152197655	4.1956496	2.0483284
11.59619825833949	4.157302	2.0389464
11.613815269715985	4.1109524	2.0275483
11.631432556535323	38.575844	6.2109456
11.649050119226837	83.06222	9.113848
11.666667958219929	93.473976	9.668194
11.68428607394406	107.787834	10.3820915
11.701904466828756	82.65317	9.091379
11.719523137303586	65.47044	8.091381
11.737142085798196	4.673354	2.1617942
11.754761312742286	3.7332425	1.93216
11.772380818565619	3.646737	1.9096432
11.790000603698015	3.61425	1.901118
11.80762066856935	3.6096644	1.8999116
11.825241013609572	3.6504498	1.910615
11.842861639248683	3.6412868	1.9082156
11.860482545916748	3.6266205	1.9043688
11.878103734043883	3.5536711	1.8851184
11.895725204060282	3.4826589	1.8661883
11.91334695639619	3.4348836	1.8533438
11.930968991481919	3.416995	1.8485116
11.948591309747824	3.429128	1.8517904
11.966213911624347	3.3661869	1.8347172
11.98383679754198	3.328253	1.82435
12.001459967931268	3.2817736	1.8115666
12.019083423222835	3.2818823	1.8115966
12.036707163847352	3.270637	1.8084903
12.05433119023556	3.2582788	1.8050703
12.071955502818259	3.2232916	1.7953528
12.089580102026313	3.1884544	1.7856244
12.107204988290643	3.1786041	1.782864
12.12483016204224	3.1807337	1.7834611
12.142455623712152	3.1456265	1.7735914
12.16008137373149	3.0974064	1.759945
12.177707412531431	3.1041467	1.7618589
12.19533374054321	3.1031437	1.7615741
12.212960358198126	3.109966	1.7635096
12.230587265927545	3.0741417	1.7533231
12.248214464162889	3.0790777	1.7547301
12.265841953335649	3.0553522	1.7479566
12.283469733877375	3.0415604	1.744007
12.301097806219685	2.996214	1.7309575
12.31872617079425	2.9618812	1.7210116
12.336354828032825	2.953644	1.7186168
12.353983778367205	2.9613183	1.7208481
12.371613022229262	2.9524026	1.7182556
12.389242560050928	2.9366121	1.7136546
12.406872392264201	2.9265628	1.71072
12.424502519301143	2.908045	1.7052991
12.442132941593874	2.9244967	1.710116
12.459763659574586	2.9419687	1.7152168
12.477394673675532	2.9714139	1.723779
12.49502598432903	2.9755502	1.7249783
12.51265759196746	2.9432473	1.7155895
12.530289497023267	2.9246771	1.7101687
12.547921699928967	2.8957136	1.7016796
12.565554201117134	2.8580282	1.6905704
12.583187001020404	2.8510008	1.6884906
12.600820100071486	2.8305383	1.6824204
12.618453498703152	2.7949736	1.6718174
12.636087197348235	2.8075497	1.6755744
12.65372119643964	2.8235438	1.6803404
12.671355496410326	2.8399692	1.6852208
12.68899009769333	2.844692	1.6866214
12.706625000721749	2.8920004	1.7005882
12.724260205928752	2.9810057	1.7265589
12.741895713747551	3.036003	1.742413
12.759531524611454	3.1036866	1.7617283
12.777167638953818	3.106424	1.762505
12.794804057208072	3.1217172	1.7668382
12.812440779807702	3.1391819	1.7717737
12.830077807186271	3.2587845	1.8052104
12.847715139777405	3.2981775	1.8160886
12.865352778014795	3.5348845	1.8801289
12.882990722332197	3.6745114	1.9169015
12.90062897316344	3.7675147	1.9410087
12.918267530942412	3.8394847	1.9594603
12.935906396103071	3.6992242	1.9233367
12.953545569079449	3.79934	1.9491895
12.971185050305628	3.585427	1.8935224
12.988824840215775	3.6364982	1.9069605
13.006464939244115	3.6960824	1.9225198
13.024105347824943	3.5777285	1.8914884
13.041746066392617	3.6433804	1.9087641
13.05938709538157	3.401492	1.8443135
13.077028435226296	3.3755226	1.8372595
13.094670086361363	3.2934752	1.8147935
13.112312049221401	3.209376	1.7914732
13.129954324241112	3.130628	1.7693582
13.147596911855258	2.9456446	1.7162881
13.165239812498685	2.90373	1.7040334
13.182883026606293	2.7781098	1.6667663
13.200526554613058	2.71867	1.648839
13.218170396954017	2.6967967	1.6421926
13.235814554064284	2.7335234	1.653337
13.253459026379034	2.750497	1.6584623
13.271103814333523	2.7197857	1.6491773
13.288748918363058	2.7074275	1.6454263
13.306394338903031	2.7015147	1.6436285
13.32404007638889	2.6848142	1.6385403
13.341686131256164	2.7050722	1.6447103
13.359332503940449	2.677852	1.6364143
13.376979194877402	2.690506	1.6402762
13.394626204502751	2.7198377	1.649193
13.412273533252307	2.7594607	1.6611625
13.429921181561937	2.7475188	1.6575642
13.447569149867581	2.8035781	1.6743889
13.465217438605247	2.7744956	1.6656817
13.482866048211022	2.7652607	1.6629074
13.500514979121052	2.7547362	1.6597399
13.518164231771568	2.7502017	1.6583732
13.535813806598844	2.7377295	1.6546086
13.553463704039254	2.712004	1.6468163
13.571113924529229	2.6685905	1.6335821
13.588764468505275	2.6993217	1.6429613
13.606415336403956	2.7458546	1.657062
13.624066528661917	2.7693412	1.6641338
13.641718045715882	2.8053489	1.6749176
13.659369888002635	2.8313751	1.682669
13.67702205595903	2.9156456	1.7075262
13.694674550021993	2.9966574	1.7310857
13.712327370628532	3.0565577	1.7483014
13.729980518215713	3.1363602	1.7709771
13.747633993220681	3.2239707	1.7955419
13.765287796080647	3.294588	1.8151001
13.7829419272329	3.3528705	1.8310845
13.800596387114801	3.3820653	1.8390392
13.818251176163775	3.38402	1.8395706
13.835906294817324	3.3928673	1.8419738
13.853561743513023	3.3984303	1.8434832
13.871217522688525	3.4593444	1.8599312
13.888873632781538	3.5326264	1.8795283
13.906530074229858	3.5851846	1.8934584
13.92418684747135	3.5840535	1.8931596
13.941843952943948	3.5746703	1.8906798
13.959501391085665	3.460467	1.8602331
13.977159162334578	3.4159915	1.8482401
13.994817267128846	3.3527846	1.8310611
14.012475705906693	3.3153574	1.8208123
14.030134479106424	3.226525	1.7962531
14.047793587166414	3.1213994	1.7667483
14.065453030525108	3.0538337	1.7475221
14.083112809621026	2.9880373	1.7285941
14.100772924892766	2.9590962	1.7202023
14.118433376778997	2.9194396	1.7086368
14.136094165718458	2.8626537	1.6919378
14.153755292149969	2.8327072	1.6830648
14.171416756512416	2.777752	1.6666589
14.189078559244768	2.7364988	1.6542367
14.20674070078606	2.6677637	1.633329
14.224403181575408	2.6186683	1.61823
14.242066002051999	2.560883	1.6002759
14.259729162655093	2.519938	1.5874313
14.277392663824022	2.4843998	1.5761979
14.295056505998208	2.4435031	1.5631709
14.312720689617128	2.4204628	1.5557836
14.330385215120348	2.3862689	1.5447552
14.348050082947497	2.3908477	1.5462366
14.3657152935383	2.3935308	1.547104
14.383380847332528	2.439408	1.5618604
14.401046744770051	2.445416	1.5637826
14.418712986290798	2.4255002	1.5574018
14.436379572334793	2.3818896	1.5433371
14.454046503342123	2.3034127	1.5176998
14.471713779752946	2.3262432	1.5252026
14.489381402007504	2.361667	1.5367715
14.507049370546113	2.4015546	1.549695
14.524717685809168	2.4136088	1.5535793
14.542386348237134	2.4182546	1.5550739
14.560055358270553	2.4254434	1.5573835
14.577724716350051	2.467453	1.5708128
14.595394422916325	2.4710732	1.5719647
14.61306447841015	2.5179043	1.5867906
14.63073488327237	2.5202196	1.5875199
14.648405637943917	2.5357597	1.5924069
14.6660767428658	2.4926724	1.57882
14.683748198479094	2.5314963	1.5910677
14.701420005224954	2.574136	1.6044115
14.719092163544628	2.656209	1.629788
14.73676467387942	2.688262	1.639592
14.754437536670727	2.6975863	1.642433
14.772110752360014	2.7287836	1.651903
14.78978432138882	2.7181256	1.6486739
14.807458244198777	2.7082903	1.6456884
14.82513252123159	2.6827533	1.6379113
14.842807152929028	2.7063808	1.6451081
14.860482139732962	2.6885498	1.6396798
14.87815748208531	2.6476684	1.6271658
14.8958331804281	2.6644173	1.6323043
14.91350923520342	2.6300693	1.6217488
14.931185646853438	2.6705103	1.6341696
14.948862415820408	2.6803486	1.637177
14.966539542546656	2.7242303	1.6505243
14.98421702747459	2.7095268	1.646064
15.001894871046696	2.7339122	1.6534547
15.019573073705542	2.7341824	1.6535363
15.037251635893766	2.7098236	1.6461542
15.054930558054092	2.7304254	1.6523999
15.072609840629323	2.745893	1.6570736
15.090289484062351	2.8710384	1.6944139
15.107969488796124	3.197181	1.7880663
15.125649855273691	3.6769834	1.9175462
15.14333058393817	4.1845474	2.0456166
15.161011675232768	5.0745015	2.2526655
15.17869312960076	6.413364	2.5324621
15.196374947485506	8.289753	2.879193
15.214057129330447	11.387889	3.3745947
15.231739675579114	16.06782	4.0084686
15.249422586675102	20.97273	4.5795994
15.267105863062092	23.988388	4.8977942
15.284789505183847	24.229856	4.9223833
15.302473513484218	22.242693	4.716216
15.320157888407127	18.793344	4.3351293
15.337842630396578	14.64059	3.8263023
15.355527739896656	11.390106	3.3749232
15.37321321735153	8.905511	2.9842103
15.39089906320545	6.560323	2.561313
15.408585277902748	4.923289	2.2188485
15.42627186188783	3.7681572	1.9411741
15.443958815605198	3.2332976	1.7981373
15.461646139499424	2.9342465	1.7129643
15.479333834015168	2.8157074	1.678007
15.497021899597165	2.733998	1.6534806
15.514710336690234	2.6666446	1.6329864
15.53239914573928	2.6236322	1.619763
15.550088327189297	2.5987163	1.6120534
15.567777881485336	2.5785406	1.6057835
15.58546780907256	2.5312314	1.5909845
15.6031581103962	2.4956417	1.5797601
15.620848785901568	2.5197384	1.5873684
15.638539836034063	2.5296044	1.590473
15.656231261239173	2.4903026	1.5780692
15.673923061962451	2.4737217	1.572807
15.691615238649552	2.4957438	1.5797923
15.709307791746202	2.5122132	1.5849963
15.727000721698221	2.457681	1.5676992
15.744694028951498	2.4244545	1.557066
15.76238771395202	2.432027	1.5594958
15.780081777145844	2.414546	1.5538809
15.797776218979125	2.4109817	1.5527337
15.815471039898094	2.4232786	1.5566883
15.833166240349064	2.4435115	1.5631735
15.850861820778437	2.4356487	1.5606565
15.868557781632699	2.4067135	1.5513586
15.886254123358412	2.365592	1.5380481
15.903950846402232	2.3608358	1.5365012
15.921647951210897	2.355237	1.5346781
15.939345438231225	2.4261575	1.5576128
15.957043307910133	2.453855	1.5664785
15.974741560694602	2.4496593	1.5651388
15.992440197031714	2.426297	1.5576575
16.01013921736862	2.442281	1.5627799
16.02783862215259	2.454112	1.5665606
16.045538411830933	2.4625993	1.5692672
16.06323858685107	2.4848707	1.5763472
16.080939147660512	2.4636035	1.569587
16.09864009470684	2.4183142	1.555093
16.11634142843774	2.409105	1.5521291
16.134043149300954	2.435985	1.5607643
16.15174525774433	2.4324753	1.5596395
16.169447754215817	2.41373	1.5536183
16.18715063916342	2.409093	1.5521253
16.204853913035244	2.460187	1.5684983
16.222557576279478	2.515651	1.5860804
16.240261629344403	22.51885	4.7454033
16.257966072678386	43.0384	6.5603657
16.275670906729868	38.132484	6.1751504
16.293376131947387	2.5727928	1.6039927
16.31108174877957	2.6068747	1.614582
16.328787757675133	2.5979986	1.6118308
16.34649415908287	2.5863898	1.6082257
16.364200953451657	2.5853512	1.6079028
16.38190814123048	2.648952	1.6275601
16.39961572286839	2.6954005	1.6417675
16.41732369881455	2.7115335	1.6466734
16.43503206951817	2.728323	1.6517636
16.45274083542859	2.738216	1.6547556
16.47044999699522	2.7810135	1.6676371
16.488159554667558	2.828166	1.6817153
16.505869508895184	2.8640704	1.6923565
16.523579860127786	2.913469	1.7068887
16.541290608815117	2.9675322	1.7226527
16.559001755407035	3.0151834	1.7364284
16.57671330035348	3.097373	1.7599355
16.59442524410448	3.1516793	1.7752969
16.61213758711015	3.2147567	1.7929742
16.629850329820705	3.2376275	1.7993408
16.647563472686436	3.2531314	1.803644
16.665277016157724	3.2767506	1.8101797
16.682990960685053	3.360643	1.8332056
16.70070530671898	3.4221933	1.849917
16.718420054710155	3.4678562	1.862218
16.736135205109335	3.5037084	1.8718195
16.753850758367335	3.589727	1.8946575
16.771566714935087	3.6378956	1.9073268
16.789283075263597	3.6802123	1.9183879
16.80699983980398	3.7515285	1.9368863
16.82471700900741	3.840829	1.9598032
16.84243458332518	3.9423444	1.9855338
16.860152563208665	3.9950216	1.998755
16.87787094910932	4.0937204	2.0232944
16.89558974147871	4.175284	2.0433512
16.913308940768466	4.2131124	2.0525868
16.931028547430333	4.2597113	2.063907
16.94874856191613	4.311672	2.0764565
16.966468984677785	4.3680615	2.0899909
16.98418981616729	4.4087358	2.099699
17.00191105683676	4.505291	2.1225672
17.019632707138374	4.5022216	2.1218438
17.03735476752442	4.5117426	2.1240864
17.05507723844728	4.527871	2.1278794
17.072800120359403	4.563003	2.1361187
17.090523413713353	4.5344768	2.129431
17.108247118961785	4.5391574	2.1305299
17.125971236557437	4.578543	2.139753
17.143695766953133	4.6769924	2.1626356
17.161420710601806	4.739242	2.17698
17.179146067956477	4.8080597	2.1927288
17.19687183947025	4.8092093	2.192991
17.21459802559634	4.781602	2.1866875
17.232324626788028	4.686008	2.1647189
17.25005164349871	4.631875	2.1521792
17.267779076181863	4.64637	2.155544
17.285506925291074	4.656147	2.1578107
17.30323519127999	4.636442	2.15324
17.320963874602384	4.5784125	2.1397226
17.33869297571211	4.568247	2.1373458
17.356422495063114	4.5915294	2.1427853
17.37415243310944	4.5826163	2.1407046
17.391882790305218	4.584508	2.1411464
17.40961356710468	4.5874023	2.141822
17.42734476396215	4.567974	2.137282
17.445076381332044	4.5599613	2.1354065
17.462808419668868	4.618378	2.1490412
17.48054087942723	4.722609	2.1731565
17.498273761061835	5.0074816	2.2377403
17.51600706502747	5.5047326	2.3462167
17.533740791779024	6.2923	2.5084457
17.551474941771485	7.7698255	2.7874408
17.56920951545993	8.86776	2.9778783
17.586944513299528	10.982674	3.3140118
17.60467993574556	12.535128	3.5404983
17.622415783253373	14.126996	3.7585897
17.64015205627843	15.427157	3.927742
17.657888755276293	16.606802	4.0751443
17.675625880702604	17.195637	4.1467624
17.69336343301311	16.87111	4.1074457
17.71110141266366	16.019583	4.002447
17.728839820110178	15.085228	3.8839707
17.746578655808705	14.394353	3.793989
17.764317920215372	13.019124	3.6082022
17.7820576137864	11.539489	3.3969822
17.79979773697811	9.413716	3.068178
17.81753829024692	7.508265	2.7401214
17.835279274049356	5.8349075	2.4155552
17.85302068884201	4.8479457	2.201805
17.870762535081607	4.2497034	2.0614808
17.888504813224934	3.951356	1.9878018
17.90624752372891	3.7910864	1.9470712
17.923990667050536	3.6879742	1.9204099
17.941734243646895	3.575883	1.8910005
17.959478253975185	3.5300846	1.8788519
17.9772226984927	3.5044358	1.8720138
17.994967577656833	3.4874856	1.8674811
18.01271289192506	3.4649234	1.8614305
18.030458641754965	3.4355881	1.853534
18.04820482760425	3.4077744	1.8460158
18.06595144993067	3.3731441	1.8366121
18.083698509192125	3.3296673	1.8247375
18.101446005846576	3.315873	1.8209538
18.119193940352105	3.3158684	1.8209527
18.136942313166887	3.2821655	1.8116748
18.1546911247492	3.2042751	1.790049
18.1724403755574	3.1692317	1.7802336
18.19019006604997	3.1527007	1.7755846
18.207940196685467	3.1634183	1.7786001
18.225690767922575	3.133874	1.7702751
18.243441780220046	3.09415	1.7590196
18.261193234036764	3.0841005	1.7561607
18.278945129831676	3.1028345	1.7614864
18.29669746806386	3.1303372	1.7692759
18.314450249192483	3.101976	1.7612427
18.3322034736768	3.04404	1.7447177
18.349957141976184	3.040875	1.7438104
18.3677112545501	3.0500152	1.7464293
18.385465811858108	3.1027153	1.7614526
18.403220814359884	3.1139693	1.7646443
18.420976262515172	3.1339915	1.7703083
18.43873215678387	3.1389136	1.771698
18.456488497625923	3.169692	1.7803628
18.474245285501407	3.2587605	1.8052037
18.492002520870486	3.3483963	1.8298624
18.50976020419343	3.420274	1.8493983
18.527518335930615	3.7579625	1.9385465
18.545276916542516	4.422162	2.1028938
18.563035946489688	4.636591	2.1532745
18.580795426232832	4.9952464	2.235005
18.598555356232698	4.8661256	2.2059298
18.616315736950185	5.1414056	2.2674668
18.63407656884626	4.763805	2.1826143
18.65183785238201	4.993616	2.2346401
18.669599588018617	4.74732	2.1788347
18.68736177621737	4.785475	2.1875727
18.705124417439652	4.7238626	2.173445
18.72288751214696	4.5215745	2.1263995
18.740651060800886	4.654817	2.1575024
18.758415063863115	4.331661	2.0812643
18.77617952179546	4.5400796	2.1307464
18.793944435059814	4.3196716	2.078382
18.811709804118184	4.4136934	2.1008792
18.829475629432675	4.3887134	2.0949256
18.8472419114655	4.193806	2.0478785
18.86500865067897	4.233068	2.0574422
18.88277584753551	3.858969	1.9644259
18.90054350249763	3.8632267	1.9655093
18.918311616027957	3.5526595	1.88485
18.936080188589226	3.4187057	1.8489742
18.953849220644265	3.0604134	1.7494037
18.971618712656007	2.8844748	1.6983742
18.9893886650875	2.8587008	1.6907693
19.007159078401887	8.067256	2.8402915
19.024929953062408	32.976913	5.7425528
19.042701289532435	32.929245	5.738401
19.060473088275405	25.471724	5.046952
19.07824534975489	2.707458	1.6454355
19.096018074434568	2.6633592	1.6319802
19.113791262778197	2.5947554	1.6108245
19.13156491524966	2.6153426	1.617202
19.149339032312945	2.6129048	1.6164482
19.167113614432136	2.607642	1.6148195
19.184888662071433	2.5779502	1.6055996
19.202664175695123	2.5892446	1.609113
19.220440155767623	2.6118288	1.6161153
19.238216602753447	2.5708427	1.6033847
19.2559935171172	2.5843487	1.6075909
19.27377089932361	2.5560727	1.5987723
19.291548749837514	2.5477579	1.5961697
19.309327069123835	2.5281293	1.5900092
19.32710585764763	2.5501819	1.5969288
19.344885115874032	2.5739477	1.6043527
19.362664844268313	2.591924	1.6099453
19.380445043295822	2.5572238	1.5991322
19.39822571342203	2.5364704	1.59263
19.41600685511252	2.500157	1.5811886
19.43378846883297	2.4923434	1.5787158
19.451570555049173	2.513061	1.5852637
19.469353114227037	2.5434015	1.5948045
19.48713614683254	2.545279	1.5953931
19.50491965333182	2.5403442	1.5938457
19.52270363419109	2.536823	1.5927408
19.540488089876686	2.487862	1.5772958
19.55827302085503	2.510305	1.5843942
19.576058427592674	2.4893713	1.5777742
19.593844310556282	2.5041354	1.582446
19.611630670212598	2.4832149	1.575822
19.629417507028506	2.4867191	1.5769335
19.64720482147098	2.5270905	1.5896826
19.6649926140071	2.547329	1.5960354
19.682780885104084	2.5706186	1.6033149
19.70056963522921	2.5353966	1.5922929
19.718358864849908	2.517272	1.5865914
19.7361485744337	2.520744	1.5876851
19.753938764448215	2.5129533	1.5852298
19.771729435361202	2.5084624	1.5838126
19.789520587640506	2.523533	1.5885632
19.807312221754092	2.530581	1.59078
19.825104338170043	2.5451822	1.5953628
19.842896937356517	2.5637262	1.601164
19.860690019781824	2.59557	1.6110773
19.87848358591436	2.5857112	1.6080147
19.896277636222635	2.5621579	1.6006742
19.914072171175278	2.5531676	1.5978634
19.931867191241015	2.5503144	1.5969704
19.94966269688869	2.552911	1.5977832
19.967458688587264	2.5120215	1.5849358
19.985255166805807	2.5048618	1.5826756
20.00305213201348	2.5222862	1.5881706
20.020849584679578	2.530346	1.5907061
20.038647525273507	2.4959137	1.5798461
20.05644595426477	2.4653976	1.5701585
20.07424487212299	2.4621236	1.5691155
20.092044279317903	2.445574	1.5638331
20.109844176319353	2.4567058	1.5673882
20.127644563597304	2.471142	1.5719867
20.145445441621817	2.4754035	1.5733415
20.16324681086307	2.4449377	1.5636296
20.181048671791373	2.4141603	1.5537568
20.198851024877122	2.3774488	1.5418978
20.216653870590836	2.3709905	1.5398021
20.234457209403146	2.3549645	1.5345894
20.252261041784802	2.3541658	1.534329
20.270065368206662	2.3864372	1.5448097
20.287870189139685	2.3970287	1.5482341
20.305675505054968	2.390495	1.5461226
20.323481316423702	2.3840966	1.544052
20.341287623717207	2.4140482	1.5537207
20.359094427406884	2.3990276	1.5488795
20.376901727964288	2.3699846	1.5394754
20.39470952586107	2.339456	1.529528
20.41251782156899	2.3972735	1.5483131
20.430326615559935	2.418271	1.5550791
20.448135908305886	2.402597	1.5500313
20.465945700278965	2.3645985	1.5377251
20.483755991951384	2.3435855	1.5308774
20.50156678379548	2.3407767	1.5299597
20.519378076283708	2.3292592	1.5261911
20.537189869888635	2.354586	1.534466
20.55500216508294	2.3554533	1.5347486
20.572814962339415	2.3360028	1.5283988
20.59062826213098	2.3282993	1.5258765
20.60844206493066	2.2995014	1.5164107
20.626256371211593	2.3514836	1.5334548
20.644071181447032	2.3771749	1.541809
20.66188649611036	2.4228382	1.5565469
20.67970231567506	2.3859577	1.5446546
20.697518640614742	2.3375604	1.5289083
20.715335471403122	2.2979429	1.5158967
20.73315280851404	2.317295	1.5222664
20.750970652421447	2.3191211	1.5228661
20.768789003599412	2.335292	1.5281663
20.786607862522136	2.3469832	1.5319867
20.8044272296639	2.337339	1.5288358
20.82224710549913	2.312868	1.5208117
20.84006749050237	2.3030791	1.5175899
20.857888385148268	3.853379	1.9630026
20.8757097899116	45.941513	6.778017
20.893531705267254	64.76056	8.047395
20.911354131690224	83.77885	9.153078
20.92917706965566	69.066895	8.31065
20.94700051963877	50.13973	7.080941
20.96482448211493	29.390013	5.4212556
20.982648957559622	4.1309214	2.032467
21.00047394644843	2.2344959	1.494823
21.01829944925707	2.219549	1.4898151
21.036125466461375	2.2266717	1.4922036
21.053951998537297	2.2356558	1.495211
21.071779045960906	2.2436676	1.4978877
21.089606609208378	2.228739	1.4928962
21.10743468875603	2.225037	1.4916558
21.12526328508028	2.2264178	1.4921186
21.143092398657675	2.2136726	1.4878416
21.16092202996488	2.2087154	1.4861748
21.17875217947867	2.2137558	1.4878696
21.19658284767596	2.2072313	1.4856753
21.21441403503377	2.2141874	1.4880146
21.232245742029225	2.22493	1.49162
21.2500779691396	2.2254632	1.4917986
21.26791071684227	2.202173	1.4839721
21.28574398561475	2.1927354	1.4807888
21.30357777593465	2.168344	1.4725298
21.321412088279704	2.1501808	1.4663495
21.339246923127792	2.147795	1.4655358
21.357082280956888	2.1729228	1.4740838
21.3749181622451	2.171168	1.4734885
21.392754567470647	2.148052	1.4656234
21.41059149711187	2.122368	1.4568349
21.42842895164726	2.1409893	1.463212
21.446266931555378	2.190206	1.4799345
21.464105437314945	2.1684408	1.4725627
21.481944469404798	2.1476746	1.4654946
21.49978402830388	2.1318123	1.4600728
21.51762411449127	2.1362615	1.4615955
21.53546472844617	2.1397407	1.4627852
21.553305870647876	2.1625216	1.4705515
21.571147541575865	2.1526313	1.4671848
21.58898974170967	2.139656	1.4627563
21.60683247152899	2.0958805	1.4477156
21.62467573151363	2.0869105	1.4446143
21.642519522143523	2.0449073	1.4300026
21.660363843898722	2.0515974	1.4323398
21.6782086972594	2.0509822	1.4321251
21.696054082705864	2.0681884	1.4381198
21.713900000718535	2.0588424	1.4348667
21.73174645177795	2.0576122	1.434438
21.749593436364794	2.041551	1.4288286
21.767440954959845	2.0545928	1.4333851
21.785289008044032	2.0626047	1.4361771
21.803137596098388	2.054833	1.4334688
21.820986719604086	2.0467572	1.4306493
21.838836379042412	2.072325	1.4395572
21.85668657489478	2.078726	1.4417788
21.87453730764273	2.068639	1.4382764
21.892388577767914	2.0398479	1.4282324
21.91024038575213	2.0166764	1.4200974
21.928092732077285	1.9785427	1.4066068
21.945945617225426	2.007701	1.4169337
21.963799041678694	2.0357106	1.4267833
21.981653005919398	31.35929	5.5999365
21.999507510429943	78.150566	8.840281
22.01736255569286	73.13351	8.551813
22.035218142190818	4.216032	2.0532978
22.05307427040661	2.0589967	1.4349204
22.07093094082315	2.0730002	1.4397917
22.088788153923474	2.0776868	1.4414183
22.106645910190746	2.0505543	1.4319756
22.12450421010827	2.0302527	1.4248694
22.142363054159464	2.0002367	1.4142972
22.16022244282787	2.012737	1.4187096
22.178082376597164	2.0369751	1.4272264
22.195942855951145	2.044459	1.4298458
22.213803881373742	2.004412	1.4157726
22.231665453349002	1.9963894	1.4129364
22.24952757236111	1.9704386	1.4037231
22.26739023889438	1.9536254	1.3977215
22.28525345343323	1.9639472	1.401409
22.30311721646225	1.9823017	1.4079424
22.320981528466113	1.9625871	1.4009236
22.33884638992964	1.927083	1.3881942
22.356711801337788	1.9658726	1.4020958
22.37457776317561	2.0182588	1.4206544
22.392444275928337	2.0229237	1.4222952
22.410311340081282	1.964635	1.4016544
22.428178956119904	1.930202	1.3893172
22.446047124529805	1.9469588	1.3953346
22.46391584579669	1.969514	1.4033937
22.481785120406414	1.983516	1.4083735
22.49965494884496	1.96276	1.4009854
22.51752533159841	1.9335026	1.3905045
22.53539626915302	1.935372	1.3911765
22.553267761995137	1.9607148	1.4002553
22.571139810611264	1.9710795	1.4039514
22.589012415488025	1.9629117	1.4010395
22.60688557711216	1.9431223	1.3939592
22.624759295970566	1.9384189	1.3922712
22.642633572550263	1.9195015	1.3854607
22.660508407338362	1.9415777	1.3934051
22.67838380082217	1.952342	1.3972623
22.696259753489077	1.9460723	1.3950169
22.714136265826614	1.9172162	1.3846358
22.73201333832246	1.9298482	1.3891897
22.74989097146439	1.9201531	1.3856959
22.76776916574035	1.9113263	1.3825072
22.785647921638393	1.8964517	1.3771172
22.803527239646712	1.9188187	1.3852143
22.82140712025363	1.9261265	1.3878496
22.839287563947593	1.9406985	1.3930895
22.85716857121719	1.9500974	1.3964589
22.875050142551135	1.9436489	1.3941481
22.892932278438277	1.9404042	1.3929839
22.910814979367604	1.8996841	1.3782903
22.928698245828222	1.890826	1.3750731
22.946582078309387	1.9214135	1.3861506
22.96446647730047	1.9447074	1.3945277
22.98235144329098	1.9163443	1.3843209
23.000236976770562	1.9087936	1.381591
23.018123078229	1.9209919	1.3859985
23.03600974815619	1.9083816	1.3814418
23.053896987042194	1.8858057	1.3732464
23.071784795377173	1.8878424	1.3739878
23.08967317365145	1.9102952	1.3821343
23.10756212235546	1.9119178	1.3827212
23.125451641979787	1.9353851	1.3911812
23.143341733015134	1.9180415	1.3849337
23.161232395952357	1.972932	1.404611
23.179123631282426	1.9656862	1.4020293
23.197015439496468	1.9228082	1.3866535
23.214907821085717	1.8935598	1.3760668
23.23280077654157	1.8892204	1.3744891
23.250694306355538	1.9232143	1.3868
23.268588411019277	1.9477526	1.395619
23.28648309102458	1.9199679	1.385629
23.304378346863356	1.92472	1.3873428
23.322274179027676	1.9518385	1.3970821
23.340170588009723	1.9828107	1.4081231
23.358067574301852	1.9522681	1.3972359
23.37596513839651	1.9591686	1.399703
23.39386328078629	2.012135	1.4184974
23.411762001963947	1.9845905	1.408755
23.429661302422353	1.9445435	1.3944689
23.4475611826545	1.9149619	1.3838215
23.46546164315356	1.9153248	1.3839526
23.48336268441279	1.9233224	1.386839
23.501264306925638	1.9239773	1.3870751
23.51916651118564	1.9444767	1.394445
23.537069297686497	1.970999	1.4039227
23.554972666922037	1.9307632	1.3895191
23.57287661938623	1.8813968	1.3716402
23.59078115557318	1.9110426	1.3824047
23.608686275977128	1.9609147	1.4003266
23.62659198109246	1.9599065	1.3999666
23.6444982714137	1.9566585	1.3988061
23.66240514743549	1.9725953	1.4044912
23.68031260965263	1.9484171	1.3958571
23.698220658560068	1.8907175	1.3750336
23.716129294652845	1.8838122	1.3725203
23.7340385184262	1.9087505	1.3815753
23.75194833037546	1.9246173	1.3873057
23.769858730996123	1.9068385	1.3808832
23.78776972078382	1.8969182	1.3772866
23.80568130023431	1.8756789	1.3695543
23.823593469843495	1.883596	1.3724416
23.841506230107424	1.8751562	1.3693634
23.859419581522275	1.9088532	1.3816125
23.87733352458438	1.9366053	1.3916197
23.89524805979019	1.9540197	1.3978626
23.913163187636318	1.935999	1.3914018
23.931078908619508	1.9269879	1.3881599
23.948995223236633	1.923749	1.3869928
23.966912131984735	1.9646924	1.4016749
23.98482963536096	2.0388014	1.427866
24.002747733862616	2.0702503	1.4388365
24.020666427987155	2.0925448	1.4465631
24.038585718232156	2.0445473	1.4298767
24.056505605095353	2.0393422	1.4280554
24.074426089074617	2.093006	1.4467225
24.092347170667946	2.1736581	1.4743332
24.110268850373515	2.1692374	1.4728332
24.128191128689586	2.1299317	1.4594285
24.146114006114626	2.1165857	1.454849
24.164037483147187	2.0881236	1.4450341
24.181961560286005	2.0581367	1.4346207
24.199886238029926	2.0678053	1.4379865
24.21781151687797	2.0881333	1.4450375
24.235737397329274	2.1178699	1.4552903
24.253663879883135	2.102989	1.4501686
24.271590965038975	2.070686	1.4389879
24.289518653296376	2.108545	1.452083
24.30744694515505	2.1214945	1.4565351
24.32537584111486	2.068201	1.4381242
24.34330534167581	2.0234592	1.4224834
24.361235447338046	2.0438678	1.4296391
24.379166158601876	2.0704932	1.4389209
24.39709747596772	2.0778174	1.4414636
24.41502939993615	2.0551107	1.4335657
24.432961931007917	2.0278656	1.4240315
24.450895069683856	2.0309827	1.4251255
24.468828816465	2.0102854	1.4178454
24.4867631718525	1.9687256	1.4031128
24.504698136347656	1.9264705	1.3879735
24.52263371045192	1.9280101	1.388528
24.540569894666874	1.9548379	1.3981552
24.558506689494266	1.9529927	1.3974952
24.57644409543597	1.9394054	1.3926253
24.594382112994012	1.956301	1.3986783
24.61232074267057	1.9831157	1.4082314
24.630259984967953	2.0155632	1.4197054
24.64819984038863	1.9787956	1.4066967
24.66614030943522	1.9976074	1.4133674
24.684081392610462	1.9777917	1.4063398
24.702023090417274	1.9758531	1.4056504
24.7199654033587	1.9943116	1.4122009
24.737908331937927	2.047054	1.430753
24.755851876658305	2.0783527	1.4416493
24.773796038023324	2.034075	1.42621
24.79174081653661	2.0492756	1.4315292
24.809686212701962	2.1193657	1.4558041
24.827632227023294	2.1674533	1.4722273
24.8455788600047	2.1646578	1.4712776
24.8635261121504	2.1625922	1.4705755
24.88147398396475	2.183864	1.4777902
24.899422475952303	2.156286	1.4684298
24.917371588617698	2.1688302	1.4726949
24.935321322465768	2.186372	1.4786385
24.953271678001478	2.2795415	1.5098151
24.97122265572994	2.3938766	1.5472157
24.989174256156414	2.6969187	1.6422298
25.00712647978632	3.128406	1.76873
25.02507932712521	3.7011795	1.9238449
25.043032798678798	4.2440658	2.060113
25.060986894952933	4.845561	2.2012634
25.078941616453637	5.5951843	2.3654141
25.096896963687055	6.5332417	2.5560207
25.114852937159508	7.6412973	2.7642896
25.132809537377444	8.101704	2.8463492
25.150766764847468	8.193142	2.8623664
25.168724620076347	7.6244755	2.7612453
25.186683103570985	6.6439886	2.5775936
25.204642215838426	5.557086	2.3573472
25.222601957385894	4.2664127	2.0655296
25.24056232872074	3.2654548	1.8070569
25.25852333035048	2.613351	1.6165862
25.276484962782778	2.2520776	1.5006924
25.294447226525435	2.1283479	1.4588858
25.312410122086423	2.0741224	1.4401814
25.330373649973843	2.0145843	1.4193605
25.348337810695988	1.9854954	1.4090761
25.366302604761245	2.0119548	1.4184339
25.384268032678207	1.9844469	1.4087039
25.40223409495558	1.9598442	1.3999444
25.420200792102257	1.9119515	1.3827333
25.438168124627246	1.9133364	1.383234
25.45613609303974	1.9052685	1.3803147
25.474104697849057	1.9513384	1.3969032
25.492073939564698	1.9514416	1.3969401
25.510043818696285	1.9034317	1.3796492
25.528014335753614	1.8752687	1.3694046
25.54598549124664	1.9254807	1.3876169
25.56395728568544	1.9409428	1.3931773
25.58192971958028	1.9633126	1.4011825
25.59990279344156	1.9418094	1.3934882
25.617876507779833	1.8805693	1.3713385
25.635850863105826	1.8835353	1.3724195
25.653825859930386	1.8836895	1.3724757
25.671801498764548	1.9066951	1.3808314
25.68977778011949	1.9103934	1.3821698
25.707754704506524	1.9234853	1.3868977
25.725732272437153	1.8932632	1.375959
25.743710484423012	1.8783674	1.3705355
25.761689340975888	1.8692248	1.367196
25.77966884260774	1.8648541	1.3655967
25.797648989830662	1.8446486	1.3581784
25.815629783156922	1.83949	1.3562781
25.83361122309895	1.8372643	1.3554572
25.85159331016929	1.8256321	1.3511596
25.869576044880695	1.8485574	1.3596166
25.887559427746034	1.8530498	1.3612677
25.90554345927836	1.85522	1.3620646
25.92352813999086	1.8506085	1.3603708
25.94151347039689	1.8833456	1.3723503
25.959499451009965	1.8768908	1.3699967
25.97748608234374	1.8664988	1.3661987
25.995473364912062	1.8741584	1.368999
26.013461299228904	1.8985641	1.3778839
26.03144988580839	1.8660176	1.3660226
26.04943912516483	1.8478465	1.3593552
26.067429017812675	1.8396243	1.3563275
26.085419564266537	1.8192382	1.3487914
26.103410765041186	1.849083	1.3598099
26.12140262065155	1.8724263	1.3683662
26.139395131612723	1.8876572	1.3739203
26.157388298439948	1.9051434	1.3802693
26.17538212164861	1.8999361	1.3783817
26.193376601754295	1.8529088	1.361216
26.211371739272714	1.8004929	1.3418244
26.229367534719746	1.7762948	1.3327771
26.247363988611433	1.7713102	1.3309058
26.26536110146397	1.8153291	1.3473415
26.283358873793727	1.8484321	1.3595705
26.301357306117204	1.8777947	1.3703265
26.319356398951104	1.901046	1.3787843
26.33735615281224	1.9144068	1.3836209
26.35535656821762	1.8307875	1.353066
26.373357645684404	1.7975898	1.3407422
26.39135938572991	1.8184307	1.348492
26.409361788871614	1.8316089	1.3533695
26.427364855627165	1.8101543	1.3454198
26.445368586514352	1.7985086	1.3410848
26.46337298205115	1.8058348	1.3438135
26.48137804275568	1.7702047	1.3304904
26.499383769146217	1.7463262	1.3214864
26.517390161741215	1.7825443	1.3351196
26.53539722105928	1.8360885	1.3550235
26.553404947619182	1.8512441	1.3606043
26.571413341939856	1.8465071	1.3588624
26.589422404540397	1.8833656	1.3723577
26.60743213594006	1.8554986	1.3621669
26.62544253665827	1.8165026	1.3477769
26.64345360721459	1.8290672	1.3524301
26.66146534812879	1.8458627	1.3586253
26.679477759920758	1.8715125	1.3680323
26.69749084311057	1.8315709	1.3533554
26.71550459821847	1.8213061	1.3495578
26.733519025764842	1.825671	1.3511739
26.751534126270258	1.880147	1.3711845
26.769549900255434	1.899936	1.3783816
26.787566348241267	1.8928599	1.3758124
26.80558347074881	1.8371896	1.3554296
26.823601268299267	1.8133532	1.346608
26.841619741414036	1.8365599	1.3551973
26.85963889061465	1.8314043	1.3532939
26.877658716422832	1.8421425	1.3572555
26.89567921936045	1.8524015	1.3610296
26.913700399949544	1.8598905	1.363778
26.93172225871233	1.8183739	1.3484709
26.949744796171174	1.7927206	1.3389251
26.967768012848605	1.8345319	1.3544489
26.98579190926733	1.8499573	1.3601314
27.003816485950225	1.8454722	1.3584815
27.021841743420318	1.8337101	1.3541455
27.039867682200814	1.8805853	1.3713443
27.057894302815072	1.8543929	1.361761
27.07592160578664	1.7946023	1.3396276
27.0939495916392	1.7872014	1.3368626
27.111978260896635	1.8338697	1.3542044
27.13000761408296	1.823523	1.3503789
27.148037651722397	1.8356291	1.3548539
27.166068374339304	1.838766	1.356011
27.184099782458215	1.839225	1.3561803
27.20213187660384	1.8218251	1.34975
27.22016465730105	1.8168547	1.3479075
27.23819812507487	1.8279756	1.3520265
27.256232280450533	1.8281652	1.3520966
27.274267123953383	1.8189979	1.3487023
27.292302656108987	1.8243321	1.3506784
27.31033887744306	1.8572696	1.3628168
27.32837578848146	1.8658884	1.3659753
27.34641338975026	1.9145491	1.3836724
27.364451681775673	1.9200318	1.3856521
27.382490665084074	1.888586	1.3742584
27.400530340202046	1.8507788	1.3604333
27.41857070765629	1.8333609	1.3540165
27.436611767973726	1.8049471	1.3434832
27.454653521681404	1.7982291	1.3409806
27.472695969306564	1.7992188	1.3413496
27.490739111376627	1.80201	1.3423897
27.508782948419153	1.7728678	1.3314909
27.526827480961902	1.7853466	1.3361686
27.54487270953279	1.8308388	1.3530849
27.562918634659898	1.8393183	1.3562146
27.580965256871508	1.8568484	1.3626622
27.599012576696026	1.8456798	1.3585579
27.617060594662068	1.831152	1.3532007
27.63510931129842	1.8179244	1.3483043
27.65315872713401	1.7934821	1.3392094
27.67120884269797	1.8205593	1.3492811
27.68925965851958	1.8480338	1.3594241
27.707311175128307	1.8478972	1.3593738
27.725363393053787	1.849855	1.3600937
27.74341631282583	1.8931233	1.3759081
27.7614699349744	1.9185532	1.3851185
27.77952426002968	2.0477216	1.4309863
27.797579288521973	2.1117816	1.453197
27.815635020981784	2.5786948	1.6058315
27.83369145793979	2.684133	1.6383324
27.85174859992682	2.4878418	1.5772893
27.869806447473923	2.3114622	1.5203494
27.887865001112267	2.015798	1.419788
27.905924261373233	1.9476086	1.3955675
27.92398422878836	1.9272994	1.388272
27.94204490388936	1.892161	1.3755585
27.96010628720813	1.8800641	1.3711543
27.978168379276728	1.8803682	1.3712652
27.9962311806274	1.8848556	1.3729005
28.014294691792568	1.8834977	1.3724058
28.0323589133048	1.8580273	1.3630948
28.050423845696887	1.8672998	1.3664918
28.068489489501758	1.8808073	1.3714253
28.086555845252523	1.8657873	1.3659382
28.104622913482487	1.8488716	1.3597322
28.122690694725115	1.8924745	1.3756723
28.14075918951405	1.9222641	1.3864574
28.15882839838312	1.9391776	1.3925436
28.176898321866304	1.9640571	1.4014482
28.1949689604978	1.9394846	1.3926538
28.213040314811945	1.935195	1.3911128
28.23111238534327	1.9047348	1.3801214
28.249185172626493	1.9475026	1.3955295
28.267258677196473	1.985078	1.4089279
28.285332899588294	2.011222	1.4181756
28.303407840337172	2.0154142	1.4196528
28.321483499978545	1.9907306	1.4109325
28.33955987904799	1.9520386	1.3971537
28.357636978081285	1.9275906	1.388377
28.37571479761439	1.9565836	1.3987793
28.393793338183425	1.9744719	1.405159
28.41187260032469	1.9726678	1.4045169
28.429952584574686	1.9980288	1.4135164
28.448033291470065	2.027004	1.423729
28.46611472154769	1.9796176	1.4069889
28.484196875344566	1.9872156	1.4096863
28.502279753397914	1.9803209	1.4072387
28.52036335624511	2.0175672	1.4204109
28.538447684423716	2.0242114	1.4227479
28.556532738471482	1.9916466	1.4112571
28.574618518926325	1.9876341	1.4098347
28.59270502632635	1.9880289	1.4099748
28.61079226120985	2.016824	1.4201493
28.628880224115274	2.004689	1.4158704
28.646968915581287	1.967301	1.402605
28.66505833614671	1.9830923	1.4082232
28.68314848635055	2.0444129	1.4298297
28.701239366732004	2.114571	1.4541565
28.71933097783044	2.052351	1.4326029
28.737423320185403	1.9773046	1.4061667
28.75551639433665	2.0162852	1.4199595
28.773610200824074	2.142846	1.4638463
28.791704740187793	2.1980722	1.4825897
28.80980001296809	2.1780872	1.4758344
28.827896019705413	2.1967	1.4821268
28.845992760940433	2.2187455	1.4895453
28.86409023721397	2.1875184	1.4790262
28.88218844906704	2.1996083	1.4831077
28.900287397040845	2.3036385	1.5177742
28.918387081676755	2.3045852	1.5180861
28.936487503516343	2.2478044	1.4992679
28.954588663101365	2.2792845	1.50973
28.97269056097374	2.3428516	1.5306376
28.990793197675597	2.328167	1.5258332
29.00889657374923	2.3095047	1.5197055
29.027000689737125	2.3781092	1.542112
29.04510554618196	2.4013798	1.5496386
29.06321114362659	2.4130685	1.5534054
29.08131748261405	2.4616778	1.5689735
29.099424563687567	2.5017636	1.5816964
29.11753238739057	2.5565484	1.598921
29.13564095426663	2.6170034	1.6177155
29.15375026485954	2.6170099	1.6177175
29.171860319713275	2.5837238	1.6073966
29.18997111937199	2.645248	1.6264218
29.20808266438002	2.7262764	1.6511439
29.226194955281898	2.7846525	1.6687278
29.244307992622335	2.805862	1.6750708
29.26242177694624	2.8892536	1.6997805
29.2805363087987	2.9524186	1.7182603
29.29865158872498	2.9815564	1.7267184
29.316767617270557	2.9816854	1.7267557
29.334884394981064	2.9483743	1.7170831
29.353001922402367	2.911654	1.7063569
29.37112020008047	2.986507	1.7281513
29.389239228561596	3.1076112	1.7628418
29.407359008392152	3.2873855	1.8131149
29.42547954011872	3.7047358	1.924769
29.44360082428809	4.2966685	2.0728407
29.46172286144722	5.2396283	2.2890234
29.479845652143283	6.763861	2.6007423
29.497969196923606	8.860512	2.9766612
29.516093496335728	11.303846	3.3621194
29.5342185509274	14.054491	3.748932
29.55234436124651	16.416489	4.051727
29.570470927841175	17.824999	4.2219663
29.588598251259686	17.626163	4.1983523
29.60672633205055	16.35714	4.044396
29.624855170762405	14.07839	3.752118
29.642984767944146	11.45724	3.3848546
29.66111512414481	8.891816	2.9819148
29.67924623991366	6.6186237	2.5726686
29.697378115800138	5.136232	2.2663257
29.71551075235387	4.3026123	2.0742738
29.733644150124675	3.899206	1.9746407
29.751778309662576	3.6359932	1.906828
29.769913231517766	3.467069	1.8620067
29.78804891624066	3.4509063	1.8576615
29.806185364381818	3.4373102	1.8539984
29.82432257649206	3.4197967	1.8492693
29.842460553122333	3.386273	1.8401829
29.86059929482382	3.331613	1.8252707
29.878738802147872	3.355747	1.8318698
29.896879075646048	3.3367918	1.8266888
29.915020115870114	3.3087425	1.8189949
29.933161923371976	3.3239977	1.8231834
29.951304498703777	3.3037527	1.8176228
29.969447842417857	3.1967628	1.7879493
29.987591955066733	3.1918056	1.7865626
30.005736837203123	3.2049603	1.7902403
30.023882489379943	3.2565277	1.8045852
30.04202891215028	3.2213416	1.7948096
30.060176106067455	3.1772728	1.7824906
30.078324071684946	3.1964211	1.7878538
30.09647280955646	3.1768305	1.7823665
30.114622320235863	3.1160393	1.7652307
30.132772604277257	3.0810084	1.7552801
30.1509236622349	3.0547535	1.7477853
30.16907549466328	3.068879	1.7518216
30.18722810211705	3.1129224	1.7643476
30.205381485151097	3.0892568	1.7576282
30.22353564432045	3.0512831	1.7467922
30.241690580180403	3.062583	1.7500237
30.25984629328638	3.0337195	1.7417576
30.278002784194037	3.0226	1.7385626
30.296160053459246	3.0626404	1.7500402
30.314318101638033	3.0360641	1.7424306
30.332476929286646	2.9630835	1.7213609
30.35063653696153	2.9559991	1.7193019
30.368796925219307	2.929033	1.7114418
30.386958094616844	2.935979	1.7134699
30.40512004571115	2.8712606	1.6944795
30.423282779059463	2.8504755	1.6883352
30.441446295219233	2.8683586	1.693623
30.459610594748067	2.892896	1.7008516
30.47777567820382	2.8331788	1.6832049
30.495941546144504	2.7848036	1.668773
30.51410819912835	2.77184	1.6648844
30.532275637713795	2.7613285	1.6617246
30.55044386245946	2.8212092	1.6796455
30.56861287392416	2.897643	1.7022464
30.586782672666956	2.8553972	1.689792
30.604953259247047	2.7825756	1.6681054
30.623124634223885	2.784582	1.6687067
30.641296798157075	2.820019	1.6792912
30.659469751606462	2.7980187	1.672728
30.677643495132074	2.7268345	1.651313
30.695818029294152	2.616989	1.617711
30.713993354653116	2.6036208	1.6135739
30.73216947176962	2.670887	1.6342849
30.75034638120448	2.7621446	1.6619701
30.768524083518756	2.8313398	1.6826586
30.786702579273673	2.9034975	1.7039652
30.80488186903069	2.909345	1.7056801
30.82306195335144	2.9219346	1.7093667
30.841242832797782	3.1172218	1.7655656
30.85942450793176	3.445224	1.8561314
30.877606979315637	3.758279	1.9386282
30.895790247511883	4.0386295	2.0096343
30.913974313083134	4.408695	2.0996892
30.932159176592283	4.6707907	2.1612012
30.95034483860237	4.818714	2.195157
30.968531299676698	4.7207336	2.172725
30.98671856037873	4.472864	2.1149147
31.00490662127215	4.0911756	2.0226655
31.023095482920848	3.5683837	1.8890166
31.04128514588892	3.0772069	1.7541969
31.059475610740662	2.7499046	1.6582836
31.07766687804056	2.5731459	1.6041028
31.09585894835335	2.522514	1.5882424
31.11405182224393	2.5289743	1.5902749
31.132245500277417	2.5416741	1.5942628
31.15043998301914	2.456189	1.5672233
31.168635271034628	2.4357018	1.5606735
31.18683136488964	2.4376109	1.561285
31.20502826515008	2.392672	1.5468265
31.223225972382135	2.403658	1.5503734
31.241424487152155	2.4535282	1.5663742
31.259623810026692	2.4095497	1.5522724
31.27782394157253	2.3991618	1.5489228
31.296024882356644	2.4397702	1.5619764
31.314226632946237	2.4745502	1.5730703
31.332429193908684	2.4929464	1.5789067
31.350632565811598	2.558107	1.5994083
31.368836749222787	2.531363	1.5910258
31.387041744710295	2.5157154	1.5861007
31.40524755284232	2.605131	1.6140418
31.423454174187317	2.6527107	1.6287144
31.441661609313922	2.6203194	1.6187401
31.459869858791002	2.5664723	1.6020213
31.478078923187628	2.487754	1.5772616
31.496288803073064	2.4413688	1.5624881
31.514499499016807	2.3818953	1.543339
31.532711011588546	2.3616078	1.5367523
31.550923341358178	2.2975779	1.5157763
31.56913648889584	2.3085113	1.5193785
31.587350454771844	2.3207815	1.5234112
31.605565239556732	2.3709655	1.539794
31.62378084382127	2.3138149	1.5211229
31.641997268136382	2.2795131	1.5098057
31.660214513073274	2.3487139	1.5325514
31.67843257920331	2.4007995	1.5494514
31.6966514670981	2.3690255	1.5391638
31.71487117732944	2.2457888	1.4985956
31.733091710469346	2.2049568	1.4849097
31.751313067090052	2.2510717	1.5003572
31.769535247764008	2.2741473	1.5080276
31.787758253063878	2.3376431	1.5289353
31.805982083562526	2.3386033	1.5292492
31.824206739833024	2.307224	1.5189549
31.84243222244869	2.33514	1.5281165
31.860658531983013	2.3051965	1.5182874
31.878885669009737	2.2604337	1.5034739
31.897113634102784	2.250161	1.5000536
31.91534242783632	2.271994	1.5073135
31.933572050784694	2.308881	1.5195003
31.951802503522508	2.3882782	1.5454055
31.970033786624548	2.3219316	1.5237886
31.988265900665834	2.202451	1.4840657
32.006498846221575	2.2396615	1.4965498
32.02473262386724	2.232702	1.4942229
32.04296723417845	2.1979237	1.4825397
32.0612026777311	2.1901228	1.4799063
32.07943895510129	2.2149231	1.4882618
32.097676066865304	2.1836553	1.4777197
32.115914013599685	2.0888207	1.4452753
32.13415279588115	2.0700483	1.4387662
32.152392414286666	2.1396525	1.4627551
32.1706328693934	2.197233	1.4823066
32.18887416177875	2.160547	1.46988
32.20711629202032	2.1634836	1.4708785
32.225359260695924	2.1719122	1.4737409
32.243603068383614	2.1543748	1.4677789
32.26184771566166	2.1441987	1.4643083
32.28009320310852	2.148768	1.4658676
32.2983395313029	2.2332006	1.4943897
32.31658670082372	2.282725	1.510869
32.33483471225012	2.2903218	1.5133809
32.35308356616143	2.2705514	1.5068349
32.371333263137245	2.1787555	1.4760609
32.38958380375734	2.0260499	1.4233937
32.407835188601744	2.0330577	1.4258534
32.42608741825067	2.1869814	1.4788446
32.444340493284585	2.2230883	1.4910024
32.46259441428416	2.1178286	1.4552761
32.48084918183028	2.0658724	1.4373143
32.49910479650405	2.1729236	1.474084
32.51736125888683	2.2381253	1.4960365
32.53561856956014	2.1354744	1.4613262
32.5538767291058	2.0547554	1.4334419
32.572135738105764	2.1071622	1.4516068
32.59039559714228	2.1503348	1.466402
32.608656306797776	2.0775719	1.4413785
32.62691786765491	2.0239816	1.422667
32.645180280296586	2.0372183	1.4273115
32.663443545305896	2.0895767	1.4455369
32.68170766326619	2.1086342	1.4521137
32.69997263476099	2.088835	1.4452802
32.7182384603741	2.113401	1.4537541
32.7365051406895	2.0634441	1.4364693
32.75477267629144	2.0156813	1.4197469
32.77304106776434	2.0514672	1.4322944
32.79131031569289	2.0577106	1.4344722
32.809580420661966	2.1033514	1.4502935
32.827851383256714	2.0934021	1.4468594
32.84612320406245	2.0638273	1.4366027
32.86439588366476	2.0728683	1.4397459
32.88266942264945	2.0552783	1.4336241
32.9009438216025	2.0206623	1.4215
32.9192190811102	2.013975	1.4191458
32.937495201758985	2.0190365	1.420928
32.95577218413556	2.042464	1.429148
32.974050028826866	2.0756986	1.4407285
32.992328736420035	2.0303042	1.4248874
33.010608307502444	1.9419631	1.3935434
33.02888874266169	1.9573029	1.3990364
33.047170042485604	2.0460088	1.4303876
33.06545220756225	2.0206459	1.4214942
33.083735238479896	2.0269349	1.4237046
33.10201913582707	2.0734632	1.4399525
33.12030390019248	2.0633905	1.4364506
33.138589532165135	2.0818982	1.4428785
33.15687603233419	2.0570512	1.4342424
33.17516340128909	1.8562719	1.3624507
33.19345163961947	1.8145438	1.3470501
33.211740747915215	1.9746038	1.405206
33.23003072676643	2.1466756	1.4651538
33.248321576763466	2.099683	1.4490283
33.266613298496885	1.9655342	1.4019752
33.28490589255747	1.8892534	1.3745011
33.30319935953626	1.893115	1.3759052
33.32149370002451	1.8992128	1.3781193
33.339788914613706	1.8676836	1.3666322
33.358085003895575	1.8948513	1.376536
33.376381968462034	1.8777378	1.3703058
33.39467980890529	2.0035956	1.4154842
33.41297852581774	2.1249864	1.4577333
33.43127811979204	2.1312046	1.4598646
33.44957859142105	2.0004194	1.4143618
33.467879941297866	1.9473944	1.3954908
33.486182170015844	1.9149203	1.3838065
33.50448527816853	1.955166	1.3982725
33.522789266349754	1.9252076	1.3875185
33.541094135153514	1.9619685	1.4007028
33.55939988517411	2.009319	1.4175045
33.57770651700602	1.9729611	1.4046214
33.59601403124398	1.9063462	1.380705
33.61432242848296	1.8569547	1.3627013
33.632631709318154	1.9712033	1.4039955
33.650941874344994	2.1109984	1.4529275
33.66925292415916	2.1016064	1.4496918
33.68756485935654	2.052299	1.4325848
33.70587768053328	2.0468771	1.4306911
33.724191388285746	1.9986883	1.4137497
33.74250598321054	1.9637065	1.4013231
33.760821465904506	1.8848574	1.3729011
33.77913783696474	1.840407	1.356616
33.79745509698852	1.8167435	1.3478663
33.815773246573414	1.779594	1.3340142
33.8340922863172	1.8581263	1.363131
33.852412216817896	2.078118	1.4415679
33.87073303867377	2.1337988	1.4607528
33.889054752483304	1.9887378	1.4102261
33.907377358845245	1.9833366	1.4083098
33.92570085835853	2.0098836	1.4177036
33.94402525162239	1.9611151	1.4003983
33.96235053923627	1.8717519	1.3681198
33.980676721799824	1.9753549	1.4054732
33.999003799912984	1.9156358	1.3840649
34.01733177417592	1.9606898	1.4002464
34.03566064518901	2.051111	1.43217
34.0539904135529	1.9748939	1.4053092
34.07232107986846	1.8812792	1.3715973
34.090652644736785	1.8308128	1.3530753
34.108985108759235	1.9862145	1.4093312
34.12731847253742	1.981321	1.4075941
34.14565273667313	1.882829	1.3721621
34.16398790176847	1.8454227	1.3584634
34.18232396842574	1.8919028	1.3754646
34.20066093724749	1.8551741	1.3620478
34.21899880883651	1.9254968	1.3876227
34.23733758379583	1.9594713	1.3998111
34.25567726272874	1.8470541	1.3590637
34.27401784623872	1.8196161	1.3489314
34.29235933492957	1.8615156	1.3643737
34.31070172940526	1.9344544	1.3908466
34.32904503027003	2.0092232	1.4174707
34.347389238128386	2.1395957	1.4627357
34.36573435358502	2.128764	1.4590284
34.38408037724492	2.1251376	1.4577851
34.402427309713296	2.0776837	1.4414172
34.42077515159559	1.9405478	1.3930354
34.43912390349752	1.9420091	1.3935598
34.45747356602499	1.9501343	1.3964721
34.47582413978423	1.9832637	1.408284
34.49417562538163	1.9956177	1.4126633
34.51252802342388	1.9148415	1.383778
34.53088133451789	1.9935765	1.4119407
34.54923555927084	2.0890183	1.4453437
34.567590698290104	2.0238616	1.422625
34.58594675218336	1.869315	1.367229
34.6043037215585	1.8930376	1.375877
34.62266160702365	1.9201607	1.3856986
34.641020409187234	1.9401267	1.3928843
34.65938012865785	1.985834	1.4091963
34.677740766044394	1.8681619	1.3668072
34.69610232195598	1.835516	1.3548121
34.714464797002016	1.9132664	1.3832088
34.73282819179208	1.9389391	1.392458
34.751192506936064	1.9843262	1.4086611
34.76955774304408	1.8549659	1.3619714
34.7879239007265	1.7586666	1.3261473
34.80629098059391	1.882038	1.3718739
34.824658983257194	1.9950567	1.4124647
34.843027909327446	1.9638209	1.401364
34.86139775941603	1.8274374	1.3518274
34.879768534134534	1.816139	1.3476421
34.89814023409483	1.9735776	1.4048408
34.91651285990901	2.0180109	1.420567
34.93488641218944	2.161856	1.4703251
34.95326089154871	2.121739	1.456619
34.97163629859967	2.0420535	1.4290043
34.99001263395542	2.074733	1.4403933
35.00838989822934	2.1183276	1.4554476
35.02676809203499	1.940034	1.392851
35.04514721598624	1.8486453	1.359649
35.063527270697215	1.9257358	1.3877088
35.081908256782256	2.0254545	1.4231846
35.10029017485597	2.0536413	1.4330531
35.11867302553321	2.0288365	1.4243723
35.137056809429104	2.0250475	1.4230417
35.155441527159006	2.060279	1.4353671
35.173827179338524	1.9800237	1.4071332
35.19221376658354	1.9094098	1.3818139
35.21060128951017	1.872367	1.3683447
35.2289897487348	2.1580117	1.4690173
35.24737914487405	2.255363	1.5017866
35.26576947854479	2.1234171	1.4571949
35.28416075036418	2.1955535	1.48174
35.30255296094958	1.9863161	1.4093673
35.32094611091867	1.6506525	1.2847773
35.33934020088932	1.5113794	1.2293817
35.35773523147969	1.9260126	1.3878086
35.3761312033082	2.3578875	1.5355414
35.394528116993506	2.1807144	1.4767241
35.41292597315452	1.9239289	1.3870577
35.431324772410434	1.9908237	1.4109656
35.449724515380666	2.3011677	1.51696
35.46812520268491	2.130666	1.4596801
35.486526834943106	1.8150051	1.3472213
35.504929412775454	2.0271058	1.4237647
35.52333293680242	2.4462132	1.5640374
35.54173740764471	2.6062994	1.6144037
35.560142825923286	2.286819	1.5122232
35.5785491922594	2.0296628	1.4246624
35.59695650727454	1.4303048	1.1959535
35.61536477159042	1.0391313	1.019378
