0.008763373481513119	0.0	0.0
0.026290120649546365	0.0	0.0
0.043816868432600686	0.075625785	0.27500144
0.06134361724069026	0.331107	0.57541895
0.07887036748382949	0.35585916	0.5965393
0.0963971195720331	0.41690737	0.64568365
0.11392387391531617	0.2611394	0.511018
0.1314506309236943	0.12922023	0.35947216
0.1489773910071836	0.08940771	0.29901123
0.16650415457580078	0.09573503	0.30941078
0.18403092203956356	0.115358226	0.33964425
0.20155769380849	0.09568475	0.3093295
0.2190844702925996	0.119051345	0.34503818
0.2366112519019124	0.12991902	0.36044282
0.2541380390464497	0.16473475	0.4058753
0.27166483213623416	0.21528523	0.4639884
0.28919163158128947	0.20146015	0.44884312
0.3067184377916406	0.1493359	0.38644004
0.324245251177314	0.16001545	0.40001932
0.34177207214833777	0.14729026	0.38378415
0.3592989011147415	0.19226113	0.4384759
0.37682573848655654	0.16977772	0.41204092
0.39435258467381573	0.11292462	0.33604258
0.41187944008655414	0.1258896	0.35480925
0.42940630513480854	0.118863195	0.34476542
0.446933180228618	0.15680097	0.395981
0.4644600657780234	0.21709545	0.46593502
0.48198696219306775	0.23239344	0.48207203
0.49951386988379676	0.23513065	0.48490274
0.5170407892602581	0.20401049	0.4516752
0.5345677207325025	0.1881183	0.43372607
0.5520946647105822	0.1925519	0.43880737
0.5696216216045534	0.18103883	0.42548656
0.5871485918244737	0.15847631	0.39809084
0.6046755757804043	0.15333302	0.3915776
0.6222025738824094	0.1618979	0.4023654
0.6397295865405557	0.18327872	0.42811066
0.6572566141649129	0.1692898	0.41144842
0.6747836571655547	0.16492023	0.4061037
0.6923107159525568	0.21525384	0.46395457
0.7098377909359992	0.20612009	0.4540045
0.7273648825259653	0.2194918	0.4684995
0.7448919911325411	0.2023788	0.4498653
0.762419117165817	0.2299475	0.47952843
0.7799462610358868	0.2360464	0.48584607
0.7974734231528482	0.22397408	0.473259
0.8150006039268024	0.17429273	0.4174838
0.8325278037678551	0.20791952	0.45598194
0.8500550230861152	0.19598295	0.4426996
0.8675822622916969	0.22765295	0.4771299
0.8851095217947171	0.24582614	0.49580857
0.9026368020052984	0.27095163	0.52053016
0.9201641033335665	0.23580581	0.48559842
0.9376914261896523	0.21168281	0.46009
0.9552187709836915	0.17178415	0.41446853
0.9727461381258234	0.21286221	0.46136993
0.990273528026193	0.21183056	0.46025053
1.0078009410949496	0.25712046	0.5070705
1.0253283777422473	0.27619615	0.5255437
1.0428558383782454	0.26576322	0.5155223
1.0603833234131086	0.27602953	0.52538514
1.0779108332570058	0.27784833	0.5271132
1.0954383683201119	0.33272645	0.5768244
1.112965929012607	0.38558096	0.62095165
1.1304935157446763	0.4259936	0.6526818
1.1480211289265108	0.44003385	0.66335046
1.1655487689683062	1.3963325	1.1816652
1.1830764362802655	1.6938922	1.3014961
1.200604131272596	2.03829	1.4276869
1.2181318543555117	2.2053602	1.4850456
1.235659605939232	2.2822347	1.5107067
1.253187386433982	3.8953087	1.9736537
1.270715196249994	6.203176	2.4906175
1.2882430357975057	11.384901	3.374152
1.3057709054867608	15.834578	3.9792686
1.3232988057280106	21.3992	4.625927
1.3408267369315112	26.094866	5.1083136
1.358354699507526	29.739504	5.453394
1.3758826938663256	33.804066	5.8141265
1.3934107204181858	35.985363	5.9987803
1.410938779573391	36.43301	6.0359764
1.4284668717422309	36.904987	6.0749474
1.4459949973350033	36.523293	6.0434504
1.4635231567620117	36.48502	6.040283
1.4810513504335687	35.847878	5.98731
1.4985795787599925	35.343723	5.945059
1.5161078421516088	34.49012	5.872829
1.5336361410187505	33.58999	5.795687
1.5511644757717598	33.228676	5.764432
1.5686928468209842	33.90776	5.823037
1.58622125457678	34.624935	5.8842955
1.6037496994495108	36.362038	6.030094
1.621278181849548	36.141075	6.011745
1.6388067021872719	36.924133	6.0765233
1.6563352608730693	36.247913	6.020624
1.673863858317336	35.279736	5.939675
1.6913924949304753	34.38686	5.864031
1.7089211711228998	33.4689	5.785231
1.7264498873050296	32.838615	5.730499
1.7439786438872935	32.338192	5.686668
1.7615074412801288	31.299387	5.5945854
1.779036279893981	30.619652	5.5335026
1.796565160139305	29.356323	5.4181476
1.814094082426564	28.905518	5.376385
1.8316230471662298	28.202848	5.3106356
1.849152054768784	27.408426	5.235306
1.8666811056447168	26.738148	5.170894
1.8842102002045273	25.951384	5.09425
1.901739338858724	25.474224	5.0471997
1.9192685220178245	25.131218	5.0131044
1.9367977500923557	24.523447	4.9521155
1.9543270234928547	23.999693	4.898948
1.971856342629867	23.030893	4.7990513
1.9893857079139496	22.631588	4.757267
2.006915119755667	21.95018	4.685102
2.0244445785655945	21.371937	4.622979
2.0419740847543175	21.13387	4.597159
2.0595036387324317	20.82876	4.5638537
2.0770332409105414	20.50515	4.528261
2.094562891699263	20.105307	4.4838943
2.1120925915092217	19.61327	4.428687
2.129622340751053	19.239897	4.3863306
2.1471521398354043	187.33237	13.686941
2.1646819891729323	443.69775	21.064135
2.182211889174303	439.88898	20.97353
2.1997418402501974	452.45068	21.270887
2.2172718428113023	432.3776	20.793692
2.234801897268317	320.3844	17.899284
2.2523320040319548	16.912022	4.112423
2.269862163512935	16.655441	4.0811076
2.287392376121992	16.362188	4.04502
2.304922642269869	15.973233	3.9966528
2.322452962367322	15.607957	3.9506907
2.3399833368251164	15.265666	3.9071302
2.357513766054032	15.143933	3.8915207
2.3750442504648586	14.9239645	3.8631546
2.3925747904683963	14.606333	3.8218231
2.410105386475459	14.286591	3.7797606
2.4276360388968707	13.722173	3.7043452
2.445166748143469	13.652213	3.69489
2.4626975146261025	13.358971	3.6549926
2.4802283387556323	13.104321	3.619989
2.4977592209429305	12.837921	3.5830045
2.5152901615988825	12.624456	3.553091
2.5328211611343865	12.401216	3.5215359
2.5503522199603523	12.150131	3.485704
2.5678833384877024	11.917363	3.4521534
2.5854145171273712	11.701019	3.4206753
2.6029457562903064	11.675278	3.4169106
2.620477056387469	11.747063	3.427399
2.6380084178298326	11.644376	3.4123857
2.655539841028383	11.526554	3.395078
2.673071326394119	11.200093	3.346654
2.6906028743380523	10.900426	3.3015792
2.708134485271211	10.837384	3.2920182
2.7256661596046325	10.756995	3.2797859
2.743197897749369	10.654779	3.2641659
2.760729700116486	10.387442	3.2229555
2.778261567117063	10.092422	3.1768572
2.795793499162193	9.820589	3.133782
2.8133254966629817	9.688636	3.1126573
2.830857560030551	9.457641	3.0753276
2.8483896896760337	9.465517	3.076608
2.865921886010578	9.339437	3.056049
2.883454149445347	9.280105	3.0463264
2.9009864803915177	9.170473	3.0282788
2.91851887926028	9.0628805	3.0104618
2.9360513464628384	8.9685335	2.994751
2.953583882410413	8.873146	2.9787827
2.9711164875142373	8.747171	2.9575617
2.9886491621855606	8.614867	2.9351094
3.0061819068356455	8.473318	2.9108965
3.023714721875769	8.201018	2.863742
3.041247607717225	8.014777	2.8310382
3.0587805647713213	7.878722	2.8069062
3.0763135934493806	7.9470773	2.819056
3.0938466941627407	7.992067	2.8270245
3.1113798673227544	7.919009	2.8140733
3.1289131133407904	7.7497945	2.7838452
3.1464464326282315	7.686361	2.7724288
3.1639798255964786	7.6502295	2.765905
3.1815132926569443	7.638446	2.763774
3.1990468342210603	7.595599	2.7560115
3.216580450700272	7.4620924	2.731683
3.2341141425060416	7.4492936	2.7293394
3.251647910049847	7.3963985	2.7196321
3.2691817537431813	7.339708	2.7091894
3.286715673997555	7.1666036	2.6770513
3.3042496712244938	6.9628205	2.6387157
3.32178374583554	6.8730145	2.6216435
3.339317898242251	6.758325	2.5996778
3.3568521288562034	6.582998	2.5657353
3.3743864380889876	6.45586	2.5408385
3.3919208263522127	6.511519	2.5517678
3.4094552940575023	6.5384817	2.5570455
3.4269898416164972	6.4805875	2.5456998
3.444524469440858	6.3362436	2.5171897
3.4620591779422587	6.265255	2.5030491
3.479593967532391	6.326419	2.5152373
3.4971288386229658	6.3078885	2.511551
3.5146637916257086	6.2953143	2.5090466
3.5321988269523628	6.247742	2.4995484
3.5497339450146903	6.175514	2.4850583
3.5672691462244708	6.2100353	2.4919941
3.5848044309934988	6.2360616	2.4972107
3.60233979973359	6.284969	2.506984
3.619875252856575	6.2146072	2.4929113
3.6374107907743034	6.225625	2.4951203
3.6549464138986427	6.1675425	2.4834538
3.6724821226414788	6.204585	2.4909005
3.690017917414714	6.136977	2.4772923
3.7075537986302702	6.2066355	2.491312
3.7250897667000857	6.288684	2.5077248
3.7426258220361235	6.4694304	2.5435076
3.7601619650503553	6.745991	2.5973046
3.777698196154779	7.27588	2.6973839
3.7952345157614067	8.358532	2.8911126
3.8127709242822716	9.220826	3.0365813
3.830307422129425	11.430374	3.3808837
3.847844009714936	30.26292	5.5011744
3.8653806874508954	97.68272	9.883456
3.882917455749409	96.906586	9.844114
3.900454315022606	96.455795	9.821191
3.917991265682631	40.963867	6.400302
3.9355283081416506	10.509626	3.2418554
3.9530654428118495	8.388782	2.8963394
3.970602670105433	7.2026525	2.683776
3.9881399904346244	6.4306307	2.535869
4.005677404211669	6.3756156	2.5249982
4.023214911848827	6.3953915	2.528911
4.0407525137583855	6.443419	2.538389
4.058290210352644	6.444046	2.5385125
4.075828002043927	6.284904	2.5069711
4.0933658892445814	6.205726	2.4911294
4.110903872366966	6.1731944	2.4845915
4.128441951823468	6.109671	2.4717748
4.145980128026488	6.114835	2.472819
4.163518401388452	5.9964285	2.4487605
4.181056772321807	5.950069	2.4392762
4.1985952412390155	5.949957	2.4392533
4.216133808552567	6.05882	2.461467
4.233672474674966	6.194242	2.4888234
4.251211240018741	6.449598	2.5396059
4.268750104996445	6.6363263	2.5761068
4.286289070020643	7.587741	2.7545855
4.303828135503928	9.104288	3.0173314
4.3213673018589125	29.41253	5.423332
4.3389065694982305	90.36707	9.50616
4.356445938834537	165.72586	12.873456
4.3739854102805085	170.96455	13.075341
4.391524984248844	171.82956	13.108377
4.409064661152262	136.00043	11.661922
4.426604441403504	96.46579	9.8217
4.444144325415337	75.83724	8.708458
4.461684313600543	21.765566	4.665358
4.47922440637193	22.00891	4.6913652
4.496764604142329	20.186447	4.492933
4.5143049073245916	18.351826	4.283903
4.531845316331589	16.20236	4.0252156
4.5493858315762195	13.262313	3.6417458
4.566926453471405	10.982487	3.3139834
4.584467182430081	8.9700985	2.9950123
4.602008018865218	7.910127	2.8124948
4.619548963189798	7.232321	2.6892974
4.637090015816834	6.8333917	2.6140757
4.654631177159353	6.478729	2.5453348
4.672172447630417	6.166705	2.4832852
4.689713827643102	6.013508	2.4522455
4.7072553176105085	5.888158	2.4265528
4.724796917945764	5.9004354	2.4290812
4.742338629062015	5.800805	2.4084861
4.759880451372434	5.707124	2.388959
4.777422385290215	5.5143437	2.348264
4.794964431228581	5.4727554	2.3393922
4.812506589600768	5.393262	2.3223398
4.830048860820047	5.423339	2.3288064
4.847591245299709	5.4464483	2.3337626
4.8651337434530655	5.4483333	2.3341665
4.882676355693457	5.472789	2.3393993
4.900219082434242	5.5011187	2.3454463
4.917761924088813	5.5201044	2.3494902
4.935304881070575	5.421782	2.3284721
4.952847953792969	5.3368793	2.3101687
4.970391142669449	5.2672825	2.295056
4.9879344481135055	5.2798276	2.2977874
5.005477870538642	5.3207903	2.3066838
5.023021410358394	5.3161216	2.3056717
5.040565067986324	5.3132224	2.3050427
5.05810884383601	5.278534	2.297506
5.075652738321066	5.3624897	2.315705
5.09319675185512	5.3407793	2.3110125
5.110740884851836	5.337585	2.3103213
5.128285137724894	5.235367	2.2880924
5.145829510888007	5.158619	2.2712593
5.163374004754908	5.208951	2.2823126
5.1809186197393595	5.2529764	2.2919374
5.198463356255145	5.261202	2.293731
5.216008214716077	5.2761526	2.2969878
5.233553195535998	5.302402	2.3026946
5.251098299128764	5.348305	2.3126404
5.268643525908272	5.2947125	2.3010242
5.286188876288432	5.24647	2.2905173
5.3037343506831895	5.2129917	2.2831976
5.32127994950651	5.1794677	2.2758443
5.3388256731723915	5.097474	2.2577586
5.356371522094851	5.0486774	2.2469263
5.373917496687938	5.032768	2.2433832
5.391463597365729	5.0995297	2.2582138
5.40900982454232	5.13285	2.2655795
5.426556178631843	5.1544924	2.2703507
5.444102660048449	5.1126213	2.2611105
5.4616492692063225	5.0772243	2.2532697
5.479196006519669	5.067729	2.2511618
5.496742872402727	5.078579	2.2535703
5.514289867269756	5.075697	2.2529306
5.531836991535049	5.03099	2.242987
5.549384245612924	4.9883914	2.2334707
5.566931629917724	4.9332	2.2210808
5.584479144863822	4.927617	2.2198236
5.6020267908656205	4.9417458	2.2230039
5.619574568337545	4.97998	2.231587
5.637122477694054	5.0757318	2.2529385
5.654670519349629	5.078262	2.2535
5.672218693718784	5.0188217	2.2402728
5.689767001216059	4.960538	2.2272265
5.707315442256021	4.9370613	2.2219498
5.724864017253266	5.03454	2.243778
5.7424127266224225	5.0358634	2.244073
5.75996157077814	5.0357003	2.2440367
5.777510550135105	5.0533543	2.2479668
5.795059665108022	5.064083	2.2503517
5.812608916111639	5.1120305	2.26098
5.830158303560715	5.2229295	2.285373
5.847707827870055	5.247555	2.290754
5.86525748945448	5.3102727	2.3044028
5.8828072887288485	5.3876595	2.3211331
5.900357226108044	5.423278	2.3287933
5.917907302006979	5.4842234	2.341842
5.9354575168406	6.072861	2.4643176
5.9530078710238765	6.7102633	2.5904176
5.970558364971812	7.2433095	2.6913397
5.988108999099438	7.569847	2.7513356
6.005659773821818	7.9977674	2.8280325
6.023210689554039	7.6954045	2.7740593
6.040761746711227	8.133098	2.8518586
6.058312945708531	7.5065722	2.7398124
6.075864286961132	7.1323037	2.6706374
6.093415770884244	6.520207	2.5534697
6.1109673978931065	5.9817142	2.4457543
6.128519168402993	5.4493685	2.3343883
6.146071082829204	5.310613	2.3044767
6.163623141587075	5.2259083	2.2860246
6.181175345091969	5.142176	2.2676368
6.198727693759281	5.1185565	2.2624228
6.216280188004435	5.018667	2.2402382
6.233832828242885	5.0083513	2.2379346
6.251385614890126	5.0815372	2.2542264
6.268938548361669	5.0834727	2.2546558
6.286491629073067	5.0540357	2.2481182
6.304044857439898	4.998252	2.235677
6.321598233877777	4.920912	2.2183127
6.339151758802344	4.948301	2.2244778
6.356705432629277	4.927359	2.2197657
6.37425925577428	4.836798	2.1992722
6.391813228653095	4.8133807	2.1939418
6.409367351681486	4.8248625	2.196557
6.426921625275259	4.902298	2.2141135
6.44447604985025	4.9478393	2.2243738
6.46203062582232	4.9420767	2.2230783
6.47958535360737	4.93972	2.222548
6.497140233621328	4.9106274	2.2159936
6.514695266280161	4.896074	2.2127073
6.532250451999859	4.8224964	2.1960182
6.549805791196454	4.8575697	2.2039895
6.567361284286002	4.881667	2.2094495
6.584916931684597	4.9064074	2.2150412
6.602472733808367	4.875625	2.2080817
6.6200286910734665	4.896999	2.2129164
6.637584803896092	4.9216523	2.2184796
6.655141072692462	4.962411	2.227647
6.672697497878842	4.8816814	2.2094526
6.690254079871514	4.850035	2.2022796
6.707810819086808	4.833083	2.1984274
6.725367715941078	4.8325667	2.19831
6.742924770850719	4.871487	2.2071445
6.760481984232151	4.862534	2.2051153
6.778039356501836	4.9052563	2.2147813
6.795596888076266	4.8805046	2.2091863
6.813154579371963	4.8932796	2.212076
6.830712430805492	4.838083	2.1995642
6.84827044279344	4.851191	2.202542
6.865828615752445	4.8141704	2.1941218
6.883386950099159	4.8227935	2.196086
6.900945446250287	4.7865577	2.1878202
6.918504104622553	4.845068	2.2011516
6.936062925632727	4.9241056	2.2190325
6.953621909697607	4.940601	2.2227461
6.971181057234028	4.9479074	2.2243893
6.988740368658859	4.91645	2.2173069
7.006299844389007	5.0233173	2.2412758
7.023859484841407	5.101715	2.2586977
7.041419290433036	5.211594	2.2828915
7.058979261580902	5.3316483	2.3090363
7.0765393987020495	5.5157866	2.3485713
7.094099702213559	5.877982	2.424455
7.111660172532549	6.1354585	2.4769857
7.129220810076164	6.4763136	2.5448601
7.146781615261595	6.9875875	2.6434045
7.16434258850606	7.2990913	2.701683
7.181903730226821	7.7103667	2.7767546
7.1994650408411704	7.8937154	2.8095756
7.217026520766437	8.072815	2.84127
7.234588170419983	8.30016	2.8809998
7.252149990219215	8.302432	2.8813941
7.269711980581568	8.143236	2.8536355
7.2872741419245175	7.911875	2.8128054
7.304836474665574	7.4951453	2.7377262
7.322398979222286	7.2638083	2.6951454
7.339961656012233	7.0413413	2.6535525
7.357524505453039	6.725243	2.5933073
7.375087527962357	6.439251	2.5375679
7.392650723957886	6.0865064	2.4670846
7.410214093857353	5.7809014	2.4043505
7.427777638078528	5.6055856	2.367612
7.445341357039213	5.4892435	2.3429134
7.4629052511572525	5.3825316	2.3200283
7.480469320850524	5.28166	2.2981863
7.498033566536948	5.211912	2.2829614
7.5155979886344735	5.0479436	2.246763
7.5331625875610975	5.002943	2.236726
7.550727363734844	4.9951324	2.2349794
7.568292317573788	5.0252614	2.2417095
7.585857449496025	5.0763187	2.2530687
7.603422759919705	5.069125	2.2514718
7.620988249263007	5.0904284	2.2561977
7.638553917944147	5.0666847	2.2509298
7.656119766381391	5.0329266	2.2434185
7.673685794993023	5.0365343	2.2442224
7.691252004197388	5.056142	2.2485867
7.70881839441285	5.0824785	2.2544353
7.726384966057826	5.0764055	2.253088
7.743951719550762	5.073186	2.2523735
7.761518655310149	5.106669	2.259794
7.779085773754511	5.076296	2.2530637
7.796653075302419	5.0989923	2.2580948
7.814220560372475	5.137949	2.2667043
7.831788229383323	5.1475964	2.2688315
7.8493560827536495	5.2081656	2.2821405
7.866924120902174	5.181363	2.2762609
7.884492344247663	5.191922	2.278579
7.9020607532089135	5.178975	2.275736
7.919629348204771	5.1886053	2.277851
7.937198129654115	5.238916	2.2888677
7.954767097975865	5.265291	2.2946222
7.972336253588986	5.3074484	2.30379
7.989905596912472	5.2795415	2.2977252
8.007475128365371	5.268847	2.2953968
8.025044848366756	5.313893	2.3051882
8.042614757335754	5.4473047	2.3339462
8.060184855691523	5.5339894	2.3524432
8.07775514385327	5.6900043	2.385373
8.095325622240228	5.7323227	2.394227
8.112896291271687	5.7305613	2.3938591
8.130467151366968	5.770586	2.4022045
8.148038202945436	5.8215837	2.4127958
8.165609446426497	5.8315105	2.4148521
8.183180882229594	5.8299	2.4145186
8.200752510774217	5.7641373	2.4008617
8.218324332479893	5.7696877	2.4020174
8.235896347766193	5.8306284	2.4146695
8.253468557052724	5.8189387	2.4122477
8.27104096075914	5.8855267	2.4260104
8.288613559305137	5.9208093	2.4332714
8.306186353110448	5.9622273	2.4417672
8.32375934259485	6.0060196	2.4507182
8.341332528178162	6.008679	2.4512606
8.358905910280246	6.083101	2.4663942
8.376479489321003	6.094107	2.4686246
8.394053265720377	6.1790857	2.4857767
8.411627239898356	6.125308	2.474936
8.42920141227497	6.104518	2.4707322
8.44677578327029	6.0691876	2.463572
8.464350353304427	6.0363965	2.456908
8.48192512279754	6.0509377	2.4598653
8.499500092169827	6.0617537	2.4620628
8.51707526184153	6.0379887	2.457232
8.534650632232934	6.0137277	2.4522903
8.552226203764365	5.983799	2.4461806
8.569801976856192	6.062846	2.4622848
8.587377951928834	6.116545	2.473165
8.60495412940274	6.1808996	2.4861414
8.622530509698416	6.243128	2.4986253
8.6401070932364	6.3124237	2.5124538
8.657683880437283	6.37272	2.5244246
8.675260871721695	6.5371714	2.5567892
8.692838067510303	6.7249885	2.5932584
8.710415468223834	6.8479805	2.6168647
8.727993074283043	6.9788966	2.64176
8.745570886108737	6.9637713	2.6388958
8.763148904121765	7.0062914	2.64694
8.78072712874302	7.032514	2.6518888
8.798305560393441	7.192742	2.6819289
8.815884199494006	7.295337	2.7009883
8.833463046465745	7.407528	2.7216773
8.851042101729728	7.639366	2.7639403
8.86862136570707	7.9763966	2.8242514
8.886200838818924	8.213113	2.8658528
8.903780521486505	8.2562	2.8733604
8.921360414131055	8.357007	2.8908489
8.938940517173874	8.531648	2.9208984
8.956520831036297	8.65241	2.9414978
8.97410135613971	8.858583	2.9763372
8.99168209290554	8.95817	2.9930203
9.009263041755265	9.267289	3.0442224
9.026844203110405	9.531565	3.0873232
9.044425577392525	9.7451315	3.1217194
9.062007165023239	9.817542	3.1332958
9.079588966424197	10.080383	3.174962
9.097170982017108	10.097472	3.177652
9.11475321222372	11.086553	3.3296475
9.132335657465825	11.958934	3.4581692
9.149918318165264	12.141263	3.4844315
9.167501194743924	12.784914	3.5756
9.18508428762374	12.516896	3.5379226
9.202667597226693	12.446134	3.5279078
9.220251123974803	11.99253	3.4630232
9.237834868290143	11.728309	3.4246619
9.255418830594836	11.591486	3.404627
9.273003011311046	11.081413	3.3288758
9.290587410860985	10.792484	3.2851918
9.308172029666911	10.101038	3.1782131
9.32575686815113	9.803952	3.1311264
9.343341926735997	8.561548	2.9260123
9.360927205843916	8.3441105	2.8886175
9.378512705897327	8.15903	2.8564017
9.396098427318728	8.005871	2.8294647
9.413684370530664	7.9206085	2.8143575
9.431270535955722	7.8255315	2.7974153
9.448856924016539	7.760805	2.7858222
9.466443535135806	7.660891	2.7678316
9.484030369736251	7.6945634	2.7739077
9.501617428240658	7.646	2.76514
9.519204711071852	7.658246	2.7673535
9.536792218652714	7.66731	2.7689908
9.55437995140617	7.7111783	2.7769008
9.571967909755191	7.7301826	2.7803206
9.589556094122802	7.689257	2.772951
9.60714450493207	7.7180276	2.7781339
9.624733142606116	7.787811	2.790665
9.642322007568108	7.8184366	2.7961466
9.659911100241267	7.83685	2.7994375
9.677500421048851	7.8656583	2.804578
9.695089970414175	7.885162	2.808053
9.712679748760609	7.851019	2.801967
9.730269756511557	7.8577166	2.8031619
9.747859994090492	7.902407	2.811122
9.765450461920915	7.949618	2.8195066
9.78304116042639	8.0479145	2.8368847
9.800632090030527	8.005109	2.8293302
9.81822325115699	7.994418	2.8274403
9.835814644229481	7.8976326	2.8102727
9.853406269671762	7.9775677	2.8244588
9.870998127907646	8.102163	2.8464298
9.888590219360985	8.202171	2.8639433
9.906182544455698	8.212924	2.86582
9.923775103615734	8.171155	2.8585231
9.941367897265108	8.202582	2.864015
9.958960925827878	8.278118	2.877172
9.97655418972816	8.256197	2.87336
9.994147689390106	8.226033	2.8681061
10.011741425237934	8.132985	2.8518388
10.029335397695904	8.088347	2.844002
10.04692960718833	8.114678	2.8486276
10.06452405413958	8.116763	2.8489933
10.082118738974064	8.146523	2.8542116
10.099713662116246	8.109272	2.8476784
10.117308823990651	8.127166	2.8508184
10.134904225021844	8.109358	2.8476934
10.152499865634445	8.027973	2.8333678
10.170095746253125	7.9157295	2.8134906
10.18769186730261	7.875998	2.8064208
10.205288229207675	7.9523273	2.819987
10.222884832393145	7.979029	2.8247175
10.2404816772839	7.969038	2.8229485
10.258078764304868	7.9615493	2.8216217
10.275676093881035	7.984109	2.8256166
10.293273666437438	8.050673	2.8373706
10.310871482399158	8.032777	2.8342154
10.32846954219134	7.984458	2.8256783
10.346067846239173	7.97265	2.8235881
10.363666394967908	7.9630346	2.8218849
10.38126518880283	7.978587	2.8246393
10.398864228169298	8.002432	2.828857
10.416463513492713	7.9701695	2.823149
10.434063045198531	7.9666076	2.8225179
10.451662823712262	7.93008	2.8160398
10.469262849459467	7.963708	2.8220043
10.486863122865758	7.97937	2.8247778
10.504463644356806	8.03681	2.8349268
10.522064414358338	7.999468	2.8283331
10.539665433296118	7.872713	2.8058355
10.557266701595987	7.748744	2.7836566
10.574868219683818	7.662415	2.7681067
10.592469987985552	7.5763006	2.7525082
10.610072006927185	7.4362993	2.7269578
10.627674276934751	7.3495245	2.7110007
10.64527679843435	7.2954035	2.7010005
10.662879571852143	7.198971	2.6830897
10.680482597614331	7.0443864	2.6541264
10.698085876147173	6.7992177	2.607531
10.715689407876988	6.7476025	2.5976148
10.733293193230146	6.716288	2.5915802
10.750897232633072	6.6930985	2.5871024
10.76850152651225	6.6580033	2.5803108
10.786106075294207	6.538631	2.5570748
10.803710879405534	6.434921	2.5367146
10.821315939272877	6.2742085	2.504837
10.83892125532294	6.2047153	2.4909265
10.856526827982472	6.177439	2.4854455
10.874132657678285	6.227388	2.4954734
10.891738744837243	6.187047	2.4873776
10.909345089886271	6.067889	2.4633086
10.926951693252343	5.931991	2.4355679
10.944558555362494	5.8505135	2.4187834
10.96216567664381	5.853498	2.4194005
10.979773057523436	5.790108	2.4062643
10.997380698428573	5.767658	2.4015949
11.014988599786477	5.691602	2.3857079
11.032596762024461	5.6474166	2.3764293
11.050205185569892	5.5836005	2.3629644
11.067813870850198	5.536806	2.353042
11.085422818292859	5.481391	2.341237
11.10303202832541	5.3831506	2.3201618
11.120641501375454	5.287805	2.2995229
11.138251237870636	5.2154627	2.2837389
11.155861238238671	5.122848	2.263371
11.173471502907317	5.102488	2.2588687
11.191082032304402	5.052453	2.2477663
11.208692826857805	5.0371385	2.244357
11.226303886995465	4.97408	2.2302647
11.243915213145371	4.9257793	2.2194097
11.261526805735578	4.8842216	2.2100275
11.279138665194196	4.814117	2.1941097
11.296750791949393	4.7639093	2.1826382
11.314363186429393	4.7244916	2.1735895
11.331975849062479	4.677497	2.1627522
11.34958878027699	4.6299243	2.1517258
11.36720198050133	4.5559998	2.1344788
11.384815450163948	4.5082507	2.123264
11.402429189693366	4.4482512	2.1090877
11.420043199518153	4.4111423	2.100272
11.437657480066942	63.371887	7.960646
11.455272031768422	85.10813	9.225407
11.472886855051353	107.504135	10.36842
11.490501950344528	99.09425	9.95461
11.508117318076819	84.40189	9.18705
11.52573295867715	45.75884	6.764528
11.543348872574514	4.0322723	2.0080519
11.560965060197946	3.9686456	1.992146
11.57858152197655	3.9296622	1.9823376
11.59619825833949	3.8993347	1.9746733
11.613815269715985	3.8655748	1.9661065
11.631432556535323	38.411907	6.197734
11.649050119226837	82.94034	9.107159
11.666667958219929	93.367676	9.662695
11.68428607394406	107.59135	10.372624
11.701904466828756	82.39933	9.077408
11.719523137303586	65.23653	8.076913
11.737142085798196	4.530169	2.1284194
11.754761312742286	3.6545608	1.9116906
11.772380818565619	3.622585	1.903309
11.790000603698015	3.5703797	1.8895448
11.80762066856935	3.5286994	1.8784833
11.825241013609572	3.4978957	1.8702662
11.842861639248683	3.4529335	1.8582071
11.860482545916748	3.4234903	1.8502676
11.878103734043883	3.4043105	1.8450774
11.895725204060282	3.3594553	1.8328817
11.91334695639619	3.3551176	1.831698
11.930968991481919	3.3111966	1.8196694
11.948591309747824	3.3189242	1.8217915
11.966213911624347	3.303395	1.8175244
11.98383679754198	3.3231306	1.8229456
12.001459967931268	3.292318	1.8144746
12.019083423222835	3.2808886	1.8113223
12.036707163847352	3.2507167	1.8029743
12.05433119023556	3.197272	1.7880918
12.071955502818259	3.108416	1.7630701
12.089580102026313	3.086799	1.7569288
12.107204988290643	3.0398853	1.7435267
12.12483016204224	3.0286918	1.7403136
12.142455623712152	3.0030944	1.7329439
12.16008137373149	3.0223737	1.7384975
12.177707412531431	3.0701656	1.7521888
12.19533374054321	3.090657	1.7580265
12.212960358198126	3.0733883	1.7531081
12.230587265927545	2.997136	1.7312238
12.248214464162889	2.9593146	1.7202659
12.265841953335649	2.9128418	1.706705
12.283469733877375	2.9512496	1.7179202
12.301097806219685	2.9393847	1.7144634
12.31872617079425	2.9434285	1.7156423
12.336354828032825	2.8827941	1.6978793
12.353983778367205	2.876686	1.6960796
12.371613022229262	2.8522215	1.6888521
12.389242560050928	2.8434596	1.686256
12.406872392264201	2.8112845	1.6766886
12.424502519301143	2.8075676	1.6755798
12.442132941593874	2.8163686	1.6782039
12.459763659574586	2.795816	1.6720693
12.477394673675532	2.7964208	1.6722503
12.49502598432903	2.792396	1.6710464
12.51265759196746	2.7903657	1.6704388
12.530289497023267	2.771577	1.6648054
12.547921699928967	2.7131777	1.6471727
12.565554201117134	2.7213378	1.6496478
12.583187001020404	2.782726	1.6681505
12.600820100071486	2.8254433	1.6809055
12.618453498703152	2.814135	1.6775384
12.636087197348235	2.7825508	1.668098
12.65372119643964	2.7660651	1.6631491
12.671355496410326	2.7470148	1.657412
12.68899009769333	2.7676919	1.6636381
12.706625000721749	2.8087738	1.6759397
12.724260205928752	2.884649	1.6984254
12.741895713747551	2.888722	1.6996241
12.759531524611454	2.9191582	1.7085544
12.777167638953818	2.8850615	1.6985469
12.794804057208072	2.9321504	1.7123523
12.812440779807702	2.960614	1.7206435
12.830077807186271	3.1070175	1.7626734
12.847715139777405	3.1555002	1.7763728
12.865352778014795	3.408576	1.8462329
12.882990722332197	3.5841918	1.8931962
12.90062897316344	3.6546457	1.9117128
12.918267530942412	3.683838	1.9193326
12.935906396103071	3.5275385	1.8781743
12.953545569079449	3.668545	1.9153446
12.971185050305628	3.5393293	1.8813106
12.988824840215775	3.5844226	1.8932571
13.006464939244115	3.5936675	1.8956971
13.024105347824943	3.4006977	1.8440981
13.041746066392617	3.444728	1.8559978
13.05938709538157	3.242892	1.8008032
13.077028435226296	3.2123752	1.79231
13.094670086361363	3.1410115	1.7722899
13.112312049221401	3.0577092	1.7486306
13.129954324241112	2.9863062	1.7280933
13.147596911855258	2.805323	1.6749098
13.165239812498685	2.7835152	1.668387
13.182883026606293	2.7366629	1.6542863
13.200526554613058	2.682338	1.6377845
13.218170396954017	2.6371284	1.6239238
13.235814554064284	2.6178367	1.617973
13.253459026379034	2.612117	1.6162045
13.271103814333523	2.6040611	1.6137104
13.288748918363058	2.581581	1.60673
13.306394338903031	2.5877514	1.6086489
13.32404007638889	2.57546	1.604824
13.341686131256164	2.599542	1.6123095
13.359332503940449	2.5986092	1.6120203
13.376979194877402	2.5969572	1.6115078
13.394626204502751	2.6388142	1.6244427
13.412273533252307	2.6370356	1.6238952
13.429921181561937	2.6486657	1.6274722
13.447569149867581	2.662053	1.63158
13.465217438605247	2.6524858	1.6286454
13.482866048211022	2.657065	1.6300505
13.500514979121052	2.6727612	1.6348581
13.518164231771568	2.6698544	1.633969
13.535813806598844	2.6501877	1.6279397
13.553463704039254	2.5988455	1.6120936
13.571113924529229	2.5926218	1.610162
13.588764468505275	2.636229	1.6236469
13.606415336403956	2.7306573	1.6524701
13.624066528661917	2.7430873	1.6562269
13.641718045715882	2.7738223	1.6654797
13.659369888002635	2.7921035	1.6709589
13.67702205595903	2.8777254	1.696386
13.694674550021993	2.9740784	1.7245517
13.712327370628532	3.0427585	1.7443504
13.729980518215713	3.102493	1.7613895
13.747633993220681	3.131995	1.7697443
13.765287796080647	3.1242537	1.7675558
13.7829419272329	3.1339025	1.7702832
13.800596387114801	3.1667538	1.7795376
13.818251176163775	3.2313228	1.797588
13.835906294817324	3.3137348	1.8203666
13.853561743513023	3.3398182	1.8275169
13.871217522688525	3.3887115	1.8408453
13.888873632781538	3.4336116	1.8530008
13.906530074229858	3.4752991	1.8642154
13.92418684747135	3.4605446	1.8602539
13.941843952943948	3.445532	1.8562144
13.959501391085665	3.4312747	1.85237
13.977159162334578	3.3587651	1.8326935
13.994817267128846	3.3136342	1.820339
14.012475705906693	3.2792609	1.8108729
14.030134479106424	3.2219625	1.7949826
14.047793587166414	3.1084106	1.7630686
14.065453030525108	3.0059829	1.733777
14.083112809621026	2.9730835	1.7242632
14.100772924892766	2.92714	1.7108886
14.118433376778997	2.897867	1.7023122
14.136094165718458	2.8401423	1.6852722
14.153755292149969	2.7276747	1.6515673
14.171416756512416	2.636499	1.62373
14.189078559244768	2.548203	1.5963092
14.20674070078606	2.5245821	1.5888934
14.224403181575408	2.549662	1.5967661
14.242066002051999	2.548693	1.5964626
14.259729162655093	2.5073898	1.5834739
14.277392663824022	2.4756482	1.5734192
14.295056505998208	2.4307392	1.5590827
14.312720689617128	2.3981216	1.548587
14.330385215120348	2.3715084	1.5399703
14.348050082947497	2.348478	1.5324745
14.3657152935383	2.3474803	1.532149
14.383380847332528	2.3348544	1.528023
14.401046744770051	2.3395214	1.5295494
14.418712986290798	2.3631318	1.5372481
14.436379572334793	2.3930113	1.5469362
14.454046503342123	2.381826	1.5433165
14.471713779752946	2.3858707	1.5446264
14.489381402007504	2.3462994	1.5317636
14.507049370546113	2.31422	1.5212561
14.524717685809168	2.2898	1.5132085
14.542386348237134	2.3211434	1.5235299
14.560055358270553	2.354364	1.5343937
14.577724716350051	2.4318483	1.5594385
14.595394422916325	2.4129553	1.553369
14.61306447841015	2.416055	1.5543665
14.63073488327237	2.404539	1.5506576
14.648405637943917	2.437081	1.5611154
14.6660767428658	2.4551725	1.5668991
14.683748198479094	2.4885728	1.5775211
14.701420005224954	2.487613	1.5772169
14.719092163544628	2.5676847	1.6023997
14.73676467387942	2.6196184	1.6185235
14.754437536670727	2.6603098	1.6310456
14.772110752360014	2.6418045	1.6253629
14.78978432138882	2.658774	1.6305747
14.807458244198777	2.6930568	1.6410536
14.82513252123159	2.6934254	1.6411659
14.842807152929028	2.6612904	1.6313462
14.860482139732962	2.6466508	1.626853
14.87815748208531	2.650115	1.6279174
14.8958331804281	2.6642258	1.6322457
14.91350923520342	2.626777	1.6207335
14.931185646853438	2.6533895	1.6289228
14.948862415820408	2.6199367	1.6186218
14.966539542546656	2.6275222	1.6209633
14.98421702747459	2.5708976	1.6034019
15.001894871046696	2.5785568	1.6057885
15.019573073705542	2.598329	1.6119334
15.037251635893766	2.5896256	1.6092314
15.054930558054092	2.6413898	1.6252353
15.072609840629323	2.707128	1.6453352
15.090289484062351	2.8300438	1.6822734
15.107969488796124	2.9131334	1.7067903
15.125649855273691	3.0338752	1.7418023
15.14333058393817	3.3280163	1.8242851
15.161011675232768	3.9172804	1.979212
15.17869312960076	4.5528054	2.1337304
15.196374947485506	5.276313	2.2970226
15.214057129330447	6.587729	2.566657
15.231739675579114	8.745381	2.9572592
15.249422586675102	13.364998	3.655817
15.267105863062092	17.902924	4.2311845
15.284789505183847	25.25587	5.0255218
15.302473513484218	30.51282	5.523841
15.320157888407127	34.747623	5.8947115
15.337842630396578	33.50618	5.788452
15.355527739896656	30.452366	5.5183663
15.37321321735153	23.782433	4.876724
15.39089906320545	16.11384	4.014205
15.408585277902748	10.258408	3.202875
15.42627186188783	6.318162	2.5135953
15.443958815605198	4.486429	2.1181192
15.461646139499424	3.655487	1.9119328
15.479333834015168	3.229093	1.7969677
15.497021899597165	2.9587407	1.7200991
15.514710336690234	2.7907195	1.6705446
15.53239914573928	2.6995802	1.64304
15.550088327189297	2.6013513	1.6128705
15.567777881485336	2.55799	1.5993718
15.58546780907256	2.5143871	1.5856819
15.6031581103962	2.5022035	1.5818355
15.620848785901568	2.476511	1.5736934
15.638539836034063	2.4328127	1.5597477
15.656231261239173	2.40969	1.5523176
15.673923061962451	2.3894467	1.5457835
15.691615238649552	2.3833697	1.5438166
15.709307791746202	2.3513703	1.5334178
15.727000721698221	2.3689353	1.5391346
15.744694028951498	2.369419	1.5392917
15.76238771395202	2.343041	1.5306995
15.780081777145844	2.3241959	1.5245314
15.797776218979125	2.3126574	1.5207424
15.815471039898094	2.3633347	1.537314
15.833166240349064	2.3764932	1.5415878
15.850861820778437	2.374568	1.5409633
15.868557781632699	2.378173	1.5421326
15.886254123358412	2.4315064	1.5593288
15.903950846402232	2.5119054	1.5848992
15.921647951210897	2.55266	1.5977046
15.939345438231225	2.5260742	1.5893629
15.957043307910133	2.5187924	1.5870703
15.974741560694602	2.5213187	1.5878661
15.992440197031714	2.5450552	1.5953228
16.01013921736862	2.5249696	1.5890152
16.02783862215259	2.5098825	1.5842608
16.045538411830933	2.4554844	1.5669985
16.06323858685107	2.427012	1.5578871
16.080939147660512	2.3812711	1.5431368
16.09864009470684	2.4050975	1.5508376
16.11634142843774	2.4367726	1.5610166
16.134043149300954	2.4401312	1.562092
16.15174525774433	2.4065807	1.5513158
16.169447754215817	2.3920925	1.5466391
16.18715063916342	2.3891454	1.545686
16.204853913035244	2.407841	1.5517219
16.222557576279478	2.408506	1.5519361
16.240261629344403	22.38347	4.7311172
16.257966072678386	42.931225	6.552192
16.275670906729868	38.060436	6.169314
16.293376131947387	2.4267745	1.5578108
16.31108174877957	2.449062	1.564948
16.328787757675133	2.4912426	1.5783671
16.34649415908287	2.5302784	1.5906849
16.364200953451657	2.5707073	1.6033425
16.38190814123048	2.5535274	1.597976
16.39961572286839	2.5656154	1.6017538
16.41732369881455	2.6161013	1.6174366
16.43503206951817	2.692666	1.6409345
16.45274083542859	2.7968578	1.6723809
16.47044999699522	2.8500106	1.6881975
16.488159554667558	2.854075	1.6894008
16.505869508895184	2.875413	1.6957042
16.523579860127786	2.9372375	1.713837
16.541290608815117	3.0337641	1.7417704
16.559001755407035	3.0638494	1.7503855
16.57671330035348	3.1400216	1.7720106
16.59442524410448	3.194234	1.7872419
16.61213758711015	3.3946292	1.8424519
16.629850329820705	3.4432158	1.8555905
16.647563472686436	3.532855	1.8795891
16.665277016157724	3.4998338	1.8707843
16.682990960685053	3.5208898	1.8764035
16.70070530671898	3.4575188	1.8594404
16.718420054710155	3.4916353	1.8685918
16.736135205109335	3.5410292	1.8817623
16.753850758367335	3.6214733	1.9030169
16.771566714935087	3.636754	1.9070275
16.789283075263597	3.648444	1.9100901
16.80699983980398	3.6835754	1.9192643
16.82471700900741	3.7621863	1.9396356
16.84243458332518	3.8159623	1.9534488
16.860152563208665	3.860177	1.9647334
16.87787094910932	3.9349358	1.9836673
16.89558974147871	4.073244	2.018228
16.913308940768466	4.146845	2.0363803
16.931028547430333	4.1733127	2.0428689
16.94874856191613	4.1934004	2.0477793
16.966468984677785	4.2852287	2.0700793
16.98418981616729	4.3769145	2.0921078
17.00191105683676	4.4341025	2.1057308
17.019632707138374	4.443398	2.1079369
17.03735476752442	4.460466	2.1119816
17.05507723844728	4.466642	2.1134431
17.072800120359403	4.4956775	2.1203012
17.090523413713353	4.572328	2.1383002
17.108247118961785	4.6193066	2.1492572
17.125971236557437	4.6567893	2.1579595
17.143695766953133	4.666726	2.1602607
17.161420710601806	4.7078013	2.1697469
17.179146067956477	4.6826305	2.1639388
17.19687183947025	4.6647434	2.1598017
17.21459802559634	4.5918756	2.1428661
17.232324626788028	4.544625	2.1318126
17.25005164349871	4.540672	2.1308851
17.267779076181863	4.534864	2.129522
17.285506925291074	4.5139275	2.1246006
17.30323519127999	4.519183	2.125837
17.320963874602384	4.5260115	2.1274424
17.33869297571211	4.55693	2.1346967
17.356422495063114	4.556325	2.1345549
17.37415243310944	4.510998	2.123911
17.391882790305218	4.499059	2.1210985
17.40961356710468	4.533283	2.1291509
17.42734476396215	4.5471377	2.132402
17.445076381332044	4.5637527	2.1362941
17.462808419668868	4.5907416	2.1426015
17.48054087942723	4.671607	2.16139
17.498273761061835	4.7869263	2.1879046
17.51600706502747	5.1227303	2.263345
17.533740791779024	5.708761	2.3893013
17.551474941771485	6.5665655	2.562531
17.56920951545993	8.4470215	2.9063761
17.586944513299528	9.72539	3.1185558
17.60467993574556	12.676315	3.5603814
17.622415783253373	15.377539	3.9214206
17.64015205627843	18.247587	4.2717195
17.657888755276293	20.780764	4.5585923
17.675625880702604	22.305801	4.722902
17.69336343301311	20.837656	4.564828
17.71110141266366	18.69663	4.32396
17.728839820110178	16.047472	4.0059295
17.746578655808705	12.881622	3.5890977
17.764317920215372	10.667783	3.2661572
17.7820576137864	8.88399	2.9806023
17.79979773697811	7.418495	2.7236915
17.81753829024692	6.00867	2.451259
17.835279274049356	5.199826	2.2803125
17.85302068884201	4.4573574	2.1112454
17.870762535081607	4.0283127	2.0070658
17.888504813224934	3.7842972	1.945327
17.90624752372891	3.6324904	1.9059093
17.923990667050536	3.5601058	1.8868243
17.941734243646895	3.4676461	1.8621616
17.959478253975185	3.4192376	1.8491181
17.9772226984927	3.372506	1.8364384
17.994967577656833	3.377178	1.83771
18.01271289192506	3.3871336	1.8404167
18.030458641754965	3.360285	1.8331081
18.04820482760425	3.3408551	1.8278006
18.06595144993067	3.301549	1.8170165
18.083698509192125	3.2961102	1.8155192
18.101446005846576	3.2603614	1.8056471
18.119193940352105	3.1761432	1.7821738
18.136942313166887	3.143598	1.7730194
18.1546911247492	3.1621513	1.7782439
18.1724403755574	3.1626482	1.7783836
18.19019006604997	3.1405983	1.7721733
18.207940196685467	3.1295898	1.7690647
18.225690767922575	3.118326	1.7658782
18.243441780220046	3.0866616	1.7568897
18.261193234036764	3.0478544	1.7458105
18.278945129831676	3.0286822	1.7403109
18.29669746806386	2.9861512	1.7280484
18.314450249192483	2.9438484	1.7157646
18.3322034736768	2.9076328	1.7051783
18.349957141976184	2.9456308	1.716284
18.3677112545501	2.981323	1.7266508
18.385465811858108	2.9899104	1.7291358
18.403220814359884	3.0058846	1.7337487
18.420976262515172	3.055201	1.7479134
18.43873215678387	3.091594	1.7582929
18.456488497625923	3.11656	1.7653781
18.474245285501407	3.1342828	1.7703906
18.492002520870486	3.1978576	1.7882555
18.50976020419343	3.267944	1.8077456
18.527518335930615	3.522273	1.8767719
18.545276916542516	4.073104	2.0181932
18.563035946489688	4.2682867	2.0659833
18.580795426232832	4.766852	2.1833122
18.598555356232698	4.6816363	2.163709
18.616315736950185	4.9320154	2.2208142
18.63407656884626	4.582888	2.140768
18.65183785238201	4.752736	2.180077
18.669599588018617	4.5563884	2.13457
18.68736177621737	4.4999695	2.121313
18.705124417439652	4.514766	2.1247978
18.72288751214696	4.3746896	2.0915759
18.740651060800886	4.535955	2.1297781
18.758415063863115	4.266995	2.0656705
18.77617952179546	4.4162645	2.101491
18.793944435059814	4.2192125	2.0540721
18.811709804118184	4.15655	2.0387619
18.829475629432675	4.016879	2.0042152
18.8472419114655	3.7739303	1.9426606
18.86500865067897	3.9089255	1.9771003
18.88277584753551	3.6554368	1.9119196
18.90054350249763	3.7105415	1.9262766
18.918311616027957	3.3935332	1.8421545
18.936080188589226	3.2563357	1.804532
18.953849220644265	2.9641566	1.7216727
18.971618712656007	2.8022926	1.6740049
18.9893886650875	2.7765498	1.6662983
19.007159078401887	7.980604	2.8249962
19.024929953062408	32.850906	5.731571
19.042701289532435	32.75242	5.722973
19.060473088275405	25.254995	5.025435
19.07824534975489	2.5405753	1.5939182
19.096018074434568	2.5623546	1.6007357
19.113791262778197	2.582277	1.6069465
19.13156491524966	2.6116223	1.6160514
19.149339032312945	2.5886662	1.6089332
19.167113614432136	2.579715	1.6061491
19.184888662071433	2.554738	1.5983548
19.202664175695123	2.5797827	1.6061702
19.220440155767623	2.5742285	1.6044402
19.238216602753447	2.558544	1.5995449
19.2559935171172	2.5271697	1.5897074
19.27377089932361	2.5126784	1.585143
19.291548749837514	2.4997141	1.5810485
19.309327069123835	2.5273058	1.5897503
19.32710585764763	2.5242429	1.5887866
19.344885115874032	2.5297198	1.5905093
19.362664844268313	2.5036626	1.5822966
19.380445043295822	2.4947498	1.5794777
19.39822571342203	2.5069232	1.5833266
19.41600685511252	2.5070388	1.5833632
19.43378846883297	2.523438	1.5885333
19.451570555049173	2.4716976	1.5721633
19.469353114227037	2.4397044	1.5619553
19.48713614683254	2.4373357	1.5611969
19.50491965333182	2.4766433	1.5737355
19.52270363419109	2.472182	1.5723174
19.540488089876686	2.4414642	1.5625186
19.55827302085503	2.4344907	1.5602854
19.576058427592674	2.4631152	1.5694315
19.593844310556282	2.499629	1.5810215
19.611630670212598	2.5086937	1.5838857
19.629417507028506	2.4842613	1.576154
19.64720482147098	2.503968	1.5823932
19.6649926140071	2.5142066	1.585625
19.682780885104084	2.5203342	1.587556
19.70056963522921	2.514242	1.5856361
19.718358864849908	2.498021	1.5805129
19.7361485744337	2.494389	1.5793635
19.753938764448215	2.4978774	1.5804675
19.771729435361202	2.5144775	1.5857104
19.789520587640506	2.5200503	1.5874666
19.807312221754092	2.502486	1.5819248
19.825104338170043	2.5234199	1.5885276
19.842896937356517	2.4879808	1.5773335
19.860690019781824	2.4832885	1.5758454
19.87848358591436	2.4630766	1.5694191
19.896277636222635	2.467644	1.5708736
19.914072171175278	2.4590058	1.5681218
19.931867191241015	2.4298224	1.5587888
19.94966269688869	2.4323456	1.5595978
19.967458688587264	2.457592	1.567671
19.985255166805807	2.4493349	1.5650351
20.00305213201348	2.4257302	1.5574756
20.020849584679578	2.4018922	1.549804
20.038647525273507	2.4477944	1.5645429
20.05644595426477	2.4568603	1.5674375
20.07424487212299	2.4788525	1.5744373
20.092044279317903	2.4623642	1.5691922
20.109844176319353	2.4662955	1.5704443
20.127644563597304	2.4070232	1.5514584
20.145445441621817	2.336911	1.5286958
20.16324681086307	2.3245423	1.524645
20.181048671791373	2.3556929	1.5348266
20.198851024877122	2.3901806	1.5460209
20.216653870590836	2.3307014	1.5266634
20.234457209403146	2.2820199	1.5106356
20.252261041784802	2.292174	1.5139928
20.270065368206662	2.3464875	1.531825
20.287870189139685	2.389084	1.5456662
20.305675505054968	2.375204	1.5411698
20.323481316423702	2.329692	1.5263329
20.341287623717207	2.302444	1.5173806
20.359094427406884	2.3148189	1.5214529
20.376901727964288	2.3289573	1.5260922
20.39470952586107	2.35501	1.5346042
20.41251782156899	2.3605807	1.5364181
20.430326615559935	2.3273146	1.5255538
20.448135908305886	2.3092039	1.5196065
20.465945700278965	2.305872	1.5185097
20.483755991951384	2.3475015	1.5321559
20.50156678379548	2.3415933	1.5302266
20.519378076283708	2.3470056	1.531994
20.537189869888635	2.3240397	1.5244801
20.55500216508294	2.3276994	1.52568
20.572814962339415	2.313739	1.521098
20.59062826213098	2.2984004	1.5160476
20.60844206493066	2.2588592	1.5029502
20.626256371211593	2.2570927	1.5023624
20.644071181447032	2.274486	1.50814
20.66188649611036	2.3056643	1.5184414
20.67970231567506	2.2708578	1.5069366
20.697518640614742	2.245267	1.4984214
20.715335471403122	2.2788568	1.5095882
20.73315280851404	2.2938643	1.5145508
20.750970652421447	2.2617962	1.503927
20.768789003599412	2.2260458	1.4919939
20.786607862522136	2.2549214	1.5016396
20.8044272296639	2.2823153	1.5107334
20.82224710549913	2.270532	1.5068284
20.84006749050237	2.2558024	1.5019329
20.857888385148268	3.8235962	1.9554018
20.8757097899116	45.919518	6.7763944
20.893531705267254	64.774956	8.048289
20.911354131690224	83.789246	9.153646
20.92917706965566	69.06855	8.310749
20.94700051963877	50.144566	7.0812826
20.96482448211493	29.398285	5.4220185
20.982648957559622	4.1211696	2.0300665
21.00047394644843	2.21008	1.4866338
21.01829944925707	2.1913252	1.4803126
21.036125466461375	2.1511421	1.4666772
21.053951998537297	2.1798892	1.4764448
21.071779045960906	2.206658	1.4854823
21.089606609208378	2.2109692	1.4869329
21.10743468875603	2.1768754	1.4754238
21.12526328508028	2.2006986	1.4834752
21.143092398657675	2.205622	1.4851336
21.16092202996488	2.1626418	1.4705923
21.17875217947867	2.1447787	1.4645063
21.19658284767596	2.1284308	1.4589143
21.21441403503377	2.1665013	1.4719039
21.232245742029225	2.1578925	1.4689766
21.2500779691396	2.1743858	1.4745798
21.26791071684227	2.1772478	1.4755499
21.28574398561475	2.1793697	1.4762689
21.30357777593465	2.144068	1.4642637
21.321412088279704	2.106773	1.4514726
21.339246923127792	2.09588	1.4477154
21.357082280956888	2.0913904	1.446164
21.3749181622451	2.0897322	1.4455906
21.392754567470647	2.1114788	1.4530928
21.41059149711187	2.1473494	1.4653836
21.42842895164726	2.1397917	1.4628026
21.446266931555378	2.1001415	1.4491866
21.464105437314945	2.0530217	1.4328369
21.481944469404798	2.0772789	1.4412768
21.49978402830388	2.0643873	1.4367976
21.51762411449127	2.0652835	1.4371095
21.53546472844617	2.05826	1.4346637
21.553305870647876	2.0745838	1.4403416
21.571147541575865	2.0623105	1.4360746
21.58898974170967	2.060657	1.4354988
21.60683247152899	2.0534174	1.432975
21.62467573151363	2.029018	1.424436
21.642519522143523	2.0205743	1.4214691
21.660363843898722	2.0285442	1.4242697
21.6782086972594	2.0391507	1.4279883
21.696054082705864	2.0561426	1.4339256
21.713900000718535	2.0262702	1.4234712
21.73174645177795	2.034164	1.4262412
21.749593436364794	2.0707088	1.4389957
21.767440954959845	2.0666718	1.4375924
21.785289008044032	2.030482	1.4249499
21.803137596098388	1.9709918	1.4039202
21.820986719604086	1.9772094	1.4061328
21.838836379042412	2.0115516	1.4182918
21.85668657489478	2.0233386	1.422441
21.87453730764273	2.0034478	1.415432
21.892388577767914	2.0058067	1.416265
21.91024038575213	2.0294514	1.4245881
21.928092732077285	2.0125034	1.4186273
21.945945617225426	2.000952	1.4145501
21.963799041678694	1.9768113	1.4059912
21.981653005919398	31.306396	5.595212
21.999507510429943	78.121445	8.838634
22.01736255569286	73.05781	8.547386
22.035218142190818	4.1185613	2.029424
22.05307427040661	1.9345933	1.3908966
22.07093094082315	1.9480113	1.3957118
22.088788153923474	1.9658158	1.4020755
22.106645910190746	1.9612763	1.4004557
22.12450421010827	1.9965919	1.4130081
22.142363054159464	1.990658	1.4109068
22.16022244282787	2.0016928	1.414812
22.178082376597164	1.9704721	1.403735
22.195942855951145	1.9659786	1.4021336
22.213803881373742	1.9635309	1.4012605
22.231665453349002	1.9724982	1.4044565
22.24952757236111	1.997391	1.4132909
22.26739023889438	1.9569775	1.39892
22.28525345343323	1.9161412	1.3842475
22.30311721646225	1.9283911	1.3886652
22.320981528466113	1.9640704	1.401453
22.33884638992964	1.9683231	1.4029694
22.356711801337788	1.9372072	1.3918359
22.37457776317561	1.8701305	1.3675271
22.392444275928337	1.8993384	1.3781649
22.410311340081282	1.9426124	1.3937763
22.428178956119904	1.9588779	1.3995992
22.446047124529805	1.9132067	1.3831872
22.46391584579669	1.8857596	1.3732296
22.481785120406414	1.8869811	1.3736743
22.49965494884496	1.8867906	1.373605
22.51752533159841	1.9083053	1.3814142
22.53539626915302	1.9513857	1.3969201
22.553267761995137	1.9542288	1.3979373
22.571139810611264	1.9457706	1.3949088
22.589012415488025	1.9142843	1.3835766
22.60688557711216	1.9652501	1.4018738
22.624759295970566	1.9769535	1.4060417
22.642633572550263	1.9736997	1.4048842
22.660508407338362	1.9527621	1.3974127
22.67838380082217	1.9565834	1.3987793
22.696259753489077	1.9274592	1.3883296
22.714136265826614	1.936359	1.3915312
22.73201333832246	1.9224195	1.3865135
22.74989097146439	1.9515561	1.3969811
22.76776916574035	1.9974654	1.4133172
22.785647921638393	1.9924968	1.4115583
22.803527239646712	1.9063697	1.3807135
22.82140712025363	1.896531	1.377146
22.839287563947593	1.8980525	1.3776983
22.85716857121719	1.9124998	1.3829316
22.875050142551135	1.9044011	1.3800004
22.892932278438277	1.8956254	1.3768171
22.910814979367604	1.900171	1.378467
22.928698245828222	1.8928188	1.3757975
22.946582078309387	1.9163588	1.3843261
22.96446647730047	1.916546	1.3843937
22.98235144329098	1.8863895	1.373459
23.000236976770562	1.8631651	1.3649781
23.018123078229	1.8715098	1.3680314
23.03600974815619	1.866863	1.3663319
23.053896987042194	1.8857492	1.3732258
23.071784795377173	1.896143	1.3770051
23.08967317365145	1.8818215	1.3717949
23.10756212235546	1.8629358	1.364894
23.125451641979787	1.8303949	1.3529209
23.143341733015134	1.8302362	1.3528622
23.161232395952357	1.8538834	1.3615738
23.179123631282426	1.9123609	1.3828814
23.197015439496468	1.9293984	1.3890278
23.214907821085717	1.8924077	1.3756481
23.23280077654157	1.8705573	1.3676832
23.250694306355538	1.9200943	1.3856747
23.268588411019277	1.9394681	1.3926479
23.28648309102458	1.9316266	1.3898296
23.304378346863356	1.936603	1.3916188
23.322274179027676	1.9546186	1.3980768
23.340170588009723	1.9610455	1.4003733
23.358067574301852	1.9385865	1.3923314
23.37596513839651	1.8931551	1.3759197
23.39386328078629	1.8516599	1.3607571
23.411762001963947	1.8115647	1.3459438
23.429661302422353	1.8145453	1.3470505
23.4475611826545	1.8635775	1.3651291
23.46546164315356	1.8947526	1.3765001
23.48336268441279	1.9025636	1.3793344
23.501264306925638	1.9221365	1.3864114
23.51916651118564	1.9528596	1.3974476
23.537069297686497	1.9464059	1.3951365
23.554972666922037	1.9192605	1.3853738
23.57287661938623	1.9085138	1.3814898
23.59078115557318	1.8922035	1.3755739
23.608686275977128	1.880019	1.3711379
23.62659198109246	1.8975905	1.3775306
23.6444982714137	1.8926209	1.3757256
23.66240514743549	1.8737453	1.3688482
23.68031260965263	1.8695549	1.3673167
23.698220658560068	1.8524265	1.3610388
23.716129294652845	1.8348267	1.3545578
23.7340385184262	1.8221109	1.3498559
23.75194833037546	1.8455716	1.3585181
23.769858730996123	1.8695791	1.3673255
23.78776972078382	1.9036796	1.3797389
23.80568130023431	1.9449426	1.394612
23.823593469843495	1.9435756	1.3941218
23.841506230107424	1.9264232	1.3879565
23.859419581522275	1.9042363	1.3799407
23.87733352458438	1.8785836	1.3706143
23.89524805979019	1.8473737	1.3591813
23.913163187636318	1.8474482	1.3592087
23.931078908619508	1.8866947	1.3735701
23.948995223236633	1.9599204	1.3999716
23.966912131984735	1.9949521	1.4124278
23.98482963536096	2.0188746	1.4208711
24.002747733862616	1.9987367	1.4137669
24.020666427987155	2.0097787	1.4176667
24.038585718232156	2.063708	1.4365612
24.056505605095353	2.067318	1.4378171
24.074426089074617	2.071174	1.4391574
24.092347170667946	2.0580442	1.4345886
24.110268850373515	2.0926416	1.4465965
24.128191128689586	2.1105182	1.4527622
24.146114006114626	2.0511243	1.4321747
24.164037483147187	2.0177324	1.420469
24.181961560286005	2.0103905	1.4178824
24.199886238029926	2.0203192	1.4213793
24.21781151687797	2.0610125	1.4356227
24.235737397329274	2.0792887	1.4419739
24.253663879883135	2.0801542	1.442274
24.271590965038975	1.9930422	1.4117515
24.289518653296376	1.9726343	1.404505
24.30744694515505	1.9924663	1.4115475
24.32537584111486	2.0416996	1.4288806
24.34330534167581	2.0066495	1.4165626
24.361235447338046	2.0379167	1.4275562
24.379166158601876	2.0576563	1.4344532
24.39709747596772	2.0928621	1.4466728
24.41502939993615	2.0480673	1.431107
24.432961931007917	1.9743497	1.4051156
24.450895069683856	1.993704	1.4119859
24.468828816465	2.019311	1.4210246
24.4867631718525	1.9795203	1.4069543
24.504698136347656	1.9208146	1.3859346
24.52263371045192	1.8988348	1.3779821
24.540569894666874	1.931664	1.3898431
24.558506689494266	1.9738139	1.4049249
24.57644409543597	1.9926801	1.4116232
24.594382112994012	1.9484298	1.3958616
24.61232074267057	1.923458	1.3868879
24.630259984967953	1.915492	1.384013
24.64819984038863	1.9317818	1.3898855
24.66614030943522	1.9836745	1.4084299
24.684081392610462	2.0256546	1.423255
24.702023090417274	1.9907008	1.4109219
24.7199654033587	1.9363343	1.3915223
24.737908331937927	1.942785	1.3938383
24.755851876658305	2.0315645	1.4253296
24.773796038023324	2.0815954	1.4427735
24.79174081653661	2.102056	1.4498469
24.809686212701962	2.1114337	1.4530773
24.827632227023294	2.1048863	1.4508226
24.8455788600047	2.0656803	1.4372475
24.8635261121504	2.0641522	1.4367158
24.88147398396475	2.0559728	1.4338664
24.899422475952303	2.0163398	1.4199787
24.917371588617698	2.0268323	1.4236686
24.935321322465768	2.1098955	1.4525479
24.953271678001478	2.257674	1.5025558
24.97122265572994	2.4399488	1.5620335
24.989174256156414	2.805032	1.6748229
25.00712647978632	3.3765388	1.8375361
25.02507932712521	4.4130597	2.1007283
25.043032798678798	5.969833	2.443324
25.060986894952933	7.665989	2.7687523
25.078941616453637	9.085769	3.0142608
25.096896963687055	9.984663	3.1598518
25.114852937159508	10.706046	3.2720094
25.132809537377444	10.563423	3.250142
25.150766764847468	9.863467	3.1406157
25.168724620076347	8.4733095	2.9108949
25.186683103570985	7.1624246	2.6762707
25.204642215838426	5.744935	2.3968594
25.222601957385894	4.5450745	2.131918
25.24056232872074	3.4856465	1.8669887
25.25852333035048	2.7599912	1.6613221
25.276484962782778	2.3808558	1.5430022
25.294447226525435	2.1962557	1.481977
25.312410122086423	2.087793	1.4449197
25.330373649973843	1.9766941	1.4059496
25.348337810695988	1.924955	1.3874274
25.366302604761245	1.9169029	1.3845227
25.384268032678207	1.9411912	1.3932663
25.40223409495558	1.9627032	1.4009651
25.420200792102257	1.9163141	1.38431
25.438168124627246	1.8568971	1.3626801
25.45613609303974	1.8358072	1.3549197
25.474104697849057	1.8570883	1.3627503
25.492073939564698	1.8786341	1.3706328
25.510043818696285	1.915905	1.3841622
25.528014335753614	1.9429874	1.3939109
25.54598549124664	1.9292933	1.38899
25.56395728568544	1.9125862	1.3829628
25.58192971958028	1.8933032	1.3759736
25.59990279344156	1.88442	1.3727418
25.617876507779833	1.7878145	1.3370918
25.635850863105826	1.7703894	1.3305598
25.653825859930386	1.8313642	1.353279
25.671801498764548	1.8535377	1.3614469
25.68977778011949	1.8243537	1.3506864
25.707754704506524	1.8242869	1.3506616
25.725732272437153	1.7820739	1.3349434
25.743710484423012	1.8105344	1.345561
25.761689340975888	1.8264357	1.3514569
25.77966884260774	1.8743366	1.3690641
25.797648989830662	1.8363051	1.3551034
25.815629783156922	1.7985307	1.3410931
25.83361122309895	1.8084234	1.3447764
25.85159331016929	1.860329	1.3639388
25.869576044880695	1.8695159	1.3673024
25.887559427746034	1.8773091	1.3701493
25.90554345927836	1.896661	1.3771932
25.92352813999086	1.850193	1.360218
25.94151347039689	1.8230354	1.3501983
25.959499451009965	1.7798021	1.3340923
25.97748608234374	1.7887117	1.3374273
25.995473364912062	1.780479	1.3343459
26.013461299228904	1.8376987	1.3556174
26.03144988580839	1.871241	1.3679332
26.04943912516483	1.8775576	1.37024
26.067429017812675	1.8626517	1.36479
26.085419564266537	1.8697621	1.3673924
26.103410765041186	1.8954946	1.3767697
26.12140262065155	1.879774	1.3710485
26.139395131612723	1.8860809	1.3733466
26.157388298439948	1.8410845	1.3568656
26.17538212164861	1.830404	1.3529242
26.193376601754295	1.8399755	1.356457
26.211371739272714	1.8499997	1.3601469
26.229367534719746	1.8595229	1.3636433
26.247363988611433	1.8226376	1.3500509
26.26536110146397	1.7793633	1.3339278
26.283358873793727	1.7877364	1.3370626
26.301357306117204	1.8203069	1.3491875
26.319356398951104	1.8140581	1.3468697
26.33735615281224	1.8116641	1.3459808
26.35535656821762	1.823383	1.350327
26.373357645684404	1.8225564	1.3500209
26.39135938572991	1.8071744	1.3443118
26.409361788871614	1.8020627	1.3424093
26.427364855627165	1.8193059	1.3488165
26.445368586514352	1.8563138	1.3624661
26.46337298205115	1.872773	1.368493
26.48137804275568	1.8227302	1.3500853
26.499383769146217	1.7756073	1.3325192
26.517390161741215	1.777625	1.333276
26.53539722105928	1.7988199	1.341201
26.553404947619182	1.8372909	1.3554671
26.571413341939856	1.8378196	1.355662
26.589422404540397	1.8150599	1.3472416
26.60743213594006	1.8033835	1.3429011
26.62544253665827	1.8383169	1.3558455
26.64345360721459	1.8801138	1.3711724
26.66146534812879	1.9000945	1.3784392
26.679477759920758	1.872594	1.3684275
26.69749084311057	1.7825122	1.3351076
26.71550459821847	1.7764627	1.3328401
26.733519025764842	1.7894342	1.3376974
26.751534126270258	1.8012136	1.342093
26.769549900255434	1.776385	1.3328109
26.787566348241267	1.7917362	1.3385575
26.80558347074881	1.7892289	1.3376206
26.823601268299267	1.7532243	1.3240937
26.841619741414036	1.720023	1.3114965
26.85963889061465	1.740848	1.319412
26.877658716422832	1.8002744	1.341743
26.89567921936045	1.8191977	1.3487763
26.913700399949544	1.7958989	1.3401115
26.93172225871233	1.7765651	1.3328785
26.949744796171174	1.7608582	1.3269733
26.967768012848605	1.768125	1.3297087
26.98579190926733	1.7920538	1.3386761
27.003816485950225	1.781639	1.3347805
27.021841743420318	1.7786723	1.3336687
27.039867682200814	1.7641222	1.3282026
27.057894302815072	1.8095102	1.3451804
27.07592160578664	1.859717	1.3637145
27.0939495916392	1.8001466	1.3416954
27.111978260896635	1.7841688	1.3357278
27.13000761408296	1.7838328	1.335602
27.148037651722397	1.7672201	1.3293684
27.166068374339304	1.7722895	1.3312737
27.184099782458215	1.8074855	1.3444276
27.20213187660384	1.8404837	1.3566443
27.22016465730105	1.8430074	1.3575741
27.23819812507487	1.8649623	1.3656362
27.256232280450533	1.8423707	1.3573396
27.274267123953383	1.848646	1.3596492
27.292302656108987	1.8678501	1.3666931
27.31033887744306	1.8678678	1.3666996
27.32837578848146	1.8570151	1.3627235
27.34641338975026	1.8131864	1.346546
27.364451681775673	1.7865425	1.336616
27.382490665084074	1.8301938	1.3528465
27.400530340202046	1.8627889	1.3648403
27.41857070765629	1.8829459	1.3722048
27.436611767973726	1.8444238	1.3580956
27.454653521681404	1.8137882	1.3467696
27.472695969306564	1.8084306	1.344779
27.490739111376627	1.847156	1.3591012
27.508782948419153	1.859512	1.3636392
27.526827480961902	1.8593261	1.363571
27.54487270953279	1.8105185	1.3455551
27.562918634659898	1.7882203	1.3372436
27.580965256871508	1.7763411	1.3327944
27.599012576696026	1.771012	1.3307937
27.617060594662068	1.7741448	1.3319702
27.63510931129842	1.7759279	1.3326395
27.65315872713401	1.8052028	1.3435783
27.67120884269797	1.8320358	1.3535272
27.68925965851958	1.8669355	1.3663585
27.707311175128307	1.8696723	1.3673596
27.725363393053787	1.9258881	1.3877637
27.74341631282583	1.8728533	1.3685223
27.7614699349744	1.8459733	1.358666
27.77952426002968	2.003131	1.41532
27.797579288521973	2.1329765	1.4604714
27.815635020981784	2.5734456	1.6041962
27.83369145793979	2.669174	1.6337607
27.85174859992682	2.545043	1.595319
27.869806447473923	2.43165	1.5593748
27.887865001112267	2.0875916	1.4448501
27.905924261373233	1.9483299	1.3958259
27.92398422878836	1.9049628	1.3802038
27.94204490388936	1.9065207	1.3807682
27.96010628720813	1.9254962	1.3876225
27.978168379276728	1.9183908	1.3850598
27.9962311806274	1.855179	1.3620496
28.014294691792568	1.8559761	1.3623421
28.0323589133048	1.8594896	1.363631
28.050423845696887	1.8892028	1.3744828
28.068489489501758	1.819613	1.3489304
28.086555845252523	1.7909766	1.3382738
28.104622913482487	1.7987096	1.3411598
28.122690694725115	1.8157208	1.3474869
28.14075918951405	1.8370063	1.355362
28.15882839838312	1.8550727	1.3620106
28.176898321866304	1.8880886	1.3740773
28.1949689604978	1.9376245	1.3919858
28.213040314811945	1.9372867	1.3918645
28.23111238534327	1.9570911	1.3989607
28.249185172626493	1.9540249	1.3978645
28.267258677196473	1.9320441	1.38998
28.285332899588294	1.9154307	1.3839909
28.303407840337172	1.8749708	1.3692957
28.321483499978545	1.8924887	1.3756776
28.33955987904799	1.9521968	1.3972104
28.357636978081285	1.9790089	1.4067725
28.37571479761439	1.9768765	1.4060144
28.393793338183425	1.967805	1.4027847
28.41187260032469	1.971962	1.4042656
28.429952584574686	1.9556458	1.398444
28.448033291470065	1.9743782	1.4051257
28.46611472154769	1.9973265	1.413268
28.484196875344566	2.0265458	1.423568
28.502279753397914	2.0074515	1.4168457
28.52036335624511	1.9881717	1.4100255
28.538447684423716	1.9877563	1.4098781
28.556532738471482	1.9647591	1.4016987
28.574618518926325	1.9397388	1.392745
28.59270502632635	1.987119	1.4096521
28.61079226120985	2.0293949	1.4245683
28.628880224115274	2.0479047	1.4310502
28.646968915581287	2.0124512	1.4186089
28.66505833614671	2.0048752	1.4159361
28.68314848635055	2.0150661	1.4195303
28.701239366732004	2.0688906	1.4383639
28.71933097783044	2.0999172	1.4491091
28.737423320185403	2.1170554	1.4550104
28.75551639433665	2.133932	1.4607985
28.773610200824074	2.1027555	1.4500881
28.791704740187793	2.1469343	1.465242
28.80980001296809	2.1821465	1.4772091
28.827896019705413	2.1588473	1.4693017
28.845992760940433	2.1198971	1.4559866
28.86409023721397	2.173719	1.4743538
28.88218844906704	2.1874335	1.4789975
28.900287397040845	2.1812463	1.4769043
28.918387081676755	2.2129126	1.4875861
28.936487503516343	2.291275	1.5136958
28.954588663101365	2.3169572	1.5221554
28.97269056097374	2.323917	1.5244398
28.990793197675597	2.3071723	1.5189378
29.00889657374923	2.318546	1.5226773
29.027000689737125	2.3325162	1.5272577
29.04510554618196	2.3753371	1.5412129
29.06321114362659	2.407397	1.5515789
29.08131748261405	2.4713016	1.5720373
29.099424563687567	2.4951434	1.5796022
29.11753238739057	2.4945226	1.5794058
29.13564095426663	2.5349386	1.592149
29.15375026485954	2.5414608	1.594196
29.171860319713275	2.5816832	1.6067617
29.18997111937199	2.6211243	1.6189886
29.20808266438002	2.6512496	1.6282659
29.226194955281898	2.7013853	1.6435891
29.244307992622335	2.767531	1.6635897
29.26242177694624	2.7980187	1.672728
29.2805363087987	2.8423946	1.6859403
29.29865158872498	2.8781283	1.6965047
29.316767617270557	2.857926	1.6905401
29.334884394981064	2.8615477	1.6916109
29.353001922402367	2.933685	1.7128004
29.37112020008047	2.987423	1.7284163
29.389239228561596	3.1226192	1.7670934
29.407359008392152	3.2727046	1.8090618
29.42547954011872	3.5837982	1.8930923
29.44360082428809	4.121439	2.0301328
29.46172286144722	4.9557037	2.226141
29.479845652143283	6.5035625	2.5502083
29.497969196923606	9.156693	3.026003
29.516093496335728	13.0597725	3.6138308
29.5342185509274	16.826494	4.102011
29.55234436124651	19.861456	4.4566193
29.570470927841175	21.213264	4.605786
29.588598251259686	21.054409	4.588508
29.60672633205055	19.412298	4.405939
29.624855170762405	16.291893	4.0363216
29.642984767944146	12.965024	3.6006978
29.66111512414481	9.619039	3.1014576
29.67924623991366	7.0864654	2.6620417
29.697378115800138	5.319241	2.306348
29.71551075235387	4.3571534	2.0873795
29.733644150124675	3.849454	1.9620025
29.751778309662576	3.6477492	1.9099082
29.769913231517766	3.545826	1.8830364
29.78804891624066	3.4054148	1.8453766
29.806185364381818	3.3285682	1.8244364
29.82432257649206	3.3721077	1.8363299
29.842460553122333	3.3362942	1.8265525
29.86059929482382	3.247863	1.8021829
29.878738802147872	3.2551603	1.8042063
29.896879075646048	3.3372488	1.8268138
29.915020115870114	3.340779	1.8277798
29.933161923371976	3.22886	1.7969029
29.951304498703777	3.1830442	1.7841088
29.969447842417857	3.2478192	1.8021706
29.987591955066733	3.2364764	1.799021
30.005736837203123	3.1803818	1.7833625
30.023882489379943	3.1628578	1.7784425
30.04202891215028	3.1761742	1.7821825
30.060176106067455	3.1360977	1.7709031
30.078324071684946	3.1169245	1.7654814
30.09647280955646	3.1649084	1.779019
30.114622320235863	3.1723065	1.781097
30.132772604277257	3.1888704	1.7857409
30.1509236622349	3.185089	1.7846818
30.16907549466328	3.1630535	1.7784976
30.18722810211705	3.166759	1.779539
30.205381485151097	3.14889	1.7745112
30.22353564432045	3.0799549	1.75498
30.241690580180403	3.0871568	1.7570307
30.25984629328638	3.0772028	1.7541958
30.278002784194037	3.0316286	1.7411573
30.296160053459246	3.0042253	1.73327
30.314318101638033	3.0221355	1.7384291
30.332476929286646	2.9922519	1.7298126
30.35063653696153	2.9368463	1.713723
30.368796925219307	2.9546733	1.7189163
30.386958094616844	2.9468346	1.7166346
30.40512004571115	2.8708906	1.6943703
30.423282779059463	2.855862	1.6899296
30.441446295219233	2.8520947	1.6888145
30.459610594748067	2.860895	1.691418
30.47777567820382	2.861879	1.6917089
30.495941546144504	2.8263464	1.6811742
30.51410819912835	2.8164315	1.6782228
30.532275637713795	2.8057592	1.67504
30.55044386245946	2.7459419	1.6570884
30.56861287392416	2.7193077	1.6490324
30.586782672666956	2.8185256	1.6788465
30.604953259247047	2.9054363	1.704534
30.623124634223885	2.8862174	1.6988871
30.641296798157075	2.8502436	1.6882664
30.659469751606462	2.7901518	1.6703748
30.677643495132074	2.728863	1.6519271
30.695818029294152	2.7582812	1.6608074
30.713993354653116	2.7714102	1.6647553
30.73216947176962	2.8045893	1.6746908
30.75034638120448	2.8013942	1.6737366
30.768524083518756	2.8389425	1.6849161
30.786702579273673	2.834681	1.6836511
30.80488186903069	2.873052	1.6950079
30.82306195335144	2.9835756	1.727303
30.841242832797782	3.3026557	1.8173211
30.85942450793176	3.6342392	1.906368
30.877606979315637	3.958439	1.9895827
30.895790247511883	4.353018	2.0863886
30.913974313083134	4.786106	2.1877172
30.932159176592283	5.2546053	2.2922926
30.95034483860237	5.5946255	2.3652961
30.968531299676698	5.4986954	2.3449297
30.98671856037873	5.19187	2.2785676
31.00490662127215	4.8919635	2.2117784
31.023095482920848	4.424565	2.1034648
31.04128514588892	3.7376175	1.9332919
31.059475610740662	3.1730657	1.7813101
31.07766687804056	2.8257923	1.6810093
31.09585894835335	2.6291084	1.6214526
31.11405182224393	2.5380313	1.59312
31.132245500277417	2.5397744	1.593667
31.15043998301914	2.5500693	1.5968937
31.168635271034628	2.5017488	1.5816917
31.18683136488964	2.4945195	1.5794048
31.20502826515008	2.4996643	1.5810326
31.223225972382135	2.5409052	1.5940217
31.241424487152155	2.4963253	1.5799763
31.259623810026692	2.4146962	1.5539293
31.27782394157253	2.3909054	1.5462552
31.296024882356644	2.374484	1.5409361
31.314226632946237	2.4518347	1.5658336
31.332429193908684	2.551315	1.5972836
31.350632565811598	2.5687962	1.6027465
31.368836749222787	2.497761	1.5804306
31.387041744710295	2.4877625	1.5772642
31.40524755284232	2.485842	1.5766553
31.423454174187317	2.5229197	1.5883701
31.441661609313922	2.51192	1.5849037
31.459869858791002	2.4528387	1.5661541
31.478078923187628	2.3837426	1.5439373
31.496288803073064	2.3566854	1.5351499
31.514499499016807	2.378617	1.5422766
31.532711011588546	2.3546495	1.5344868
31.550923341358178	2.3787389	1.5423161
31.56913648889584	2.3890686	1.5456612
31.587350454771844	2.3538613	1.5342299
31.605565239556732	2.2882457	1.5126948
31.62378084382127	2.33724	1.5288035
31.641997268136382	2.362446	1.5370251
31.660214513073274	2.3734944	1.540615
31.67843257920331	2.330281	1.5265259
31.6966514670981	2.271715	1.507221
31.71487117732944	2.22888	1.4929434
31.733091710469346	2.2820091	1.510632
31.751313067090052	2.2536716	1.5012233
31.769535247764008	2.214536	1.4881316
31.787758253063878	2.2318926	1.493952
31.805982083562526	2.2165537	1.4888095
31.824206739833024	2.1861446	1.4785616
31.84243222244869	2.1911962	1.480269
31.860658531983013	2.158282	1.4691093
31.878885669009737	2.1734788	1.4742723
31.897113634102784	2.2071102	1.4856346
31.91534242783632	2.2422042	1.4973991
31.933572050784694	2.2305112	1.4934896
31.951802503522508	2.2078178	1.4858727
31.970033786624548	2.2142	1.4880189
31.988265900665834	2.2256925	1.4918755
32.006498846221575	2.2318985	1.493954
32.02473262386724	2.2516909	1.5005635
32.04296723417845	2.3003354	1.5166857
32.0612026777311	2.2402368	1.496742
32.07943895510129	2.1781964	1.4758714
32.097676066865304	2.1391213	1.4625735
32.115914013599685	2.1343231	1.4609323
32.13415279588115	2.0964954	1.447928
32.152392414286666	2.1547189	1.4678961
32.1706328693934	2.2723799	1.5074415
32.18887416177875	2.229673	1.4932089
32.20711629202032	2.1405456	1.4630604
32.225359260695924	2.1117835	1.4531977
32.243603068383614	2.103382	1.4503042
32.26184771566166	2.1766007	1.4753307
32.28009320310852	2.2105289	1.4867847
32.2983395313029	2.1716692	1.4736584
32.31658670082372	2.1583004	1.4691155
32.33483471225012	2.197	1.482228
32.35308356616143	2.1815698	1.4770138
32.371333263137245	2.1678612	1.4723659
32.38958380375734	2.1809788	1.4768137
32.407835188601744	2.1457398	1.4648343
32.42608741825067	2.0823686	1.4430414
32.444340493284585	2.0785258	1.4417093
32.46259441428416	2.1073687	1.4516779
32.48084918183028	2.0665078	1.4375353
32.49910479650405	2.0331903	1.4258999
32.51736125888683	2.0380626	1.4276073
32.53561856956014	2.0832615	1.4433508
32.5538767291058	2.0341368	1.4262316
32.572135738105764	2.0058794	1.4162908
32.59039559714228	1.9517201	1.3970398
32.608656306797776	1.9448212	1.3945684
32.62691786765491	2.030905	1.4250983
32.645180280296586	2.0133567	1.418928
32.663443545305896	2.0539641	1.4331658
32.68170766326619	2.1306708	1.4596817
32.69997263476099	2.066459	1.4375184
32.7182384603741	1.9435385	1.3941085
32.7365051406895	1.9801906	1.4071925
32.75477267629144	1.9245363	1.3872766
32.77304106776434	1.9843354	1.4086645
32.79131031569289	2.052521	1.4326622
32.809580420661966	2.007598	1.4168973
32.827851383256714	1.9306656	1.3894839
32.84612320406245	2.0192952	1.4210191
32.86439588366476	2.1003344	1.4492531
32.88266942264945	2.0866158	1.4445122
32.9009438216025	2.0611515	1.4356711
32.9192190811102	2.0743024	1.4402438
32.937495201758985	2.027025	1.4237363
32.95577218413556	1.9153392	1.3839579
32.974050028826866	1.9084423	1.3814638
32.992328736420035	2.0245268	1.4228587
33.010608307502444	2.0875626	1.44484
33.02888874266169	2.0576894	1.4344648
33.047170042485604	2.044192	1.4297525
33.06545220756225	2.0013697	1.4146978
33.083735238479896	2.0332098	1.4259067
33.10201913582707	2.007033	1.416698
33.12030390019248	1.9655697	1.4019878
33.138589532165135	1.962166	1.4007733
33.15687603233419	1.8881316	1.374093
33.17516340128909	1.9123045	1.382861
33.19345163961947	1.929326	1.3890018
33.211740747915215	1.9063274	1.3806982
33.23003072676643	1.8875303	1.3738742
33.248321576763466	1.9222826	1.386464
33.266613298496885	1.9720867	1.40431
33.28490589255747	2.0175958	1.420421
33.30319935953626	1.9105668	1.3822325
33.32149370002451	1.8519304	1.3608565
33.339788914613706	1.8543907	1.3617601
33.358085003895575	1.9359412	1.391381
33.376381968462034	1.9218137	1.386295
33.39467980890529	1.7904248	1.3380675
33.41297852581774	1.7468207	1.3216734
33.43127811979204	1.9142786	1.3835746
33.44957859142105	1.9401615	1.3928968
33.467879941297866	1.8385496	1.3559313
33.486182170015844	1.9184899	1.3850956
33.50448527816853	1.9971049	1.4131896
33.522789266349754	2.004378	1.4157606
33.541094135153514	1.9543622	1.397985
33.55939988517411	1.8367064	1.3552514
33.57770651700602	1.7558314	1.3250779
33.59601403124398	1.8346399	1.3544888
33.61432242848296	1.9580423	1.3993006
33.632631709318154	1.9928699	1.4116905
33.650941874344994	1.9857183	1.4091551
33.66925292415916	1.9348563	1.3909911
33.68756485935654	1.911577	1.3825979
33.70587768053328	1.8618143	1.3644831
33.724191388285746	1.9426726	1.3937979
33.74250598321054	2.083575	1.4434594
33.760821465904506	2.1188629	1.4556314
33.77913783696474	1.9918603	1.4113328
33.79745509698852	1.9285069	1.3887069
33.815773246573414	1.850413	1.3602989
33.8340922863172	1.8209347	1.3494201
33.852412216817896	1.9168547	1.3845053
33.87073303867377	2.0824237	1.4430605
33.889054752483304	2.0386589	1.4278162
33.907377358845245	1.9990038	1.4138613
33.92570085835853	1.9829776	1.4081824
33.94402525162239	1.8815423	1.3716933
33.96235053923627	1.7931936	1.3391018
33.980676721799824	1.8829406	1.3722029
33.999003799912984	1.9202124	1.3857173
34.01733177417592	1.9429146	1.3938847
34.03566064518901	1.9914446	1.4111855
34.0539904135529	1.9693298	1.4033282
34.07232107986846	1.9245658	1.3872873
34.090652644736785	1.8113678	1.3458706
34.108985108759235	1.878128	1.3704481
34.12731847253742	1.9750459	1.4053633
34.14565273667313	1.8841962	1.3726603
34.16398790176847	1.8169721	1.347951
34.18232396842574	1.8993177	1.3781574
34.20066093724749	1.9741294	1.4050372
34.21899880883651	1.9921995	1.411453
34.23733758379583	1.9124422	1.3829107
34.25567726272874	1.8343014	1.3543638
34.27401784623872	1.8764336	1.3698298
34.29235933492957	1.8870003	1.3736813
34.31070172940526	1.9419776	1.3935486
34.32904503027003	2.0185285	1.4207493
34.347389238128386	2.0293362	1.4245477
34.36573435358502	2.1496058	1.4661534
34.38408037724492	2.0633092	1.4364223
34.402427309713296	1.8494092	1.3599298
34.42077515159559	1.7502134	1.3229563
34.43912390349752	1.9058193	1.3805141
34.45747356602499	2.0628235	1.4362533
34.47582413978423	1.9637445	1.4013367
34.49417562538163	1.8473834	1.3591849
34.51252802342388	1.8080356	1.3446321
34.53088133451789	1.8000833	1.3416718
34.54923555927084	1.8785213	1.3705916
34.567590698290104	1.8521346	1.3609315
34.58594675218336	1.8657868	1.3659381
34.6043037215585	1.9425068	1.3937384
34.62266160702365	2.0199616	1.4212536
34.641020409187234	1.9681535	1.4029089
34.65938012865785	1.9901124	1.4107134
34.677740766044394	1.8960226	1.3769614
34.69610232195598	1.7895998	1.3377593
34.714464797002016	1.7967485	1.3404285
34.73282819179208	1.8774865	1.370214
34.751192506936064	1.9428738	1.3938701
34.76955774304408	1.9226444	1.3865945
34.7879239007265	1.8136619	1.3467227
34.80629098059391	1.7874132	1.3369417
34.824658983257194	1.9468695	1.3953027
34.843027909327446	1.937216	1.391839
34.86139775941603	1.9326235	1.3901883
34.879768534134534	1.9672853	1.4025995
34.89814023409483	1.8800235	1.3711395
34.91651285990901	1.8914604	1.3753037
34.93488641218944	1.947687	1.3955956
34.95326089154871	1.8775114	1.3702232
34.97163629859967	1.8024426	1.3425508
34.99001263395542	1.8349274	1.354595
35.00838989822934	1.8196292	1.3489363
35.02676809203499	1.8889468	1.3743896
35.04514721598624	1.9605508	1.4001967
35.063527270697215	2.023651	1.4225508
35.081908256782256	2.1105714	1.4527806
35.10029017485597	2.053305	1.4329357
35.11867302553321	1.7438649	1.3205547
35.137056809429104	1.8074589	1.3444177
35.155441527159006	1.957342	1.3990504
35.173827179338524	2.2330618	1.4943433
35.19221376658354	2.1948295	1.4814957
35.21060128951017	2.1303208	1.4595618
35.2289897487348	2.0745559	1.4403318
35.24737914487405	1.846159	1.3587344
35.26576947854479	1.6785364	1.2955834
35.28416075036418	1.7357854	1.3174921
35.30255296094958	1.9301046	1.3892821
35.32094611091867	2.080107	1.4422576
35.33934020088932	2.0011132	1.414607
35.35773523147969	1.676405	1.2947606
35.3761312033082	1.3987863	1.182703
35.394528116993506	1.5385231	1.2403722
35.41292597315452	1.7790895	1.3338251
35.431324772410434	1.9318895	1.3899243
35.449724515380666	2.2292361	1.4930626
35.46812520268491	2.2062593	1.4853482
35.486526834943106	1.876129	1.3697186
35.504929412775454	1.8984787	1.3778529
35.52333293680242	2.0535748	1.4330299
35.54173740764471	2.2613382	1.5037746
35.560142825923286	2.2200289	1.4899762
35.5785491922594	2.209373	1.486396
35.59695650727454	2.5438955	1.5949594
35.61536477159042	2.842957	1.686107
