0.008763373481513119	0.0	0.0
0.026290120649546365	0.14626539	0.3824466
0.043816868432600686	0.1255995	0.3544002
0.06134361724069026	0.15798682	0.39747557
0.07887036748382949	0.10676111	0.3267432
0.0963971195720331	0.0535538	0.23141694
0.11392387391531617	0.030578094	0.17486593
0.1314506309236943	0.0045604366	0.067531005
0.1489773910071836	0.118077144	0.34362355
0.16650415457580078	0.1612262	0.40152982
0.18403092203956356	0.14704649	0.38346642
0.20155769380849	0.09168684	0.30279833
0.2190844702925996	0.0	0.0
0.2366112519019124	0.0370312	0.19243492
0.2541380390464497	0.119675785	0.34594187
0.27166483213623416	0.1810463	0.42549536
0.28919163158128947	0.20753342	0.45555836
0.3067184377916406	0.16297981	0.4037076
0.324245251177314	0.11345496	0.33683077
0.34177207214833777	0.083314165	0.28864193
0.3592989011147415	0.089898944	0.29983154
0.37682573848655654	0.13483265	0.36719567
0.39435258467381573	0.15563293	0.39450338
0.41187944008655414	0.1427749	0.37785566
0.42940630513480854	0.12679145	0.35607788
0.446933180228618	0.111079454	0.33328584
0.4644600657780234	0.13087167	0.3617619
0.48198696219306775	0.14029379	0.37455812
0.49951386988379676	0.15126362	0.38892624
0.5170407892602581	0.15912487	0.3989046
0.5345677207325025	0.20092675	0.44824854
0.5520946647105822	0.21059255	0.45890364
0.5696216216045534	0.26204827	0.5119065
0.5871485918244737	0.25275156	0.502744
0.6046755757804043	0.20506349	0.45283937
0.6222025738824094	0.17175335	0.41443136
0.6397295865405557	0.11895193	0.34489408
0.6572566141649129	0.11824907	0.34387362
0.6747836571655547	0.15534994	0.39414456
0.6923107159525568	0.19995901	0.44716775
0.7098377909359992	0.20263158	0.45014617
0.7273648825259653	0.1918921	0.43805492
0.7448919911325411	0.18990557	0.43578157
0.762419117165817	0.17573367	0.419206
0.7799462610358868	0.20536986	0.4531775
0.7974734231528482	0.201698	0.449108
0.8150006039268024	0.20340633	0.4510059
0.8325278037678551	0.19497655	0.4415615
0.8500550230861152	0.20538338	0.4531924
0.8675822622916969	0.26591647	0.5156709
0.8851095217947171	0.2799908	0.52914155
0.9026368020052984	0.2575399	0.5074839
0.9201641033335665	0.22115292	0.470269
0.9376914261896523	0.24620916	0.4961947
0.9552187709836915	0.26236987	0.5122205
0.9727461381258234	0.27972677	0.52889204
0.990273528026193	0.216961	0.46579072
1.0078009410949496	0.20364714	0.4512728
1.0253283777422473	0.21378082	0.46236438
1.0428558383782454	0.25868323	0.5086091
1.0603833234131086	0.275694	0.5250657
1.0779108332570058	0.3063803	0.5535163
1.0954383683201119	0.33648944	0.5800771
1.112965929012607	0.42010716	0.64815676
1.1304935157446763	0.5839081	0.76413876
1.1480211289265108	0.6375801	0.7984861
1.1655487689683062	1.5423514	1.2419144
1.1830764362802655	1.8295982	1.3526264
1.200604131272596	2.241039	1.49701
1.2181318543555117	2.4554489	1.5669872
1.235659605939232	2.4801166	1.5748386
1.253187386433982	4.1278033	2.0316997
1.270715196249994	6.322267	2.514412
1.2882430357975057	11.681259	3.4177856
1.3057709054867608	16.420963	4.052279
1.3232988057280106	22.262728	4.7183394
1.3408267369315112	27.319866	5.226841
1.358354699507526	30.56186	5.5282784
1.3758826938663256	34.58394	5.880811
1.3934107204181858	36.61798	6.051279
1.410938779573391	36.983273	6.0813875
1.4284668717422309	37.3835	6.114205
1.4459949973350033	36.771816	6.063977
1.4635231567620117	37.10661	6.0915194
1.4810513504335687	36.415035	6.0344872
1.4985795787599925	35.983738	5.998645
1.5161078421516088	35.283142	5.9399614
1.5336361410187505	34.373257	5.862871
1.5511644757717598	34.026653	5.833237
1.5686928468209842	34.789474	5.89826
1.58622125457678	35.40731	5.950404
1.6037496994495108	36.69059	6.057276
1.621278181849548	36.765137	6.063426
1.6388067021872719	37.252155	6.1034546
1.6563352608730693	36.722256	6.0598893
1.673863858317336	35.71164	5.9759216
1.6913924949304753	35.356995	5.9461746
1.7089211711228998	34.237457	5.8512783
1.7264498873050296	33.310596	5.7715335
1.7439786438872935	32.44475	5.6960297
1.7615074412801288	31.343805	5.5985537
1.779036279893981	30.743496	5.5446815
1.796565160139305	29.853384	5.463825
1.814094082426564	29.13923	5.3980765
1.8316230471662298	28.348867	5.3243656
1.849152054768784	27.627258	5.256164
1.8666811056447168	27.097282	5.205505
1.8842102002045273	26.325788	5.130866
1.901739338858724	25.621647	5.061783
1.9192685220178245	24.94927	4.9949245
1.9367977500923557	24.530273	4.9528046
1.9543270234928547	24.101196	4.909297
1.971856342629867	23.515276	4.849255
1.9893857079139496	22.802828	4.775231
2.006915119755667	22.381973	4.730959
2.0244445785655945	21.765411	4.6653414
2.0419740847543175	21.387592	4.624672
2.0595036387324317	20.866196	4.567953
2.0770332409105414	20.610193	4.539845
2.094562891699263	20.458696	4.523129
2.1120925915092217	20.139986	4.4877596
2.129622340751053	19.832796	4.4534025
2.1471521398354043	187.88232	13.707017
2.1646819891729323	444.01355	21.071629
2.182211889174303	440.27768	20.982796
2.1997418402501974	452.7268	21.277378
2.2172718428113023	432.54	20.797596
2.234801897268317	320.48172	17.902002
2.2523320040319548	17.008661	4.124156
2.269862163512935	16.690086	4.08535
2.287392376121992	16.360378	4.0447965
2.304922642269869	15.935152	3.9918857
2.322452962367322	15.666205	3.9580557
2.3399833368251164	15.5525055	3.9436665
2.357513766054032	15.263027	3.9067924
2.3750442504648586	14.812618	3.8487165
2.3925747904683963	14.447603	3.8010004
2.410105386475459	14.204016	3.7688215
2.4276360388968707	13.982782	3.7393558
2.445166748143469	13.968195	3.7374048
2.4626975146261025	13.801724	3.7150671
2.4802283387556323	13.521014	3.6770933
2.4977592209429305	13.2054825	3.6339347
2.5152901615988825	12.857241	3.5856996
2.5328211611343865	12.787932	3.576022
2.5503522199603523	12.515989	3.5377944
2.5678833384877024	12.236136	3.498019
2.5854145171273712	11.965163	3.4590697
2.6029457562903064	11.856654	3.4433494
2.620477056387469	11.64601	3.412625
2.6380084178298326	11.623118	3.4092696
2.655539841028383	11.406393	3.3773353
2.673071326394119	11.229491	3.3510432
2.6906028743380523	11.1346655	3.3368647
2.708134485271211	10.954311	3.3097298
2.7256661596046325	10.748726	3.2785249
2.743197897749369	10.473585	3.236292
2.760729700116486	10.358684	3.2184908
2.778261567117063	10.166947	3.188565
2.795793499162193	9.918898	3.1494281
2.8133254966629817	9.753032	3.1229844
2.830857560030551	9.650628	3.106546
2.8483896896760337	9.696816	3.1139712
2.865921886010578	9.624541	3.1023445
2.883454149445347	9.526256	3.0864632
2.9009864803915177	9.438471	3.0722094
2.91851887926028	9.295687	3.048883
2.9360513464628384	9.160289	3.0265968
2.953583882410413	8.95398	2.9923203
2.9711164875142373	8.78227	2.9634895
2.9886491621855606	8.665844	2.9437807
3.0061819068356455	8.615809	2.9352698
3.023714721875769	8.4426365	2.9056215
3.041247607717225	8.353784	2.8902912
3.0587805647713213	8.154086	2.855536
3.0763135934493806	8.054504	2.8380458
3.0938466941627407	8.051246	2.8374717
3.1113798673227544	8.138953	2.852885
3.1289131133407904	8.073207	2.8413389
3.1464464326282315	7.9150176	2.813364
3.1639798255964786	7.7047257	2.7757387
3.1815132926569443	7.484584	2.7357967
3.1990468342210603	7.4314327	2.7260654
3.216580450700272	7.41282	2.7226493
3.2341141425060416	7.4127126	2.7226298
3.251647910049847	7.3026376	2.7023392
3.2691817537431813	7.1836567	2.6802344
3.286715673997555	7.1104984	2.6665518
3.3042496712244938	6.9217978	2.630931
3.32178374583554	6.817482	2.6110308
3.339317898242251	6.8457794	2.616444
3.3568521288562034	6.8397355	2.6152887
3.3743864380889876	6.7859306	2.604982
3.3919208263522127	6.6212544	2.5731797
3.4094552940575023	6.523513	2.5541167
3.4269898416164972	6.5049844	2.550487
3.444524469440858	6.5500083	2.5592985
3.4620591779422587	6.5203366	2.553495
3.479593967532391	6.541471	2.55763
3.4971288386229658	6.479221	2.5454314
3.5146637916257086	6.430857	2.5359135
3.5321988269523628	6.352993	2.5205145
3.5497339450146903	6.2696786	2.5039327
3.5672691462244708	6.2935395	2.5086927
3.5848044309934988	6.2344646	2.496891
3.60233979973359	6.32017	2.513995
3.619875252856575	6.350379	2.519996
3.6374107907743034	6.4030576	2.5304263
3.6549464138986427	6.2870917	2.5074074
3.6724821226414788	6.2535586	2.5007117
3.690017917414714	6.2154193	2.4930742
3.7075537986302702	6.3223286	2.514424
3.7250897667000857	6.354106	2.5207353
3.7426258220361235	6.4175715	2.5332925
3.7601619650503553	6.6258903	2.5740805
3.777698196154779	7.098575	2.6643152
3.7952345157614067	8.188482	2.8615525
3.8127709242822716	8.978093	2.9963467
3.830307422129425	11.341493	3.3677132
3.847844009714936	30.198082	5.4952784
3.8653806874508954	97.76274	9.887505
3.882917455749409	96.88212	9.842872
3.900454315022606	96.20038	9.808179
3.917991265682631	40.68119	6.378181
3.9355283081416506	10.353432	3.217675
3.9530654428118495	8.354965	2.8904958
3.970602670105433	7.2180934	2.686651
3.9881399904346244	6.317987	2.5135605
4.005677404211669	6.247491	2.4994981
4.023214911848827	6.252015	2.500403
4.0407525137583855	6.31803	2.513569
4.058290210352644	6.3400283	2.5179412
4.075828002043927	6.2001944	2.4900188
4.0933658892445814	6.1846647	2.4868987
4.110903872366966	6.1484027	2.4795973
4.128441951823468	6.100511	2.4699214
4.145980128026488	6.0767264	2.4651017
4.163518401388452	6.0713124	2.4640033
4.181056772321807	6.0337224	2.4563637
4.1985952412390155	6.0094285	2.4514136
4.216133808552567	5.9517817	2.4396274
4.233672474674966	5.9627743	2.4418793
4.251211240018741	6.174126	2.484779
4.268750104996445	6.4331675	2.5363688
4.286289070020643	7.4080906	2.7217808
4.303828135503928	9.15837	3.02628
4.3213673018589125	29.539839	5.4350567
4.3389065694982305	90.64508	9.520771
4.356445938834537	165.66855	12.871229
4.3739854102805085	170.88768	13.072401
4.391524984248844	171.75662	13.105595
4.409064661152262	136.02768	11.663091
4.426604441403504	96.25791	9.811111
4.444144325415337	75.36851	8.681503
4.461684313600543	21.380608	4.623917
4.47922440637193	21.72611	4.6611276
4.496764604142329	20.021917	4.4745855
4.5143049073245916	18.181223	4.2639446
4.531845316331589	16.149826	4.0186844
4.5493858315762195	13.286895	3.6451194
4.566926453471405	11.009461	3.3180509
4.584467182430081	8.93921	2.9898512
4.602008018865218	7.8701477	2.8053784
4.619548963189798	7.3441944	2.7100174
4.637090015816834	6.957545	2.6377158
4.654631177159353	6.656785	2.5800745
4.672172447630417	6.323839	2.5147245
4.689713827643102	6.1341686	2.4767253
4.7072553176105085	5.916146	2.432313
4.724796917945764	5.796577	2.407608
4.742338629062015	5.72077	2.391813
4.759880451372434	5.6267824	2.372084
4.777422385290215	5.6660805	2.380353
4.794964431228581	5.602524	2.366965
4.812506589600768	5.579403	2.362076
4.830048860820047	5.5179806	2.3490381
4.847591245299709	5.5326843	2.352166
4.8651337434530655	5.550421	2.3559332
4.882676355693457	5.4796352	2.340862
4.900219082434242	5.437492	2.3318431
4.917761924088813	5.3474317	2.3124514
4.935304881070575	5.3436756	2.311639
4.952847953792969	5.339706	2.3107803
4.970391142669449	5.270784	2.2958188
4.9879344481135055	5.3399944	2.3108428
5.005477870538642	5.351966	2.3134317
5.023021410358394	5.36697	2.316672
5.040565067986324	5.3438773	2.3116827
5.05810884383601	5.327531	2.3081446
5.075652738321066	5.3203607	2.3065908
5.09319675185512	5.2690606	2.2954435
5.110740884851836	5.3353395	2.3098354
5.128285137724894	5.4135375	2.326701
5.145829510888007	5.41178	2.3263233
5.163374004754908	5.330346	2.3087542
5.1809186197393595	5.2448926	2.290173
5.198463356255145	5.260029	2.2934754
5.216008214716077	5.2980046	2.3017395
5.233553195535998	5.313589	2.3051224
5.251098299128764	5.2887154	2.2997208
5.268643525908272	5.17232	2.2742734
5.286188876288432	5.1935554	2.2789373
5.3037343506831895	5.164708	2.2725995
5.32127994950651	5.2076664	2.2820313
5.3388256731723915	5.2243257	2.2856784
5.356371522094851	5.2507067	2.2914422
5.373917496687938	5.223885	2.285582
5.391463597365729	5.158729	2.2712836
5.40900982454232	5.1360426	2.266284
5.426556178631843	5.1318073	2.2653494
5.444102660048449	5.1724744	2.2743075
5.4616492692063225	5.196154	2.2795074
5.479196006519669	5.195733	2.2794151
5.496742872402727	5.1662607	2.2729409
5.514289867269756	5.1247253	2.2637856
5.531836991535049	5.111305	2.2608197
5.549384245612924	5.105813	2.2596047
5.566931629917724	5.127276	2.264349
5.584479144863822	5.0846257	2.2549114
5.6020267908656205	5.0460696	2.2463458
5.619574568337545	5.010069	2.2383182
5.637122477694054	5.010545	2.2384245
5.654670519349629	5.049801	2.2471762
5.672218693718784	5.0754704	2.2528806
5.689767001216059	5.104563	2.2593281
5.707315442256021	5.0987716	2.258046
5.724864017253266	5.0720215	2.2521148
5.7424127266224225	5.0660515	2.2507892
5.75996157077814	5.131175	2.2652097
5.777510550135105	5.1520844	2.2698205
5.795059665108022	5.178809	2.2756996
5.812608916111639	5.169139	2.273574
5.830158303560715	5.248687	2.2910013
5.847707827870055	5.2259912	2.2860427
5.86525748945448	5.1815577	2.2763035
5.8828072887288485	5.2999544	2.302163
5.900357226108044	5.3912697	2.3219109
5.917907302006979	5.50603	2.3464932
5.9354575168406	6.189117	2.4877937
5.9530078710238765	6.7638497	2.6007402
5.970558364971812	7.2916474	2.700305
5.988108999099438	7.625413	2.761415
6.005659773821818	8.183011	2.8605962
6.023210689554039	7.9947805	2.8275044
6.040761746711227	8.448116	2.9065642
6.058312945708531	7.881337	2.8073719
6.075864286961132	7.4763303	2.734288
6.093415770884244	6.674025	2.5834134
6.1109673978931065	6.041049	2.4578545
6.128519168402993	5.3634644	2.3159153
6.146071082829204	5.2950196	2.301091
6.163623141587075	5.230893	2.2871146
6.181175345091969	5.198749	2.2800765
6.198727693759281	5.1426673	2.267745
6.216280188004435	5.089957	2.2560933
6.233832828242885	5.0581713	2.2490377
6.251385614890126	5.0534983	2.2479987
6.268938548361669	5.018888	2.2402875
6.286491629073067	5.0140233	2.2392015
6.304044857439898	4.978788	2.2313197
6.321598233877777	4.9280877	2.2199297
6.339151758802344	4.8515844	2.2026312
6.356705432629277	4.830017	2.19773
6.37425925577428	4.8071065	2.1925116
6.391813228653095	4.8610263	2.2047734
6.409367351681486	4.8836737	2.2099035
6.426921625275259	4.92149	2.2184432
6.44447604985025	4.8874326	2.210754
6.46203062582232	4.858824	2.204274
6.47958535360737	4.8472476	2.2016466
6.497140233621328	4.871033	2.2070417
6.514695266280161	4.9833016	2.232331
6.532250451999859	5.0070753	2.2376494
6.549805791196454	5.018183	2.2401302
6.567361284286002	4.974787	2.2304232
6.584916931684597	5.0182266	2.24014
6.602472733808367	5.0153017	2.239487
6.6200286910734665	5.025222	2.2417006
6.637584803896092	4.9969378	2.235383
6.655141072692462	4.94611	2.2239852
6.672697497878842	4.9288545	2.2201023
6.690254079871514	4.95949	2.2269912
6.707810819086808	4.9635935	2.2279124
6.725367715941078	4.9848485	2.2326775
6.742924770850719	4.998765	2.235792
6.760481984232151	4.953445	2.2256336
6.778039356501836	4.9323215	2.2208831
6.795596888076266	4.9086504	2.2155473
6.813154579371963	4.9352684	2.2215464
6.830712430805492	4.9003315	2.2136693
6.84827044279344	4.8262286	2.196868
6.865828615752445	4.791003	2.188836
6.883386950099159	4.790689	2.1887643
6.900945446250287	4.8181243	2.1950226
6.918504104622553	4.793925	2.1895034
6.936062925632727	4.8374605	2.1994228
6.953621909697607	4.933963	2.2212524
6.971181057234028	4.9883676	2.2334654
6.988740368658859	5.0679884	2.2512193
7.006299844389007	5.156364	2.270763
7.023859484841407	5.247595	2.290763
7.041419290433036	5.2616	2.2938178
7.058979261580902	5.3732705	2.3180315
7.0765393987020495	5.573771	2.3608835
7.094099702213559	5.9110036	2.4312556
7.111660172532549	6.2383194	2.4976628
7.129220810076164	6.5636883	2.5619695
7.146781615261595	7.1089396	2.6662595
7.16434258850606	7.412765	2.7226393
7.181903730226821	7.8344975	2.7990172
7.1994650408411704	7.991761	2.8269703
7.217026520766437	8.148131	2.8544931
7.234588170419983	8.405752	2.8992674
7.252149990219215	8.4004545	2.8983538
7.269711980581568	8.240937	2.8707032
7.2872741419245175	8.047619	2.8368325
7.304836474665574	7.649328	2.7657418
7.322398979222286	7.3688803	2.7145681
7.339961656012233	7.113697	2.6671515
7.357524505453039	6.735179	2.5952222
7.375087527962357	6.500587	2.549625
7.392650723957886	6.230313	2.4960594
7.410214093857353	5.8805647	2.4249876
7.427777638078528	5.6731467	2.381837
7.445341357039213	5.42321	2.3287787
7.4629052511572525	5.2398486	2.2890716
7.480469320850524	5.1390753	2.2669528
7.498033566536948	5.090337	2.2561774
7.5155979886344735	5.0692153	2.2514918
7.5331625875610975	5.0351877	2.2439225
7.550727363734844	5.0662313	2.250829
7.568292317573788	5.09682	2.2576137
7.585857449496025	5.141423	2.2674706
7.603422759919705	5.1449294	2.2682438
7.620988249263007	5.1433	2.2678845
7.638553917944147	5.13824	2.2667687
7.656119766381391	5.1178765	2.2622724
7.673685794993023	5.0978594	2.257844
7.691252004197388	5.1330247	2.2656178
7.70881839441285	5.2087955	2.2822785
7.726384966057826	5.2359376	2.288217
7.743951719550762	5.22297	2.2853818
7.761518655310149	5.2143984	2.2835057
7.779085773754511	5.1994467	2.2802296
7.796653075302419	5.162657	2.2721481
7.814220560372475	5.173808	2.2746007
7.831788229383323	5.2041297	2.2812562
7.8493560827536495	5.2566566	2.2927399
7.866924120902174	5.222189	2.2852108
7.884492344247663	5.231525	2.2872527
7.9020607532089135	5.20454	2.281346
7.919629348204771	5.231607	2.2872705
7.937198129654115	5.2738304	2.296482
7.954767097975865	5.298987	2.3019528
7.972336253588986	5.30614	2.303506
7.989905596912472	5.32353	2.3072777
8.007475128365371	5.336204	2.3100226
8.025044848366756	5.3794007	2.3193536
8.042614757335754	5.447956	2.3340857
8.060184855691523	5.5014977	2.3455272
8.07775514385327	5.628092	2.37236
8.095325622240228	5.7632523	2.4006774
8.112896291271687	5.795529	2.4073904
8.130467151366968	5.861723	2.4210994
8.148038202945436	5.7952247	2.4073272
8.165609446426497	5.756586	2.3992887
8.183180882229594	5.743911	2.3966458
8.200752510774217	5.7361846	2.3950334
8.218324332479893	5.798134	2.4079313
8.235896347766193	5.8133807	2.4110954
8.253468557052724	5.870115	2.422832
8.27104096075914	5.8576035	2.4202487
8.288613559305137	5.9267316	2.434488
8.306186353110448	5.9926515	2.4479892
8.32375934259485	6.128871	2.4756556
8.341332528178162	6.1344194	2.4767761
8.358905910280246	6.1271644	2.475311
8.376479489321003	6.1237025	2.4746115
8.394053265720377	6.181954	2.4863536
8.411627239898356	6.1872063	2.4874096
8.42920141227497	6.1526585	2.4804554
8.44677578327029	6.195583	2.4890928
8.464350353304427	6.1798654	2.4859335
8.48192512279754	6.130452	2.475975
8.499500092169827	6.0827847	2.4663303
8.51707526184153	6.068009	2.463333
8.534650632232934	6.03677	2.4569838
8.552226203764365	5.994852	2.4484386
8.569801976856192	6.032878	2.4561918
8.587377951928834	6.0608635	2.461882
8.60495412940274	6.1276684	2.4754128
8.622530509698416	6.1335177	2.476594
8.6401070932364	6.247227	2.4994454
8.657683880437283	6.324345	2.514825
8.675260871721695	6.524652	2.55434
8.692838067510303	6.6804605	2.5846586
8.710415468223834	6.876353	2.6222801
8.727993074283043	7.0042124	2.6465473
8.745570886108737	7.0114865	2.647921
8.763148904121765	7.0304766	2.6515045
8.78072712874302	7.00513	2.6467206
8.798305560393441	7.1921315	2.681815
8.815884199494006	7.345804	2.7103145
8.833463046465745	7.5632806	2.7501419
8.851042101729728	7.6677327	2.769067
8.86862136570707	8.039358	2.8353763
8.886200838818924	8.263856	2.8746922
8.903780521486505	8.366447	2.892481
8.921360414131055	8.503937	2.916151
8.938940517173874	8.572138	2.9278214
8.956520831036297	8.753245	2.9585884
8.97410135613971	9.03185	3.0053036
8.99168209290554	9.188551	3.0312622
9.009263041755265	9.372238	3.0614111
9.026844203110405	9.558081	3.0916145
9.044425577392525	9.753878	3.1231198
9.062007165023239	9.872936	3.142123
9.079588966424197	10.136397	3.183771
9.097170982017108	10.125482	3.1820562
9.11475321222372	11.1724205	3.3425171
9.132335657465825	12.205101	3.4935799
9.149918318165264	12.351673	3.5144947
9.167501194743924	12.989301	3.6040673
9.18508428762374	12.625718	3.5532687
9.202667597226693	12.598864	3.5494878
9.220251123974803	12.191076	3.4915721
9.237834868290143	11.908395	3.4508543
9.255418830594836	11.789309	3.4335563
9.273003011311046	11.339871	3.3674726
9.290587410860985	11.0875845	3.3298025
9.308172029666911	10.357448	3.218299
9.32575686815113	9.961499	3.1561842
9.343341926735997	8.709464	2.9511802
9.360927205843916	8.529255	2.9204888
9.378512705897327	8.288014	2.8788912
9.396098427318728	8.020393	2.8320298
9.413684370530664	7.906689	2.8118834
9.431270535955722	7.782065	2.7896352
9.448856924016539	7.696648	2.7742834
9.466443535135806	7.5322814	2.7445002
9.484030369736251	7.513723	2.741117
9.501617428240658	7.5334578	2.7447145
9.519204711071852	7.6075497	2.7581787
9.536792218652714	7.654723	2.766717
9.55437995140617	7.7172327	2.7779908
9.571967909755191	7.7305293	2.7803829
9.589556094122802	7.7718067	2.787796
9.60714450493207	7.8084254	2.794356
9.624733142606116	7.860055	2.8035789
9.642322007568108	7.8792	2.8069913
9.659911100241267	7.9285903	2.8157752
9.677500421048851	8.009372	2.8300834
9.695089970414175	8.0656185	2.8400033
9.712679748760609	8.053212	2.8378181
9.730269756511557	8.037086	2.8349755
9.747859994090492	8.065929	2.840058
9.765450461920915	8.14505	2.8539534
9.78304116042639	8.189239	2.8616846
9.800632090030527	8.304241	2.8817081
9.81822325115699	8.328919	2.8859868
9.835814644229481	8.28847	2.8789704
9.853406269671762	8.150847	2.8549688
9.870998127907646	8.152992	2.8553445
9.888590219360985	8.133875	2.851995
9.906182544455698	8.1988325	2.8633604
9.923775103615734	8.2534075	2.8728745
9.941367897265108	8.280269	2.8775456
9.958960925827878	8.327443	2.885731
9.97655418972816	8.260269	2.8740685
9.994147689390106	8.230927	2.8689592
10.011741425237934	8.169159	2.858174
10.029335397695904	8.179437	2.8599715
10.04692960718833	8.182752	2.8605509
10.06452405413958	8.178379	2.8597865
10.082118738974064	8.164196	2.8573058
10.099713662116246	8.160636	2.8566828
10.117308823990651	8.119533	2.8494794
10.134904225021844	8.156067	2.855883
10.152499865634445	8.18811	2.8614874
10.170095746253125	8.2424345	2.870964
10.18769186730261	8.172915	2.8588312
10.205288229207675	8.1347885	2.852155
10.222884832393145	8.068734	2.8405519
10.2404816772839	8.0962	2.8453822
10.258078764304868	8.098574	2.8457992
10.275676093881035	8.064585	2.8398213
10.293273666437438	8.001328	2.828662
10.310871482399158	8.040024	2.8354936
10.32846954219134	8.050233	2.8372931
10.346067846239173	8.013334	2.8307834
10.363666394967908	7.997982	2.8280704
10.38126518880283	7.966494	2.8224978
10.398864228169298	8.010002	2.8301947
10.416463513492713	8.035316	2.8346634
10.434063045198531	7.999002	2.8282506
10.451662823712262	7.9990387	2.828257
10.469262849459467	7.959299	2.821223
10.486863122865758	7.9312415	2.816246
10.504463644356806	7.9217014	2.8145518
10.522064414358338	7.958359	2.8210564
10.539665433296118	7.9121647	2.8128572
10.557266701595987	7.915885	2.8135183
10.574868219683818	7.7770348	2.7887335
10.592469987985552	7.597938	2.7564359
10.610072006927185	7.444993	2.7285514
10.627674276934751	7.3411627	2.709458
10.64527679843435	7.2751517	2.697249
10.662879571852143	7.1880836	2.68106
10.680482597614331	7.1200695	2.668346
10.698085876147173	7.0136275	2.6483254
10.715689407876988	6.941127	2.6346018
10.733293193230146	6.797579	2.6072166
10.750897232633072	6.701865	2.5887961
10.76850152651225	6.667279	2.5821075
10.786106075294207	6.593682	2.5678165
10.803710879405534	6.5230618	2.5540285
10.821315939272877	6.4043546	2.5306826
10.83892125532294	6.3544955	2.5208125
10.856526827982472	6.2871933	2.5074277
10.874132657678285	6.2306066	2.4961183
10.891738744837243	6.178468	2.4856524
10.909345089886271	6.150218	2.4799633
10.926951693252343	6.1197143	2.4738057
10.944558555362494	6.0548067	2.4606516
10.96216567664381	5.940059	2.4372237
10.979773057523436	5.805899	2.4095433
10.997380698428573	5.763182	2.400663
11.014988599786477	5.698554	2.3871644
11.032596762024461	5.6959047	2.3866096
11.050205185569892	5.6348553	2.373785
11.067813870850198	5.615907	2.3697906
11.085422818292859	5.535469	2.3527577
11.10303202832541	5.449979	2.334519
11.120641501375454	5.332405	2.3092
11.138251237870636	5.278246	2.2974434
11.155861238238671	5.248798	2.2910254
11.173471502907317	5.2470484	2.2906437
11.191082032304402	5.149124	2.2691681
11.208692826857805	5.07646	2.2531002
11.226303886995465	5.047537	2.2466724
11.243915213145371	5.000034	2.2360756
11.261526805735578	4.9595056	2.2269948
11.279138665194196	4.896676	2.2128434
11.296750791949393	4.8840585	2.2099905
11.314363186429393	4.820348	2.195529
11.331975849062479	4.732015	2.1753194
11.34958878027699	4.660776	2.158883
11.36720198050133	4.6241755	2.1503897
11.384815450163948	4.590266	2.1424906
11.402429189693366	4.5252037	2.1272526
11.420043199518153	4.496405	2.120473
11.437657480066942	63.479855	7.9674244
11.455272031768422	85.18061	9.229334
11.472886855051353	107.51075	10.368739
11.490501950344528	99.05345	9.95256
11.508117318076819	84.42777	9.188458
11.52573295867715	45.816788	6.76881
11.543348872574514	4.13139	2.032582
11.560965060197946	4.0936213	2.02327
11.57858152197655	4.0597787	2.0148892
11.59619825833949	3.9960825	1.9990203
11.613815269715985	3.926872	1.9816337
11.631432556535323	38.449604	6.2007747
11.649050119226837	83.02296	9.111693
11.666667958219929	93.46695	9.66783
11.68428607394406	107.74395	10.379978
11.701904466828756	82.56044	9.086278
11.719523137303586	65.36984	8.085162
11.737142085798196	4.592451	2.1430006
11.754761312742286	3.7043924	1.9246799
11.772380818565619	3.665819	1.9146328
11.790000603698015	3.635838	1.9067874
11.80762066856935	3.6169655	1.9018321
11.825241013609572	3.6116061	1.9004226
11.842861639248683	3.5917053	1.8951795
11.860482545916748	3.5623546	1.88742
11.878103734043883	3.5164244	1.8752131
11.895725204060282	3.422112	1.8498951
11.91334695639619	3.349763	1.8302357
11.930968991481919	3.3132062	1.8202214
11.948591309747824	3.3078196	1.8187412
11.966213911624347	3.3154588	1.8208401
11.98383679754198	3.2882698	1.8133587
12.001459967931268	3.2171936	1.7936537
12.019083423222835	3.1925554	1.7867724
12.036707163847352	3.1542993	1.7760347
12.05433119023556	3.1804397	1.7833787
12.071955502818259	3.173638	1.7814708
12.089580102026313	3.1615105	1.7780637
12.107204988290643	3.149468	1.774674
12.12483016204224	3.1318471	1.7697026
12.142455623712152	3.1210263	1.7666427
12.16008137373149	3.0633335	1.7502382
12.177707412531431	2.9926019	1.7299138
12.19533374054321	3.0005789	1.7322179
12.212960358198126	2.9944406	1.7304451
12.230587265927545	3.0055983	1.7336662
12.248214464162889	2.9492278	1.7173316
12.265841953335649	2.9439914	1.7158064
12.283469733877375	2.9423862	1.7153385
12.301097806219685	2.9500678	1.7175761
12.31872617079425	2.938538	1.7142165
12.336354828032825	2.9336352	1.7127858
12.353983778367205	2.9296122	1.711611
12.371613022229262	2.9072335	1.7050611
12.389242560050928	2.8751726	1.6956334
12.406872392264201	2.8766634	1.6960729
12.424502519301143	2.8836553	1.6981329
12.442132941593874	2.8639371	1.6923171
12.459763659574586	2.8301096	1.6822929
12.477394673675532	2.7878778	1.669694
12.49502598432903	2.7709177	1.6646074
12.51265759196746	2.7636893	1.6624347
12.530289497023267	2.752423	1.6590428
12.547921699928967	2.7214181	1.6496722
12.565554201117134	2.7089224	1.6458805
12.583187001020404	2.7357185	1.6540008
12.600820100071486	2.8038926	1.6744828
12.618453498703152	2.8189654	1.6789775
12.636087197348235	2.8172739	1.6784737
12.65372119643964	2.7870557	1.6694478
12.671355496410326	2.7949839	1.6718205
12.68899009769333	2.8383825	1.68475
12.706625000721749	2.8737433	1.6952119
12.724260205928752	2.9586809	1.7200817
12.741895713747551	2.919914	1.7087756
12.759531524611454	2.9111867	1.70622
12.777167638953818	2.8820395	1.6976571
12.794804057208072	2.912209	1.7065196
12.812440779807702	2.9822762	1.7269268
12.830077807186271	3.1369994	1.7711576
12.847715139777405	3.1704984	1.7805893
12.865352778014795	3.385341	1.8399296
12.882990722332197	3.4837365	1.866477
12.90062897316344	3.5669508	1.8886373
12.918267530942412	3.6666226	1.9148427
12.935906396103071	3.548257	1.8836818
12.953545569079449	3.6991487	1.9233171
12.971185050305628	3.5308332	1.8790512
12.988824840215775	3.5214434	1.8765509
13.006464939244115	3.5406232	1.8816544
13.024105347824943	3.343611	1.8285544
13.041746066392617	3.4407551	1.8549273
13.05938709538157	3.2534087	1.8037208
13.077028435226296	3.2998722	1.816555
13.094670086361363	3.2063916	1.79064
13.112312049221401	3.1392379	1.7717894
13.129954324241112	3.106234	1.7624512
13.147596911855258	2.923314	1.7097702
13.165239812498685	2.8726404	1.6948866
13.182883026606293	2.7953079	1.6719174
13.200526554613058	2.7315776	1.6527485
13.218170396954017	2.7026837	1.6439841
13.235814554064284	2.6754155	1.6356697
13.253459026379034	2.6990068	1.6428654
13.271103814333523	2.7167315	1.648251
13.288748918363058	2.7310872	1.6526002
13.306394338903031	2.674183	1.6352929
13.32404007638889	2.63442	1.6230897
13.341686131256164	2.6355057	1.623424
13.359332503940449	2.6570678	1.6300515
13.376979194877402	2.6639931	1.6321744
13.394626204502751	2.6894336	1.6399492
13.412273533252307	2.677631	1.6363468
13.429921181561937	2.6561916	1.6297827
13.447569149867581	2.6704416	1.6341486
13.465217438605247	2.6966138	1.6421369
13.482866048211022	2.6798427	1.6370225
13.500514979121052	2.6502736	1.627966
13.518164231771568	2.581573	1.6067275
13.535813806598844	2.576253	1.605071
13.553463704039254	2.6059	1.61428
13.571113924529229	2.6240032	1.6198776
13.588764468505275	2.643926	1.6260153
13.606415336403956	2.650595	1.6280648
13.624066528661917	2.670076	1.6340367
13.641718045715882	2.7638965	1.662497
13.659369888002635	2.817046	1.6784058
13.67702205595903	2.876199	1.6959361
13.694674550021993	2.9502819	1.7176385
13.712327370628532	3.0106747	1.7351296
13.729980518215713	3.0846632	1.756321
13.747633993220681	3.1440232	1.7731394
13.765287796080647	3.2215912	1.7948792
13.7829419272329	3.2561169	1.8044714
13.800596387114801	3.281542	1.8115027
13.818251176163775	3.3083827	1.818896
13.835906294817324	3.3680174	1.8352159
13.853561743513023	3.421817	1.8498154
13.871217522688525	3.4573846	1.8594043
13.888873632781538	3.466398	1.8618265
13.906530074229858	3.446412	1.8564515
13.92418684747135	3.4563417	1.859124
13.941843952943948	3.4540188	1.858499
13.959501391085665	3.4768715	1.8646371
13.977159162334578	3.3866432	1.8402834
13.994817267128846	3.3445504	1.8288112
14.012475705906693	3.2367868	1.7991072
14.030134479106424	3.19372	1.7870983
14.047793587166414	3.1246278	1.7676617
14.065453030525108	3.0708642	1.7523881
14.083112809621026	2.9753854	1.7249305
14.100772924892766	2.894379	1.7012874
14.118433376778997	2.8407261	1.6854454
14.136094165718458	2.7807746	1.6675655
14.153755292149969	2.7545946	1.6596972
14.171416756512416	2.729517	1.652125
14.189078559244768	2.645757	1.6265783
14.20674070078606	2.568399	1.6026225
14.224403181575408	2.5033364	1.5821935
14.242066002051999	2.4513056	1.5656646
14.259729162655093	2.4337897	1.5600609
14.277392663824022	2.3896382	1.5458455
14.295056505998208	2.4307663	1.5590916
14.312720689617128	2.3889854	1.5456343
14.330385215120348	2.3659894	1.5381774
14.348050082947497	2.342478	1.5305157
14.3657152935383	2.3748531	1.5410558
14.383380847332528	2.3982768	1.548637
14.401046744770051	2.4185297	1.5551623
14.418712986290798	2.4037676	1.5504088
14.436379572334793	2.394794	1.5475122
14.454046503342123	2.3474767	1.5321478
14.471713779752946	2.3470387	1.5320048
14.489381402007504	2.3504536	1.533119
14.507049370546113	2.35544	1.5347443
14.524717685809168	2.343135	1.5307302
14.542386348237134	2.3657804	1.5381093
14.560055358270553	2.3932967	1.5470283
14.577724716350051	2.420786	1.5558875
14.595394422916325	2.408195	1.551836
14.61306447841015	2.4429939	1.563008
14.63073488327237	2.4390905	1.5617588
14.648405637943917	2.4832077	1.5758197
14.6660767428658	2.4815197	1.575284
14.683748198479094	2.5088742	1.5839427
14.701420005224954	2.5012417	1.5815314
14.719092163544628	2.5601935	1.6000605
14.73676467387942	2.6376655	1.6240891
14.754437536670727	2.7033732	1.6441938
14.772110752360014	2.69859	1.6427386
14.78978432138882	2.6811697	1.6374278
14.807458244198777	2.6644306	1.6323084
14.82513252123159	2.6376548	1.6240858
14.842807152929028	2.6463053	1.6267469
14.860482139732962	2.6252062	1.6202488
14.87815748208531	2.6443822	1.6261556
14.8958331804281	2.66496	1.6324705
14.91350923520342	2.6297693	1.6216563
14.931185646853438	2.6234477	1.619706
14.948862415820408	2.587073	1.6084381
14.966539542546656	2.6152387	1.61717
14.98421702747459	2.6248133	1.6201276
15.001894871046696	2.6361477	1.6236218
15.019573073705542	2.6410644	1.6251352
15.037251635893766	2.6227996	1.619506
15.054930558054092	2.6451256	1.6263843
15.072609840629323	2.632234	1.6224161
15.090289484062351	2.7564592	1.6602588
15.107969488796124	2.936546	1.7136353
15.125649855273691	3.1914985	1.7864766
15.14333058393817	3.507245	1.872764
15.161011675232768	4.012222	2.0030532
15.17869312960076	4.566415	2.136917
15.196374947485506	5.23985	2.2890718
15.214057129330447	6.589529	2.5670078
15.231739675579114	8.775855	2.9624069
15.249422586675102	13.5693445	3.683659
15.267105863062092	18.27564	4.275002
15.284789505183847	25.800953	5.079464
15.302473513484218	31.159695	5.582087
15.320157888407127	35.535095	5.961132
15.337842630396578	34.139282	5.842883
15.355527739896656	30.947332	5.5630326
15.37321321735153	23.916603	4.8904605
15.39089906320545	16.175213	4.021842
15.408585277902748	10.230573	3.1985266
15.42627186188783	6.2761083	2.5052161
15.443958815605198	4.4659657	2.1132832
15.461646139499424	3.6756613	1.9172014
15.479333834015168	3.2558215	1.8043895
15.497021899597165	3.0183086	1.737328
15.514710336690234	2.8405478	1.6853925
15.53239914573928	2.7136488	1.6473156
15.550088327189297	2.6123123	1.6162649
15.567777881485336	2.5562367	1.5988235
15.58546780907256	2.5043924	1.5825272
15.6031581103962	2.4991274	1.5808629
15.620848785901568	2.5069344	1.5833302
15.638539836034063	2.5146573	1.585767
15.656231261239173	2.4635108	1.5695575
15.673923061962451	2.421974	1.5562693
15.691615238649552	2.367639	1.5387135
15.709307791746202	2.3504283	1.5331106
15.727000721698221	2.362763	1.5371281
15.744694028951498	2.4042354	1.5505596
15.76238771395202	2.4586096	1.5679954
15.780081777145844	2.4642923	1.5698065
15.797776218979125	2.421043	1.5559701
15.815471039898094	2.3893313	1.5457462
15.833166240349064	2.429678	1.5587424
15.850861820778437	2.4275913	1.5580729
15.868557781632699	2.4244118	1.5570523
15.886254123358412	2.456258	1.5672454
15.903950846402232	2.5189843	1.5871308
15.921647951210897	2.5276148	1.5898474
15.939345438231225	2.5098867	1.5842623
15.957043307910133	2.5252633	1.5891078
15.974741560694602	2.5555158	1.598598
15.992440197031714	2.5391297	1.5934647
16.01013921736862	2.5017543	1.5816935
16.02783862215259	2.4543524	1.5666373
16.045538411830933	2.444917	1.5636231
16.06323858685107	2.4597216	1.56835
16.080939147660512	2.4611812	1.5688152
16.09864009470684	2.4480526	1.5646254
16.11634142843774	2.438222	1.5614806
16.134043149300954	2.4258924	1.5575277
16.15174525774433	2.4510415	1.5655802
16.169447754215817	2.455322	1.5669467
16.18715063916342	2.4628112	1.5693346
16.204853913035244	2.4338071	1.5600663
16.222557576279478	2.463263	1.5694786
16.240261629344403	22.47412	4.740688
16.257966072678386	43.032417	6.55991
16.275670906729868	38.093052	6.171957
16.293376131947387	2.4885626	1.5775179
16.31108174877957	2.4638948	1.5696799
16.328787757675133	2.5015204	1.5816195
16.34649415908287	2.5259333	1.5893185
16.364200953451657	2.5861714	1.6081578
16.38190814123048	2.636787	1.6238186
16.39961572286839	2.6889644	1.6398062
16.41732369881455	2.7073798	1.6454117
16.43503206951817	2.728616	1.6518523
16.45274083542859	2.7629557	1.662214
16.47044999699522	2.8506715	1.6883932
16.488159554667558	2.9019263	1.7035041
16.505869508895184	2.9291146	1.7114656
16.523579860127786	2.9100106	1.7058753
16.541290608815117	2.9348865	1.713151
16.559001755407035	2.9965384	1.7310512
16.57671330035348	3.1347713	1.7705286
16.59442524410448	3.2461543	1.8017087
16.61213758711015	3.4212766	1.8496693
16.629850329820705	3.51112	1.8737983
16.647563472686436	3.5488822	1.8838477
16.665277016157724	3.4775243	1.8648121
16.682990960685053	3.450812	1.8576362
16.70070530671898	3.4192924	1.8491329
16.718420054710155	3.4512424	1.857752
16.736135205109335	3.5214057	1.8765409
16.753850758367335	3.617921	1.9020834
16.771566714935087	3.6728785	1.9164755
16.789283075263597	3.706129	1.925131
16.80699983980398	3.7921982	1.9473567
16.82471700900741	3.8537238	1.9630904
16.84243458332518	3.8764718	1.9688758
16.860152563208665	3.8867912	1.9714947
16.87787094910932	3.9558396	1.9889293
16.89558974147871	4.0991077	2.0246253
16.913308940768466	4.1837564	2.0454233
16.931028547430333	4.1868477	2.0461788
16.94874856191613	4.2137723	2.0527475
16.966468984677785	4.221281	2.0545757
16.98418981616729	4.233028	2.0574324
17.00191105683676	4.285947	2.070253
17.019632707138374	4.398936	2.097364
17.03735476752442	4.4705143	2.1143591
17.05507723844728	4.5665383	2.136946
17.072800120359403	4.5812564	2.140387
17.090523413713353	4.6100373	2.1470997
17.108247118961785	4.64408	2.1550128
17.125971236557437	4.6318617	2.1521761
17.143695766953133	4.5935903	2.1432662
17.161420710601806	4.6033945	2.1455522
17.179146067956477	4.6453876	2.155316
17.19687183947025	4.6931543	2.166369
17.21459802559634	4.6828723	2.1639946
17.232324626788028	4.6420226	2.1545353
17.25005164349871	4.600892	2.144969
17.267779076181863	4.560498	2.1355324
17.285506925291074	4.5735197	2.138579
17.30323519127999	4.5950904	2.1436162
17.320963874602384	4.575283	2.138991
17.33869297571211	4.530183	2.1284225
17.356422495063114	4.5101566	2.123713
17.37415243310944	4.514726	2.1247885
17.391882790305218	4.5264125	2.1275368
17.40961356710468	4.5431466	2.131466
17.42734476396215	4.533916	2.1292994
17.445076381332044	4.5743713	2.138778
17.462808419668868	4.652058	2.156863
17.48054087942723	4.7442365	2.1781268
17.498273761061835	4.7755322	2.1852992
17.51600706502747	5.0311875	2.2430308
17.533740791779024	5.663683	2.3798494
17.551474941771485	6.627133	2.5743217
17.56920951545993	8.585483	2.9300995
17.586944513299528	9.84756	3.1380823
17.60467993574556	12.849013	3.584552
17.622415783253373	15.647319	3.9556692
17.64015205627843	18.595493	4.312249
17.657888755276293	21.022903	4.585074
17.675625880702604	22.742304	4.768889
17.69336343301311	21.295383	4.614692
17.71110141266366	19.14082	4.3750224
17.728839820110178	16.112076	4.013985
17.746578655808705	12.744518	3.5699465
17.764317920215372	10.576285	3.25212
17.7820576137864	8.831839	2.9718409
17.79979773697811	7.4264107	2.7251441
17.81753829024692	6.0158224	2.4527173
17.835279274049356	5.1739855	2.2746396
17.85302068884201	4.395704	2.0965934
17.870762535081607	3.994502	1.998625
17.888504813224934	3.8104603	1.9520401
17.90624752372891	3.6705656	1.915872
17.923990667050536	3.5781605	1.8916026
17.941734243646895	3.514302	1.8746471
17.959478253975185	3.5091915	1.8732836
17.9772226984927	3.4684527	1.8623782
17.994967577656833	3.422394	1.8499714
18.01271289192506	3.399149	1.8436781
18.030458641754965	3.384847	1.8397954
18.04820482760425	3.3805897	1.8386381
18.06595144993067	3.3324409	1.8254974
18.083698509192125	3.3260374	1.8237427
18.101446005846576	3.3381383	1.8270572
18.119193940352105	3.3123484	1.8199859
18.136942313166887	3.2422242	1.8006177
18.1546911247492	3.2058384	1.7904855
18.1724403755574	3.177708	1.7826127
18.19019006604997	3.1386824	1.7716327
18.207940196685467	3.0995173	1.7605447
18.225690767922575	3.0463839	1.7453893
18.243441780220046	3.0183983	1.7373538
18.261193234036764	2.9886422	1.728769
18.278945129831676	2.9806292	1.7264498
18.29669746806386	2.995923	1.7308735
18.314450249192483	2.9855266	1.7278676
18.3322034736768	3.0075004	1.7342147
18.349957141976184	3.016015	1.7366678
18.3677112545501	3.0103328	1.7350311
18.385465811858108	3.019272	1.7376053
18.403220814359884	3.017955	1.7372262
18.420976262515172	3.0393558	1.7433748
18.43873215678387	3.0768483	1.7540947
18.456488497625923	3.1829238	1.784075
18.474245285501407	3.3058422	1.8181975
18.492002520870486	3.360375	1.8331325
18.50976020419343	3.3975947	1.8432566
18.527518335930615	3.6269398	1.9044526
18.545276916542516	4.240352	2.0592115
18.563035946489688	4.457335	2.1112401
18.580795426232832	4.8631	2.2052438
18.598555356232698	4.6843786	2.1643426
18.616315736950185	4.9507236	2.225022
18.63407656884626	4.6061206	2.1461875
18.65183785238201	4.756319	2.1808987
18.669599588018617	4.526712	2.127607
18.68736177621737	4.5880823	2.141981
18.705124417439652	4.6093984	2.146951
18.72288751214696	4.3869696	2.0945094
18.740651060800886	4.4900513	2.1189742
18.758415063863115	4.194065	2.0479417
18.77617952179546	4.356583	2.0872428
18.793944435059814	4.119505	2.0296564
18.811709804118184	4.1162024	2.0288427
18.829475629432675	4.076416	2.0190136
18.8472419114655	3.8647423	1.9658948
18.86500865067897	3.9430594	1.9857138
18.88277584753551	3.6135886	1.9009441
18.90054350249763	3.650099	1.9105233
18.918311616027957	3.3552704	1.8317397
18.936080188589226	3.258499	1.8051313
18.953849220644265	2.993383	1.7301396
18.971618712656007	2.831999	1.6828544
18.9893886650875	2.785221	1.6688982
19.007159078401887	7.9568815	2.8207946
19.024929953062408	32.851357	5.7316103
19.042701289532435	32.77859	5.725259
19.060473088275405	25.321623	5.0320597
19.07824534975489	2.601648	1.6129625
19.096018074434568	2.61602	1.6174115
19.113791262778197	2.5976949	1.6117367
19.13156491524966	2.5571544	1.5991105
19.149339032312945	2.5384345	1.5932466
19.167113614432136	2.530809	1.5908517
19.184888662071433	2.5129406	1.5852257
19.202664175695123	2.5270758	1.5896779
19.220440155767623	2.5457592	1.5955435
19.238216602753447	2.5569246	1.5990386
19.2559935171172	2.5409698	1.594042
19.27377089932361	2.5496185	1.5967525
19.291548749837514	2.5405793	1.5939195
19.309327069123835	2.5055428	1.5828906
19.32710585764763	2.4571092	1.5675169
19.344885115874032	2.4653404	1.5701402
19.362664844268313	2.4794197	1.5746173
19.380445043295822	2.501576	1.5816371
19.39822571342203	2.5071943	1.5834122
19.41600685511252	2.4899657	1.5779625
19.43378846883297	2.4540894	1.5665534
19.451570555049173	2.435403	1.5605779
19.469353114227037	2.4763305	1.573636
19.48713614683254	2.5032737	1.5821737
19.50491965333182	2.5084796	1.5838181
19.52270363419109	2.4815934	1.5753074
19.540488089876686	2.491137	1.5783336
19.55827302085503	2.480174	1.5748569
19.576058427592674	2.4937716	1.579168
19.593844310556282	2.4828248	1.5756981
19.611630670212598	2.5185702	1.5870004
19.629417507028506	2.4957788	1.5798033
19.64720482147098	2.4917736	1.5785353
19.6649926140071	2.4751375	1.573257
19.682780885104084	2.4784684	1.5743152
19.70056963522921	2.4774761	1.574
19.718358864849908	2.486184	1.5767637
19.7361485744337	2.4959521	1.5798583
19.753938764448215	2.4941158	1.579277
19.771729435361202	2.5329874	1.5915362
19.789520587640506	2.5640378	1.6012613
19.807312221754092	2.5845506	1.6076537
19.825104338170043	2.5215673	1.5879444
19.842896937356517	2.4854968	1.5765458
19.860690019781824	2.48937	1.5777738
19.87848358591436	2.5152435	1.5859519
19.896277636222635	2.4882514	1.5774193
19.914072171175278	2.460577	1.5686226
19.931867191241015	2.480853	1.5750724
19.94966269688869	2.5004013	1.5812657
19.967458688587264	2.510836	1.5845617
19.985255166805807	2.4999049	1.5811087
20.00305213201348	2.4718716	1.5722187
20.020849584679578	2.461844	1.5690265
20.038647525273507	2.4786277	1.5743659
20.05644595426477	2.4670036	1.5706698
20.07424487212299	2.417477	1.5548238
20.092044279317903	2.4042904	1.5505774
20.109844176319353	2.4653091	1.5701303
20.127644563597304	2.4878962	1.5773066
20.145445441621817	2.5037284	1.5823174
20.16324681086307	2.467294	1.5707623
20.181048671791373	2.425317	1.5573429
20.198851024877122	2.3927977	1.546867
20.216653870590836	2.3913398	1.5463958
20.234457209403146	2.361867	1.5368366
20.252261041784802	2.3521173	1.5336614
20.270065368206662	2.3496468	1.5328557
20.287870189139685	2.380008	1.5427275
20.305675505054968	2.3706112	1.5396789
20.323481316423702	2.3307488	1.526679
20.341287623717207	2.3315303	1.526935
20.359094427406884	2.3108666	1.5201535
20.376901727964288	2.314389	1.5213116
20.39470952586107	2.2965322	1.5154313
20.41251782156899	2.3200393	1.5231675
20.430326615559935	2.3650417	1.5378692
20.448135908305886	2.3563552	1.5350424
20.465945700278965	2.3336244	1.5276204
20.483755991951384	2.3020687	1.517257
20.50156678379548	2.3114974	1.520361
20.519378076283708	2.3315933	1.5269556
20.537189869888635	2.3222802	1.5239029
20.55500216508294	2.3257246	1.5250326
20.572814962339415	2.3049464	1.518205
20.59062826213098	2.266501	1.5054903
20.60844206493066	2.2592337	1.5030748
20.626256371211593	2.2976544	1.5158015
20.644071181447032	2.309739	1.5197825
20.66188649611036	2.294874	1.5148841
20.67970231567506	2.2839425	1.5112718
20.697518640614742	2.3076072	1.519081
20.715335471403122	2.3253608	1.5249133
20.73315280851404	2.322743	1.5240548
20.750970652421447	2.2732766	1.507739
20.768789003599412	2.2602108	1.5033997
20.786607862522136	2.2448418	1.4982796
20.8044272296639	2.2422707	1.4974214
20.82224710549913	2.2213724	1.4904269
20.84006749050237	2.2021751	1.4839728
20.857888385148268	3.7772093	1.9435043
20.8757097899116	45.924717	6.7767777
20.893531705267254	64.803986	8.050093
20.911354131690224	83.83504	9.156148
20.92917706965566	69.063675	8.310455
20.94700051963877	50.1166	7.079308
20.96482448211493	29.374529	5.4198275
20.982648957559622	4.1399674	2.034691
21.00047394644843	2.2646472	1.5048745
21.01829944925707	2.2613142	1.5037667
21.036125466461375	2.2642975	1.5047582
21.053951998537297	2.2959251	1.515231
21.071779045960906	2.265396	1.5051233
21.089606609208378	2.2592366	1.5030757
21.10743468875603	2.2031572	1.4843036
21.12526328508028	2.2004633	1.4833958
21.143092398657675	2.176667	1.4753531
21.16092202996488	2.1935833	1.481075
21.17875217947867	2.212807	1.4875506
21.19658284767596	2.2206511	1.4901849
21.21441403503377	2.1957586	1.4818093
21.232245742029225	2.1604967	1.4698628
21.2500779691396	2.1461027	1.4649582
21.26791071684227	2.160778	1.4699585
21.28574398561475	2.1556387	1.4682094
21.30357777593465	2.1140137	1.4539648
21.321412088279704	2.1048362	1.4508054
21.339246923127792	2.1256268	1.457953
21.357082280956888	2.1311831	1.4598572
21.3749181622451	2.121829	1.4566499
21.392754567470647	2.1325336	1.4603196
21.41059149711187	2.1476934	1.4655011
21.42842895164726	2.1482506	1.4656912
21.446266931555378	2.151063	1.4666502
21.464105437314945	2.1533177	1.4674187
21.481944469404798	2.127708	1.4586664
21.49978402830388	2.0871181	1.4446862
21.51762411449127	2.1039047	1.4504843
21.53546472844617	2.1429358	1.463877
21.553305870647876	2.1350176	1.46117
21.571147541575865	2.081468	1.4427294
21.58898974170967	2.0582886	1.4346737
21.60683247152899	2.046912	1.4307033
21.62467573151363	2.0636616	1.436545
21.642519522143523	2.0617194	1.4358689
21.660363843898722	2.0417297	1.4288911
21.6782086972594	2.0290806	1.424458
21.696054082705864	2.0284085	1.4242221
21.713900000718535	2.0408509	1.4285835
21.73174645177795	2.0343125	1.4262933
21.749593436364794	2.066779	1.4376296
21.767440954959845	2.0938005	1.446997
21.785289008044032	2.1139147	1.4539307
21.803137596098388	2.0893111	1.445445
21.820986719604086	2.0255773	1.4232278
21.838836379042412	1.9860002	1.4092551
21.85668657489478	1.9470015	1.39535
21.87453730764273	1.962014	1.400719
21.892388577767914	1.971069	1.4039476
21.91024038575213	2.0002925	1.414317
21.928092732077285	2.0023031	1.4150276
21.945945617225426	1.9966176	1.4130172
21.963799041678694	1.9971298	1.4131985
21.981653005919398	31.306704	5.595239
21.999507510429943	78.1144	8.838235
22.01736255569286	73.0827	8.548842
22.035218142190818	4.212787	2.0525076
22.05307427040661	2.0330029	1.4258341
22.07093094082315	2.033766	1.4261017
22.088788153923474	2.0085635	1.417238
22.106645910190746	1.999269	1.4139551
22.12450421010827	2.015909	1.4198271
22.142363054159464	2.0180535	1.420582
22.16022244282787	2.0119603	1.4184358
22.178082376597164	1.9919478	1.4113638
22.195942855951145	1.970982	1.4039166
22.213803881373742	1.936854	1.391709
22.231665453349002	1.9243559	1.3872116
22.24952757236111	1.9076891	1.3811911
22.26739023889438	1.9423574	1.3936849
22.28525345343323	1.9705279	1.403755
22.30311721646225	1.937777	1.3920406
22.320981528466113	1.9147366	1.3837401
22.33884638992964	1.9278406	1.388467
22.356711801337788	1.9713509	1.4040481
22.37457776317561	1.9895743	1.4105227
22.392444275928337	1.9809403	1.4074588
22.410311340081282	1.9693745	1.403344
22.428178956119904	1.9651409	1.4018348
22.446047124529805	1.9481851	1.395774
22.46391584579669	1.9304779	1.3894163
22.481785120406414	1.9341991	1.3907548
22.49965494884496	1.9757531	1.4056149
22.51752533159841	1.9614671	1.4005239
22.53539626915302	1.9498376	1.3963659
22.553267761995137	1.9500989	1.3964595
22.571139810611264	1.9613787	1.4004923
22.589012415488025	1.9576476	1.3991596
22.60688557711216	1.9579847	1.3992801
22.624759295970566	1.9858576	1.4092046
22.642633572550263	1.9996833	1.4141016
22.660508407338362	1.9909141	1.4109975
22.67838380082217	1.9740263	1.4050004
22.696259753489077	1.9872673	1.4097047
22.714136265826614	1.9499432	1.3964037
22.73201333832246	1.915963	1.3841832
22.74989097146439	1.9151003	1.3838716
22.76776916574035	1.9099697	1.3820165
22.785647921638393	1.9055334	1.3804106
22.803527239646712	1.8968565	1.3772641
22.82140712025363	1.9292656	1.38898
22.839287563947593	1.9235629	1.3869257
22.85716857121719	1.8829019	1.3721887
22.875050142551135	1.8469244	1.359016
22.892932278438277	1.8586557	1.3633252
22.910814979367604	1.9100457	1.3820441
22.928698245828222	1.9308416	1.3895472
22.946582078309387	1.959254	1.3997335
22.96446647730047	1.9415044	1.3933787
22.98235144329098	1.8858252	1.3732535
23.000236976770562	1.825887	1.3512539
23.018123078229	1.844703	1.3581984
23.03600974815619	1.888539	1.3742412
23.053896987042194	1.9221411	1.386413
23.071784795377173	1.9389074	1.3924465
23.08967317365145	1.9329886	1.3903196
23.10756212235546	1.953001	1.3974981
23.125451641979787	1.9605675	1.4002026
23.143341733015134	1.959273	1.3997403
23.161232395952357	1.9321591	1.3900212
23.179123631282426	1.9284091	1.3886718
23.197015439496468	1.9443359	1.3943945
23.214907821085717	1.9711162	1.4039644
23.23280077654157	1.9645457	1.4016225
23.250694306355538	1.9669605	1.4024837
23.268588411019277	1.9945832	1.4122971
23.28648309102458	2.0267336	1.4236339
23.304378346863356	2.0258908	1.4233379
23.322274179027676	1.9910749	1.4110545
23.340170588009723	1.959663	1.3998797
23.358067574301852	1.9178174	1.3848529
23.37596513839651	1.9123499	1.3828775
23.39386328078629	1.9108939	1.3823509
23.411762001963947	1.9250867	1.3874749
23.429661302422353	1.9495591	1.3962661
23.4475611826545	1.9556712	1.3984531
23.46546164315356	1.933475	1.3904945
23.48336268441279	1.9374824	1.3919348
23.501264306925638	1.9589335	1.3996191
23.51916651118564	1.9771372	1.4061071
23.537069297686497	1.9338113	1.3906155
23.554972666922037	1.8826069	1.3720812
23.57287661938623	1.8819767	1.3718516
23.59078115557318	1.9171239	1.3846024
23.608686275977128	1.9460251	1.3950001
23.62659198109246	1.9395168	1.3926654
23.6444982714137	1.9031111	1.3795329
23.66240514743549	1.9105741	1.3822352
23.68031260965263	1.9219434	1.3863417
23.698220658560068	1.9244988	1.3872631
23.716129294652845	1.9012256	1.3788494
23.7340385184262	1.8930421	1.3758787
23.75194833037546	1.8794233	1.3709205
23.769858730996123	1.8502353	1.3602335
23.78776972078382	1.8780919	1.370435
23.80568130023431	1.8975209	1.3775053
23.823593469843495	1.9088212	1.381601
23.841506230107424	1.9276189	1.3883872
23.859419581522275	1.9402785	1.3929389
23.87733352458438	1.9511509	1.396836
23.89524805979019	1.9440832	1.3943038
23.913163187636318	1.9486365	1.3959358
23.931078908619508	1.98767	1.4098475
23.948995223236633	1.9929855	1.4117314
23.966912131984735	2.0135474	1.4189953
23.98482963536096	1.9808995	1.4074444
24.002747733862616	1.9936802	1.4119774
24.020666427987155	2.049231	1.4315135
24.038585718232156	2.104166	1.4505744
24.056505605095353	2.1018245	1.4497671
24.074426089074617	2.055522	1.4337091
24.092347170667946	2.0130174	1.4188085
24.110268850373515	2.0069003	1.4166511
24.128191128689586	2.0644128	1.4368064
24.146114006114626	2.0541236	1.4332215
24.164037483147187	2.0479476	1.4310652
24.181961560286005	2.014527	1.4193404
24.199886238029926	2.0190744	1.4209414
24.21781151687797	2.032656	1.4257125
24.235737397329274	2.0698917	1.4387118
24.253663879883135	2.0698888	1.4387108
24.271590965038975	2.0626636	1.4361976
24.289518653296376	2.0551946	1.433595
24.30744694515505	2.0501251	1.4318258
24.32537584111486	2.028301	1.4241843
24.34330534167581	2.0122175	1.4185265
24.361235447338046	2.015109	1.4195454
24.379166158601876	1.993181	1.4118006
24.39709747596772	1.9958962	1.4127619
24.41502939993615	2.035097	1.4265683
24.432961931007917	2.0499997	1.431782
24.450895069683856	2.0314848	1.4253017
24.468828816465	1.9959661	1.4127866
24.4867631718525	1.9978116	1.4134396
24.504698136347656	2.0309978	1.4251308
24.52263371045192	2.0332232	1.4259113
24.540569894666874	1.9994357	1.414014
24.558506689494266	1.9853185	1.4090133
24.57644409543597	1.9691457	1.4032625
24.594382112994012	1.9470379	1.395363
24.61232074267057	1.9469852	1.3953441
24.630259984967953	1.9726119	1.404497
24.64819984038863	2.025178	1.4230875
24.66614030943522	2.0270717	1.4237527
24.684081392610462	1.9957181	1.4126989
24.702023090417274	1.9712187	1.404001
24.7199654033587	1.9754298	1.4054998
24.737908331937927	2.011953	1.4184333
24.755851876658305	1.9874195	1.4097587
24.773796038023324	1.963347	1.4011948
24.79174081653661	1.9679724	1.4028444
24.809686212701962	2.0416253	1.4288546
24.827632227023294	2.1166182	1.4548602
24.8455788600047	2.1328306	1.4604214
24.8635261121504	2.1672802	1.4721686
24.88147398396475	2.1313057	1.4598992
24.899422475952303	2.1201155	1.4560616
24.917371588617698	2.1243136	1.4575025
24.935321322465768	2.1170592	1.4550117
24.953271678001478	2.2122562	1.4873655
24.97122265572994	2.4270654	1.5579041
24.989174256156414	2.7894092	1.6701524
25.00712647978632	3.3990073	1.8436397
25.02507932712521	4.3728304	2.0911314
25.043032798678798	5.916454	2.4323761
25.060986894952933	7.4661856	2.7324321
25.078941616453637	9.023764	3.003958
25.096896963687055	9.987404	3.1602855
25.114852937159508	10.745764	3.278073
25.132809537377444	10.506254	3.2413352
25.150766764847468	9.757432	3.123689
25.168724620076347	8.292588	2.8796854
25.186683103570985	7.0352106	2.6523972
25.204642215838426	5.661956	2.3794866
25.222601957385894	4.569884	2.1377287
25.24056232872074	3.5419598	1.8820095
25.25852333035048	2.8784456	1.6965983
25.276484962782778	2.474946	1.5731962
25.294447226525435	2.2478762	1.4992919
25.312410122086423	2.0977027	1.4483448
25.330373649973843	1.9916447	1.4112564
25.348337810695988	1.9649	1.4017489
25.366302604761245	1.9593134	1.3997548
25.384268032678207	1.9153461	1.3839604
25.40223409495558	1.9168235	1.384494
25.420200792102257	1.9081917	1.3813732
25.438168124627246	1.9337004	1.3905755
25.45613609303974	1.9296336	1.3891125
25.474104697849057	1.9203212	1.3857566
25.492073939564698	1.8442854	1.3580447
25.510043818696285	1.8346736	1.3545012
25.528014335753614	1.9006338	1.3786348
25.54598549124664	1.8825798	1.3720714
25.56395728568544	1.8072404	1.3443364
25.58192971958028	1.8221419	1.3498673
25.59990279344156	1.8554574	1.3621517
25.617876507779833	1.8622571	1.3646454
25.635850863105826	1.8546643	1.3618606
25.653825859930386	1.8415473	1.3570362
25.671801498764548	1.8279247	1.3520076
25.68977778011949	1.8240515	1.3505745
25.707754704506524	1.780672	1.3344182
25.725732272437153	1.7700806	1.3304437
25.743710484423012	1.7988969	1.3412297
25.761689340975888	1.8556992	1.3622406
25.77966884260774	1.8777373	1.3703055
25.797648989830662	1.9012885	1.3788722
25.815629783156922	1.8587245	1.3633505
25.83361122309895	1.8562373	1.362438
25.85159331016929	1.8405637	1.3566737
25.869576044880695	1.8035549	1.342965
25.887559427746034	1.7620354	1.3274168
25.90554345927836	1.8260666	1.3513203
25.92352813999086	1.8738039	1.3688695
25.94151347039689	1.8632675	1.3650156
25.959499451009965	1.7650802	1.3285632
25.97748608234374	1.7288858	1.314871
25.995473364912062	1.7414793	1.3196512
26.013461299228904	1.7873586	1.3369213
26.03144988580839	1.8152753	1.3473215
26.04943912516483	1.8080281	1.3446294
26.067429017812675	1.8440802	1.3579692
26.085419564266537	1.8681996	1.3668209
26.103410765041186	1.8279347	1.3520113
26.12140262065155	1.786969	1.3367755
26.139395131612723	1.8261744	1.3513602
26.157388298439948	1.8448176	1.3582406
26.17538212164861	1.811916	1.3460743
26.193376601754295	1.7694474	1.3302058
26.211371739272714	1.7499726	1.3228652
26.229367534719746	1.7579943	1.3258938
26.247363988611433	1.748801	1.3224224
26.26536110146397	1.7817613	1.3348264
26.283358873793727	1.8360533	1.3550104
26.301357306117204	1.8562366	1.3624377
26.319356398951104	1.823798	1.3504807
26.33735615281224	1.7815255	1.334738
26.35535656821762	1.769651	1.3302823
26.373357645684404	1.791269	1.338383
26.39135938572991	1.7848562	1.3359851
26.409361788871614	1.7652159	1.3286142
26.427364855627165	1.7312418	1.3157666
26.445368586514352	1.7604656	1.3268254
26.46337298205115	1.7836931	1.3355497
26.48137804275568	1.7854972	1.336225
26.499383769146217	1.7907705	1.3381968
26.517390161741215	1.8153591	1.3473526
26.53539722105928	1.7860057	1.3364153
26.553404947619182	1.8081552	1.3446766
26.571413341939856	1.8317586	1.3534248
26.589422404540397	1.8441827	1.358007
26.60743213594006	1.8284181	1.3521901
26.62544253665827	1.8289068	1.3523707
26.64345360721459	1.843731	1.3578405
26.66146534812879	1.8859993	1.3733169
26.679477759920758	1.8613813	1.3643245
26.69749084311057	1.8419639	1.3571897
26.71550459821847	1.8313948	1.3532903
26.733519025764842	1.7862954	1.3365237
26.751534126270258	1.7571975	1.3255932
26.769549900255434	1.8080735	1.3446462
26.787566348241267	1.8324009	1.353662
26.80558347074881	1.8371353	1.3554096
26.823601268299267	1.7970612	1.340545
26.841619741414036	1.7752025	1.3323673
26.85963889061465	1.7967821	1.340441
26.877658716422832	1.8279173	1.3520049
26.89567921936045	1.8608669	1.364136
26.913700399949544	1.8804924	1.3713105
26.93172225871233	1.8667969	1.3663077
26.949744796171174	1.846446	1.35884
26.967768012848605	1.820861	1.3493928
26.98579190926733	1.8470907	1.3590772
27.003816485950225	1.8711969	1.367917
27.021841743420318	1.8140943	1.3468832
27.039867682200814	1.7476139	1.3219734
27.057894302815072	1.7853848	1.336183
27.07592160578664	1.8421271	1.3572499
27.0939495916392	1.8373394	1.355485
27.111978260896635	1.811778	1.346023
27.13000761408296	1.8013515	1.3421444
27.148037651722397	1.8347465	1.3545282
27.166068374339304	1.855218	1.3620639
27.184099782458215	1.8862025	1.3733909
27.20213187660384	1.8727462	1.3684832
27.22016465730105	1.8262559	1.3513904
27.23819812507487	1.8318233	1.3534486
27.256232280450533	1.8279163	1.3520045
27.274267123953383	1.8236237	1.3504161
27.292302656108987	1.8058144	1.3438059
27.31033887744306	1.8155152	1.3474106
27.32837578848146	1.8033254	1.3428795
27.34641338975026	1.7906759	1.3381613
27.364451681775673	1.8548414	1.3619256
27.382490665084074	1.8636657	1.3651614
27.400530340202046	1.8540984	1.3616529
27.41857070765629	1.8572104	1.3627951
27.436611767973726	1.8238028	1.3504825
27.454653521681404	1.7772133	1.3331217
27.472695969306564	1.7968527	1.3404673
27.490739111376627	1.822269	1.3499144
27.508782948419153	1.8278182	1.3519683
27.526827480961902	1.8514476	1.360679
27.54487270953279	1.8588027	1.3633791
27.562918634659898	1.8130198	1.3464842
27.580965256871508	1.8285464	1.3522376
27.599012576696026	1.8230158	1.350191
27.617060594662068	1.806393	1.3440212
27.63510931129842	1.8130171	1.3464832
27.65315872713401	1.8425721	1.3574138
27.67120884269797	1.8591814	1.363518
27.68925965851958	1.8987304	1.3779442
27.707311175128307	1.9025253	1.3793206
27.725363393053787	1.865876	1.3659707
27.74341631282583	1.8626435	1.364787
27.7614699349744	1.9114873	1.3825655
27.77952426002968	2.0854585	1.4441117
27.797579288521973	2.1415763	1.4634125
27.815635020981784	2.5405724	1.5939174
27.83369145793979	2.6047437	1.6139219
27.85174859992682	2.5427597	1.5946033
27.869806447473923	2.4571614	1.5675335
27.887865001112267	2.1742558	1.4745358
27.905924261373233	2.0577075	1.4344711
27.92398422878836	2.0002947	1.4143177
27.94204490388936	1.9530275	1.3975075
27.96010628720813	1.9488348	1.3960067
27.978168379276728	1.9507375	1.396688
27.9962311806274	1.959225	1.3997232
28.014294691792568	1.9015508	1.3789673
28.0323589133048	1.8741254	1.368987
28.050423845696887	1.8419921	1.3572001
28.068489489501758	1.8330848	1.3539146
28.086555845252523	1.8522321	1.3609674
28.104622913482487	1.8940216	1.3762345
28.122690694725115	1.9079907	1.3813003
28.14075918951405	1.9307432	1.3895118
28.15882839838312	1.9434086	1.3940619
28.176898321866304	1.97643	1.4058557
28.1949689604978	1.9890385	1.4103328
28.213040314811945	1.9410714	1.3932234
28.23111238534327	1.9269922	1.3881614
28.249185172626493	1.9387263	1.3923815
28.267258677196473	1.9259337	1.3877802
28.285332899588294	1.9514292	1.3969357
28.303407840337172	1.9646608	1.4016635
28.321483499978545	2.0046523	1.4158574
28.33955987904799	2.0015776	1.4147712
28.357636978081285	1.9927859	1.4116607
28.37571479761439	1.9968377	1.4130951
28.393793338183425	2.0408459	1.4285817
28.41187260032469	2.07911	1.4419119
28.429952584574686	2.1250248	1.4577465
28.448033291470065	2.0892155	1.4454119
28.46611472154769	2.0381806	1.4276487
28.484196875344566	2.0374115	1.4273793
28.502279753397914	2.047078	1.4307613
28.52036335624511	2.0153608	1.4196341
28.538447684423716	2.033434	1.4259852
28.556532738471482	2.0373724	1.4273655
28.574618518926325	2.0465686	1.4305834
28.59270502632635	2.0667644	1.4376246
28.61079226120985	2.070859	1.4390479
28.628880224115274	2.046789	1.4306604
28.646968915581287	2.027114	1.4237676
28.66505833614671	2.09388	1.4470245
28.68314848635055	2.0975313	1.4482857
28.701239366732004	2.062888	1.4362757
28.71933097783044	2.0576737	1.4344593
28.737423320185403	2.0852473	1.4440385
28.75551639433665	2.1377258	1.4620963
28.773610200824074	2.1244423	1.4575467
28.791704740187793	2.1208887	1.4563271
28.80980001296809	2.1257484	1.4579947
28.827896019705413	2.13915	1.4625833
28.845992760940433	2.1320062	1.460139
28.86409023721397	2.1343203	1.4609313
28.88218844906704	2.1669908	1.4720702
28.900287397040845	2.2323868	1.4941174
28.918387081676755	2.2631052	1.504362
28.936487503516343	2.3198967	1.5231208
28.954588663101365	2.389956	1.5459483
28.97269056097374	2.3391683	1.529434
28.990793197675597	2.3411772	1.5300906
29.00889657374923	2.3547142	1.5345078
29.027000689737125	2.353548	1.5341278
29.04510554618196	2.364323	1.5376354
29.06321114362659	2.3949912	1.547576
29.08131748261405	2.449388	1.565052
29.099424563687567	2.4659822	1.5703446
29.11753238739057	2.503822	1.582347
29.13564095426663	2.5805762	1.6064172
29.15375026485954	2.654158	1.6291587
29.171860319713275	2.6740322	1.6352469
29.18997111937199	2.6583164	1.6304344
29.20808266438002	2.7321565	1.6529236
29.226194955281898	2.801225	1.673686
29.244307992622335	2.898574	1.7025199
29.26242177694624	2.9042175	1.7041764
29.2805363087987	2.9340718	1.7129133
29.29865158872498	2.9587228	1.7200938
29.316767617270557	2.9578342	1.7198355
29.334884394981064	2.951207	1.7179077
29.353001922402367	2.9935138	1.7301774
29.37112020008047	3.1205428	1.7665058
29.389239228561596	3.2587237	1.8051935
29.407359008392152	3.4442427	1.8558671
29.42547954011872	3.6987245	1.9232068
29.44360082428809	4.0897317	2.0223086
29.46172286144722	4.991728	2.2342174
29.479845652143283	6.571199	2.563435
29.497969196923606	9.285774	3.047257
29.516093496335728	12.854719	3.585348
29.5342185509274	16.291704	4.0362983
29.55234436124651	19.519041	4.418036
29.570470927841175	21.036186	4.586522
29.588598251259686	20.936163	4.5756054
29.60672633205055	19.31732	4.3951473
29.624855170762405	16.36826	4.0457706
29.642984767944146	12.997424	3.605194
29.66111512414481	9.637952	3.104505
29.67924623991366	7.102848	2.6651168
29.697378115800138	5.2447634	2.290145
29.71551075235387	4.307467	2.0754437
29.733644150124675	3.7891948	1.9465854
29.751778309662576	3.5006194	1.8709942
29.769913231517766	3.388927	1.8409039
29.78804891624066	3.4020083	1.8444533
29.806185364381818	3.3516912	1.8307625
29.82432257649206	3.2844248	1.8122982
29.842460553122333	3.240184	1.8000511
29.86059929482382	3.2867944	1.8129518
29.878738802147872	3.336084	1.8264949
29.896879075646048	3.2805169	1.8112197
29.915020115870114	3.322496	1.8227715
29.933161923371976	3.3830776	1.8393145
29.951304498703777	3.2620177	1.8061057
29.969447842417857	3.1114717	1.7639364
29.987591955066733	3.1285505	1.7687709
30.005736837203123	3.2309706	1.7974901
30.023882489379943	3.2505982	1.8029416
30.04202891215028	3.2432468	1.8009017
30.060176106067455	3.2124243	1.7923237
30.078324071684946	3.2012575	1.7892058
30.09647280955646	3.1637113	1.7786825
30.114622320235863	3.0909288	1.7581037
30.132772604277257	3.0430174	1.7444247
30.1509236622349	3.0848222	1.7563661
30.16907549466328	3.1471817	1.7740299
30.18722810211705	3.1547258	1.7761548
30.205381485151097	3.1413734	1.772392
30.22353564432045	3.1573982	1.776907
30.241690580180403	3.1100576	1.7635355
30.25984629328638	3.03777	1.7429199
30.278002784194037	2.968833	1.7230302
30.296160053459246	2.9713821	1.7237698
30.314318101638033	3.024596	1.7391366
30.332476929286646	2.980965	1.7265471
30.35063653696153	2.9173582	1.7080276
30.368796925219307	2.940448	1.7147734
30.386958094616844	2.9352403	1.7132543
30.40512004571115	2.9199007	1.7087717
30.423282779059463	2.9423735	1.7153348
30.441446295219233	2.8689888	1.6938089
30.459610594748067	2.8590379	1.690869
30.47777567820382	2.8483725	1.6877122
30.495941546144504	2.8046587	1.6747115
30.51410819912835	2.8286226	1.6818509
30.532275637713795	2.916129	1.7076677
30.55044386245946	2.8625114	1.6918958
30.56861287392416	2.770926	1.6646099
30.586782672666956	2.7702315	1.6644013
30.604953259247047	2.795257	1.6719022
30.623124634223885	2.7567985	1.6603609
30.641296798157075	2.740685	1.6555015
30.659469751606462	2.8075182	1.675565
30.677643495132074	2.7766292	1.6663221
30.695818029294152	2.7725894	1.6651094
30.713993354653116	2.78998	1.6703233
30.73216947176962	2.7897265	1.6702474
30.75034638120448	2.7375069	1.6545413
30.768524083518756	2.7542822	1.659603
30.786702579273673	2.832322	1.6829504
30.80488186903069	2.9372268	1.7138339
30.82306195335144	3.0111947	1.7352794
30.841242832797782	3.21024	1.7917142
30.85942450793176	3.518598	1.8757926
30.877606979315637	3.895454	1.9736904
30.895790247511883	4.3635893	2.0889206
30.913974313083134	4.8499336	2.2022564
30.932159176592283	5.3296633	2.3086064
30.95034483860237	5.764466	2.4009302
30.968531299676698	5.7827916	2.4047437
30.98671856037873	5.408023	2.3255155
31.00490662127215	4.894531	2.2123587
31.023095482920848	4.3524566	2.0862541
31.04128514588892	3.7523556	1.9370998
31.059475610740662	3.1968462	1.7879727
31.07766687804056	2.8264434	1.681203
31.09585894835335	2.6412418	1.6251898
31.11405182224393	2.6228855	1.6195325
31.132245500277417	2.6115315	1.6160233
31.15043998301914	2.5404756	1.593887
31.168635271034628	2.478498	1.5743246
31.18683136488964	2.4349632	1.5604368
31.20502826515008	2.40735	1.5515637
31.223225972382135	2.40977	1.5523434
31.241424487152155	2.4153898	1.5541525
31.259623810026692	2.417582	1.5548576
31.27782394157253	2.4289668	1.5585142
31.296024882356644	2.4288902	1.5584897
31.314226632946237	2.4602797	1.5685279
31.332429193908684	2.5348217	1.5921123
31.350632565811598	2.4671037	1.5707017
31.368836749222787	2.3965719	1.5480865
31.387041744710295	2.5086887	1.583884
31.40524755284232	2.573917	1.6043432
31.423454174187317	2.5794318	1.606061
31.441661609313922	2.4969518	1.5801746
31.459869858791002	2.4624565	1.5692216
31.478078923187628	2.5136747	1.5854572
31.496288803073064	2.4902737	1.5780602
31.514499499016807	2.3750565	1.5411218
31.532711011588546	2.3676062	1.5387027
31.550923341358178	2.3444338	1.5311544
31.56913648889584	2.3484209	1.5324558
31.587350454771844	2.3378186	1.5289927
31.605565239556732	2.4024453	1.5499823
31.62378084382127	2.3954864	1.5477359
31.641997268136382	2.3784401	1.5422193
31.660214513073274	2.368739	1.5390708
31.67843257920331	2.4392934	1.5618237
31.6966514670981	2.3822274	1.5434467
31.71487117732944	2.3609796	1.5365479
31.733091710469346	2.3548331	1.5345465
31.751313067090052	2.3317251	1.5269988
31.769535247764008	2.268212	1.5060585
31.787758253063878	2.2164655	1.4887799
31.805982083562526	2.2334068	1.4944587
31.824206739833024	2.2134721	1.4877743
31.84243222244869	2.1871717	1.4789089
31.860658531983013	2.2181535	1.4893466
31.878885669009737	2.2148206	1.4882274
31.897113634102784	2.191665	1.4804273
31.91534242783632	2.1951728	1.4816116
31.933572050784694	2.176529	1.4753064
31.951802503522508	2.1637645	1.470974
31.970033786624548	2.1898735	1.4798222
31.988265900665834	2.2191935	1.4896958
32.006498846221575	2.2020996	1.4839473
32.02473262386724	2.2451625	1.4983866
32.04296723417845	2.211241	1.4870242
32.0612026777311	2.183708	1.4777374
32.07943895510129	2.1348777	1.461122
32.097676066865304	2.1545138	1.4678262
32.115914013599685	2.13381	1.4607567
32.13415279588115	2.17441	1.4745882
32.152392414286666	2.1480699	1.4656295
32.1706328693934	2.0787747	1.4417957
32.18887416177875	2.1088426	1.4521855
32.20711629202032	2.1323683	1.4602631
32.225359260695924	2.0613	1.4357228
32.243603068383614	2.0522804	1.4325782
32.26184771566166	2.1455731	1.4647775
32.28009320310852	2.2365174	1.495499
32.2983395313029	2.228076	1.4926741
32.31658670082372	2.1816366	1.4770364
32.33483471225012	2.1591551	1.4694064
32.35308356616143	2.1331666	1.4605364
32.371333263137245	2.0522275	1.4325597
32.38958380375734	2.0137384	1.4190625
32.407835188601744	1.9908761	1.410984
32.42608741825067	2.01729	1.4203134
32.444340493284585	2.0801754	1.4422814
32.46259441428416	2.1421833	1.46362
32.48084918183028	2.17912	1.4761842
32.49910479650405	2.1380312	1.4622009
32.51736125888683	2.0790443	1.4418892
32.53561856956014	2.0539484	1.4331603
32.5538767291058	1.9929225	1.4117091
32.572135738105764	1.939801	1.3927674
32.59039559714228	1.9186524	1.3851542
32.608656306797776	2.0157692	1.4197779
32.62691786765491	2.0459092	1.4303528
32.645180280296586	2.1039143	1.4504876
32.663443545305896	2.1691701	1.4728103
32.68170766326619	2.1390865	1.4625616
32.69997263476099	2.0580568	1.434593
32.7182384603741	2.057141	1.4342737
32.7365051406895	2.085415	1.4440966
32.75477267629144	2.1296246	1.4593233
32.77304106776434	2.078289	1.4416273
32.79131031569289	1.9922352	1.4114656
32.809580420661966	1.9122542	1.3828428
32.827851383256714	2.0008645	1.4145192
32.84612320406245	2.0799375	1.4421989
32.86439588366476	2.0772507	1.441267
32.88266942264945	1.9902772	1.4107718
32.9009438216025	2.0347154	1.4264345
32.9192190811102	2.0694306	1.4385515
32.937495201758985	1.9054732	1.3803889
32.95577218413556	1.864407	1.3654329
32.974050028826866	2.015938	1.4198374
32.992328736420035	2.1639555	1.4710389
33.010608307502444	2.1143076	1.4540659
33.02888874266169	1.9418116	1.393489
33.047170042485604	1.847516	1.3592336
33.06545220756225	1.9975251	1.4133383
33.083735238479896	2.0890174	1.4453434
33.10201913582707	2.0930488	1.4467373
33.12030390019248	1.9998509	1.4141608
33.138589532165135	2.0168056	1.4201428
33.15687603233419	1.9756876	1.4055916
33.17516340128909	2.0238872	1.4226339
33.19345163961947	2.047113	1.4307735
33.211740747915215	2.0002587	1.414305
33.23003072676643	1.8910055	1.3751384
33.248321576763466	1.9629503	1.4010533
33.266613298496885	2.0392694	1.4280299
33.28490589255747	2.094811	1.4473462
33.30319935953626	1.9120706	1.3827764
33.32149370002451	1.8598377	1.3637587
33.339788914613706	1.8424444	1.3573667
33.358085003895575	1.9153808	1.3839729
33.376381968462034	1.9381938	1.3921903
33.39467980890529	1.9678627	1.4028053
33.41297852581774	1.9867437	1.409519
33.43127811979204	1.971376	1.4040569
33.44957859142105	1.997251	1.4132413
33.467879941297866	2.042683	1.4292246
33.486182170015844	1.9308046	1.389534
33.50448527816853	1.9065686	1.3807855
33.522789266349754	1.9471394	1.3953993
33.541094135153514	1.9148316	1.3837744
33.55939988517411	1.9598581	1.3999493
33.57770651700602	2.05596	1.4338619
33.59601403124398	2.044121	1.4297276
33.61432242848296	2.0324986	1.4256573
33.632631709318154	2.0629053	1.4362818
33.650941874344994	1.9926353	1.4116074
33.66925292415916	1.9891818	1.4103836
33.68756485935654	1.9469278	1.3953235
33.70587768053328	1.9527228	1.3973986
33.724191388285746	2.0655506	1.4372023
33.74250598321054	2.0816245	1.4427836
33.760821465904506	2.0142968	1.4192592
33.77913783696474	1.9892006	1.4103903
33.79745509698852	2.0149717	1.419497
33.815773246573414	1.9955851	1.4126518
33.8340922863172	1.9005865	1.3786176
33.852412216817896	1.8646752	1.3655311
33.87073303867377	1.820868	1.3493954
33.889054752483304	1.9318196	1.3898991
33.907377358845245	2.0620956	1.4359999
33.92570085835853	2.0897841	1.4456086
33.94402525162239	1.9295444	1.3890804
33.96235053923627	1.9268273	1.388102
33.980676721799824	2.01756	1.4204084
33.999003799912984	2.0416253	1.4288546
34.01733177417592	1.9413728	1.3933315
34.03566064518901	1.8188106	1.3486328
34.0539904135529	1.8608996	1.3641479
34.07232107986846	1.93621	1.3914777
34.090652644736785	1.9059075	1.3805461
34.108985108759235	1.8640195	1.365291
34.12731847253742	1.9982646	1.4135998
34.14565273667313	2.0192592	1.4210064
34.16398790176847	1.8355873	1.3548385
34.18232396842574	1.7367214	1.3178473
34.20066093724749	1.9092551	1.381758
34.21899880883651	2.0116916	1.4183412
34.23733758379583	2.0909643	1.4460167
34.25567726272874	2.140381	1.4630041
34.27401784623872	2.0844302	1.4437556
34.29235933492957	2.1010098	1.449486
34.31070172940526	2.2247477	1.4915588
34.32904503027003	2.2090428	1.4862849
34.347389238128386	2.0501401	1.431831
34.36573435358502	2.0075676	1.4168866
34.38408037724492	2.0795023	1.442048
34.402427309713296	2.0654807	1.437178
34.42077515159559	2.117321	1.4551017
34.43912390349752	2.1666167	1.4719431
34.45747356602499	2.0450382	1.4300483
34.47582413978423	1.9968846	1.4131117
34.49417562538163	1.9648687	1.4017377
34.51252802342388	1.8663541	1.3661457
34.53088133451789	1.9111573	1.3824462
34.54923555927084	1.9485201	1.395894
34.567590698290104	2.0889697	1.4453268
34.58594675218336	2.1069806	1.4515442
34.6043037215585	2.0208347	1.4215606
34.62266160702365	1.9394923	1.3926566
34.641020409187234	1.8557667	1.3622652
34.65938012865785	1.6688583	1.2918429
34.677740766044394	1.6720848	1.2930912
34.69610232195598	1.78977	1.3378229
34.714464797002016	1.9131988	1.3831843
34.73282819179208	1.9923339	1.4115006
34.751192506936064	1.9476192	1.3955712
34.76955774304408	2.020912	1.4215878
34.7879239007265	1.9484588	1.395872
34.80629098059391	1.9782448	1.4065009
34.824658983257194	1.9681387	1.4029037
34.843027909327446	1.8654481	1.3658141
34.86139775941603	1.8741091	1.368981
34.879768534134534	1.9888623	1.4102703
34.89814023409483	2.0156274	1.4197279
34.91651285990901	2.007851	1.4169866
34.93488641218944	1.9407089	1.3930932
34.95326089154871	1.7979536	1.3408779
34.97163629859967	1.8884844	1.3742213
34.99001263395542	1.9501221	1.3964677
35.00838989822934	2.035828	1.4268245
35.02676809203499	2.0568006	1.434155
35.04514721598624	2.1593225	1.4694633
35.063527270697215	2.202871	1.4842073
35.081908256782256	2.0948193	1.4473491
35.10029017485597	1.9766276	1.4059259
35.11867302553321	2.1129751	1.4536077
35.137056809429104	2.2176883	1.4891905
35.155441527159006	2.1181562	1.4553887
35.173827179338524	1.7396547	1.3189597
35.19221376658354	1.9342275	1.3907651
35.21060128951017	2.1166258	1.4548628
35.2289897487348	1.9415932	1.3934107
35.24737914487405	2.0168006	1.4201411
35.26576947854479	2.1954048	1.4816898
35.28416075036418	2.2465153	1.498838
35.30255296094958	2.1383784	1.4623195
35.32094611091867	2.0166214	1.4200779
35.33934020088932	2.200832	1.4835202
35.35773523147969	2.338442	1.5291965
35.3761312033082	2.1101637	1.4526403
35.394528116993506	1.9705861	1.4037757
35.41292597315452	2.0381854	1.4276503
35.431324772410434	2.2843857	1.5114185
35.449724515380666	2.3919172	1.5465825
35.46812520268491	2.2367418	1.4955741
35.486526834943106	1.6986576	1.3033257
35.504929412775454	1.3342798	1.1551102
35.52333293680242	1.3541721	1.163689
35.54173740764471	1.6654787	1.2905343
35.560142825923286	2.1089222	1.4522129
35.5785491922594	2.2414832	1.4971584
35.59695650727454	1.4352845	1.1980336
35.61536477159042	1.0391313	1.019378
