0.008763373481513119	0.0	0.0
0.026290120649546365	0.0	0.0
0.043816868432600686	0.0	0.0
0.06134361724069026	0.12383873	0.35190728
0.07887036748382949	0.13759838	0.37094256
0.0963971195720331	0.11376426	0.33728957
0.11392387391531617	0.073579565	0.27125552
0.1314506309236943	0.062081553	0.2491617
0.1489773910071836	0.08984153	0.29973575
0.16650415457580078	0.13244149	0.36392513
0.18403092203956356	0.14152491	0.37619796
0.20155769380849	0.13487591	0.36725456
0.2190844702925996	0.12781622	0.35751393
0.2366112519019124	0.11671405	0.3416344
0.2541380390464497	0.119015746	0.3449866
0.27166483213623416	0.11259607	0.33555338
0.28919163158128947	0.124449916	0.3527746
0.3067184377916406	0.13046189	0.3611951
0.324245251177314	0.15540093	0.39420924
0.34177207214833777	0.15511079	0.3938411
0.3592989011147415	0.17052901	0.4129516
0.37682573848655654	0.1362313	0.36909524
0.39435258467381573	0.15328684	0.39151865
0.41187944008655414	0.14961842	0.3868054
0.42940630513480854	0.15107045	0.3886778
0.446933180228618	0.14842817	0.38526377
0.4644600657780234	0.16634773	0.40785748
0.48198696219306775	0.19325197	0.43960434
0.49951386988379676	0.17183185	0.41452605
0.5170407892602581	0.16119349	0.40148908
0.5345677207325025	0.15008031	0.387402
0.5520946647105822	0.16638882	0.40790787
0.5696216216045534	0.16243275	0.40302947
0.5871485918244737	0.14604786	0.3821621
0.6046755757804043	0.13844343	0.37207985
0.6222025738824094	0.21072178	0.45904443
0.6397295865405557	0.21811168	0.46702427
0.6572566141649129	0.22797117	0.47746328
0.6747836571655547	0.201058	0.44839492
0.6923107159525568	0.20804906	0.45612395
0.7098377909359992	0.17156687	0.41420633
0.7273648825259653	0.14334142	0.37860456
0.7448919911325411	0.13631919	0.3692143
0.762419117165817	0.17125145	0.4138254
0.7799462610358868	0.18677874	0.43217906
0.7974734231528482	0.21447259	0.46311185
0.8150006039268024	0.24360912	0.49356773
0.8325278037678551	0.21710339	0.46594355
0.8500550230861152	0.20481826	0.45256853
0.8675822622916969	0.21996386	0.46900305
0.8851095217947171	0.22304504	0.47227645
0.9026368020052984	0.25539815	0.5053693
0.9201641033335665	0.27330893	0.5227896
0.9376914261896523	0.25106788	0.50106674
0.9552187709836915	0.24978982	0.49978977
0.9727461381258234	0.20953451	0.4577494
0.990273528026193	0.23647372	0.48628563
1.0078009410949496	0.21906593	0.4680448
1.0253283777422473	0.24878673	0.49878526
1.0428558383782454	0.2397189	0.48961097
1.0603833234131086	0.23943037	0.48931623
1.0779108332570058	0.2775123	0.5267944
1.0954383683201119	0.27776495	0.5270341
1.112965929012607	0.37645885	0.6135624
1.1304935157446763	0.5341696	0.73086905
1.1480211289265108	0.59632677	0.772222
1.1655487689683062	1.537716	1.2400467
1.1830764362802655	1.8442395	1.3580278
1.200604131272596	2.1924121	1.4806796
1.2181318543555117	2.3391902	1.5294411
1.235659605939232	2.3309636	1.5267494
1.253187386433982	3.9958982	1.9989743
1.270715196249994	6.370724	2.5240293
1.2882430357975057	11.832343	3.4398172
1.3057709054867608	16.550638	4.068248
1.3232988057280106	22.33697	4.7262
1.3408267369315112	27.170605	5.212543
1.358354699507526	30.89506	5.5583324
1.3758826938663256	34.93465	5.910554
1.3934107204181858	36.962376	6.079669
1.410938779573391	37.1226	6.092832
1.4284668717422309	37.88179	6.1548185
1.4459949973350033	37.407143	6.116138
1.4635231567620117	36.999554	6.082726
1.4810513504335687	35.77472	5.9811974
1.4985795787599925	35.08572	5.92332
1.5161078421516088	35.067524	5.921784
1.5336361410187505	34.681553	5.8891044
1.5511644757717598	34.67108	5.8882155
1.5686928468209842	35.128086	5.926895
1.58622125457678	35.590374	5.965767
1.6037496994495108	36.527443	6.0437937
1.621278181849548	36.270832	6.022527
1.6388067021872719	37.072582	6.088726
1.6563352608730693	37.244152	6.102799
1.673863858317336	36.617874	6.0512705
1.6913924949304753	35.979042	5.9982533
1.7089211711228998	34.64563	5.886054
1.7264498873050296	33.59015	5.795701
1.7439786438872935	32.633137	5.712542
1.7615074412801288	31.487812	5.6114
1.779036279893981	31.0876	5.5756254
1.796565160139305	30.197489	5.495224
1.814094082426564	29.841518	5.462739
1.8316230471662298	28.851799	5.371387
1.849152054768784	27.990889	5.290642
1.8666811056447168	27.429207	5.23729
1.8842102002045273	26.56121	5.153757
1.901739338858724	26.083092	5.107161
1.9192685220178245	25.566721	5.0563545
1.9367977500923557	25.051266	5.005124
1.9543270234928547	24.740917	4.9740243
1.971856342629867	23.978567	4.8967915
1.9893857079139496	23.571672	4.855067
2.006915119755667	23.007252	4.7965875
2.0244445785655945	22.497828	4.7431874
2.0419740847543175	21.81345	4.670487
2.0595036387324317	21.099468	4.5934157
2.0770332409105414	20.645847	4.5437703
2.094562891699263	20.25547	4.500608
2.1120925915092217	19.963078	4.468006
2.129622340751053	19.591505	4.426229
2.1471521398354043	187.76608	13.702777
2.1646819891729323	444.10193	21.073727
2.182211889174303	440.44943	20.986887
2.1997418402501974	452.92587	21.282055
2.2172718428113023	432.77475	20.80324
2.234801897268317	320.62973	17.906137
2.2523320040319548	17.114609	4.1369805
2.269862163512935	16.767017	4.0947547
2.287392376121992	16.4826	4.059877
2.304922642269869	16.178457	4.0222454
2.322452962367322	15.873826	3.9841971
2.3399833368251164	15.563634	3.9450772
2.357513766054032	15.08823	3.8843572
2.3750442504648586	14.805189	3.8477511
2.3925747904683963	14.696253	3.8335693
2.410105386475459	14.546254	3.813955
2.4276360388968707	14.034886	3.7463164
2.445166748143469	13.756324	3.708952
2.4626975146261025	13.461799	3.6690323
2.4802283387556323	13.457052	3.6683855
2.4977592209429305	13.355541	3.6545234
2.5152901615988825	12.927485	3.5954812
2.5328211611343865	12.573577	3.545924
2.5503522199603523	12.261532	3.501647
2.5678833384877024	12.024376	3.4676182
2.5854145171273712	11.916652	3.4520504
2.6029457562903064	11.821077	3.4381793
2.620477056387469	11.694562	3.4197314
2.6380084178298326	11.573028	3.4019153
2.655539841028383	11.221549	3.349858
2.673071326394119	11.046226	3.3235862
2.6906028743380523	10.803827	3.2869177
2.708134485271211	10.757766	3.2799034
2.7256661596046325	10.594521	3.2549226
2.743197897749369	10.580706	3.2527997
2.760729700116486	10.513741	3.2424898
2.778261567117063	10.461788	3.2344687
2.795793499162193	10.289919	3.2077904
2.8133254966629817	10.094745	3.1772227
2.830857560030551	9.887396	3.144423
2.8483896896760337	9.791493	3.1291363
2.865921886010578	9.648711	3.1062374
2.883454149445347	9.530548	3.0871587
2.9009864803915177	9.324025	3.0535266
2.91851887926028	9.100187	3.0166516
2.9360513464628384	8.95388	2.9923036
2.953583882410413	8.681997	2.946523
2.9711164875142373	8.665795	2.9437723
2.9886491621855606	8.760057	2.9597394
3.0061819068356455	8.792616	2.9652345
3.023714721875769	8.668756	2.9442751
3.041247607717225	8.442851	2.9056585
3.0587805647713213	8.29124	2.8794513
3.0763135934493806	8.211799	2.8656237
3.0938466941627407	8.150991	2.854994
3.1113798673227544	8.157989	2.8562193
3.1289131133407904	8.008199	2.8298762
3.1464464326282315	7.7686753	2.7872343
3.1639798255964786	7.6055403	2.7578144
3.1815132926569443	7.5161324	2.7415566
3.1990468342210603	7.4508414	2.7296228
3.216580450700272	7.376317	2.7159376
3.2341141425060416	7.3297358	2.7073486
3.251647910049847	7.311909	2.704054
3.2691817537431813	7.1687455	2.6774514
3.286715673997555	7.047691	2.6547487
3.3042496712244938	7.0478187	2.6547728
3.32178374583554	7.1013722	2.66484
3.339317898242251	7.030504	2.6515098
3.3568521288562034	6.834281	2.614246
3.3743864380889876	6.717949	2.5919006
3.3919208263522127	6.724043	2.593076
3.4094552940575023	6.7679906	2.6015363
3.4269898416164972	6.742606	2.596653
3.444524469440858	6.5430646	2.5579414
3.4620591779422587	6.4469194	2.5390785
3.479593967532391	6.4668765	2.5430055
3.4971288386229658	6.500938	2.5496936
3.5146637916257086	6.480577	2.5456977
3.5321988269523628	6.3926945	2.5283778
3.5497339450146903	6.3110876	2.5121877
3.5672691462244708	6.3625693	2.5224135
3.5848044309934988	6.2697945	2.5039558
3.60233979973359	6.2787447	2.5057423
3.619875252856575	6.2470474	2.4994094
3.6374107907743034	6.206994	2.491384
3.6549464138986427	6.1181583	2.4734912
3.6724821226414788	6.077253	2.4652085
3.690017917414714	6.1529026	2.4805045
3.7075537986302702	6.2971163	2.5094056
3.7250897667000857	6.4090996	2.53162
3.7426258220361235	6.497483	2.549016
3.7601619650503553	6.7930646	2.606351
3.777698196154779	7.2715054	2.6965728
3.7952345157614067	8.235285	2.8697186
3.8127709242822716	8.998396	2.9997327
3.830307422129425	11.326526	3.3654904
3.847844009714936	30.25856	5.500778
3.8653806874508954	97.7383	9.886268
3.882917455749409	96.89051	9.843298
3.900454315022606	96.728676	9.835073
3.917991265682631	41.318924	6.42798
3.9355283081416506	10.993591	3.3156586
3.9530654428118495	8.750155	2.9580662
3.970602670105433	7.4633226	2.7319083
3.9881399904346244	6.5648103	2.5621886
4.005677404211669	6.4036655	2.5305464
4.023214911848827	6.4204197	2.5338547
4.0407525137583855	6.4817033	2.545919
4.058290210352644	6.529946	2.5553758
4.075828002043927	6.367939	2.5234776
4.0933658892445814	6.190626	2.488097
4.110903872366966	6.0611105	2.4619322
4.128441951823468	6.0286684	2.4553347
4.145980128026488	6.0448146	2.4586205
4.163518401388452	6.060554	2.4618192
4.181056772321807	5.982209	2.4458556
4.1985952412390155	5.91674	2.432435
4.216133808552567	5.97106	2.4435751
4.233672474674966	6.1455216	2.4790163
4.251211240018741	6.4417305	2.5380564
4.268750104996445	6.7432632	2.5967793
4.286289070020643	7.6127324	2.759118
4.303828135503928	9.195188	3.0323567
4.3213673018589125	29.474922	5.429081
4.3389065694982305	90.74455	9.525993
4.356445938834537	166.06126	12.886476
4.3739854102805085	171.69884	13.103391
4.391524984248844	172.60219	13.137815
4.409064661152262	136.49686	11.683187
4.426604441403504	96.642235	9.830678
4.444144325415337	75.33385	8.679507
4.461684313600543	21.43228	4.629501
4.47922440637193	21.769648	4.6657953
4.496764604142329	20.282671	4.5036287
4.5143049073245916	18.519718	4.3034544
4.531845316331589	16.465172	4.0577297
4.5493858315762195	13.574716	3.6843882
4.566926453471405	11.204131	3.3472571
4.584467182430081	9.128824	3.0213945
4.602008018865218	7.89698	2.8101566
4.619548963189798	7.258512	2.6941626
4.637090015816834	6.8457303	2.6164346
4.654631177159353	6.710805	2.590522
4.672172447630417	6.383323	2.5265238
4.689713827643102	6.2349944	2.496997
4.7072553176105085	6.056959	2.4610891
4.724796917945764	5.8908124	2.4270995
4.742338629062015	5.811209	2.410645
4.759880451372434	5.760862	2.4001796
4.777422385290215	5.737158	2.3952365
4.794964431228581	5.753982	2.398746
4.812506589600768	5.6846485	2.3842502
4.830048860820047	5.577276	2.3616257
4.847591245299709	5.4814043	2.34124
4.8651337434530655	5.42828	2.329867
4.882676355693457	5.4420414	2.3328183
4.900219082434242	5.4794507	2.3408227
4.917761924088813	5.4709067	2.338997
4.935304881070575	5.4371114	2.3317614
4.952847953792969	5.398947	2.3235633
4.970391142669449	5.377152	2.3188686
4.9879344481135055	5.3607945	2.315339
5.005477870538642	5.3111386	2.3045907
5.023021410358394	5.314805	2.305386
5.040565067986324	5.3758273	2.318583
5.05810884383601	5.351538	2.3133392
5.075652738321066	5.357261	2.314576
5.09319675185512	5.290747	2.3001623
5.110740884851836	5.358437	2.3148298
5.128285137724894	5.396559	2.3230495
5.145829510888007	5.420073	2.328105
5.163374004754908	5.424122	2.3289745
5.1809186197393595	5.403143	2.3244662
5.198463356255145	5.455546	2.335711
5.216008214716077	5.4733787	2.3395252
5.233553195535998	5.409995	2.3259397
5.251098299128764	5.356805	2.3144772
5.268643525908272	5.30667	2.303621
5.286188876288432	5.2852235	2.2989614
5.3037343506831895	5.2725463	2.2962027
5.32127994950651	5.2370543	2.2884612
5.3388256731723915	5.1197987	2.2626972
5.356371522094851	5.0841255	2.2548006
5.373917496687938	5.116425	2.2619517
5.391463597365729	5.117913	2.2622805
5.40900982454232	5.2018785	2.2807627
5.426556178631843	5.139356	2.2670147
5.444102660048449	5.123696	2.2635581
5.4616492692063225	5.161892	2.2719798
5.479196006519669	5.1517224	2.2697406
5.496742872402727	5.194142	2.279066
5.514289867269756	5.1358585	2.2662432
5.531836991535049	5.1683507	2.2734008
5.549384245612924	5.247475	2.290737
5.566931629917724	5.2640843	2.2943592
5.584479144863822	5.1742344	2.2746944
5.6020267908656205	5.1307197	2.2651093
5.619574568337545	5.1245756	2.2637525
5.637122477694054	5.1465945	2.2686107
5.654670519349629	5.060724	2.2496052
5.672218693718784	4.992628	2.2344189
5.689767001216059	5.0528193	2.2478478
5.707315442256021	5.158503	2.2712338
5.724864017253266	5.21439	2.2835038
5.7424127266224225	5.2145963	2.283549
5.75996157077814	5.1457314	2.2684205
5.777510550135105	5.0764265	2.2530928
5.795059665108022	5.0248313	2.2416136
5.812608916111639	5.0813804	2.2541916
5.830158303560715	5.299906	2.3021524
5.847707827870055	5.3557205	2.314243
5.86525748945448	5.3828645	2.3201
5.8828072887288485	5.4343987	2.3311796
5.900357226108044	5.5080743	2.3469286
5.917907302006979	5.631262	2.373028
5.9354575168406	6.170238	2.4839964
5.9530078710238765	6.73838	2.595839
5.970558364971812	7.3036494	2.7025266
5.988108999099438	7.657167	2.7671587
6.005659773821818	8.243444	2.87114
6.023210689554039	7.9371824	2.8173006
6.040761746711227	8.385786	2.8958223
6.058312945708531	7.7393045	2.7819605
6.075864286961132	7.307239	2.7031906
6.093415770884244	6.567064	2.5626283
6.1109673978931065	5.996721	2.4488204
6.128519168402993	5.4258823	2.3293524
6.146071082829204	5.3186154	2.3062124
6.163623141587075	5.278408	2.2974787
6.181175345091969	5.1757817	2.2750344
6.198727693759281	5.126136	2.2640972
6.216280188004435	5.13595	2.2662635
6.233832828242885	5.1239057	2.2636046
6.251385614890126	5.1556315	2.2706015
6.268938548361669	5.061613	2.2498028
6.286491629073067	4.981758	2.2319853
6.304044857439898	4.9886374	2.2335258
6.321598233877777	4.9939976	2.2347255
6.339151758802344	5.0013523	2.2363703
6.356705432629277	5.0098553	2.2382705
6.37425925577428	4.9581895	2.2266994
6.391813228653095	4.95882	2.2268407
6.409367351681486	4.907014	2.215178
6.426921625275259	4.9880137	2.2333863
6.44447604985025	5.0285068	2.2424333
6.46203062582232	5.075188	2.2528179
6.47958535360737	5.00747	2.2377377
6.497140233621328	4.941942	2.223048
6.514695266280161	4.93858	2.2222917
6.532250451999859	4.947278	2.2242477
6.549805791196454	5.0344567	2.2437594
6.567361284286002	5.00974	2.2382448
6.584916931684597	4.9950514	2.2349613
6.602472733808367	5.014121	2.2392232
6.6200286910734665	4.995159	2.2349854
6.637584803896092	4.976445	2.2307947
6.655141072692462	4.971137	2.2296047
6.672697497878842	4.9447474	2.2236788
6.690254079871514	4.938363	2.2222428
6.707810819086808	4.8705125	2.2069237
6.725367715941078	4.883763	2.2099237
6.742924770850719	4.861002	2.204768
6.760481984232151	4.856886	2.2038343
6.778039356501836	4.9200015	2.2181077
6.795596888076266	5.0367785	2.2442768
6.813154579371963	5.076683	2.2531495
6.830712430805492	4.951551	2.225208
6.84827044279344	4.915558	2.2171056
6.865828615752445	4.8892426	2.2111633
6.883386950099159	4.8969717	2.2129102
6.900945446250287	4.9101214	2.2158794
6.918504104622553	4.984389	2.2325745
6.936062925632727	5.0479193	2.2467575
6.953621909697607	5.0378003	2.2445045
6.971181057234028	5.0310516	2.2430005
6.988740368658859	5.0384936	2.244659
7.006299844389007	5.1569	2.270881
7.023859484841407	5.271914	2.2960649
7.041419290433036	5.337622	2.3103294
7.058979261580902	5.3994937	2.323681
7.0765393987020495	5.5475755	2.3553293
7.094099702213559	5.8751903	2.4238791
7.111660172532549	6.2482195	2.4996438
7.129220810076164	6.6401978	2.576858
7.146781615261595	7.316066	2.7048228
7.16434258850606	7.5823984	2.7536156
7.181903730226821	8.062025	2.8393705
7.1994650408411704	8.147578	2.8543963
7.217026520766437	8.252771	2.8727636
7.234588170419983	8.504058	2.9161718
7.252149990219215	8.444172	2.9058857
7.269711980581568	8.357004	2.8908484
7.2872741419245175	8.094599	2.8451009
7.304836474665574	7.6874514	2.7726254
7.322398979222286	7.4018655	2.7206368
7.339961656012233	7.1251006	2.6692884
7.357524505453039	6.817928	2.6111162
7.375087527962357	6.536108	2.5565813
7.392650723957886	6.304402	2.5108569
7.410214093857353	5.957594	2.4408183
7.427777638078528	5.763798	2.4007912
7.445341357039213	5.5818844	2.3626013
7.4629052511572525	5.473262	2.3395004
7.480469320850524	5.3506494	2.313147
7.498033566536948	5.242808	2.289718
7.5155979886344735	5.1252556	2.2639027
7.5331625875610975	5.0845656	2.254898
7.550727363734844	5.1620746	2.2720199
7.568292317573788	5.1610165	2.2717872
7.585857449496025	5.1611624	2.271819
7.603422759919705	5.0758295	2.2529602
7.620988249263007	5.08757	2.2555642
7.638553917944147	5.151228	2.2696316
7.656119766381391	5.217119	2.2841015
7.673685794993023	5.2333107	2.287643
7.691252004197388	5.1524696	2.269905
7.70881839441285	5.121534	2.2630806
7.726384966057826	5.1402364	2.267209
7.743951719550762	5.2447333	2.2901382
7.761518655310149	5.2814636	2.2981436
7.779085773754511	5.2517915	2.2916787
7.796653075302419	5.233034	2.2875826
7.814220560372475	5.25012	2.2913141
7.831788229383323	5.2982693	2.301797
7.8493560827536495	5.281468	2.2981443
7.866924120902174	5.2999897	2.3021708
7.884492344247663	5.3401036	2.3108664
7.9020607532089135	5.387082	2.321009
7.919629348204771	5.4005365	2.3239055
7.937198129654115	5.388178	2.321245
7.954767097975865	5.4010015	2.3240054
7.972336253588986	5.369966	2.3173187
7.989905596912472	5.389227	2.3214707
8.007475128365371	5.386056	2.3207877
8.025044848366756	5.3561864	2.3143437
8.042614757335754	5.4443526	2.3333137
8.060184855691523	5.5047	2.3462098
8.07775514385327	5.6717224	2.381538
8.095325622240228	5.7306585	2.3938794
8.112896291271687	5.805194	2.409397
8.130467151366968	5.899097	2.4288056
8.148038202945436	5.958278	2.4409585
8.165609446426497	5.929497	2.4350557
8.183180882229594	5.9440627	2.4380448
8.200752510774217	5.9317565	2.4355197
8.218324332479893	5.9873786	2.446912
8.235896347766193	5.993215	2.4481044
8.253468557052724	6.05645	2.4609857
8.27104096075914	6.0680847	2.4633484
8.288613559305137	6.0720534	2.4641538
8.306186353110448	6.065387	2.4628005
8.32375934259485	6.1417313	2.4782517
8.341332528178162	6.1470213	2.4793186
8.358905910280246	6.167785	2.4835026
8.376479489321003	6.085227	2.4668252
8.394053265720377	6.1098933	2.4718199
8.411627239898356	6.176231	2.4852023
8.42920141227497	6.2407317	2.4981456
8.44677578327029	6.2449093	2.4989817
8.464350353304427	6.1790643	2.4857724
8.48192512279754	6.138594	2.4776187
8.499500092169827	6.0990014	2.4696157
8.51707526184153	6.015175	2.4525855
8.534650632232934	6.0902166	2.4678364
8.552226203764365	6.1163044	2.4731164
8.569801976856192	6.1689005	2.4837272
8.587377951928834	6.1400313	2.4779086
8.60495412940274	6.183381	2.4866405
8.622530509698416	6.3022118	2.5104206
8.6401070932364	6.458198	2.5412984
8.657683880437283	6.6594853	2.5805979
8.675260871721695	6.696391	2.5877385
8.692838067510303	6.777167	2.6032991
8.710415468223834	6.789387	2.6056452
8.727993074283043	6.9445224	2.6352463
8.745570886108737	6.9824696	2.6424363
8.763148904121765	7.0386934	2.6530535
8.78072712874302	7.058061	2.656701
8.798305560393441	7.3299007	2.7073789
8.815884199494006	7.5020647	2.7389898
8.833463046465745	7.742922	2.7826107
8.851042101729728	7.862581	2.8040295
8.86862136570707	8.163465	2.8571777
8.886200838818924	8.311121	2.8829014
8.903780521486505	8.334932	2.8870282
8.921360414131055	8.393697	2.8971877
8.938940517173874	8.5507345	2.9241638
8.956520831036297	8.758106	2.9594097
8.97410135613971	9.010382	3.0017297
8.99168209290554	9.170591	3.0282984
9.009263041755265	9.428523	3.07059
9.026844203110405	9.689422	3.1127837
9.044425577392525	9.9088125	3.1478267
9.062007165023239	10.012494	3.1642525
9.079588966424197	10.232483	3.1988251
9.097170982017108	10.279217	3.2061217
9.11475321222372	11.193875	3.3457248
9.132335657465825	12.089269	3.4769626
9.149918318165264	12.195409	3.4921925
9.167501194743924	12.7939825	3.5768676
9.18508428762374	12.46958	3.5312293
9.202667597226693	12.495567	3.5349069
9.220251123974803	12.131203	3.4829876
9.237834868290143	11.759506	3.4292138
9.255418830594836	11.5185175	3.3938942
9.273003011311046	11.000125	3.3166437
9.290587410860985	10.810748	3.2879703
9.308172029666911	10.256303	3.2025464
9.32575686815113	9.990039	3.1607022
9.343341926735997	8.672349	2.9448853
9.360927205843916	8.483972	2.9127257
9.378512705897327	8.261337	2.8742542
9.396098427318728	8.0959215	2.8453333
9.413684370530664	7.9885225	2.8263974
9.431270535955722	7.943976	2.818506
9.448856924016539	7.8938456	2.809599
9.466443535135806	7.762525	2.786131
9.484030369736251	7.721903	2.7788312
9.501617428240658	7.690861	2.77324
9.519204711071852	7.738628	2.781839
9.536792218652714	7.769094	2.7873094
9.55437995140617	7.785312	2.7902172
9.571967909755191	7.7965717	2.7922342
9.589556094122802	7.901039	2.8108788
9.60714450493207	7.8404646	2.800083
9.624733142606116	7.8058715	2.793899
9.642322007568108	7.7860174	2.7903435
9.659911100241267	7.804857	2.7937174
9.677500421048851	7.7942986	2.7918272
9.695089970414175	7.900093	2.8107104
9.712679748760609	8.033636	2.834367
9.730269756511557	8.152365	2.8552346
9.747859994090492	8.157643	2.8561587
9.765450461920915	8.115701	2.8488069
9.78304116042639	8.108661	2.8475711
9.800632090030527	8.14253	2.853512
9.81822325115699	8.173483	2.8589303
9.835814644229481	8.247551	2.871855
9.853406269671762	8.217766	2.8666646
9.870998127907646	8.222952	2.867569
9.888590219360985	8.245703	2.8715332
9.906182544455698	8.339995	2.8879051
9.923775103615734	8.323456	2.88504
9.941367897265108	8.242675	2.8710058
9.958960925827878	8.103895	2.846734
9.97655418972816	8.082431	2.8429615
9.994147689390106	8.150538	2.854915
10.011741425237934	8.215395	2.866251
10.029335397695904	8.152213	2.8552082
10.04692960718833	8.136517	2.852458
10.06452405413958	8.120634	2.8496726
10.082118738974064	8.203096	2.8641047
10.099713662116246	8.264844	2.874864
10.117308823990651	8.219812	2.8670216
10.134904225021844	8.232966	2.8693147
10.152499865634445	8.187436	2.8613696
10.170095746253125	8.215008	2.8661835
10.18769186730261	8.206321	2.8646677
10.205288229207675	8.136134	2.852391
10.222884832393145	8.106401	2.8471744
10.2404816772839	8.086128	2.8436117
10.258078764304868	8.083799	2.8432024
10.275676093881035	8.073807	2.8414445
10.293273666437438	8.084745	2.8433688
10.310871482399158	8.149213	2.8546827
10.32846954219134	8.151996	2.85517
10.346067846239173	8.122399	2.8499823
10.363666394967908	8.040936	2.8356545
10.38126518880283	7.9941335	2.82739
10.398864228169298	8.05411	2.8379762
10.416463513492713	8.098788	2.845837
10.434063045198531	8.172178	2.8587022
10.451662823712262	8.158189	2.8562543
10.469262849459467	8.128301	2.8510175
10.486863122865758	8.072813	2.8412697
10.504463644356806	8.020261	2.8320065
10.522064414358338	8.081281	2.8427594
10.539665433296118	7.999262	2.8282967
10.557266701595987	7.8846455	2.807961
10.574868219683818	7.7226686	2.778969
10.592469987985552	7.5893154	2.7548711
10.610072006927185	7.481225	2.7351828
10.627674276934751	7.3597198	2.7128804
10.64527679843435	7.17027	2.677736
10.662879571852143	7.072135	2.6593485
10.680482597614331	7.026172	2.6506927
10.698085876147173	6.920248	2.6306365
10.715689407876988	6.8516765	2.6175706
10.733293193230146	6.811555	2.6098955
10.750897232633072	6.791074	2.605969
10.76850152651225	6.6977715	2.5880053
10.786106075294207	6.5400195	2.557346
10.803710879405534	6.4860187	2.5467663
10.821315939272877	6.4284096	2.535431
10.83892125532294	6.3699183	2.5238698
10.856526827982472	6.2786465	2.5057228
10.874132657678285	6.1883082	2.487631
10.891738744837243	6.1045566	2.47074
10.909345089886271	6.047869	2.4592416
10.926951693252343	6.091142	2.468024
10.944558555362494	6.0379243	2.457219
10.96216567664381	5.9539814	2.4400783
10.979773057523436	5.9278607	2.4347198
10.997380698428573	5.8270593	2.4139302
11.014988599786477	5.8097005	2.410332
11.032596762024461	5.6828947	2.3838823
11.050205185569892	5.6144395	2.3694808
11.067813870850198	5.5669494	2.3594384
11.085422818292859	5.4772477	2.340352
11.10303202832541	5.4154344	2.3271086
11.120641501375454	5.339139	2.3106577
11.138251237870636	5.2595706	2.2933753
11.155861238238671	5.225542	2.2859445
11.173471502907317	5.1793127	2.2758102
11.191082032304402	5.1453223	2.2683303
11.208692826857805	5.080649	2.2540295
11.226303886995465	5.00484	2.23715
11.243915213145371	4.9543886	2.2258456
11.261526805735578	4.9347496	2.2214296
11.279138665194196	4.9097085	2.2157862
11.296750791949393	4.8189344	2.195207
11.314363186429393	4.739542	2.177049
11.331975849062479	4.6752577	2.1622343
11.34958878027699	4.5856786	2.1414196
11.36720198050133	4.5394707	2.1306033
11.384815450163948	4.529102	2.1281686
11.402429189693366	4.5047984	2.122451
11.420043199518153	4.49195	2.1194222
11.437657480066942	63.44159	7.965023
11.455272031768422	85.1599	9.228212
11.472886855051353	107.56564	10.371386
11.490501950344528	99.17324	9.958576
11.508117318076819	84.49933	9.192351
11.52573295867715	45.866405	6.7724743
11.543348872574514	4.1356273	2.0336242
11.560965060197946	4.0737467	2.0183525
11.57858152197655	4.0456924	2.0113907
11.59619825833949	3.978455	1.9946065
11.613815269715985	3.9384713	1.9845582
11.631432556535323	38.442547	6.2002053
11.649050119226837	82.99781	9.110313
11.666667958219929	93.44146	9.6665125
11.68428607394406	107.722885	10.378963
11.701904466828756	82.56858	9.086725
11.719523137303586	65.364426	8.084826
11.737142085798196	4.5315986	2.128755
11.754761312742286	3.6223192	1.9032391
11.772380818565619	3.6067069	1.8991332
11.790000603698015	3.6227355	1.9033484
11.80762066856935	3.5831418	1.8929188
11.825241013609572	3.5058017	1.8723786
11.842861639248683	3.464345	1.8612751
11.860482545916748	3.4673982	1.8620951
11.878103734043883	3.5108004	1.873713
11.895725204060282	3.485879	1.8670509
11.91334695639619	3.440188	1.8547744
11.930968991481919	3.3852317	1.8398999
11.948591309747824	3.347919	1.829732
11.966213911624347	3.2844975	1.8123183
11.98383679754198	3.2190638	1.7941749
12.001459967931268	3.164833	1.7789978
12.019083423222835	3.202379	1.7895192
12.036707163847352	3.2077105	1.7910082
12.05433119023556	3.2259152	1.7960833
12.071955502818259	3.1723685	1.7811145
12.089580102026313	3.1723816	1.781118
12.107204988290643	3.1962144	1.787796
12.12483016204224	3.195533	1.7876054
12.142455623712152	3.1669114	1.7795818
12.16008137373149	3.135136	1.7706316
12.177707412531431	3.0754912	1.7537079
12.19533374054321	3.0595677	1.749162
12.212960358198126	3.0513647	1.7468156
12.230587265927545	3.0183997	1.7373543
12.248214464162889	3.0080595	1.7343758
12.265841953335649	2.9825087	1.7269942
12.283469733877375	2.9732468	1.7243105
12.301097806219685	2.975731	1.7250307
12.31872617079425	2.9772866	1.7254815
12.336354828032825	2.9920368	1.7297505
12.353983778367205	2.9824376	1.7269735
12.371613022229262	2.9883254	1.7286774
12.389242560050928	2.9871204	1.7283288
12.406872392264201	2.9408226	1.7148827
12.424502519301143	2.9133286	1.7068475
12.442132941593874	2.903166	1.7038679
12.459763659574586	2.9407537	1.7148626
12.477394673675532	2.915288	1.7074214
12.49502598432903	2.845905	1.6869811
12.51265759196746	2.7992787	1.6731045
12.530289497023267	2.7742615	1.6656114
12.547921699928967	2.799249	1.6730956
12.565554201117134	2.7832007	1.6682928
12.583187001020404	2.78858	1.6699041
12.600820100071486	2.7777033	1.6666443
12.618453498703152	2.7546947	1.6597273
12.636087197348235	2.764638	1.6627201
12.65372119643964	2.7782285	1.6668019
12.671355496410326	2.8154655	1.6779349
12.68899009769333	2.8234916	1.6803248
12.706625000721749	2.824753	1.6807002
12.724260205928752	2.8628867	1.6920067
12.741895713747551	2.880534	1.6972135
12.759531524611454	2.9873695	1.7284008
12.777167638953818	3.0242908	1.7390488
12.794804057208072	3.0274277	1.7399505
12.812440779807702	3.009029	1.7346553
12.830077807186271	3.1500669	1.7748427
12.847715139777405	3.2210422	1.7947263
12.865352778014795	3.43762	1.854082
12.882990722332197	3.5613062	1.8871423
12.90062897316344	3.611045	1.900275
12.918267530942412	3.6650157	1.9144231
12.935906396103071	3.533293	1.8797055
12.953545569079449	3.706258	1.9251645
12.971185050305628	3.5561986	1.8857886
12.988824840215775	3.5486617	1.8837892
13.006464939244115	3.5381703	1.8810024
13.024105347824943	3.4427488	1.8554646
13.041746066392617	3.5968757	1.896543
13.05938709538157	3.4247394	1.8506051
13.077028435226296	3.4150178	1.8479767
13.094670086361363	3.2408116	1.8002254
13.112312049221401	3.1302752	1.7692584
13.129954324241112	3.052679	1.7471918
13.147596911855258	2.855643	1.6898648
13.165239812498685	2.8295243	1.682119
13.182883026606293	2.7395117	1.6551471
13.200526554613058	2.7330856	1.6532047
13.218170396954017	2.7223833	1.6499646
13.235814554064284	2.7299764	1.652264
13.253459026379034	2.670851	1.6342739
13.271103814333523	2.646379	1.6267695
13.288748918363058	2.6675124	1.6332521
13.306394338903031	2.6938558	1.641297
13.32404007638889	2.6730235	1.6349384
13.341686131256164	2.6801555	1.6371181
13.359332503940449	2.6761303	1.6358882
13.376979194877402	2.7078385	1.6455511
13.394626204502751	2.743526	1.6563592
13.412273533252307	2.7486176	1.6578956
13.429921181561937	2.7131078	1.6471515
13.447569149867581	2.7075753	1.6454711
13.465217438605247	2.68981	1.640064
13.482866048211022	2.6810868	1.6374024
13.500514979121052	2.7167366	1.6482526
13.518164231771568	2.7014768	1.643617
13.535813806598844	2.671722	1.6345403
13.553463704039254	2.6560209	1.6297303
13.571113924529229	2.6805074	1.6372255
13.588764468505275	2.6948013	1.641585
13.606415336403956	2.7203782	1.6493568
13.624066528661917	2.7464974	1.657256
13.641718045715882	2.8180463	1.6787038
13.659369888002635	2.827091	1.6813955
13.67702205595903	2.9012902	1.7033174
13.694674550021993	2.9459276	1.7163705
13.712327370628532	3.0175004	1.7370954
13.729980518215713	3.0852418	1.7564856
13.747633993220681	3.1547964	1.7761747
13.765287796080647	3.1713395	1.7808255
13.7829419272329	3.1980224	1.7883016
13.800596387114801	3.219473	1.794289
13.818251176163775	3.2957118	1.8154095
13.835906294817324	3.3607643	1.8332387
13.853561743513023	3.4443655	1.8559002
13.871217522688525	3.4342742	1.8531795
13.888873632781538	3.4541354	1.8585304
13.906530074229858	3.4735518	1.8637466
13.92418684747135	3.5268407	1.8779885
13.941843952943948	3.5331519	1.879668
13.959501391085665	3.4758482	1.8643627
13.977159162334578	3.4320087	1.8525681
13.994817267128846	3.416059	1.8482584
14.012475705906693	3.353616	1.8312881
14.030134479106424	3.2665381	1.8073567
14.047793587166414	3.1717513	1.7809411
14.065453030525108	3.1072369	1.7627356
14.083112809621026	3.0212073	1.738162
14.100772924892766	2.9309254	1.7119945
14.118433376778997	2.863673	1.692239
14.136094165718458	2.8166728	1.6782947
14.153755292149969	2.778503	1.6668842
14.171416756512416	2.7172017	1.6483936
14.189078559244768	2.654275	1.6291946
14.20674070078606	2.5701072	1.6031554
14.224403181575408	2.5099971	1.5842971
14.242066002051999	2.4446948	1.563552
14.259729162655093	2.4401305	1.5620917
14.277392663824022	2.4818518	1.5753894
14.295056505998208	2.4697149	1.5715326
14.312720689617128	2.4015737	1.5497011
14.330385215120348	2.3499846	1.532966
14.348050082947497	2.3383512	1.5291668
14.3657152935383	2.3728402	1.5404027
14.383380847332528	2.371852	1.5400817
14.401046744770051	2.3806515	1.542936
14.418712986290798	2.3831232	1.5437367
14.436379572334793	2.3830714	1.54372
14.454046503342123	2.355817	1.5348672
14.471713779752946	2.3594444	1.5360483
14.489381402007504	2.3495882	1.5328367
14.507049370546113	2.340579	1.5298951
14.524717685809168	2.3548381	1.5345482
14.542386348237134	2.3829153	1.5436695
14.560055358270553	2.415843	1.5542983
14.577724716350051	2.4768248	1.573793
14.595394422916325	2.4977875	1.580439
14.61306447841015	2.5139213	1.585535
14.63073488327237	2.474472	1.5730455
14.648405637943917	2.4499338	1.5652264
14.6660767428658	2.422255	1.5563595
14.683748198479094	2.4650671	1.5700532
14.701420005224954	2.5204046	1.5875782
14.719092163544628	2.6117134	1.6160797
14.73676467387942	2.6592143	1.6307098
14.754437536670727	2.6675534	1.6332647
14.772110752360014	2.6320562	1.6223613
14.78978432138882	2.6274078	1.620928
14.807458244198777	2.6468697	1.6269203
14.82513252123159	2.646923	1.6269367
14.842807152929028	2.635822	1.6235214
14.860482139732962	2.6042135	1.6137576
14.87815748208531	2.6178532	1.6179781
14.8958331804281	2.663974	1.6321685
14.91350923520342	2.611657	1.6160622
14.931185646853438	2.6539214	1.629086
14.948862415820408	2.629905	1.6216981
14.966539542546656	2.6532075	1.6288669
14.98421702747459	2.623028	1.6195765
15.001894871046696	2.6510913	1.6282172
15.019573073705542	2.618857	1.6182883
15.037251635893766	2.5800822	1.6062634
15.054930558054092	2.6040087	1.6136941
15.072609840629323	2.6902666	1.6402032
15.090289484062351	2.8068173	1.6753559
15.107969488796124	3.1005154	1.760828
15.125649855273691	3.5281355	1.8783332
15.14333058393817	4.0489726	2.0122058
15.161011675232768	5.0033617	2.2368195
15.17869312960076	6.357978	2.5215032
15.196374947485506	8.22824	2.868491
15.214057129330447	11.351834	3.3692484
15.231739675579114	15.94781	3.993471
15.249422586675102	20.9598	4.5781875
15.267105863062092	24.007803	4.899776
15.284789505183847	24.348509	4.9344206
15.302473513484218	22.208496	4.7125893
15.320157888407127	18.625896	4.315773
15.337842630396578	14.4469185	3.8009102
15.355527739896656	11.1871195	3.344715
15.37321321735153	8.672432	2.9448993
15.39089906320545	6.353394	2.520594
15.408585277902748	4.835407	2.1989558
15.42627186188783	3.7674081	1.9409813
15.443958815605198	3.2140152	1.7927675
15.461646139499424	2.8880055	1.6994133
15.479333834015168	2.7529705	1.6592078
15.497021899597165	2.6940057	1.6413426
15.514710336690234	2.6318276	1.6222908
15.53239914573928	2.5980039	1.6118325
15.550088327189297	2.562849	1.60089
15.567777881485336	2.5122337	1.5850028
15.58546780907256	2.4543052	1.5666223
15.6031581103962	2.487912	1.5773116
15.620848785901568	2.511721	1.584841
15.638539836034063	2.5186813	1.5870354
15.656231261239173	2.482441	1.5755764
15.673923061962451	2.4553022	1.5669404
15.691615238649552	2.4619358	1.5690557
15.709307791746202	2.4383621	1.5615256
15.727000721698221	2.4279711	1.5581949
15.744694028951498	2.422808	1.5565372
15.76238771395202	2.4203029	1.5557323
15.780081777145844	2.422607	1.5564725
15.797776218979125	2.445743	1.5638871
15.815471039898094	2.4329476	1.5597908
15.833166240349064	2.4410071	1.5623723
15.850861820778437	2.3837452	1.5439382
15.868557781632699	2.3568902	1.5352167
15.886254123358412	2.3429291	1.530663
15.903950846402232	2.3370538	1.5287426
15.921647951210897	2.3468711	1.5319501
15.939345438231225	2.3652816	1.5379472
15.957043307910133	2.378921	1.5423751
15.974741560694602	2.365333	1.537964
15.992440197031714	2.3914504	1.5464315
16.01013921736862	2.3783119	1.5421777
16.02783862215259	2.3802397	1.5428026
16.045538411830933	2.372429	1.5402691
16.06323858685107	2.390065	1.5459834
16.080939147660512	2.3958423	1.5478508
16.09864009470684	2.4018867	1.5498022
16.11634142843774	2.381122	1.5430886
16.134043149300954	2.3851442	1.5443913
16.15174525774433	2.379746	1.5426425
16.169447754215817	2.398695	1.5487721
16.18715063916342	2.3926976	1.5468347
16.204853913035244	2.3938794	1.5472167
16.222557576279478	2.443067	1.5630313
16.240261629344403	22.490269	4.7423906
16.257966072678386	43.02652	6.55946
16.275670906729868	38.154144	6.176904
16.293376131947387	2.5477912	1.5961802
16.31108174877957	2.5464528	1.5957608
16.328787757675133	2.5258446	1.5892906
16.34649415908287	2.5183897	1.5869435
16.364200953451657	2.5568497	1.5990152
16.38190814123048	2.5887682	1.6089649
16.39961572286839	2.635341	1.6233733
16.41732369881455	2.6525466	1.628664
16.43503206951817	2.6336942	1.622866
16.45274083542859	2.6560907	1.6297517
16.47044999699522	2.6795292	1.6369268
16.488159554667558	2.7548923	1.6597868
16.505869508895184	2.8406134	1.6854119
16.523579860127786	2.9150329	1.7073467
16.541290608815117	2.983062	1.7271544
16.559001755407035	3.029623	1.7405813
16.57671330035348	3.088155	1.7573147
16.59442524410448	3.1102614	1.7635933
16.61213758711015	3.1236644	1.7673892
16.629850329820705	3.1934633	1.7870264
16.647563472686436	3.2900705	1.8138552
16.665277016157724	3.378109	1.8379632
16.682990960685053	3.380272	1.8385515
16.70070530671898	3.4165843	1.8484005
16.718420054710155	3.4946744	1.8694048
16.736135205109335	3.5700684	1.8894625
16.753850758367335	3.633067	1.9060606
16.771566714935087	3.6726034	1.9164038
16.789283075263597	3.7286232	1.9309644
16.80699983980398	3.7715151	1.9420389
16.82471700900741	3.832345	1.9576377
16.84243458332518	3.8704834	1.9673544
16.860152563208665	3.963677	1.9908985
16.87787094910932	4.027146	2.006775
16.89558974147871	4.102025	2.0253456
16.913308940768466	4.1511374	2.037434
16.931028547430333	4.218644	2.0539339
16.94874856191613	4.2969837	2.0729167
16.966468984677785	4.339405	2.083124
16.98418981616729	4.367153	2.0897734
17.00191105683676	4.399963	2.0976088
17.019632707138374	4.4860373	2.1180267
17.03735476752442	4.5600085	2.1354177
17.05507723844728	4.599917	2.1447418
17.072800120359403	4.5890117	2.1421978
17.090523413713353	4.573911	2.1386704
17.108247118961785	4.5809984	2.1403267
17.125971236557437	4.6243353	2.1504269
17.143695766953133	4.6280737	2.151296
17.161420710601806	4.6253357	2.1506593
17.179146067956477	4.6145506	2.1481504
17.19687183947025	4.6351767	2.152946
17.21459802559634	4.6207576	2.1495948
17.232324626788028	4.615522	2.1483765
17.25005164349871	4.587851	2.141927
17.267779076181863	4.549593	2.1329775
17.285506925291074	4.5650697	2.1366024
17.30323519127999	4.5491443	2.1328723
17.320963874602384	4.5964794	2.1439402
17.33869297571211	4.579931	2.1400774
17.356422495063114	4.5513687	2.1333938
17.37415243310944	4.507011	2.1229722
17.391882790305218	4.503961	2.1222537
17.40961356710468	4.5128617	2.1243498
17.42734476396215	4.5296373	2.1282945
17.445076381332044	4.508929	2.1234238
17.462808419668868	4.5399203	2.130709
17.48054087942723	4.6368985	2.1533458
17.498273761061835	4.950267	2.2249196
17.51600706502747	5.4377613	2.3319008
17.533740791779024	6.1502194	2.4799635
17.551474941771485	7.6028423	2.7573252
17.56920951545993	8.711825	2.95158
17.586944513299528	10.920669	3.3046434
17.60467993574556	12.601672	3.5498834
17.622415783253373	14.311642	3.783073
17.64015205627843	15.663091	3.9576623
17.657888755276293	16.68518	4.0847497
17.675625880702604	17.141533	4.1402335
17.69336343301311	16.94101	4.115946
17.71110141266366	16.146261	4.018241
17.728839820110178	15.2290125	3.9024367
17.746578655808705	14.303163	3.7819521
17.764317920215372	12.931676	3.5960639
17.7820576137864	11.438741	3.3821208
17.79979773697811	9.418779	3.069003
17.81753829024692	7.485671	2.7359955
17.835279274049356	5.888421	2.426607
17.85302068884201	4.88074	2.2092397
17.870762535081607	4.257317	2.0633266
17.888504813224934	3.8855422	1.9711778
17.90624752372891	3.6747093	1.9169531
17.923990667050536	3.5291529	1.8786039
17.941734243646895	3.4055233	1.845406
17.959478253975185	3.3754404	1.8372371
17.9772226984927	3.3467627	1.8294159
17.994967577656833	3.3155797	1.8208734
18.01271289192506	3.2859817	1.8127277
18.030458641754965	3.3073244	1.8186051
18.04820482760425	3.321531	1.8225068
18.06595144993067	3.3396866	1.8274809
18.083698509192125	3.343062	1.8284042
18.101446005846576	3.2969785	1.8157583
18.119193940352105	3.210102	1.7916758
18.136942313166887	3.167804	1.7798326
18.1546911247492	3.1551578	1.7762764
18.1724403755574	3.1412122	1.7723465
18.19019006604997	3.114602	1.7648236
18.207940196685467	3.0900376	1.7578503
18.225690767922575	3.0840657	1.7561508
18.243441780220046	3.0808947	1.7552477
18.261193234036764	3.0477412	1.7457781
18.278945129831676	3.0302367	1.7407575
18.29669746806386	3.065153	1.7507578
18.314450249192483	3.101097	1.7609932
18.3322034736768	3.0911288	1.7581606
18.349957141976184	3.0622027	1.749915
18.3677112545501	3.0318415	1.7412184
18.385465811858108	3.0431254	1.7444556
18.403220814359884	3.0267465	1.7397547
18.420976262515172	3.0338697	1.7418007
18.43873215678387	3.0914705	1.7582577
18.456488497625923	3.185686	1.784849
18.474245285501407	3.2483878	1.8023285
18.492002520870486	3.305993	1.818239
18.50976020419343	3.3514373	1.8306931
18.527518335930615	3.5989614	1.8970928
18.545276916542516	4.1117826	2.027753
18.563035946489688	4.2476277	2.0609775
18.580795426232832	4.719611	2.1724665
18.598555356232698	4.6854744	2.1645956
18.616315736950185	5.0463314	2.2464042
18.63407656884626	4.696924	2.167239
18.65183785238201	4.897702	2.2130754
18.669599588018617	4.682615	2.163935
18.68736177621737	4.636475	2.1532476
18.705124417439652	4.6353154	2.1529782
18.72288751214696	4.4980745	2.1208665
18.740651060800886	4.588861	2.1421628
18.758415063863115	4.220905	2.0544841
18.77617952179546	4.3855844	2.0941787
18.793944435059814	4.188836	2.0466647
18.811709804118184	4.2116013	2.0522187
18.829475629432675	4.161954	2.0400867
18.8472419114655	3.9641988	1.9910296
18.86500865067897	4.0320725	2.008002
18.88277584753551	3.7433193	1.9347659
18.90054350249763	3.8171213	1.9537455
18.918311616027957	3.4812386	1.8658078
18.936080188589226	3.3660262	1.8346733
18.953849220644265	3.0035734	1.733082
18.971618712656007	2.8227594	1.680107
18.9893886650875	2.7749884	1.6658297
19.007159078401887	7.994509	2.8274562
19.024929953062408	32.88465	5.734514
19.042701289532435	32.839558	5.730581
19.060473088275405	25.399824	5.039824
19.07824534975489	2.6808634	1.6373342
19.096018074434568	2.6301327	1.6217684
19.113791262778197	2.5787723	1.6058556
19.13156491524966	2.5528972	1.5977788
19.149339032312945	2.5442183	1.5950606
19.167113614432136	2.5463097	1.595716
19.184888662071433	2.5630856	1.600964
19.202664175695123	2.5355382	1.5923374
19.220440155767623	2.518585	1.587005
19.238216602753447	2.4540167	1.5665301
19.2559935171172	2.4299097	1.5588168
19.27377089932361	2.4146929	1.5539283
19.291548749837514	2.4647112	1.5699399
19.309327069123835	2.5053244	1.5828216
19.32710585764763	2.5446618	1.5951996
19.344885115874032	2.5601826	1.600057
19.362664844268313	2.5016556	1.5816623
19.380445043295822	2.458553	1.5679774
19.39822571342203	2.423767	1.5568452
19.41600685511252	2.4262936	1.5576564
19.43378846883297	2.461702	1.5689813
19.451570555049173	2.4902377	1.5780487
19.469353114227037	2.4780138	1.5741708
19.48713614683254	2.4396389	1.5619344
19.50491965333182	2.4569662	1.5674713
19.52270363419109	2.4612267	1.5688298
19.540488089876686	2.4575992	1.5676732
19.55827302085503	2.4183698	1.5551108
19.576058427592674	2.4059699	1.5511189
19.593844310556282	2.4121196	1.5531
19.611630670212598	2.423761	1.5568433
19.629417507028506	2.469797	1.5715587
19.64720482147098	2.4953196	1.579658
19.6649926140071	2.510206	1.584363
19.682780885104084	2.501891	1.5817367
19.70056963522921	2.4765325	1.5737002
19.718358864849908	2.4836397	1.5759568
19.7361485744337	2.4752417	1.5732901
19.753938764448215	2.4822106	1.5755033
19.771729435361202	2.4622056	1.5691417
19.789520587640506	2.4776213	1.5740461
19.807312221754092	2.5026107	1.5819641
19.825104338170043	2.5097272	1.5842118
19.842896937356517	2.539824	1.5936825
19.860690019781824	2.494743	1.5794755
19.87848358591436	2.467503	1.5708288
19.896277636222635	2.4321861	1.5595468
19.914072171175278	2.4613352	1.5688643
19.931867191241015	2.484056	1.5760888
19.94966269688869	2.470709	1.571849
19.967458688587264	2.4712787	1.5720301
19.985255166805807	2.457802	1.5677379
20.00305213201348	2.4756844	1.5734308
20.020849584679578	2.456184	1.5672218
20.038647525273507	2.4639146	1.5696862
20.05644595426477	2.4262154	1.5576314
20.07424487212299	2.4303303	1.5589516
20.092044279317903	2.4315147	1.5593315
20.109844176319353	2.4083352	1.5518812
20.127644563597304	2.3979533	1.5485326
20.145445441621817	2.4395058	1.5618918
20.16324681086307	2.4334753	1.55996
20.181048671791373	2.3978727	1.5485066
20.198851024877122	2.3357642	1.5283207
20.216653870590836	2.3298302	1.5263782
20.234457209403146	2.3494997	1.5328078
20.252261041784802	2.3701768	1.5395379
20.270065368206662	2.362509	1.5370456
20.287870189139685	2.3171725	1.5222262
20.305675505054968	2.3104255	1.5200084
20.323481316423702	2.2986934	1.5161443
20.341287623717207	2.3067153	1.5187874
20.359094427406884	2.3039215	1.5178674
20.376901727964288	2.3185177	1.522668
20.39470952586107	2.351456	1.5334457
20.41251782156899	2.3601952	1.5362927
20.430326615559935	2.3457527	1.531585
20.448135908305886	2.369207	1.5392228
20.465945700278965	2.3665693	1.5383658
20.483755991951384	2.3974204	1.5483606
20.50156678379548	2.3879023	1.5452839
20.519378076283708	2.3889747	1.5456308
20.537189869888635	2.357334	1.5353612
20.55500216508294	2.3383663	1.5291717
20.572814962339415	2.31828	1.5225899
20.59062826213098	2.281067	1.5103202
20.60844206493066	2.2675388	1.5058349
20.626256371211593	2.2434125	1.4978025
20.644071181447032	2.2603595	1.5034492
20.66188649611036	2.292207	1.5140036
20.67970231567506	2.3278823	1.5257399
20.697518640614742	2.3094242	1.519679
20.715335471403122	2.2807806	1.5102253
20.73315280851404	2.2976859	1.5158119
20.750970652421447	2.315582	1.5217037
20.768789003599412	2.3254907	1.524956
20.786607862522136	2.3038354	1.5178391
20.8044272296639	2.284219	1.5113633
20.82224710549913	2.271244	1.5070647
20.84006749050237	2.255947	1.501981
20.857888385148268	3.7960124	1.9483358
20.8757097899116	45.913906	6.77598
20.893531705267254	64.79553	8.049567
20.911354131690224	83.80664	9.154596
20.92917706965566	69.06939	8.3108
20.94700051963877	50.132286	7.0804157
20.96482448211493	29.405413	5.4226756
20.982648957559622	4.1515527	2.037536
21.00047394644843	2.2805178	1.5101384
21.01829944925707	2.2950127	1.5149299
21.036125466461375	2.2580187	1.5026705
21.053951998537297	2.2458153	1.4986044
21.071779045960906	2.2348099	1.494928
21.089606609208378	2.234978	1.4949843
21.10743468875603	2.220189	1.4900299
21.12526328508028	2.2292562	1.4930694
21.143092398657675	2.2162168	1.4886963
21.16092202996488	2.2167916	1.4888893
21.17875217947867	2.209164	1.4863256
21.19658284767596	2.1916575	1.4804248
21.21441403503377	2.1554193	1.4681346
21.232245742029225	2.1231828	1.4571146
21.2500779691396	2.1305046	1.4596248
21.26791071684227	2.1320586	1.460157
21.28574398561475	2.1307294	1.4597018
21.30357777593465	2.1315796	1.459993
21.321412088279704	2.1408253	1.463156
21.339246923127792	2.1638372	1.4709988
21.357082280956888	2.165807	1.4716681
21.3749181622451	2.1610818	1.4700618
21.392754567470647	2.125113	1.4577768
21.41059149711187	2.1127102	1.4535165
21.42842895164726	2.120597	1.456227
21.446266931555378	2.1523874	1.4671017
21.464105437314945	2.1345034	1.460994
21.481944469404798	2.1066182	1.4514194
21.49978402830388	2.107786	1.4518216
21.51762411449127	2.1251488	1.457789
21.53546472844617	2.1272554	1.4585114
21.553305870647876	2.115326	1.454416
21.571147541575865	2.086438	1.4444507
21.58898974170967	2.0704744	1.4389143
21.60683247152899	2.0714679	1.4392595
21.62467573151363	2.0871747	1.4447057
21.642519522143523	2.1076524	1.4517757
21.660363843898722	2.1064208	1.4513514
21.6782086972594	2.0390022	1.4279363
21.696054082705864	2.0393796	1.4280685
21.713900000718535	2.0659146	1.4373289
21.73174645177795	2.1051826	1.4509248
21.749593436364794	2.0725276	1.4396276
21.767440954959845	2.0274725	1.4238935
21.785289008044032	2.0255492	1.4232179
21.803137596098388	2.0257409	1.4232852
21.820986719604086	2.0148017	1.4194372
21.838836379042412	1.9646428	1.4016571
21.85668657489478	1.9816155	1.4076986
21.87453730764273	1.9960424	1.4128137
21.892388577767914	2.0076735	1.416924
21.91024038575213	2.0207095	1.4215167
21.928092732077285	2.0178401	1.420507
21.945945617225426	2.0122192	1.4185271
21.963799041678694	2.007097	1.4167205
21.981653005919398	31.336845	5.5979323
21.999507510429943	78.13502	8.839401
22.01736255569286	73.08799	8.549151
22.035218142190818	4.148383	2.036758
22.05307427040661	1.9486872	1.3959539
22.07093094082315	1.9614046	1.4005015
22.088788153923474	1.9740779	1.4050188
22.106645910190746	1.987045	1.4096259
22.12450421010827	1.9932703	1.4118322
22.142363054159464	1.9827849	1.408114
22.16022244282787	1.9844607	1.4087089
22.178082376597164	1.9964219	1.412948
22.195942855951145	1.9909459	1.4110088
22.213803881373742	1.9824914	1.4080098
22.231665453349002	1.963357	1.4011984
22.24952757236111	1.973902	1.4049562
22.26739023889438	1.9928877	1.4116968
22.28525345343323	1.9920992	1.4114175
22.30311721646225	1.9972034	1.4132245
22.320981528466113	1.9612103	1.4004321
22.33884638992964	1.9472508	1.3954393
22.356711801337788	1.9428676	1.3938679
22.37457776317561	1.9306909	1.389493
22.392444275928337	1.9357152	1.3912998
22.410311340081282	1.9633547	1.4011976
22.428178956119904	1.9593575	1.3997705
22.446047124529805	1.9360417	1.3914171
22.46391584579669	1.9278855	1.3884832
22.481785120406414	1.9235849	1.3869337
22.49965494884496	1.923142	1.386774
22.51752533159841	1.8994308	1.3781984
22.53539626915302	1.8969791	1.3773086
22.553267761995137	1.8749405	1.3692846
22.571139810611264	1.8627499	1.364826
22.589012415488025	1.8762484	1.3697622
22.60688557711216	1.897309	1.3774284
22.624759295970566	1.9313858	1.3897431
22.642633572550263	1.9320444	1.38998
22.660508407338362	1.9205527	1.38584
22.67838380082217	1.9053006	1.3803263
22.696259753489077	1.9110552	1.3824092
22.714136265826614	1.9101139	1.3820688
22.73201333832246	1.9204159	1.3857907
22.74989097146439	1.9576659	1.3991661
22.76776916574035	1.9673537	1.4026239
22.785647921638393	1.9356698	1.3912835
22.803527239646712	1.8931386	1.3759137
22.82140712025363	1.873277	1.3686771
22.839287563947593	1.847941	1.3593899
22.85716857121719	1.8799795	1.3711234
22.875050142551135	1.9220225	1.3863703
22.892932278438277	1.9236959	1.3869736
22.910814979367604	1.9320112	1.389968
22.928698245828222	1.8870614	1.3737035
22.946582078309387	1.9090333	1.3816777
22.96446647730047	1.9104244	1.382181
22.98235144329098	1.9552852	1.3983151
23.000236976770562	1.950492	1.3966001
23.018123078229	1.9158734	1.3841507
23.03600974815619	1.9044329	1.3800119
23.053896987042194	1.9119954	1.3827492
23.071784795377173	1.9317454	1.3898724
23.08967317365145	1.9508944	1.3967443
23.10756212235546	1.9404124	1.3929869
23.125451641979787	1.8936037	1.3760828
23.143341733015134	1.8763905	1.369814
23.161232395952357	1.8958735	1.3769072
23.179123631282426	1.9567838	1.3988509
23.197015439496468	1.9653699	1.4019165
23.214907821085717	1.9351231	1.391087
23.23280077654157	1.8949981	1.3765893
23.250694306355538	1.9172459	1.3846465
23.268588411019277	1.9062823	1.3806819
23.28648309102458	1.9026308	1.3793589
23.304378346863356	1.8928674	1.3758152
23.322274179027676	1.9001514	1.3784598
23.340170588009723	1.8707188	1.3677423
23.358067574301852	1.8750055	1.3693084
23.37596513839651	1.9018457	1.3790742
23.39386328078629	1.948032	1.3957192
23.411762001963947	1.9710559	1.403943
23.429661302422353	1.9503103	1.3965352
23.4475611826545	1.9491805	1.3961306
23.46546164315356	1.9497243	1.3963253
23.48336268441279	1.9534034	1.397642
23.501264306925638	1.9213401	1.3861241
23.51916651118564	1.9092888	1.3817701
23.537069297686497	1.9147092	1.3837302
23.554972666922037	1.9054681	1.380387
23.57287661938623	1.9171072	1.3845965
23.59078115557318	1.8873589	1.3738118
23.608686275977128	1.8889006	1.3743728
23.62659198109246	1.9138646	1.383425
23.6444982714137	1.9361795	1.3914667
23.66240514743549	1.9034969	1.3796728
23.68031260965263	1.9329116	1.3902919
23.698220658560068	1.9586349	1.3995124
23.716129294652845	1.9494308	1.3962202
23.7340385184262	1.9287025	1.3887774
23.75194833037546	1.8984894	1.3778569
23.769858730996123	1.8821399	1.371911
23.78776972078382	1.86165	1.3644229
23.80568130023431	1.8671325	1.3664306
23.823593469843495	1.8965659	1.3771586
23.841506230107424	1.9207325	1.3859049
23.859419581522275	1.9362191	1.3914809
23.87733352458438	1.8802588	1.3712252
23.89524805979019	1.856541	1.3625494
23.913163187636318	1.8567301	1.3626188
23.931078908619508	1.8951439	1.3766422
23.948995223236633	1.9403822	1.392976
23.966912131984735	1.9555637	1.3984147
23.98482963536096	1.9789704	1.4067588
24.002747733862616	1.9898452	1.4106187
24.020666427987155	2.0054278	1.4161313
24.038585718232156	2.0057259	1.4162365
24.056505605095353	1.9962127	1.4128739
24.074426089074617	2.0312366	1.4252146
24.092347170667946	2.0553172	1.4336377
24.110268850373515	2.0416863	1.4288759
24.128191128689586	2.011449	1.4182557
24.146114006114626	1.9991605	1.4139167
24.164037483147187	2.0227203	1.4222237
24.181961560286005	2.005442	1.4161363
24.199886238029926	2.000002	1.4142143
24.21781151687797	1.9536979	1.3977474
24.235737397329274	1.9285564	1.3887248
24.253663879883135	1.9381679	1.392181
24.271590965038975	1.966512	1.4023237
24.289518653296376	2.0430243	1.429344
24.30744694515505	2.0412743	1.4287317
24.32537584111486	2.029616	1.424646
24.34330534167581	2.056774	1.4341457
24.361235447338046	2.055102	1.4335628
24.379166158601876	2.033842	1.4261284
24.39709747596772	2.0009542	1.4145509
24.41502939993615	2.0290706	1.4244545
24.432961931007917	2.0092933	1.4174955
24.450895069683856	2.01533	1.4196233
24.468828816465	2.0032933	1.4153774
24.4867631718525	1.9487956	1.3959926
24.504698136347656	1.9244233	1.3872359
24.52263371045192	1.9055626	1.3804212
24.540569894666874	1.9424801	1.3937289
24.558506689494266	1.977973	1.4064043
24.57644409543597	2.0041106	1.4156661
24.594382112994012	1.9937527	1.412003
24.61232074267057	1.9552475	1.3983016
24.630259984967953	1.9508524	1.3967292
24.64819984038863	1.9637543	1.4013401
24.66614030943522	1.9252976	1.387551
24.684081392610462	1.9163123	1.3843093
24.702023090417274	1.9703739	1.4037001
24.7199654033587	2.0249531	1.4230084
24.737908331937927	2.0268118	1.4236615
24.755851876658305	2.0371165	1.4272759
24.773796038023324	2.0294807	1.4245985
24.79174081653661	2.0222087	1.4220438
24.809686212701962	2.0194023	1.4210567
24.827632227023294	2.0047593	1.4158952
24.8455788600047	1.9954066	1.4125886
24.8635261121504	2.0472627	1.4308258
24.88147398396475	2.0820446	1.4429291
24.899422475952303	2.1102142	1.4526577
24.917371588617698	2.045934	1.4303615
24.935321322465768	2.056408	1.4340181
24.953271678001478	2.1936648	1.4811026
24.97122265572994	2.4379897	1.5614064
24.989174256156414	2.72906	1.6519867
25.00712647978632	3.1782427	1.7827626
25.02507932712521	3.7500746	1.9365109
25.043032798678798	4.355761	2.087046
25.060986894952933	5.023876	2.2414005
25.078941616453637	5.804377	2.4092274
25.096896963687055	6.7237635	2.593022
25.114852937159508	7.8146176	2.7954638
25.132809537377444	8.206083	2.8646262
25.150766764847468	8.204663	2.8643785
25.168724620076347	7.635103	2.763169
25.186683103570985	6.587121	2.5665388
25.204642215838426	5.4300976	2.330257
25.222601957385894	4.1630683	2.0403597
25.24056232872074	3.2213867	1.7948222
25.25852333035048	2.6034508	1.6135212
25.276484962782778	2.2332313	1.4944
25.294447226525435	2.066296	1.4374617
25.312410122086423	1.9697384	1.4034737
25.330373649973843	1.9307545	1.389516
25.348337810695988	1.9165086	1.3843802
25.366302604761245	1.9050164	1.3802233
25.384268032678207	1.897592	1.377531
25.40223409495558	1.8746465	1.3691773
25.420200792102257	1.884194	1.3726594
25.438168124627246	1.8896384	1.3746412
25.45613609303974	1.9006004	1.3786227
25.474104697849057	1.8857528	1.3732271
25.492073939564698	1.9249102	1.3874114
25.510043818696285	1.9784932	1.4065893
25.528014335753614	1.9667277	1.4024007
25.54598549124664	1.9019692	1.379119
25.56395728568544	1.8422217	1.3572847
25.58192971958028	1.8225538	1.3500199
25.59990279344156	1.8551782	1.3620492
25.617876507779833	1.8342426	1.3543421
25.635850863105826	1.8353565	1.3547533
25.653825859930386	1.8468851	1.3590015
25.671801498764548	1.8787091	1.3706601
25.68977778011949	1.8478459	1.359355
25.707754704506524	1.8238763	1.3505096
25.725732272437153	1.8092009	1.3450654
25.743710484423012	1.8356318	1.354855
25.761689340975888	1.8581998	1.363158
25.77966884260774	1.8830047	1.3722261
25.797648989830662	1.8716724	1.3680907
25.815629783156922	1.8865396	1.3735136
25.83361122309895	1.8861997	1.3733898
25.85159331016929	1.8439896	1.3579358
25.869576044880695	1.825236	1.351013
25.887559427746034	1.8411639	1.356895
25.90554345927836	1.8216517	1.3496858
25.92352813999086	1.8007077	1.3419045
25.94151347039689	1.7806946	1.3344266
25.959499451009965	1.7975235	1.3407176
25.97748608234374	1.7889458	1.3375148
25.995473364912062	1.7944757	1.3395804
26.013461299228904	1.7755176	1.3324854
26.03144988580839	1.8061091	1.3439156
26.04943912516483	1.868979	1.3671061
26.067429017812675	1.8733691	1.3687108
26.085419564266537	1.8292795	1.3525087
26.103410765041186	1.7861383	1.3364649
26.12140262065155	1.8007307	1.3419131
26.139395131612723	1.8018106	1.3423154
26.157388298439948	1.7892225	1.3376182
26.17538212164861	1.792565	1.3388671
26.193376601754295	1.8081067	1.3446586
26.211371739272714	1.8581593	1.3631432
26.229367534719746	1.8728051	1.3685046
26.247363988611433	1.8518988	1.3608449
26.26536110146397	1.8360708	1.355017
26.283358873793727	1.7818642	1.3348649
26.301357306117204	1.7429817	1.3202204
26.319356398951104	1.73549	1.31738
26.33735615281224	1.768397	1.3298109
26.35535656821762	1.7937225	1.3392992
26.373357645684404	1.8136748	1.3467275
26.39135938572991	1.8029288	1.3427318
26.409361788871614	1.8262112	1.3513738
26.427364855627165	1.8094414	1.3451548
26.445368586514352	1.8078895	1.3445778
26.46337298205115	1.8196565	1.3489465
26.48137804275568	1.8330833	1.353914
26.499383769146217	1.8387978	1.3560228
26.517390161741215	1.8533373	1.3613733
26.53539722105928	1.8682537	1.3668407
26.553404947619182	1.8955629	1.3767945
26.571413341939856	1.8508326	1.3604531
26.589422404540397	1.8089796	1.3449831
26.60743213594006	1.771692	1.3310492
26.62544253665827	1.7778122	1.3333462
26.64345360721459	1.8159919	1.3475875
26.66146534812879	1.831829	1.3534508
26.679477759920758	1.8330883	1.3539159
26.69749084311057	1.855185	1.3620517
26.71550459821847	1.8501192	1.3601909
26.733519025764842	1.8146127	1.3470756
26.751534126270258	1.8022395	1.3424752
26.769549900255434	1.7753271	1.332414
26.787566348241267	1.7687417	1.3299404
26.80558347074881	1.7814716	1.3347178
26.823601268299267	1.7985944	1.3411168
26.841619741414036	1.7931718	1.3390937
26.85963889061465	1.7373779	1.3180963
26.877658716422832	1.7331398	1.3164877
26.89567921936045	1.7659922	1.3289064
26.913700399949544	1.8251519	1.3509818
26.93172225871233	1.8262259	1.3513793
26.949744796171174	1.8092167	1.3450713
26.967768012848605	1.8086498	1.3448606
26.98579190926733	1.8103392	1.3454884
27.003816485950225	1.8208809	1.3494002
27.021841743420318	1.8303336	1.3528982
27.039867682200814	1.8072228	1.3443298
27.057894302815072	1.8016828	1.3422678
27.07592160578664	1.8243376	1.3506805
27.0939495916392	1.8028554	1.3427045
27.111978260896635	1.7614684	1.3272033
27.13000761408296	1.7502944	1.322987
27.148037651722397	1.7760872	1.3326992
27.166068374339304	1.7942587	1.3394995
27.184099782458215	1.7960975	1.3401856
27.20213187660384	1.7658753	1.3288624
27.22016465730105	1.7309028	1.3156378
27.23819812507487	1.7399981	1.3190899
27.256232280450533	1.8041494	1.3431863
27.274267123953383	1.8338009	1.354179
27.292302656108987	1.8212186	1.3495253
27.31033887744306	1.8003352	1.3417656
27.32837578848146	1.7933476	1.3391593
27.34641338975026	1.7851068	1.3360789
27.364451681775673	1.8082403	1.3447082
27.382490665084074	1.8075776	1.3444618
27.400530340202046	1.7727393	1.3314426
27.41857070765629	1.7829365	1.3352665
27.436611767973726	1.7899616	1.3378944
27.454653521681404	1.8151302	1.3472677
27.472695969306564	1.810627	1.3455954
27.490739111376627	1.7815695	1.3347545
27.508782948419153	1.77816	1.3334767
27.526827480961902	1.8012896	1.3421212
27.54487270953279	1.8005878	1.3418598
27.562918634659898	1.7978494	1.340839
27.580965256871508	1.8177766	1.3482494
27.599012576696026	1.8370613	1.3553823
27.617060594662068	1.8200855	1.3491055
27.63510931129842	1.7730649	1.3315648
27.65315872713401	1.7585405	1.3260998
27.67120884269797	1.7523088	1.323748
27.68925965851958	1.7971241	1.3405685
27.707311175128307	1.8696053	1.3673351
27.725363393053787	1.8805096	1.3713168
27.74341631282583	1.8799084	1.3710976
27.7614699349744	1.8771669	1.3700974
27.77952426002968	2.093347	1.4468404
27.797579288521973	2.1597476	1.469608
27.815635020981784	2.542529	1.5945309
27.83369145793979	2.633451	1.622791
27.85174859992682	2.528714	1.590193
27.869806447473923	2.3809214	1.5430235
27.887865001112267	2.0535116	1.4330078
27.905924261373233	1.9376953	1.3920113
27.92398422878836	1.8844529	1.3727537
27.94204490388936	1.8317602	1.3534254
27.96010628720813	1.8190955	1.3487384
27.978168379276728	1.7960615	1.3401722
27.9962311806274	1.7726526	1.33141
28.014294691792568	1.8110013	1.3457345
28.0323589133048	1.8061323	1.3439242
28.050423845696887	1.8094566	1.3451605
28.068489489501758	1.8801503	1.3711858
28.086555845252523	1.8863684	1.3734512
28.104622913482487	1.8154325	1.3473799
28.122690694725115	1.8423404	1.3573284
28.14075918951405	1.8893683	1.374543
28.15882839838312	1.890393	1.3749156
28.176898321866304	1.8502007	1.3602208
28.1949689604978	1.8526694	1.361128
28.213040314811945	1.8753564	1.3694365
28.23111238534327	1.9145119	1.3836589
28.249185172626493	1.9011651	1.3788275
28.267258677196473	1.917596	1.3847729
28.285332899588294	1.9736975	1.4048835
28.303407840337172	1.9458157	1.394925
28.321483499978545	1.8877456	1.3739525
28.33955987904799	1.9199635	1.3856275
28.357636978081285	1.976494	1.4058783
28.37571479761439	1.9308976	1.3895674
28.393793338183425	1.9189337	1.3852558
28.41187260032469	1.9187433	1.385187
28.429952584574686	1.905125	1.3802626
28.448033291470065	1.9312247	1.3896852
28.46611472154769	1.9465494	1.395188
28.484196875344566	1.918632	1.385147
28.502279753397914	1.9009932	1.3787651
28.52036335624511	1.9671161	1.4025391
28.538447684423716	1.9811174	1.4075217
28.556532738471482	1.9649941	1.4017825
28.574618518926325	1.9502356	1.3965083
28.59270502632635	1.9291623	1.3889428
28.61079226120985	1.9543939	1.3979964
28.628880224115274	1.9568168	1.3988627
28.646968915581287	1.971633	1.4041485
28.66505833614671	1.9581913	1.3993539
28.68314848635055	1.9888682	1.4102724
28.701239366732004	2.0314858	1.425302
28.71933097783044	2.0625927	1.436173
28.737423320185403	2.0227635	1.422239
28.75551639433665	2.0053997	1.4161214
28.773610200824074	2.0993395	1.4489098
28.791704740187793	2.179515	1.476318
28.80980001296809	2.121	1.4563653
28.827896019705413	2.135289	1.4612628
28.845992760940433	2.1748347	1.474732
28.86409023721397	2.1854084	1.4783127
28.88218844906704	2.0739527	1.4401225
28.900287397040845	2.0307133	1.425031
28.918387081676755	2.158301	1.4691157
28.936487503516343	2.2508094	1.5002698
28.954588663101365	2.2477694	1.4992563
28.97269056097374	2.277323	1.5090802
28.990793197675597	2.3464	1.5317963
29.00889657374923	2.410803	1.5526761
29.027000689737125	2.401716	1.5497471
29.04510554618196	2.4021442	1.5498853
29.06321114362659	2.3505132	1.5331384
29.08131748261405	2.3594542	1.5360515
29.099424563687567	2.4071453	1.5514977
29.11753238739057	2.5059109	1.5830069
29.13564095426663	2.5174701	1.5866537
29.15375026485954	2.5475707	1.5961112
29.171860319713275	2.6176572	1.6179175
29.18997111937199	2.6820698	1.6377026
29.20808266438002	2.7256758	1.6509621
29.226194955281898	2.7663379	1.6632311
29.244307992622335	2.7752502	1.6659082
29.26242177694624	2.792176	1.6709806
29.2805363087987	2.845231	1.6867813
29.29865158872498	2.9205987	1.7089759
29.316767617270557	2.991802	1.7296826
29.334884394981064	3.0099764	1.7349284
29.353001922402367	2.9345217	1.7130445
29.37112020008047	2.9176543	1.7081143
29.389239228561596	3.025167	1.7393007
29.407359008392152	3.2646558	1.8068359
29.42547954011872	3.6556675	1.91198
29.44360082428809	4.2968535	2.0728853
29.46172286144722	5.4022627	2.324277
29.479845652143283	7.0389814	2.653108
29.497969196923606	9.137002	3.0227475
29.516093496335728	11.583495	3.4034534
29.5342185509274	14.256468	3.7757738
29.55234436124651	16.507492	4.062941
29.570470927841175	18.002771	4.242967
29.588598251259686	17.499462	4.1832356
29.60672633205055	15.957974	3.9947433
29.624855170762405	13.806601	3.7157235
29.642984767944146	11.272071	3.3573904
29.66111512414481	8.734727	2.9554572
29.67924623991366	6.5215216	2.553727
29.697378115800138	4.9955645	2.235076
29.71551075235387	4.084224	2.0209463
29.733644150124675	3.6675706	1.9150902
29.751778309662576	3.5327423	1.879559
29.769913231517766	3.4970105	1.8700296
29.78804891624066	3.4519413	1.8579401
29.806185364381818	3.4100053	1.84662
29.82432257649206	3.4541621	1.8585377
29.842460553122333	3.433478	1.8529646
29.86059929482382	3.3086936	1.8189815
29.878738802147872	3.2214367	1.7948362
29.896879075646048	3.2874136	1.8131226
29.915020115870114	3.3578258	1.8324372
29.933161923371976	3.3839662	1.839556
29.951304498703777	3.3340693	1.8259434
29.969447842417857	3.2591107	1.8053007
29.987591955066733	3.2005858	1.7890182
30.005736837203123	3.1699347	1.780431
30.023882489379943	3.167627	1.7797829
30.04202891215028	3.121338	1.7667309
30.060176106067455	3.074921	1.7535453
30.078324071684946	3.0794773	1.754844
30.09647280955646	3.1201997	1.7664087
30.114622320235863	3.156691	1.7767079
30.132772604277257	3.193788	1.7871172
30.1509236622349	3.1726246	1.7811863
30.16907549466328	3.1518548	1.7753464
30.18722810211705	3.1856852	1.7848488
30.205381485151097	3.1213765	1.7667418
30.22353564432045	3.0622163	1.7499189
30.241690580180403	3.0751357	1.7536064
30.25984629328638	3.0684803	1.7517078
30.278002784194037	3.0621238	1.7498925
30.296160053459246	2.9927099	1.7299451
30.314318101638033	2.9314952	1.712161
30.332476929286646	2.9544425	1.7188492
30.35063653696153	2.9943106	1.7304076
30.368796925219307	2.967915	1.7227638
30.386958094616844	2.888744	1.6996306
30.40512004571115	2.8648987	1.6926012
30.423282779059463	2.8727503	1.694919
30.441446295219233	2.84104	1.6855384
30.459610594748067	2.872814	1.6949377
30.47777567820382	2.8751748	1.695634
30.495941546144504	2.852977	1.6890758
30.51410819912835	2.8711088	1.6944346
30.532275637713795	2.9013906	1.7033468
30.55044386245946	2.8407807	1.6854615
30.56861287392416	2.7661343	1.66317
30.586782672666956	2.6982033	1.6426209
30.604953259247047	2.658394	1.6304582
30.623124634223885	2.691835	1.6406813
30.641296798157075	2.7692847	1.6641169
30.659469751606462	2.7326093	1.6530606
30.677643495132074	2.7745552	1.6656996
30.695818029294152	2.7791834	1.6670883
30.713993354653116	2.7077663	1.6455292
30.73216947176962	2.625457	1.6203262
30.75034638120448	2.6457345	1.6265714
30.768524083518756	2.7511213	1.6586504
30.786702579273673	2.779875	1.6672957
30.80488186903069	2.7398891	1.655261
30.82306195335144	2.8570848	1.6902913
30.841242832797782	3.095298	1.7593459
30.85942450793176	3.3343246	1.8260133
30.877606979315637	3.7218492	1.9292095
30.895790247511883	4.100946	2.0250793
30.913974313083134	4.517369	2.1254103
30.932159176592283	4.8240833	2.1963797
30.95034483860237	4.8611326	2.2047977
30.968531299676698	4.5874414	2.1418314
30.98671856037873	4.3206377	2.0786145
31.00490662127215	4.0047827	2.0011954
31.023095482920848	3.5538151	1.8851565
31.04128514588892	3.1582162	1.777137
31.059475610740662	2.8191686	1.679038
31.07766687804056	2.6701248	1.6340517
31.09585894835335	2.5723953	1.6038688
31.11405182224393	2.5118866	1.5848932
31.132245500277417	2.4824436	1.5755773
31.15043998301914	2.4229488	1.5565825
31.168635271034628	2.4300203	1.5588522
31.18683136488964	2.525768	1.5892665
31.20502826515008	2.5702806	1.6032095
31.223225972382135	2.4892497	1.5777357
31.241424487152155	2.3847504	1.5442637
31.259623810026692	2.3483565	1.5324348
31.27782394157253	2.2948065	1.5148618
31.296024882356644	2.3121145	1.5205638
31.314226632946237	2.398091	1.5485771
31.332429193908684	2.4515262	1.565735
31.350632565811598	2.4241474	1.5569674
31.368836749222787	2.364173	1.5375867
31.387041744710295	2.424538	1.5570928
31.40524755284232	2.447376	1.5644091
31.423454174187317	2.4318788	1.5594482
31.441661609313922	2.3796835	1.5426223
31.459869858791002	2.4229238	1.5565743
31.478078923187628	2.4044979	1.5506443
31.496288803073064	2.3029745	1.5175555
31.514499499016807	2.276076	1.508667
31.532711011588546	2.263839	1.5046059
31.550923341358178	2.2909489	1.5135881
31.56913648889584	2.3306296	1.5266399
31.587350454771844	2.397109	1.54826
31.605565239556732	2.403195	1.5502242
31.62378084382127	2.4131975	1.553447
31.641997268136382	2.330461	1.5265847
31.660214513073274	2.2323956	1.4941204
31.67843257920331	2.1341438	1.4608709
31.6966514670981	2.1363165	1.4616144
31.71487117732944	2.2130723	1.4876398
31.733091710469346	2.294908	1.5148954
31.751313067090052	2.2835598	1.5111452
31.769535247764008	2.3002217	1.5166482
31.787758253063878	2.3158486	1.5217912
31.805982083562526	2.351472	1.533451
31.824206739833024	2.28472	1.511529
31.84243222244869	2.1977177	1.4824702
31.860658531983013	2.1247048	1.4576367
31.878885669009737	2.2188122	1.4895678
31.897113634102784	2.3079736	1.5192016
31.91534242783632	2.2901595	1.5133272
31.933572050784694	2.2295291	1.4931608
31.951802503522508	2.267376	1.5057808
31.970033786624548	2.3403275	1.5298129
31.988265900665834	2.2890496	1.5129606
32.006498846221575	2.1981204	1.4826059
32.02473262386724	2.1518712	1.4669257
32.04296723417845	2.1969764	1.48222
32.0612026777311	2.2285626	1.4928371
32.07943895510129	2.2453043	1.498434
32.097676066865304	2.251111	1.5003703
32.115914013599685	2.1830442	1.4775128
32.13415279588115	2.123746	1.4573078
32.152392414286666	2.1079702	1.4518851
32.1706328693934	2.1583107	1.469119
32.18887416177875	2.1613412	1.4701501
32.20711629202032	2.1560378	1.4683453
32.225359260695924	2.2244744	1.4914672
32.243603068383614	2.181525	1.4769987
32.26184771566166	2.139009	1.4625351
32.28009320310852	2.1641161	1.4710935
32.2983395313029	2.1582417	1.4690956
32.31658670082372	2.0629752	1.4363061
32.33483471225012	2.0075564	1.4168826
32.35308356616143	2.013537	1.4189916
32.371333263137245	2.0135086	1.4189816
32.38958380375734	1.9913381	1.4111478
32.407835188601744	2.0035157	1.415456
32.42608741825067	2.0041752	1.415689
32.444340493284585	1.9901667	1.4107326
32.46259441428416	1.9922317	1.4114643
32.48084918183028	1.9149456	1.3838156
32.49910479650405	1.8582015	1.3631587
32.51736125888683	1.9300342	1.3892567
32.53561856956014	2.0263324	1.423493
32.5538767291058	2.0251117	1.4230642
32.572135738105764	2.0244846	1.4228438
32.59039559714228	1.9446363	1.3945022
32.608656306797776	1.9840817	1.4085743
32.62691786765491	2.0202363	1.4213501
32.645180280296586	2.0010195	1.4145739
32.663443545305896	1.9489825	1.3960596
32.68170766326619	1.917846	1.3848631
32.69997263476099	1.9901747	1.4107355
32.7182384603741	2.0136206	1.419021
32.7365051406895	2.0259285	1.4233512
32.75477267629144	1.9164469	1.3843579
32.77304106776434	1.7903941	1.3380561
32.79131031569289	1.9156531	1.3840712
32.809580420661966	2.0356886	1.4267756
32.827851383256714	2.0925095	1.4465508
32.84612320406245	2.0152338	1.4195893
32.86439588366476	1.9912317	1.41111
32.88266942264945	1.9836128	1.4084079
32.9009438216025	2.0124686	1.418615
32.9192190811102	2.0255723	1.423226
32.937495201758985	1.9879284	1.4099392
32.95577218413556	2.0022216	1.4149988
32.974050028826866	1.9645185	1.4016129
32.992328736420035	1.8774563	1.370203
33.010608307502444	1.8464363	1.3588364
33.02888874266169	1.9651016	1.4018208
33.047170042485604	1.9860547	1.4092745
33.06545220756225	1.9931703	1.4117968
33.083735238479896	1.9974215	1.4133016
33.10201913582707	1.9391327	1.3925275
33.12030390019248	1.8857583	1.3732291
33.138589532165135	1.9243592	1.3872128
33.15687603233419	1.9096296	1.3818935
33.17516340128909	1.9449567	1.3946171
33.19345163961947	1.9789844	1.4067638
33.211740747915215	1.9535357	1.3976895
33.23003072676643	1.8753488	1.3694338
33.248321576763466	1.9545866	1.3980653
33.266613298496885	1.9708359	1.4038646
33.28490589255747	1.919261	1.385374
33.30319935953626	1.8518343	1.3608211
33.32149370002451	1.8513027	1.3606259
33.339788914613706	1.9553164	1.3983263
33.358085003895575	2.010902	1.4180627
33.376381968462034	1.9702783	1.403666
33.39467980890529	1.8462144	1.3587548
33.41297852581774	1.8437917	1.357863
33.43127811979204	1.915122	1.3838793
33.44957859142105	1.9215724	1.3862079
33.467879941297866	1.8687851	1.3670352
33.486182170015844	1.8573451	1.3628445
33.50448527816853	1.9120106	1.3827547
33.522789266349754	1.9401726	1.3929008
33.541094135153514	1.9182882	1.3850229
33.55939988517411	1.9374506	1.3919233
33.57770651700602	1.8958205	1.3768879
33.59601403124398	1.7122074	1.3085134
33.61432242848296	1.7517734	1.3235457
33.632631709318154	1.8940023	1.3762276
33.650941874344994	1.8845668	1.3727952
33.66925292415916	1.8995743	1.3782505
33.68756485935654	1.962967	1.4010593
33.70587768053328	2.031186	1.4251969
33.724191388285746	1.9140273	1.3834838
33.74250598321054	1.7739377	1.3318925
33.760821465904506	1.7785257	1.3336138
33.77913783696474	1.9403133	1.3929513
33.79745509698852	1.9970777	1.41318
33.815773246573414	1.9515917	1.3969939
33.8340922863172	1.9693837	1.4033474
33.852412216817896	1.8941373	1.3762766
33.87073303867377	1.8367871	1.3552812
33.889054752483304	1.9023997	1.3792751
33.907377358845245	1.8361264	1.3550375
33.92570085835853	1.8273748	1.3518043
33.94402525162239	1.824815	1.3508571
33.96235053923627	1.9222939	1.3864682
33.980676721799824	1.9681703	1.4029149
33.999003799912984	1.9350967	1.3910775
34.01733177417592	1.8679861	1.3667428
34.03566064518901	1.919476	1.3854516
34.0539904135529	1.8798474	1.3710753
34.07232107986846	1.8347864	1.3545429
34.090652644736785	1.9900475	1.4106904
34.108985108759235	2.0621927	1.4360336
34.12731847253742	1.9205513	1.3858396
34.14565273667313	1.7703185	1.3305331
34.16398790176847	1.6896435	1.2998629
34.18232396842574	1.6949944	1.3019196
34.20066093724749	1.809454	1.3451594
34.21899880883651	1.9553844	1.3983506
34.23733758379583	1.9616827	1.4006008
34.25567726272874	1.9982104	1.4135807
34.27401784623872	2.0008104	1.4145
34.29235933492957	1.9931403	1.4117862
34.31070172940526	1.9610053	1.400359
34.32904503027003	1.8134885	1.3466582
34.347389238128386	1.7947257	1.3396738
34.36573435358502	1.8233342	1.3503089
34.38408037724492	1.8782355	1.3704873
34.402427309713296	1.8733048	1.3686873
34.42077515159559	1.9330486	1.3903412
34.43912390349752	2.0331275	1.4258778
34.45747356602499	2.068601	1.4382632
34.47582413978423	2.1187396	1.455589
34.49417562538163	2.1599145	1.4696648
34.51252802342388	2.0539942	1.4331763
34.53088133451789	1.8841064	1.3726275
34.54923555927084	1.9991008	1.4138956
34.567590698290104	2.0485222	1.431266
34.58594675218336	2.0451963	1.4301035
34.6043037215585	1.9943528	1.4122156
34.62266160702365	2.081092	1.442599
34.641020409187234	2.1158419	1.4545934
34.65938012865785	2.1085134	1.4520721
34.677740766044394	1.9904215	1.410823
34.69610232195598	1.9824632	1.4079998
34.714464797002016	1.9345855	1.3908938
34.73282819179208	2.0411036	1.428672
34.751192506936064	1.9397388	1.392745
34.76955774304408	1.8694149	1.3672655
34.7879239007265	1.9255553	1.3876438
34.80629098059391	1.8752278	1.3693895
34.824658983257194	1.7580262	1.3259058
34.843027909327446	1.8034954	1.3429428
34.86139775941603	1.9346575	1.3909197
34.879768534134534	2.0484042	1.4312247
34.89814023409483	1.978098	1.4064487
34.91651285990901	2.000521	1.4143977
34.93488641218944	1.935088	1.3910744
34.95326089154871	2.0425909	1.4291924
34.97163629859967	1.8297864	1.352696
34.99001263395542	1.7144469	1.3093688
35.00838989822934	1.6354768	1.2788576
35.02676809203499	1.76494	1.3285104
35.04514721598624	1.8680497	1.3667662
35.063527270697215	1.8730109	1.3685799
35.081908256782256	1.8372669	1.3554581
35.10029017485597	1.9279746	1.3885152
35.11867302553321	2.1593122	1.4694599
35.137056809429104	2.2284791	1.4928092
35.155441527159006	2.0771933	1.4412471
35.173827179338524	2.0279481	1.4240605
35.19221376658354	2.1200695	1.4560459
35.21060128951017	1.9870819	1.4096389
35.2289897487348	2.0136938	1.4190468
35.24737914487405	1.8189574	1.3486873
35.26576947854479	1.715066	1.3096052
35.28416075036418	1.8249402	1.3509035
35.30255296094958	2.1051438	1.4509114
35.32094611091867	1.9996582	1.4140928
35.33934020088932	1.7496618	1.3227478
35.35773523147969	1.7888598	1.3374827
35.3761312033082	1.7448435	1.3209252
35.394528116993506	1.9278643	1.3884755
35.41292597315452	2.2481205	1.4993734
35.431324772410434	2.7057426	1.6449142
35.449724515380666	2.7179666	1.6486256
35.46812520268491	2.3527358	1.5338631
35.486526834943106	2.3591132	1.5359405
35.504929412775454	2.0866926	1.4445388
35.52333293680242	2.0805879	1.4424243
35.54173740764471	2.0205975	1.4214772
35.560142825923286	1.7257384	1.3136736
35.5785491922594	1.563811	1.2505243
35.59695650727454	1.8271493	1.3517208
35.61536477159042	1.7820303	1.3349271
