0.008763373481513119	0.0	0.0
0.026290120649546365	0.0	0.0
0.043816868432600686	0.0	0.0
0.06134361724069026	0.06194876	0.24889508
0.07887036748382949	0.14334916	0.37861478
0.0963971195720331	0.14739029	0.38391444
0.11392387391531617	0.20132117	0.44868827
0.1314506309236943	0.19676508	0.4435821
0.1489773910071836	0.21363297	0.46220446
0.16650415457580078	0.17175943	0.4144387
0.18403092203956356	0.12986474	0.3603675
0.20155769380849	0.1613612	0.4016979
0.2190844702925996	0.16089495	0.40111712
0.2366112519019124	0.1389019	0.37269545
0.2541380390464497	0.114134535	0.33783802
0.27166483213623416	0.15042081	0.38784122
0.28919163158128947	0.16056597	0.40070683
0.3067184377916406	0.1728987	0.41581088
0.324245251177314	0.15209801	0.38999745
0.34177207214833777	0.1560992	0.39509392
0.3592989011147415	0.11093059	0.33306244
0.37682573848655654	0.10813908	0.32884508
0.39435258467381573	0.14945944	0.38659984
0.41187944008655414	0.23915808	0.4890379
0.42940630513480854	0.23104411	0.48067048
0.446933180228618	0.2018721	0.44930178
0.4644600657780234	0.18606785	0.43135583
0.48198696219306775	0.16299395	0.4037251
0.49951386988379676	0.17525876	0.41863918
0.5170407892602581	0.18781382	0.4333749
0.5345677207325025	0.22317502	0.47241405
0.5520946647105822	0.21794987	0.46685103
0.5696216216045534	0.18040676	0.42474318
0.5871485918244737	0.13933086	0.3732705
0.6046755757804043	0.16429089	0.40532812
0.6222025738824094	0.1786367	0.42265436
0.6397295865405557	0.20288715	0.45042995
0.6572566141649129	0.17071341	0.4131748
0.6747836571655547	0.115095906	0.33925787
0.6923107159525568	0.12504221	0.35361308
0.7098377909359992	0.113226	0.33649072
0.7273648825259653	0.13834098	0.37194216
0.7448919911325411	0.14100955	0.3755124
0.762419117165817	0.14885615	0.3858188
0.7799462610358868	0.15414023	0.39260697
0.7974734231528482	0.19101533	0.437053
0.8150006039268024	0.20864762	0.45677963
0.8325278037678551	0.21383436	0.46242228
0.8500550230861152	0.19643024	0.44320452
0.8675822622916969	0.14961231	0.3867975
0.8851095217947171	0.15484758	0.39350677
0.9026368020052984	0.15723237	0.39652538
0.9201641033335665	0.16296083	0.40368408
0.9376914261896523	0.13557279	0.36820212
0.9552187709836915	0.16446711	0.40554544
0.9727461381258234	0.1739288	0.4170477
0.990273528026193	0.22895835	0.47849593
1.0078009410949496	0.23132469	0.48096225
1.0253283777422473	0.24642201	0.49640912
1.0428558383782454	0.28098372	0.53007895
1.0603833234131086	0.27693275	0.526244
1.0779108332570058	0.30602986	0.55319965
1.0954383683201119	0.30373642	0.55112284
1.112965929012607	0.3189894	0.56479144
1.1304935157446763	0.41228765	0.6420963
1.1480211289265108	0.46718958	0.6835127
1.1655487689683062	1.43696	1.1987326
1.1830764362802655	1.7947718	1.3396909
1.200604131272596	2.2288551	1.4929351
1.2181318543555117	2.5735838	1.6042393
1.235659605939232	2.610673	1.6157577
1.253187386433982	4.1410017	2.0349452
1.270715196249994	6.536155	2.5565906
1.2882430357975057	12.025587	3.4677927
1.3057709054867608	17.005552	4.123779
1.3232988057280106	22.98521	4.7942896
1.3408267369315112	28.336788	5.323231
1.358354699507526	32.072094	5.663223
1.3758826938663256	36.065083	6.005421
1.3934107204181858	37.41457	6.116745
1.410938779573391	37.619564	6.133479
1.4284668717422309	38.33775	6.1917486
1.4459949973350033	37.90468	6.1566777
1.4635231567620117	37.921192	6.1580186
1.4810513504335687	37.080902	6.089409
1.4985795787599925	36.492447	6.040898
1.5161078421516088	35.944733	5.995393
1.5336361410187505	34.982876	5.9146323
1.5511644757717598	35.102196	5.9247108
1.5686928468209842	35.893036	5.99108
1.58622125457678	36.861046	6.0713296
1.6037496994495108	38.130672	6.175004
1.621278181849548	38.145493	6.1762037
1.6388067021872719	38.914463	6.238146
1.6563352608730693	38.02139	6.1661487
1.673863858317336	36.906788	6.0750957
1.6913924949304753	36.137226	6.0114245
1.7089211711228998	35.095215	5.9241214
1.7264498873050296	34.18921	5.847154
1.7439786438872935	33.157368	5.7582436
1.7615074412801288	32.19024	5.673644
1.779036279893981	31.857294	5.6442266
1.796565160139305	31.2473	5.589928
1.814094082426564	30.418612	5.515307
1.8316230471662298	29.527393	5.4339113
1.849152054768784	28.407932	5.3299093
1.8666811056447168	27.900486	5.282091
1.8842102002045273	27.024586	5.198518
1.901739338858724	26.476225	5.1455054
1.9192685220178245	25.917458	5.090919
1.9367977500923557	25.22065	5.0220165
1.9543270234928547	24.796997	4.979658
1.971856342629867	24.31515	4.9310393
1.9893857079139496	23.763489	4.874781
2.006915119755667	23.216251	4.8183246
2.0244445785655945	22.60267	4.7542267
2.0419740847543175	22.134405	4.7047215
2.0595036387324317	21.6514	4.653106
2.0770332409105414	21.13916	4.5977345
2.094562891699263	20.726377	4.5526233
2.1120925915092217	20.204922	4.4949884
2.129622340751053	20.002125	4.4723735
2.1471521398354043	188.28423	13.72167
2.1646819891729323	444.65875	21.086933
2.182211889174303	440.95148	20.998844
2.1997418402501974	453.2565	21.289822
2.2172718428113023	433.27777	20.815325
2.234801897268317	321.19266	17.921848
2.2523320040319548	17.38156	4.16912
2.269862163512935	16.775745	4.0958204
2.287392376121992	16.33122	4.0411906
2.304922642269869	16.028233	4.0035276
2.322452962367322	15.798103	3.9746828
2.3399833368251164	15.654362	3.9565594
2.357513766054032	15.449383	3.9305704
2.3750442504648586	15.202322	3.8990154
2.3925747904683963	14.765578	3.8426003
2.410105386475459	14.435699	3.7994342
2.4276360388968707	14.162249	3.7632763
2.445166748143469	14.151282	3.7618191
2.4626975146261025	14.070876	3.7511168
2.4802283387556323	13.887039	3.7265317
2.4977592209429305	13.486961	3.6724598
2.5152901615988825	13.123258	3.6226037
2.5328211611343865	12.864007	3.5866427
2.5503522199603523	12.742174	3.5696182
2.5678833384877024	12.734798	3.568585
2.5854145171273712	12.436677	3.5265672
2.6029457562903064	12.228707	3.4969568
2.620477056387469	11.869066	3.445151
2.6380084178298326	11.714145	3.4225934
2.655539841028383	11.465422	3.3860629
2.673071326394119	11.28058	3.3586574
2.6906028743380523	11.20554	3.3474677
2.708134485271211	11.09443	3.3308303
2.7256661596046325	11.087094	3.3297288
2.743197897749369	10.855629	3.2947881
2.760729700116486	10.707432	3.2722213
2.778261567117063	10.463209	3.2346885
2.795793499162193	10.314703	3.211651
2.8133254966629817	10.183798	3.1912062
2.830857560030551	10.08738	3.1760638
2.8483896896760337	9.957587	3.1555645
2.865921886010578	9.810779	3.1322162
2.883454149445347	9.71279	3.116535
2.9009864803915177	9.617627	3.10123
2.91851887926028	9.5119705	3.0841482
2.9360513464628384	9.396076	3.065302
2.953583882410413	9.18902	3.0313396
2.9711164875142373	9.113873	3.018919
2.9886491621855606	8.920385	2.9867015
3.0061819068356455	8.737396	2.9559088
3.023714721875769	8.512467	2.9176133
3.041247607717225	8.493426	2.9143484
3.0587805647713213	8.368334	2.8928072
3.0763135934493806	8.326871	2.8856318
3.0938466941627407	8.226213	2.8681376
3.1113798673227544	8.14181	2.8533857
3.1289131133407904	8.051041	2.8374355
3.1464464326282315	7.925222	2.815177
3.1639798255964786	7.8531594	2.8023489
3.1815132926569443	7.748636	2.783637
3.1990468342210603	7.7146554	2.7775269
3.216580450700272	7.7152	2.7776248
3.2341141425060416	7.648899	2.7656643
3.251647910049847	7.5323973	2.7445214
3.2691817537431813	7.4009495	2.7204685
3.286715673997555	7.2001	2.6833003
3.3042496712244938	7.151519	2.6742325
3.32178374583554	7.019386	2.6494124
3.339317898242251	6.9482813	2.6359594
3.3568521288562034	6.9104624	2.6287758
3.3743864380889876	6.971158	2.640295
3.3919208263522127	6.962153	2.6385891
3.4094552940575023	6.9488597	2.636069
3.4269898416164972	7.015652	2.6487076
3.444524469440858	7.0128746	2.6481833
3.4620591779422587	6.9135613	2.6293652
3.479593967532391	6.7910185	2.6059582
3.4971288386229658	6.74253	2.5966382
3.5146637916257086	6.6405096	2.5769186
3.5321988269523628	6.531516	2.5556831
3.5497339450146903	6.453511	2.5403762
3.5672691462244708	6.401295	2.5300782
3.5848044309934988	6.3948793	2.5288098
3.60233979973359	6.3271394	2.5153806
3.619875252856575	6.3358474	2.5171108
3.6374107907743034	6.2693563	2.5038683
3.6549464138986427	6.349017	2.5197256
3.6724821226414788	6.3443804	2.5188053
3.690017917414714	6.317934	2.51355
3.7075537986302702	6.4324303	2.5362236
3.7250897667000857	6.5034328	2.5501828
3.7426258220361235	6.702135	2.588848
3.7601619650503553	6.943314	2.635017
3.777698196154779	7.445999	2.728736
3.7952345157614067	8.439453	2.9050736
3.8127709242822716	9.28544	3.047202
3.830307422129425	11.404977	3.3771255
3.847844009714936	30.201115	5.495554
3.8653806874508954	97.63291	9.880937
3.882917455749409	97.049355	9.851363
3.900454315022606	96.93189	9.8454
3.917991265682631	41.561073	6.446788
3.9355283081416506	11.142443	3.3380299
3.9530654428118495	8.722054	2.9533124
3.970602670105433	7.4434586	2.7282703
3.9881399904346244	6.532496	2.5558748
4.005677404211669	6.5422664	2.5577855
4.023214911848827	6.6011333	2.569267
4.0407525137583855	6.542893	2.5579078
4.058290210352644	6.4893765	2.5474255
4.075828002043927	6.3892097	2.5276885
4.0933658892445814	6.3061085	2.5111966
4.110903872366966	6.341565	2.5182464
4.128441951823468	6.321789	2.5143168
4.145980128026488	6.1806283	2.4860868
4.163518401388452	6.0905	2.4678938
4.181056772321807	6.0546455	2.460619
4.1985952412390155	6.06327	2.4623709
4.216133808552567	6.105139	2.4708579
4.233672474674966	6.12005	2.4738734
4.251211240018741	6.3940086	2.5286376
4.268750104996445	6.6636186	2.5813985
4.286289070020643	7.710821	2.7768366
4.303828135503928	9.555756	3.0912385
4.3213673018589125	29.897001	5.467815
4.3389065694982305	91.03655	9.541307
4.356445938834537	166.14641	12.889779
4.3739854102805085	171.76022	13.105733
4.391524984248844	172.60585	13.137955
4.409064661152262	136.86195	11.698801
4.426604441403504	97.26651	9.862378
4.444144325415337	76.32568	8.736457
4.461684313600543	22.2433	4.7162805
4.47922440637193	22.52755	4.74632
4.496764604142329	20.58389	4.5369473
4.5143049073245916	18.823248	4.338577
4.531845316331589	16.761469	4.094077
4.5493858315762195	14.053013	3.748735
4.566926453471405	11.584307	3.4035726
4.584467182430081	9.3415365	3.0563927
4.602008018865218	8.150419	2.854894
4.619548963189798	7.5432644	2.7465005
4.637090015816834	7.090454	2.6627908
4.654631177159353	6.812181	2.6100156
4.672172447630417	6.626184	2.5741374
4.689713827643102	6.4595776	2.54157
4.7072553176105085	6.248641	2.4997282
4.724796917945764	5.9978166	2.449044
4.742338629062015	5.9112864	2.4313138
4.759880451372434	5.843249	2.4172814
4.777422385290215	5.8148665	2.4114034
4.794964431228581	5.809947	2.4103832
4.812506589600768	5.7894893	2.4061358
4.830048860820047	5.7751937	2.4031632
4.847591245299709	5.750743	2.3980706
4.8651337434530655	5.6775594	2.382763
4.882676355693457	5.665492	2.3802295
4.900219082434242	5.6446767	2.3758528
4.917761924088813	5.65149	2.3772862
4.935304881070575	5.633759	2.373554
4.952847953792969	5.5607305	2.3581202
4.970391142669449	5.566258	2.3592918
4.9879344481135055	5.5738907	2.360909
5.005477870538642	5.6524744	2.3774934
5.023021410358394	5.690649	2.385508
5.040565067986324	5.640281	2.3749275
5.05810884383601	5.526046	2.3507543
5.075652738321066	5.469114	2.3386137
5.09319675185512	5.4752045	2.3399155
5.110740884851836	5.556467	2.357216
5.128285137724894	5.546057	2.355007
5.145829510888007	5.5035305	2.3459604
5.163374004754908	5.492726	2.3436565
5.1809186197393595	5.4259872	2.3293748
5.198463356255145	5.3776217	2.31897
5.216008214716077	5.3567514	2.3144658
5.233553195535998	5.306106	2.3034987
5.251098299128764	5.3592677	2.315009
5.268643525908272	5.2983484	2.301814
5.286188876288432	5.2822366	2.2983117
5.3037343506831895	5.282798	2.2984338
5.32127994950651	5.254808	2.2923367
5.3388256731723915	5.26615	2.2948093
5.356371522094851	5.2477593	2.290799
5.373917496687938	5.2690563	2.2954426
5.391463597365729	5.2384305	2.2887619
5.40900982454232	5.174141	2.2746737
5.426556178631843	5.2348185	2.2879725
5.444102660048449	5.260771	2.293637
5.4616492692063225	5.329357	2.30854
5.479196006519669	5.2875304	2.299463
5.496742872402727	5.220847	2.2849174
5.514289867269756	5.1880093	2.2777202
5.531836991535049	5.1397223	2.2670956
5.549384245612924	5.1271343	2.2643175
5.566931629917724	5.1672025	2.273148
5.584479144863822	5.1566644	2.270829
5.6020267908656205	5.095145	2.257243
5.619574568337545	5.1184773	2.2624052
5.637122477694054	5.1289225	2.2647123
5.654670519349629	5.249814	2.2912474
5.672218693718784	5.256948	2.2928035
5.689767001216059	5.225202	2.28587
5.707315442256021	5.2000427	2.2803602
5.724864017253266	5.1987734	2.280082
5.7424127266224225	5.2403426	2.2891796
5.75996157077814	5.3460355	2.3121495
5.777510550135105	5.4009275	2.3239896
5.795059665108022	5.449946	2.334512
5.812608916111639	5.46011	2.3366878
5.830158303560715	5.4525857	2.3350773
5.847707827870055	5.434159	2.3311281
5.86525748945448	5.537676	2.3532267
5.8828072887288485	5.652127	2.3774202
5.900357226108044	5.735169	2.3948212
5.917907302006979	5.7151036	2.3906283
5.9354575168406	6.2436347	2.4987266
5.9530078710238765	6.871481	2.621351
5.970558364971812	7.473453	2.7337618
5.988108999099438	7.81878	2.7962081
6.005659773821818	8.228749	2.8685796
6.023210689554039	7.9346294	2.8168473
6.040761746711227	8.335947	2.887204
6.058312945708531	7.8257184	2.7974486
6.075864286961132	7.408157	2.721793
6.093415770884244	6.7682166	2.6015797
6.1109673978931065	6.2700906	2.504015
6.128519168402993	5.651477	2.3772836
6.146071082829204	5.4435387	2.3331392
6.163623141587075	5.3203793	2.3065948
6.181175345091969	5.234493	2.2879014
6.198727693759281	5.247334	2.290706
6.216280188004435	5.2817273	2.2982008
6.233832828242885	5.2978673	2.3017097
6.251385614890126	5.3056874	2.3034077
6.268938548361669	5.2420325	2.2895486
6.286491629073067	5.166685	2.2730343
6.304044857439898	5.1442513	2.2680943
6.321598233877777	5.1319175	2.2653735
6.339151758802344	5.0509763	2.2474377
6.356705432629277	4.9992065	2.2358906
6.37425925577428	4.925353	2.2193136
6.391813228653095	4.9417543	2.2230058
6.409367351681486	5.00973	2.2382426
6.426921625275259	4.996298	2.23524
6.44447604985025	5.044167	2.2459223
6.46203062582232	4.935993	2.2217095
6.47958535360737	4.977664	2.231068
6.497140233621328	5.01157	2.2386537
6.514695266280161	5.0031505	2.2367723
6.532250451999859	5.0419054	2.2454188
6.549805791196454	5.040901	2.2451952
6.567361284286002	5.0643334	2.2504075
6.584916931684597	5.1243525	2.2637033
6.602472733808367	5.089915	2.256084
6.6200286910734665	5.1134305	2.2612896
6.637584803896092	5.0695934	2.2515757
6.655141072692462	5.005305	2.237254
6.672697497878842	5.014209	2.2392428
6.690254079871514	5.0331364	2.2434652
6.707810819086808	5.0790286	2.25367
6.725367715941078	5.0621123	2.249914
6.742924770850719	5.060292	2.2495093
6.760481984232151	5.0590925	2.2492425
6.778039356501836	5.019578	2.2404416
6.795596888076266	5.0138144	2.2391548
6.813154579371963	5.0511656	2.24748
6.830712430805492	5.069678	2.2515945
6.84827044279344	5.0665326	2.250896
6.865828615752445	5.0437546	2.2458305
6.883386950099159	5.0566816	2.2487066
6.900945446250287	5.149306	2.2692082
6.918504104622553	5.156092	2.270703
6.936062925632727	5.1217046	2.2631183
6.953621909697607	5.1308355	2.2651348
6.971181057234028	5.1026273	2.2588997
6.988740368658859	5.221494	2.285059
7.006299844389007	5.3170204	2.3058665
7.023859484841407	5.3648787	2.3162208
7.041419290433036	5.4231443	2.3287644
7.058979261580902	5.5332456	2.3522851
7.0765393987020495	5.6981754	2.3870852
7.094099702213559	6.108355	2.4715087
7.111660172532549	6.4560757	2.540881
7.129220810076164	6.845741	2.6164367
7.146781615261595	7.4242287	2.7247438
7.16434258850606	7.6223145	2.760854
7.181903730226821	8.025644	2.8329568
7.1994650408411704	8.11428	2.8485575
7.217026520766437	8.296022	2.8802817
7.234588170419983	8.524205	2.919624
7.252149990219215	8.518342	2.9186199
7.269711980581568	8.415168	2.9008908
7.2872741419245175	8.173051	2.8588548
7.304836474665574	7.853681	2.802442
7.322398979222286	7.5638933	2.7502532
7.339961656012233	7.2543287	2.693386
7.357524505453039	6.8504195	2.6173306
7.375087527962357	6.467903	2.5432072
7.392650723957886	6.246101	2.4992201
7.410214093857353	5.987279	2.4468918
7.427777638078528	5.8109617	2.4105937
7.445341357039213	5.5869555	2.3636742
7.4629052511572525	5.4234204	2.3288238
7.480469320850524	5.358497	2.3148427
7.498033566536948	5.360085	2.3151858
7.5155979886344735	5.337248	2.3102484
7.5331625875610975	5.2970643	2.3015351
7.550727363734844	5.1957526	2.2794194
7.568292317573788	5.1692038	2.2735884
7.585857449496025	5.163123	2.2722507
7.603422759919705	5.202652	2.2809322
7.620988249263007	5.228867	2.2866716
7.638553917944147	5.3116536	2.3047025
7.656119766381391	5.376725	2.3187766
7.673685794993023	5.3580985	2.3147566
7.691252004197388	5.3205986	2.3066423
7.70881839441285	5.2814684	2.2981446
7.726384966057826	5.323532	2.3072782
7.743951719550762	5.3422747	2.311336
7.761518655310149	5.337542	2.310312
7.779085773754511	5.3096876	2.304276
7.796653075302419	5.2954087	2.3011756
7.814220560372475	5.34267	2.3114216
7.831788229383323	5.4120226	2.3263755
7.8493560827536495	5.39455	2.322617
7.866924120902174	5.378092	2.3190713
7.884492344247663	5.344865	2.3118963
7.9020607532089135	5.3990927	2.3235948
7.919629348204771	5.383204	2.3201733
7.937198129654115	5.417669	2.3275886
7.954767097975865	5.4208245	2.3282664
7.972336253588986	5.422824	2.3286958
7.989905596912472	5.445469	2.3335528
8.007475128365371	5.4036965	2.3245852
8.025044848366756	5.4306498	2.3303754
8.042614757335754	5.557538	2.357443
8.060184855691523	5.631952	2.3731735
8.07775514385327	5.741763	2.3961976
8.095325622240228	5.7576118	2.3995025
8.112896291271687	5.8276563	2.414054
8.130467151366968	5.9054384	2.4301107
8.148038202945436	6.0113616	2.4518077
8.165609446426497	5.924096	2.4339466
8.183180882229594	5.982185	2.4458506
8.200752510774217	5.965368	2.4424102
8.218324332479893	6.0323005	2.4560742
8.235896347766193	6.0417166	2.4579904
8.253468557052724	5.9785523	2.445108
8.27104096075914	5.988447	2.4471304
8.288613559305137	6.050226	2.4597208
8.306186353110448	6.1778755	2.4855332
8.32375934259485	6.3167934	2.513323
8.341332528178162	6.3489857	2.5197194
8.358905910280246	6.3772593	2.5253236
8.376479489321003	6.338492	2.517636
8.394053265720377	6.358601	2.5216267
8.411627239898356	6.3261547	2.5151849
8.42920141227497	6.339023	2.5177417
8.44677578327029	6.363578	2.5226133
8.464350353304427	6.2793856	2.50587
8.48192512279754	6.1759114	2.4851382
8.499500092169827	6.1383705	2.4775734
8.51707526184153	6.174421	2.4848382
8.534650632232934	6.2380147	2.4976017
8.552226203764365	6.211919	2.492372
8.569801976856192	6.162065	2.4823506
8.587377951928834	6.1779604	2.4855504
8.60495412940274	6.2223654	2.494467
8.622530509698416	6.29401	2.5087867
8.6401070932364	6.4340897	2.5365508
8.657683880437283	6.5695934	2.5631218
8.675260871721695	6.7216606	2.5926166
8.692838067510303	6.9038796	2.6275234
8.710415468223834	7.081359	2.6610823
8.727993074283043	7.200911	2.6834514
8.745570886108737	7.188235	2.6810884
8.763148904121765	7.216245	2.686307
8.78072712874302	7.2560153	2.6936991
8.798305560393441	7.50392	2.7393284
8.815884199494006	7.611104	2.758823
8.833463046465745	7.808449	2.7943602
8.851042101729728	7.951679	2.8198721
8.86862136570707	8.298977	2.8807945
8.886200838818924	8.443138	2.9057078
8.903780521486505	8.445902	2.9061835
8.921360414131055	8.497087	2.9149764
8.938940517173874	8.676344	2.9455633
8.956520831036297	8.784159	2.963808
8.97410135613971	9.093354	3.015519
8.99168209290554	9.237902	3.0393918
9.009263041755265	9.482768	3.0794103
9.026844203110405	9.793952	3.129529
9.044425577392525	10.010429	3.1639264
9.062007165023239	10.135035	3.1835568
9.079588966424197	10.28799	3.2074897
9.097170982017108	10.320304	3.212523
9.11475321222372	11.19596	3.3460364
9.132335657465825	12.102888	3.4789205
9.149918318165264	12.207234	3.4938853
9.167501194743924	12.918151	3.594183
9.18508428762374	12.647437	3.5563235
9.202667597226693	12.626016	3.5533106
9.220251123974803	12.224449	3.496348
9.237834868290143	11.941536	3.4556527
9.255418830594836	11.861302	3.444024
9.273003011311046	11.354633	3.3696637
9.290587410860985	11.088789	3.3299832
9.308172029666911	10.357362	3.2182856
9.32575686815113	10.109008	3.1794665
9.343341926735997	8.866602	2.977684
9.360927205843916	8.679184	2.9460454
9.378512705897327	8.484075	2.9127436
9.396098427318728	8.2433405	2.871122
9.413684370530664	8.152719	2.8552966
9.431270535955722	8.028375	2.8334386
9.448856924016539	7.9079175	2.812102
9.466443535135806	7.815711	2.7956593
9.484030369736251	7.8005004	2.7929375
9.501617428240658	7.82723	2.7977188
9.519204711071852	7.7749057	2.7883518
9.536792218652714	7.7914696	2.7913203
9.55437995140617	7.852352	2.8022048
9.571967909755191	7.922741	2.8147364
9.589556094122802	7.88274	2.8076217
9.60714450493207	7.873285	2.8059375
9.624733142606116	7.848175	2.8014596
9.642322007568108	7.9407296	2.81793
9.659911100241267	8.013598	2.83083
9.677500421048851	8.0541725	2.8379874
9.695089970414175	8.110352	2.847868
9.712679748760609	8.098946	2.8458645
9.730269756511557	8.196013	2.862868
9.747859994090492	8.247151	2.8717854
9.765450461920915	8.31161	2.8829863
9.78304116042639	8.236824	2.8699868
9.800632090030527	8.148765	2.854604
9.81822325115699	8.196865	2.8630168
9.835814644229481	8.30248	2.8814025
9.853406269671762	8.411906	2.9003286
9.870998127907646	8.345342	2.8888304
9.888590219360985	8.294754	2.8800614
9.906182544455698	8.286177	2.878572
9.923775103615734	8.352748	2.8901122
9.941367897265108	8.424087	2.9024277
9.958960925827878	8.421762	2.9020274
9.97655418972816	8.379369	2.8947139
9.994147689390106	8.405702	2.8992589
10.011741425237934	8.471664	2.9106123
10.029335397695904	8.526368	2.9199946
10.04692960718833	8.4176	2.90131
10.06452405413958	8.413366	2.9005804
10.082118738974064	8.370725	2.8932204
10.099713662116246	8.383972	2.895509
10.117308823990651	8.357873	2.8909986
10.134904225021844	8.320997	2.884614
10.152499865634445	8.2675295	2.8753312
10.170095746253125	8.228366	2.8685129
10.18769186730261	8.22542	2.8679993
10.205288229207675	8.223958	2.8677444
10.222884832393145	8.269136	2.8756106
10.2404816772839	8.273676	2.8763998
10.258078764304868	8.294666	2.8800461
10.275676093881035	8.304448	2.881744
10.293273666437438	8.282431	2.8779213
10.310871482399158	8.340761	2.8880377
10.32846954219134	8.332443	2.8865972
10.346067846239173	8.325095	2.885324
10.363666394967908	8.252456	2.8727088
10.38126518880283	8.211966	2.8656528
10.398864228169298	8.226334	2.8681586
10.416463513492713	8.246253	2.871629
10.434063045198531	8.20809	2.8649764
10.451662823712262	8.226534	2.8681934
10.469262849459467	8.30074	2.8811004
10.486863122865758	8.256447	2.8734033
10.504463644356806	8.217613	2.866638
10.522064414358338	8.151483	2.8550801
10.539665433296118	8.100601	2.8461554
10.557266701595987	8.019884	2.83194
10.574868219683818	7.8803625	2.8071983
10.592469987985552	7.7478843	2.783502
10.610072006927185	7.6492295	2.765724
10.627674276934751	7.5718417	2.751698
10.64527679843435	7.4129705	2.722677
10.662879571852143	7.281109	2.698353
10.680482597614331	7.205738	2.6843505
10.698085876147173	7.151973	2.6743174
10.715689407876988	7.1152787	2.667448
10.733293193230146	7.013286	2.648261
10.750897232633072	6.9008956	2.6269555
10.76850152651225	6.789797	2.6057239
10.786106075294207	6.69242	2.5869713
10.803710879405534	6.593622	2.567805
10.821315939272877	6.4822636	2.546029
10.83892125532294	6.3501635	2.519953
10.856526827982472	6.2073627	2.491458
10.874132657678285	6.2554727	2.5010943
10.891738744837243	6.306137	2.5112023
10.909345089886271	6.2795873	2.5059104
10.926951693252343	6.215783	2.4931471
10.944558555362494	6.159515	2.481837
10.96216567664381	6.086971	2.4671788
10.979773057523436	5.9539595	2.4400737
10.997380698428573	5.8661075	2.422005
11.014988599786477	5.8190327	2.4122672
11.032596762024461	5.757993	2.399582
11.050205185569892	5.7128425	2.3901553
11.067813870850198	5.6274476	2.372224
11.085422818292859	5.5575843	2.3574529
11.10303202832541	5.4679556	2.338366
11.120641501375454	5.3921857	2.322108
11.138251237870636	5.414959	2.3270063
11.155861238238671	5.373348	2.3180485
11.173471502907317	5.363378	2.3158967
11.191082032304402	5.283175	2.2985158
11.208692826857805	5.229109	2.2867246
11.226303886995465	5.1591887	2.2713847
11.243915213145371	5.045652	2.2462528
11.261526805735578	4.922238	2.2186117
11.279138665194196	4.8409467	2.200215
11.296750791949393	4.808438	2.192815
11.314363186429393	4.8302083	2.1977735
11.331975849062479	4.81686	2.1947346
11.34958878027699	4.7461004	2.1785548
11.36720198050133	4.710835	2.170446
11.384815450163948	4.6639867	2.1596265
11.402429189693366	4.6135902	2.147927
11.420043199518153	4.554965	2.1342363
11.437657480066942	63.479557	7.967406
11.455272031768422	85.17433	9.228994
11.472886855051353	107.609085	10.37348
11.490501950344528	99.18599	9.959216
11.508117318076819	84.50937	9.192898
11.52573295867715	45.921818	6.7765636
11.543348872574514	4.244139	2.0601308
11.560965060197946	4.200862	2.0496004
11.57858152197655	4.167769	2.0415115
11.59619825833949	4.085674	2.021305
11.613815269715985	4.002376	2.000594
11.631432556535323	38.5072	6.2054167
11.649050119226837	83.00932	9.110946
11.666667958219929	93.45132	9.667022
11.68428607394406	107.68349	10.377066
11.701904466828756	82.53114	9.084665
11.719523137303586	65.46169	8.09084
11.737142085798196	4.6800723	2.1633475
11.754761312742286	3.7923071	1.9473847
11.772380818565619	3.6830423	1.9191254
11.790000603698015	3.6656697	1.9145938
11.80762066856935	3.65904	1.9128617
11.825241013609572	3.630705	1.9054409
11.842861639248683	3.564737	1.8880512
11.860482545916748	3.4652362	1.8615144
11.878103734043883	3.427274	1.8512899
11.895725204060282	3.4269085	1.851191
11.91334695639619	3.440639	1.854896
11.930968991481919	3.4141388	1.8477389
11.948591309747824	3.4013252	1.8442682
11.966213911624347	3.410457	1.8467423
11.98383679754198	3.3818464	1.8389797
12.001459967931268	3.4026778	1.8446349
12.019083423222835	3.3407385	1.8277687
12.036707163847352	3.3033307	1.8175067
12.05433119023556	3.2038202	1.7899219
12.071955502818259	3.1810658	1.7835543
12.089580102026313	3.1648245	1.7789954
12.107204988290643	3.1368885	1.7711264
12.12483016204224	3.1341383	1.7703497
12.142455623712152	3.1239412	1.7674675
12.16008137373149	3.136419	1.7709938
12.177707412531431	3.1602433	1.7777073
12.19533374054321	3.1897697	1.7859926
12.212960358198126	3.1720712	1.7810309
12.230587265927545	3.1289823	1.768893
12.248214464162889	3.0593402	1.749097
12.265841953335649	3.0259416	1.7395234
12.283469733877375	3.0124733	1.7356478
12.301097806219685	2.996004	1.730897
12.31872617079425	3.0145085	1.736234
12.336354828032825	3.0127738	1.7357343
12.353983778367205	2.9809003	1.7265284
12.371613022229262	2.9196048	1.7086852
12.389242560050928	2.869097	1.6938409
12.406872392264201	2.8549592	1.6896625
12.424502519301143	2.8498888	1.6881614
12.442132941593874	2.8190508	1.6790029
12.459763659574586	2.8374128	1.6844622
12.477394673675532	2.8467696	1.6872373
12.49502598432903	2.8667953	1.6931614
12.51265759196746	2.8774748	1.6963121
12.530289497023267	2.8695657	1.6939793
12.547921699928967	2.8477805	1.6875368
12.565554201117134	2.7988057	1.6729631
12.583187001020404	2.7662625	1.6632085
12.600820100071486	2.7955348	1.6719853
12.618453498703152	2.8360531	1.6840585
12.636087197348235	2.8630614	1.6920583
12.65372119643964	2.8766944	1.6960821
12.671355496410326	2.8793318	1.6968594
12.68899009769333	2.8291295	1.6820016
12.706625000721749	2.8418036	1.685765
12.724260205928752	2.9248414	1.7102168
12.741895713747551	2.9795015	1.7261232
12.759531524611454	3.0616496	1.749757
12.777167638953818	3.051903	1.7469697
12.794804057208072	3.0639043	1.7504011
12.812440779807702	3.0559282	1.7481214
12.830077807186271	3.230377	1.7973249
12.847715139777405	3.276837	1.8102036
12.865352778014795	3.5250442	1.8775101
12.882990722332197	3.64964	1.9104031
12.90062897316344	3.7352815	1.9326876
12.918267530942412	3.8085635	1.9515541
12.935906396103071	3.6801858	1.918381
12.953545569079449	3.8161633	1.9535003
12.971185050305628	3.6449482	1.9091748
12.988824840215775	3.684815	1.9195871
13.006464939244115	3.720158	1.9287711
13.024105347824943	3.5861964	1.8937255
13.041746066392617	3.683539	1.9192548
13.05938709538157	3.5057158	1.8723557
13.077028435226296	3.523657	1.8771406
13.094670086361363	3.406153	1.8455766
13.112312049221401	3.3016038	1.8170316
13.129954324241112	3.17845	1.7828208
13.147596911855258	2.9265482	1.7107157
13.165239812498685	2.8530707	1.6891035
13.182883026606293	2.785939	1.6691133
13.200526554613058	2.7775528	1.6665992
13.218170396954017	2.7585936	1.6609014
13.235814554064284	2.7684832	1.6638759
13.253459026379034	2.758381	1.6608374
13.271103814333523	2.7282097	1.6517293
13.288748918363058	2.7084596	1.6457398
13.306394338903031	2.7427247	1.6561173
13.32404007638889	2.764986	1.6628247
13.341686131256164	2.7572892	1.6605088
13.359332503940449	2.6978967	1.6425276
13.376979194877402	2.6843762	1.6384066
13.394626204502751	2.74563	1.6569942
13.412273533252307	2.8226182	1.6800649
13.429921181561937	2.8236048	1.6803585
13.447569149867581	2.8201325	1.679325
13.465217438605247	2.764325	1.6626259
13.482866048211022	2.7517455	1.6588386
13.500514979121052	2.7353163	1.6538792
13.518164231771568	2.7115865	1.6466895
13.535813806598844	2.6908154	1.6403705
13.553463704039254	2.6893134	1.6399126
13.571113924529229	2.7150283	1.6477343
13.588764468505275	2.7424104	1.6560224
13.606415336403956	2.7741141	1.6655672
13.624066528661917	2.7626324	1.6621169
13.641718045715882	2.7929108	1.6712004
13.659369888002635	2.8491228	1.6879345
13.67702205595903	2.9333024	1.7126887
13.694674550021993	3.012148	1.7355541
13.712327370628532	3.0823908	1.7556739
13.729980518215713	3.168501	1.7800283
13.747633993220681	3.2472546	1.802014
13.765287796080647	3.2589135	1.8052461
13.7829419272329	3.2763777	1.8100767
13.800596387114801	3.2713363	1.8086836
13.818251176163775	3.300697	1.8167821
13.835906294817324	3.3455715	1.8290904
13.853561743513023	3.424189	1.8504565
13.871217522688525	3.5146618	1.8747431
13.888873632781538	3.5328836	1.8795967
13.906530074229858	3.5617714	1.8872656
13.92418684747135	3.577213	1.8913522
13.941843952943948	3.5587559	1.8864665
13.959501391085665	3.5199955	1.876165
13.977159162334578	3.4249952	1.8506743
13.994817267128846	3.363848	1.8340796
14.012475705906693	3.2980115	1.8160428
14.030134479106424	3.2322946	1.7978584
14.047793587166414	3.17911	1.783006
14.065453030525108	3.1243448	1.7675816
14.083112809621026	3.0441709	1.7447553
14.100772924892766	2.991475	1.7295882
14.118433376778997	2.899875	1.702902
14.136094165718458	2.8192034	1.6790483
14.153755292149969	2.770096	1.6643605
14.171416756512416	2.732717	1.6530932
14.189078559244768	2.6736822	1.6351398
14.20674070078606	2.609276	1.6153253
14.224403181575408	2.5995772	1.6123204
14.242066002051999	2.5853255	1.6078948
14.259729162655093	2.5342724	1.5919398
14.277392663824022	2.4552505	1.5669239
14.295056505998208	2.407872	1.551732
14.312720689617128	2.4009516	1.5495005
14.330385215120348	2.409963	1.5524055
14.348050082947497	2.4120739	1.5530853
14.3657152935383	2.4095051	1.552258
14.383380847332528	2.4296591	1.5587364
14.401046744770051	2.4390965	1.5617607
14.418712986290798	2.442079	1.5627153
14.436379572334793	2.4302723	1.558933
14.454046503342123	2.4521103	1.5659215
14.471713779752946	2.4255881	1.55743
14.489381402007504	2.3838983	1.5439878
14.507049370546113	2.324618	1.5246699
14.524717685809168	2.3270228	1.5254582
14.542386348237134	2.3758702	1.5413858
14.560055358270553	2.4170628	1.5546906
14.577724716350051	2.4755654	1.573393
14.595394422916325	2.471091	1.5719705
14.61306447841015	2.5195727	1.5873162
14.63073488327237	2.5300813	1.5906229
14.648405637943917	2.5313559	1.5910236
14.6660767428658	2.4807508	1.57504
14.683748198479094	2.5058882	1.5829997
14.701420005224954	2.5533557	1.5979223
14.719092163544628	2.6056182	1.6141927
14.73676467387942	2.65719	1.6300889
14.754437536670727	2.707867	1.6455598
14.772110752360014	2.7335496	1.653345
14.78978432138882	2.7344396	1.6536142
14.807458244198777	2.7040095	1.6443872
14.82513252123159	2.6850224	1.6386038
14.842807152929028	2.698566	1.6427313
14.860482139732962	2.6703327	1.6341152
14.87815748208531	2.7020035	1.6437773
14.8958331804281	2.7292776	1.6520525
14.91350923520342	2.6991885	1.6429207
14.931185646853438	2.7018497	1.6437304
14.948862415820408	2.6880872	1.6395388
14.966539542546656	2.725853	1.6510158
14.98421702747459	2.6677754	1.6333326
15.001894871046696	2.6526423	1.6286935
15.019573073705542	2.637586	1.6240647
15.037251635893766	2.6737623	1.6351643
15.054930558054092	2.7223928	1.6499676
15.072609840629323	2.7772646	1.6665127
15.090289484062351	2.902651	1.7037169
15.107969488796124	3.1917186	1.7865381
15.125649855273691	3.5508173	1.8843613
15.14333058393817	4.06973	2.017357
15.161011675232768	5.0766025	2.2531316
15.17869312960076	6.4374256	2.5372083
15.196374947485506	8.221509	2.8673174
15.214057129330447	11.243013	3.3530602
15.231739675579114	16.046093	4.0057573
15.249422586675102	21.151382	4.5990634
15.267105863062092	24.27269	4.926732
15.284789505183847	24.440823	4.943766
15.302473513484218	22.255793	4.7176046
15.320157888407127	18.652082	4.3188057
15.337842630396578	14.551248	3.8146098
15.355527739896656	11.273082	3.357541
15.37321321735153	8.725385	2.9538763
15.39089906320545	6.3856125	2.526977
15.408585277902748	4.8243976	2.1964512
15.42627186188783	3.7523117	1.9370885
15.443958815605198	3.2170088	1.7936022
15.461646139499424	2.9381464	1.7141021
15.479333834015168	2.7981834	1.6727772
15.497021899597165	2.7343905	1.6535993
15.514710336690234	2.686868	1.6391668
15.53239914573928	2.6606662	1.6311549
15.550088327189297	2.5980766	1.611855
15.567777881485336	2.5842807	1.6075698
15.58546780907256	2.5160573	1.5862085
15.6031581103962	2.464715	1.569941
15.620848785901568	2.4345565	1.5603065
15.638539836034063	2.4602256	1.5685107
15.656231261239173	2.4742098	1.5729622
15.673923061962451	2.4513671	1.5656842
15.691615238649552	2.4654167	1.5701646
15.709307791746202	2.4675362	1.5708393
15.727000721698221	2.4571528	1.5675309
15.744694028951498	2.406512	1.5512936
15.76238771395202	2.3573987	1.5353823
15.780081777145844	2.344007	1.531015
15.797776218979125	2.3465652	1.5318502
15.815471039898094	2.3788152	1.5423408
15.833166240349064	2.4161685	1.554403
15.850861820778437	2.4083362	1.5518814
15.868557781632699	2.3942604	1.5473398
15.886254123358412	2.409925	1.5523933
15.903950846402232	2.4492066	1.5649941
15.921647951210897	2.4396532	1.5619389
15.939345438231225	2.450293	1.5653412
15.957043307910133	2.432509	1.5596503
15.974741560694602	2.3994875	1.5490279
15.992440197031714	2.3846152	1.54422
16.01013921736862	2.3931987	1.5469967
16.02783862215259	2.3720365	1.5401417
16.045538411830933	2.3352182	1.5281421
16.06323858685107	2.3531666	1.5340035
16.080939147660512	2.4215314	1.5561271
16.09864009470684	2.4177377	1.5549077
16.11634142843774	2.4145186	1.5538721
16.134043149300954	2.3926685	1.5468253
16.15174525774433	2.4094474	1.5522395
16.169447754215817	2.4242437	1.5569983
16.18715063916342	2.4415653	1.5625509
16.204853913035244	2.4536	1.5663971
16.222557576279478	2.4693425	1.5714141
16.240261629344403	22.46503	4.739729
16.257966072678386	42.997833	6.5572734
16.275670906729868	38.116646	6.173868
16.293376131947387	2.553698	1.5980294
16.31108174877957	2.5792415	1.6060017
16.328787757675133	2.6023514	1.6131805
16.34649415908287	2.6065624	1.6144851
16.364200953451657	2.6160364	1.6174166
16.38190814123048	2.6858683	1.6388619
16.39961572286839	2.7506392	1.6585051
16.41732369881455	2.792161	1.670976
16.43503206951817	2.7900496	1.6703441
16.45274083542859	2.7994542	1.673157
16.47044999699522	2.8132894	1.6772863
16.488159554667558	2.8405662	1.6853979
16.505869508895184	2.8742788	1.6953698
16.523579860127786	2.9151514	1.7073815
16.541290608815117	2.9951847	1.7306602
16.559001755407035	3.0914981	1.7582656
16.57671330035348	3.1393707	1.771827
16.59442524410448	3.1968808	1.7879823
16.61213758711015	3.2117615	1.7921388
16.629850329820705	3.259191	1.805323
16.647563472686436	3.3418665	1.8280773
16.665277016157724	3.4306822	1.85221
16.682990960685053	3.4705062	1.8629295
16.70070530671898	3.461314	1.8604606
16.718420054710155	3.5225027	1.8768332
16.736135205109335	3.589333	1.8945535
16.753850758367335	3.6802316	1.918393
16.771566714935087	3.7237728	1.929708
16.789283075263597	3.7951155	1.9481056
16.80699983980398	3.8504212	1.962249
16.82471700900741	3.9232028	1.9807076
16.84243458332518	3.9466283	1.9866123
16.860152563208665	4.0673275	2.0167615
16.87787094910932	4.128267	2.0318136
16.89558974147871	4.1821775	2.0450373
16.913308940768466	4.246473	2.060697
16.931028547430333	4.324182	2.0794668
16.94874856191613	4.39693	2.096886
16.966468984677785	4.420337	2.10246
16.98418981616729	4.4808726	2.1168072
17.00191105683676	4.460757	2.1120503
17.019632707138374	4.468335	2.1138437
17.03735476752442	4.490118	2.11899
17.05507723844728	4.5725555	2.1383533
17.072800120359403	4.6622806	2.1592314
17.090523413713353	4.7174773	2.1719754
17.108247118961785	4.730028	2.1748629
17.125971236557437	4.70616	2.1693685
17.143695766953133	4.679124	2.1631284
17.161420710601806	4.6764765	2.1625164
17.179146067956477	4.704215	2.1689203
17.19687183947025	4.7456365	2.1784482
17.21459802559634	4.757935	2.1812692
17.232324626788028	4.7386823	2.1768515
17.25005164349871	4.693129	2.166363
17.267779076181863	4.683595	2.1641614
17.285506925291074	4.6684585	2.1606617
17.30323519127999	4.6592875	2.1585383
17.320963874602384	4.6204896	2.1495323
17.33869297571211	4.5905085	2.1425471
17.356422495063114	4.501696	2.12172
17.37415243310944	4.4986515	2.1210024
17.391882790305218	4.477331	2.1159706
17.40961356710468	4.469061	2.1140153
17.42734476396215	4.4958234	2.1203356
17.445076381332044	4.5958514	2.1437936
17.462808419668868	4.6916847	2.1660297
17.48054087942723	4.8056207	2.1921725
17.498273761061835	5.1266174	2.2642035
17.51600706502747	5.547042	2.3552158
17.533740791779024	6.209008	2.4917881
17.551474941771485	7.6303544	2.7623096
17.56920951545993	8.748241	2.9577427
17.586944513299528	10.819357	3.289279
17.60467993574556	12.399344	3.5212703
17.622415783253373	14.126156	3.758478
17.64015205627843	15.540705	3.9421701
17.657888755276293	16.588207	4.072862
17.675625880702604	17.13667	4.139646
17.69336343301311	16.978416	4.120487
17.71110141266366	16.175398	4.021865
17.728839820110178	15.190055	3.897442
17.746578655808705	14.203125	3.7687035
17.764317920215372	12.751198	3.5708818
17.7820576137864	11.338678	3.3672955
17.79979773697811	9.457509	3.0753064
17.81753829024692	7.5726748	2.7518494
17.835279274049356	5.8607364	2.4208958
17.85302068884201	4.8460555	2.2013757
17.870762535081607	4.215108	2.0530727
17.888504813224934	3.908578	1.9770124
17.90624752372891	3.694527	1.9221152
17.923990667050536	3.659029	1.9128588
17.941734243646895	3.5699286	1.8894255
17.959478253975185	3.509417	1.8733438
17.9772226984927	3.452635	1.8581268
17.994967577656833	3.4568145	1.859251
18.01271289192506	3.4596925	1.8600248
18.030458641754965	3.4561625	1.8590757
18.04820482760425	3.3501904	1.8303525
18.06595144993067	3.3546755	1.8315773
18.083698509192125	3.357501	1.8323485
18.101446005846576	3.358039	1.8324952
18.119193940352105	3.2805672	1.8112336
18.136942313166887	3.2381885	1.7994968
18.1546911247492	3.198718	1.788496
18.1724403755574	3.1779816	1.7826895
18.19019006604997	3.174972	1.7818451
18.207940196685467	3.1327882	1.7699684
18.225690767922575	3.1109786	1.7637967
18.243441780220046	3.1157148	1.7651387
18.261193234036764	3.113576	1.7645328
18.278945129831676	3.1271067	1.7683628
18.29669746806386	3.0848277	1.7563678
18.314450249192483	3.0333009	1.7416375
18.3322034736768	3.031033	1.7409862
18.349957141976184	3.0641623	1.7504748
18.3677112545501	3.122846	1.7671576
18.385465811858108	3.1028862	1.7615011
18.403220814359884	3.126062	1.7680672
18.420976262515172	3.1182296	1.765851
18.43873215678387	3.1664712	1.7794582
18.456488497625923	3.167841	1.779843
18.474245285501407	3.2401814	1.8000504
18.492002520870486	3.3086214	1.8189616
18.50976020419343	3.4158664	1.8482063
18.527518335930615	3.7077613	1.9255548
18.545276916542516	4.3010716	2.0739026
18.563035946489688	4.487539	2.1183813
18.580795426232832	5.003764	2.2369096
18.598555356232698	4.8955655	2.2125926
18.616315736950185	5.2167377	2.2840178
18.63407656884626	4.8188148	2.19518
18.65183785238201	4.9765797	2.230825
18.669599588018617	4.722807	2.173202
18.68736177621737	4.7411923	2.177428
18.705124417439652	4.7554784	2.180706
18.72288751214696	4.5705295	2.1378796
18.740651060800886	4.7283573	2.1744785
18.758415063863115	4.4003124	2.0976923
18.77617952179546	4.5582337	2.1350021
18.793944435059814	4.2314777	2.0570557
18.811709804118184	4.2685103	2.0660374
18.829475629432675	4.30399	2.074606
18.8472419114655	4.14499	2.035925
18.86500865067897	4.183374	2.0453298
18.88277584753551	3.819135	1.9542607
18.90054350249763	3.8216393	1.9549013
18.918311616027957	3.5034683	1.8717554
18.936080188589226	3.4029403	1.844706
18.953849220644265	3.089462	1.7576866
18.971618712656007	2.902227	1.7035923
18.9893886650875	2.821358	1.6796899
19.007159078401887	8.024383	2.832734
19.024929953062408	32.91863	5.737476
19.042701289532435	32.866615	5.732941
19.060473088275405	25.384398	5.038293
19.07824534975489	2.6469007	1.6269299
19.096018074434568	2.6468403	1.6269113
19.113791262778197	2.6155205	1.6172571
19.13156491524966	2.586326	1.6082058
19.149339032312945	2.571523	1.6035969
19.167113614432136	2.5684295	1.602632
19.184888662071433	2.5640554	1.6012669
19.202664175695123	2.5537183	1.5980358
19.220440155767623	2.4985757	1.5806884
19.238216602753447	2.4922316	1.5786804
19.2559935171172	2.5169854	1.586501
19.27377089932361	2.537343	1.592904
19.291548749837514	2.5468528	1.5958862
19.309327069123835	2.5448723	1.5952656
19.32710585764763	2.5178785	1.5867825
19.344885115874032	2.48263	1.5756364
19.362664844268313	2.4898536	1.577927
19.380445043295822	2.4743097	1.5729939
19.39822571342203	2.504446	1.5825442
19.41600685511252	2.5149052	1.5858452
19.43378846883297	2.5039766	1.5823958
19.451570555049173	2.5050507	1.5827352
19.469353114227037	2.5417695	1.5942928
19.48713614683254	2.5800917	1.6062664
19.50491965333182	2.5654802	1.6017116
19.52270363419109	2.52134	1.5878727
19.540488089876686	2.4860609	1.5767248
19.55827302085503	2.4575953	1.5676719
19.576058427592674	2.4734356	1.572716
19.593844310556282	2.4922364	1.5786818
19.611630670212598	2.500293	1.5812315
19.629417507028506	2.4869094	1.5769938
19.64720482147098	2.457266	1.567567
19.6649926140071	2.4849825	1.5763828
19.682780885104084	2.4995618	1.5810002
19.70056963522921	2.520101	1.5874826
19.718358864849908	2.528817	1.5902255
19.7361485744337	2.5031655	1.5821395
19.753938764448215	2.5198512	1.5874039
19.771729435361202	2.5534074	1.5979385
19.789520587640506	2.5726662	1.6039532
19.807312221754092	2.580344	1.6063449
19.825104338170043	2.569225	1.6028802
19.842896937356517	2.6098297	1.6154968
19.860690019781824	2.5997972	1.6123887
19.87848358591436	2.594124	1.6106285
19.896277636222635	2.55505	1.5984523
19.914072171175278	2.5504677	1.5970184
19.931867191241015	2.5365946	1.592669
19.94966269688869	2.5221255	1.5881201
19.967458688587264	2.5018232	1.5817152
19.985255166805807	2.460772	1.5686848
20.00305213201348	2.4635189	1.56956
20.020849584679578	2.464131	1.5697551
20.038647525273507	2.4706206	1.5718209
20.05644595426477	2.4557004	1.5670675
20.07424487212299	2.4778454	1.5741173
20.092044279317903	2.4447935	1.5635835
20.109844176319353	2.4005048	1.5493562
20.127644563597304	2.3833761	1.5438187
20.145445441621817	2.3949492	1.5475624
20.16324681086307	2.4169796	1.5546638
20.181048671791373	2.4150157	1.5540321
20.198851024877122	2.451361	1.5656823
20.216653870590836	2.3982754	1.5486367
20.234457209403146	2.4077556	1.5516944
20.252261041784802	2.402389	1.5499642
20.270065368206662	2.4131403	1.5534285
20.287870189139685	2.3593285	1.5360106
20.305675505054968	2.348958	1.532631
20.323481316423702	2.316037	1.5218531
20.341287623717207	2.3351219	1.5281105
20.359094427406884	2.37639	1.5415545
20.376901727964288	2.400477	1.5493473
20.39470952586107	2.3578634	1.5355335
20.41251782156899	2.3514433	1.5334417
20.430326615559935	2.3197494	1.5230724
20.448135908305886	2.329234	1.5261828
20.465945700278965	2.3316538	1.5269754
20.483755991951384	2.3593588	1.5360204
20.50156678379548	2.366889	1.5384697
20.519378076283708	2.3240902	1.5244967
20.537189869888635	2.2969258	1.5155612
20.55500216508294	2.3212047	1.52355
20.572814962339415	2.3339977	1.5277427
20.59062826213098	2.3108351	1.5201432
20.60844206493066	2.316841	1.5221173
20.626256371211593	2.358812	1.5358424
20.644071181447032	2.3618953	1.5368459
20.66188649611036	2.3491993	1.5327098
20.67970231567506	2.3239856	1.5244623
20.697518640614742	2.3205597	1.5233383
20.715335471403122	2.3345141	1.5279117
20.73315280851404	2.334434	1.5278854
20.750970652421447	2.3292742	1.526196
20.768789003599412	2.3069103	1.5188516
20.786607862522136	2.2947874	1.5148556
20.8044272296639	2.2988596	1.5161991
20.82224710549913	2.2325246	1.4941635
20.84006749050237	2.2194543	1.4897833
20.857888385148268	3.8248732	1.9557283
20.8757097899116	45.99414	6.781898
20.893531705267254	64.84054	8.052362
20.911354131690224	83.8432	9.156593
20.92917706965566	69.07104	8.310899
20.94700051963877	50.137993	7.0808187
20.96482448211493	29.39645	5.4218493
20.982648957559622	4.1556516	2.0385416
21.00047394644843	2.287708	1.5125171
21.01829944925707	2.250178	1.5000594
21.036125466461375	2.243921	1.4979724
21.053951998537297	2.244605	1.4982007
21.071779045960906	2.2794857	1.5097966
21.089606609208378	2.2636275	1.5045357
21.10743468875603	2.242327	1.4974401
21.12526328508028	2.2057784	1.4851863
21.143092398657675	2.1711357	1.4734774
21.16092202996488	2.1780777	1.4758312
21.17875217947867	2.203783	1.4845144
21.19658284767596	2.2375438	1.4958422
21.21441403503377	2.211066	1.4869654
21.232245742029225	2.1594918	1.4695209
21.2500779691396	2.169688	1.4729861
21.26791071684227	2.1980608	1.4825858
21.28574398561475	2.190245	1.4799476
21.30357777593465	2.1917722	1.4804635
21.321412088279704	2.183574	1.4776921
21.339246923127792	2.1932788	1.4809723
21.357082280956888	2.1785178	1.4759803
21.3749181622451	2.1567595	1.468591
21.392754567470647	2.1313357	1.4599094
21.41059149711187	2.154836	1.4679359
21.42842895164726	2.1652186	1.4714682
21.446266931555378	2.1425037	1.4637294
21.464105437314945	2.106124	1.4512491
21.481944469404798	2.1127667	1.4535359
21.49978402830388	2.1238017	1.4573269
21.51762411449127	2.1062853	1.4513047
21.53546472844617	2.0855267	1.4441353
21.553305870647876	2.0636144	1.4365286
21.571147541575865	2.0504382	1.4319351
21.58898974170967	2.0391347	1.4279828
21.60683247152899	2.0661654	1.4374162
21.62467573151363	2.0627642	1.4362327
21.642519522143523	2.0435555	1.4295298
21.660363843898722	2.0890121	1.4453416
21.6782086972594	2.1394618	1.4626899
21.696054082705864	2.1258848	1.4580414
21.713900000718535	2.0917802	1.4462988
21.73174645177795	2.082933	1.443237
21.749593436364794	2.0951204	1.4474531
21.767440954959845	2.0844932	1.4437774
21.785289008044032	2.06685	1.4376544
21.803137596098388	2.078074	1.4415526
21.820986719604086	2.0565798	1.4340781
21.838836379042412	2.0184171	1.4207101
21.85668657489478	1.9983345	1.4136246
21.87453730764273	2.0099063	1.4177116
21.892388577767914	2.0235653	1.4225208
21.91024038575213	2.053566	1.4330269
21.928092732077285	2.0453734	1.4301655
21.945945617225426	2.0194502	1.4210736
21.963799041678694	2.0089126	1.4173611
21.981653005919398	31.308264	5.595379
21.999507510429943	78.13398	8.839343
22.01736255569286	73.09407	8.549507
22.035218142190818	4.2142353	2.0528603
22.05307427040661	2.0278456	1.4240245
22.07093094082315	2.0406744	1.4285218
22.088788153923474	2.0323658	1.4256107
22.106645910190746	2.0142417	1.4192399
22.12450421010827	1.995076	1.4124715
22.142363054159464	2.0034904	1.4154471
22.16022244282787	2.044188	1.429751
22.178082376597164	2.051369	1.43226
22.195942855951145	2.0355482	1.4267263
22.213803881373742	2.0166132	1.420075
22.231665453349002	2.0191476	1.4209671
22.24952757236111	2.0373635	1.4273624
22.26739023889438	2.0182416	1.4206483
22.28525345343323	2.008195	1.4171079
22.30311721646225	2.0034604	1.4154365
22.320981528466113	1.978622	1.4066349
22.33884638992964	1.9586154	1.3995054
22.356711801337788	1.9565662	1.3987731
22.37457776317561	1.9611073	1.4003954
22.392444275928337	1.9535303	1.3976874
22.410311340081282	1.916064	1.3842196
22.428178956119904	1.8940871	1.3762584
22.446047124529805	1.9175472	1.3847553
22.46391584579669	1.9187685	1.3851962
22.481785120406414	1.9216822	1.3862475
22.49965494884496	1.9223486	1.3864878
22.51752533159841	1.9494692	1.3962339
22.53539626915302	1.9634503	1.4012318
22.553267761995137	1.9732858	1.4047369
22.571139810611264	1.984076	1.4085723
22.589012415488025	1.9693601	1.4033389
22.60688557711216	1.9793347	1.4068884
22.624759295970566	1.9248179	1.3873781
22.642633572550263	1.9161938	1.3842665
22.660508407338362	1.9239117	1.3870515
22.67838380082217	1.9459038	1.3949566
22.696259753489077	1.9301788	1.3893087
22.714136265826614	1.8765982	1.3698899
22.73201333832246	1.8815566	1.3716985
22.74989097146439	1.9027143	1.379389
22.76776916574035	1.9349133	1.3910116
22.785647921638393	1.9337442	1.3905913
22.803527239646712	1.9606272	1.400224
22.82140712025363	1.9972147	1.4132285
22.839287563947593	1.9831762	1.408253
22.85716857121719	1.9608331	1.4002975
22.875050142551135	1.934089	1.3907152
22.892932278438277	1.921691	1.3862507
22.910814979367604	1.8783871	1.3705426
22.928698245828222	1.8844444	1.3727506
22.946582078309387	1.9213825	1.3861394
22.96446647730047	1.9534757	1.397668
22.98235144329098	1.929273	1.3889828
23.000236976770562	1.9050552	1.3802373
23.018123078229	1.9254599	1.3876094
23.03600974815619	1.9518731	1.3970945
23.053896987042194	1.9374378	1.3919188
23.071784795377173	1.9420033	1.3935578
23.08967317365145	1.8862783	1.3734185
23.10756212235546	1.8791023	1.3708036
23.125451641979787	1.9022205	1.3792101
23.143341733015134	1.9127522	1.3830228
23.161232395952357	1.9024786	1.3793037
23.179123631282426	1.881354	1.3716246
23.197015439496468	1.8651693	1.365712
23.214907821085717	1.8654482	1.3658141
23.23280077654157	1.9274589	1.3883295
23.250694306355538	1.9671378	1.4025469
23.268588411019277	1.9651083	1.4018232
23.28648309102458	1.9405006	1.3930185
23.304378346863356	1.9738734	1.4049461
23.322274179027676	1.9693977	1.4033523
23.340170588009723	1.9507568	1.3966949
23.358067574301852	1.9225119	1.3865467
23.37596513839651	1.9395714	1.3926849
23.39386328078629	1.9214523	1.3861645
23.411762001963947	1.9078295	1.381242
23.429661302422353	1.9350733	1.391069
23.4475611826545	1.9002846	1.3785081
23.46546164315356	1.8511119	1.3605558
23.48336268441279	1.8655145	1.3658384
23.501264306925638	1.9171969	1.3846288
23.51916651118564	1.9572364	1.3990127
23.537069297686497	1.9444727	1.3944435
23.554972666922037	1.9607942	1.4002836
23.57287661938623	1.9435791	1.3941231
23.59078115557318	1.957806	1.3992162
23.608686275977128	1.9552335	1.3982966
23.62659198109246	1.9647143	1.4016826
23.6444982714137	1.9315279	1.3897942
23.66240514743549	1.9175808	1.3847674
23.68031260965263	1.9284286	1.3886788
23.698220658560068	1.9090779	1.3816938
23.716129294652845	1.9092203	1.3817453
23.7340385184262	1.9107502	1.3822988
23.75194833037546	1.8663834	1.3661565
23.769858730996123	1.8719605	1.3681961
23.78776972078382	1.912922	1.3830843
23.80568130023431	1.9453741	1.3947667
23.823593469843495	1.9373509	1.3918875
23.841506230107424	1.9057871	1.3805025
23.859419581522275	1.9266862	1.3880513
23.87733352458438	1.935784	1.3913245
23.89524805979019	1.9640247	1.4014367
23.913163187636318	1.9251196	1.3874868
23.931078908619508	1.9523534	1.3972664
23.948995223236633	1.9609578	1.400342
23.966912131984735	2.0065165	1.4165156
23.98482963536096	2.0159159	1.4198295
24.002747733862616	2.0183434	1.4206841
24.020666427987155	2.0443428	1.4298052
24.038585718232156	2.1140146	1.4539652
24.056505605095353	2.1536744	1.4675403
24.074426089074617	2.117098	1.4550251
24.092347170667946	2.0710204	1.439104
24.110268850373515	2.072231	1.4395247
24.128191128689586	2.0747716	1.4404068
24.146114006114626	2.024947	1.4230063
24.164037483147187	2.0069716	1.4166763
24.181961560286005	2.0300338	1.4247925
24.199886238029926	2.0429368	1.4293134
24.21781151687797	2.0457108	1.4302834
24.235737397329274	2.0392928	1.4280381
24.253663879883135	2.047188	1.4307998
24.271590965038975	2.0448833	1.4299941
24.289518653296376	2.0636196	1.4365304
24.30744694515505	2.0543466	1.4332992
24.32537584111486	2.0375814	1.4274387
24.34330534167581	2.0449615	1.4300215
24.361235447338046	2.0671883	1.437772
24.379166158601876	2.0381246	1.427629
24.39709747596772	2.0108554	1.4180464
24.41502939993615	2.0395088	1.4281137
24.432961931007917	2.0453765	1.4301666
24.450895069683856	2.031705	1.4253789
24.468828816465	1.9773403	1.4061793
24.4867631718525	1.9899426	1.4106532
24.504698136347656	1.9992007	1.4139309
24.52263371045192	2.019916	1.4212375
24.540569894666874	2.0048902	1.4159415
24.558506689494266	2.0301538	1.4248346
24.57644409543597	2.0144715	1.4193208
24.594382112994012	1.9812121	1.4075553
24.61232074267057	1.9246275	1.3873094
24.630259984967953	1.9529003	1.3974621
24.64819984038863	1.9760717	1.4057282
24.66614030943522	1.9914769	1.411197
24.684081392610462	2.0194974	1.4210902
24.702023090417274	2.0611362	1.4356657
24.7199654033587	2.07668	1.441069
24.737908331937927	2.054716	1.433428
24.755851876658305	2.0459943	1.4303826
24.773796038023324	2.0873191	1.4447558
24.79174081653661	2.0918295	1.4463159
24.809686212701962	2.0668926	1.4376692
24.827632227023294	2.0803573	1.4423444
24.8455788600047	2.1124122	1.453414
24.8635261121504	2.0819778	1.442906
24.88147398396475	2.0494244	1.4315811
24.899422475952303	2.0564253	1.4340242
24.917371588617698	2.1030428	1.4501872
24.935321322465768	2.1255763	1.4579356
24.953271678001478	2.2316527	1.4938717
24.97122265572994	2.4786737	1.5743804
24.989174256156414	2.8446355	1.6866047
25.00712647978632	3.2620964	1.8061274
25.02507932712521	3.7858565	1.9457277
25.043032798678798	4.266112	2.0654569
25.060986894952933	4.889493	2.2112198
25.078941616453637	5.587536	2.363797
25.096896963687055	6.5201902	2.5534663
25.114852937159508	7.6578693	2.7672856
25.132809537377444	8.1550865	2.8557112
25.150766764847468	8.231326	2.8690288
25.168724620076347	7.7123246	2.7771072
25.186683103570985	6.646455	2.5780718
25.204642215838426	5.466395	2.3380322
25.222601957385894	4.1152825	2.028616
25.24056232872074	3.2323546	1.797875
25.25852333035048	2.7099578	1.6461949
25.276484962782778	2.3629177	1.5371785
25.294447226525435	2.1420486	1.4635739
25.312410122086423	2.036638	1.4271083
25.330373649973843	1.9607155	1.4002556
25.348337810695988	1.9110988	1.382425
25.366302604761245	1.9366344	1.3916302
25.384268032678207	1.9606272	1.400224
25.40223409495558	1.9080437	1.3813195
25.420200792102257	1.8517916	1.3608055
25.438168124627246	1.8447888	1.35823
25.45613609303974	1.8556821	1.3622342
25.474104697849057	1.86161	1.3644084
25.492073939564698	1.8558326	1.3622894
25.510043818696285	1.8464801	1.3588525
25.528014335753614	1.860847	1.3641287
25.54598549124664	1.9224977	1.3865416
25.56395728568544	1.9020306	1.3791412
25.58192971958028	1.8894023	1.3745553
25.59990279344156	1.8468866	1.3590021
25.617876507779833	1.818405	1.3484825
25.635850863105826	1.8044554	1.3433002
25.653825859930386	1.8440894	1.3579725
25.671801498764548	1.8468173	1.3589766
25.68977778011949	1.8320789	1.3535432
25.707754704506524	1.8258761	1.3512498
25.725732272437153	1.8329289	1.353857
25.743710484423012	1.8785267	1.3705935
25.761689340975888	1.8799095	1.3710979
25.77966884260774	1.8738266	1.3688779
25.797648989830662	1.8715333	1.36804
25.815629783156922	1.8656291	1.3658804
25.83361122309895	1.8997213	1.3783038
25.85159331016929	1.873047	1.3685931
25.869576044880695	1.8461429	1.3587284
25.887559427746034	1.9123535	1.3828787
25.90554345927836	1.9482806	1.3958082
25.92352813999086	1.9199576	1.3856254
25.94151347039689	1.8446729	1.3581873
25.959499451009965	1.8459542	1.3586589
25.97748608234374	1.88138	1.371634
25.995473364912062	1.8920999	1.3755362
26.013461299228904	1.8558415	1.3622928
26.03144988580839	1.8697178	1.3673762
26.04943912516483	1.8679883	1.3667437
26.067429017812675	1.905723	1.3804792
26.085419564266537	1.8809848	1.37149
26.103410765041186	1.8308842	1.3531017
26.12140262065155	1.8059402	1.3438528
26.139395131612723	1.8150101	1.347223
26.157388298439948	1.8357519	1.3548992
26.17538212164861	1.826284	1.3514007
26.193376601754295	1.8157456	1.347496
26.211371739272714	1.8318318	1.3534518
26.229367534719746	1.8521341	1.3609314
26.247363988611433	1.8452847	1.3584126
26.26536110146397	1.7990828	1.3412989
26.283358873793727	1.8062886	1.3439823
26.301357306117204	1.8204406	1.3492371
26.319356398951104	1.8468397	1.3589848
26.33735615281224	1.8689936	1.3671114
26.35535656821762	1.8843311	1.3727094
26.373357645684404	1.8636994	1.3651738
26.39135938572991	1.8397032	1.3563566
26.409361788871614	1.8505207	1.3603384
26.427364855627165	1.8885309	1.3742383
26.445368586514352	1.8379271	1.3557017
26.46337298205115	1.7928283	1.3389654
26.48137804275568	1.8032138	1.3428379
26.499383769146217	1.785631	1.336275
26.517390161741215	1.7678108	1.3295904
26.53539722105928	1.7785356	1.3336174
26.553404947619182	1.7602041	1.3267268
26.571413341939856	1.7922572	1.3387522
26.589422404540397	1.8467599	1.3589555
26.60743213594006	1.8452462	1.3583984
26.62544253665827	1.8223785	1.349955
26.64345360721459	1.7937641	1.3393148
26.66146534812879	1.7625854	1.327624
26.679477759920758	1.7926881	1.3389131
26.69749084311057	1.8323994	1.3536614
26.71550459821847	1.8304436	1.3529389
26.733519025764842	1.7949302	1.33975
26.751534126270258	1.796067	1.3401742
26.769549900255434	1.8420972	1.3572388
26.787566348241267	1.8477788	1.3593303
26.80558347074881	1.8366593	1.355234
26.823601268299267	1.8076501	1.3444887
26.841619741414036	1.80979	1.3452843
26.85963889061465	1.7456659	1.3212365
26.877658716422832	1.750522	1.3230729
26.89567921936045	1.7341223	1.3168608
26.913700399949544	1.7639785	1.3281485
26.93172225871233	1.7667959	1.3292087
26.949744796171174	1.8075991	1.3444698
26.967768012848605	1.8346868	1.3545061
26.98579190926733	1.8326364	1.353749
27.003816485950225	1.8043619	1.3432654
27.021841743420318	1.8135796	1.3466921
27.039867682200814	1.8085518	1.3448241
27.057894302815072	1.8250246	1.3509347
27.07592160578664	1.7901211	1.337954
27.0939495916392	1.7805895	1.3343873
27.111978260896635	1.7701449	1.3304679
27.13000761408296	1.7628925	1.3277396
27.148037651722397	1.7854133	1.3361936
27.166068374339304	1.7969844	1.3405164
27.184099782458215	1.7976063	1.3407484
27.20213187660384	1.8357443	1.3548964
27.22016465730105	1.8483559	1.3595425
27.23819812507487	1.8015931	1.3422344
27.256232280450533	1.7831236	1.3353366
27.274267123953383	1.7794039	1.333943
27.292302656108987	1.8087609	1.3449018
27.31033887744306	1.8307166	1.3530397
27.32837578848146	1.8532094	1.3613263
27.34641338975026	1.8620169	1.3645574
27.364451681775673	1.8415613	1.3570414
27.382490665084074	1.8189181	1.3486727
27.400530340202046	1.8285794	1.3522497
27.41857070765629	1.822057	1.3498359
27.436611767973726	1.7906804	1.338163
27.454653521681404	1.7856685	1.336289
27.472695969306564	1.8079125	1.3445864
27.490739111376627	1.8590161	1.3634574
27.508782948419153	1.8362893	1.3550975
27.526827480961902	1.7947284	1.3396747
27.54487270953279	1.8579538	1.3630677
27.562918634659898	1.8571804	1.362784
27.580965256871508	1.8625171	1.3647407
27.599012576696026	1.8438815	1.357896
27.617060594662068	1.837129	1.3554074
27.63510931129842	1.7689309	1.3300116
27.65315872713401	1.7812395	1.3346308
27.67120884269797	1.799968	1.3416289
27.68925965851958	1.8203057	1.349187
27.707311175128307	1.8283156	1.3521522
27.725363393053787	1.8271003	1.3517027
27.74341631282583	1.8284851	1.3522149
27.7614699349744	1.8064098	1.3440275
27.77952426002968	2.0007524	1.4144796
27.797579288521973	2.1125472	1.4534605
27.815635020981784	2.5697482	1.6030434
27.83369145793979	2.636451	1.6237152
27.85174859992682	2.499855	1.581093
27.869806447473923	2.402543	1.5500139
27.887865001112267	2.0568564	1.4341744
27.905924261373233	1.925673	1.3876863
27.92398422878836	1.9030299	1.3795035
27.94204490388936	1.9171867	1.3846251
27.96010628720813	1.9278233	1.3884608
27.978168379276728	1.8931416	1.3759148
27.9962311806274	1.8675025	1.366566
28.014294691792568	1.8355615	1.354829
28.0323589133048	1.7933322	1.3391535
28.050423845696887	1.8099557	1.345346
28.068489489501758	1.839689	1.3563514
28.086555845252523	1.9025338	1.3793237
28.104622913482487	1.9154122	1.3839842
28.122690694725115	1.8842562	1.3726821
28.14075918951405	1.9312646	1.3896995
28.15882839838312	1.9657054	1.4020362
28.176898321866304	1.9251462	1.3874964
28.1949689604978	1.9200016	1.3856412
28.213040314811945	1.8857845	1.3732387
28.23111238534327	1.8587637	1.3633648
28.249185172626493	1.8656185	1.3658764
28.267258677196473	1.9366994	1.3916534
28.285332899588294	1.9667046	1.4023925
28.303407840337172	1.9262993	1.3879119
28.321483499978545	1.9580053	1.3992875
28.33955987904799	1.9829084	1.4081578
28.357636978081285	1.9428207	1.393851
28.37571479761439	1.9263923	1.3879454
28.393793338183425	1.9539493	1.3978374
28.41187260032469	1.971583	1.4041307
28.429952584574686	1.9651897	1.4018523
28.448033291470065	1.980452	1.4072853
28.46611472154769	1.975177	1.4054099
28.484196875344566	1.9942056	1.4121635
28.502279753397914	1.996312	1.412909
28.52036335624511	1.9986861	1.413749
28.538447684423716	1.9371754	1.3918245
28.556532738471482	1.9832052	1.4082632
28.574618518926325	1.9996836	1.4141017
28.59270502632635	1.9815785	1.4076855
28.61079226120985	1.9286947	1.3887745
28.628880224115274	1.957909	1.399253
28.646968915581287	2.041119	1.4286774
28.66505833614671	2.0746074	1.4403497
28.68314848635055	2.0731595	1.439847
28.701239366732004	2.1124387	1.4534231
28.71933097783044	2.1033158	1.4502813
28.737423320185403	2.0806484	1.4424453
28.75551639433665	2.0668616	1.4376584
28.773610200824074	2.0576665	1.4344568
28.791704740187793	2.1063793	1.4513371
28.80980001296809	2.161553	1.4702221
28.827896019705413	2.140239	1.4629556
28.845992760940433	2.1320152	1.4601421
28.86409023721397	2.1126611	1.4534996
28.88218844906704	2.1475642	1.465457
28.900287397040845	2.196652	1.4821106
28.918387081676755	2.2281032	1.4926832
28.936487503516343	2.2574613	1.502485
28.954588663101365	2.257463	1.5024856
28.97269056097374	2.2742505	1.5080619
28.990793197675597	2.339894	1.5296712
29.00889657374923	2.426345	1.557673
29.027000689737125	2.43522	1.5605191
29.04510554618196	2.4045148	1.5506498
29.06321114362659	2.4545135	1.5666888
29.08131748261405	2.52127	1.5878508
29.099424563687567	2.5074105	1.5834805
29.11753238739057	2.4872954	1.5771161
29.13564095426663	2.5058045	1.5829734
29.15375026485954	2.599325	1.6122422
29.171860319713275	2.6512501	1.628266
29.18997111937199	2.697022	1.6422613
29.20808266438002	2.7473915	1.6575257
29.226194955281898	2.7863696	1.6692423
29.244307992622335	2.8453712	1.6868228
29.26242177694624	2.8303676	1.6823696
29.2805363087987	2.8186758	1.6788912
29.29865158872498	2.838834	1.684884
29.316767617270557	2.8754058	1.6957022
29.334884394981064	2.977353	1.7255008
29.353001922402367	3.0602856	1.7493672
29.37112020008047	3.141098	1.7723143
29.389239228561596	3.2063017	1.7906148
29.407359008392152	3.4163396	1.8483343
29.42547954011872	3.6795905	1.9182259
29.44360082428809	4.278516	2.0684574
29.46172286144722	5.3391047	2.3106503
29.479845652143283	7.0203857	2.649601
29.497969196923606	8.989198	2.998199
29.516093496335728	11.272661	3.3574784
29.5342185509274	13.884923	3.7262478
29.55234436124651	16.116648	4.0145545
29.570470927841175	17.440035	4.176127
29.588598251259686	17.219095	4.1495895
29.60672633205055	16.119661	4.01493
29.624855170762405	14.122084	3.757936
29.642984767944146	11.4520855	3.384093
29.66111512414481	8.79842	2.966213
29.67924623991366	6.6016684	2.5693712
29.697378115800138	5.094353	2.2570674
29.71551075235387	4.1680493	2.0415802
29.733644150124675	3.720305	1.9288092
29.751778309662576	3.5489352	1.8838618
29.769913231517766	3.3879464	1.8406374
29.78804891624066	3.3011587	1.8169091
29.806185364381818	3.3530931	1.8311453
29.82432257649206	3.4400373	1.8547337
29.842460553122333	3.3897407	1.8411249
29.86059929482382	3.3030727	1.8174357
29.878738802147872	3.227029	1.7963934
29.896879075646048	3.2452483	1.8014573
29.915020115870114	3.274973	1.8096886
29.933161923371976	3.2439034	1.8010839
29.951304498703777	3.2165833	1.7934835
29.969447842417857	3.2074876	1.790946
29.987591955066733	3.2032347	1.7897583
30.005736837203123	3.2305207	1.797365
30.023882489379943	3.2722664	1.8089406
30.04202891215028	3.3313904	1.8252097
30.060176106067455	3.3427517	1.8283194
30.078324071684946	3.2271051	1.7964145
30.09647280955646	3.1462166	1.7737578
30.114622320235863	3.1594343	1.7774798
30.132772604277257	3.1900694	1.7860765
30.1509236622349	3.1402988	1.7720889
30.16907549466328	3.0659838	1.750995
30.18722810211705	3.0014296	1.7324635
30.205381485151097	3.0776603	1.7543262
30.22353564432045	3.0797806	1.7549304
30.241690580180403	3.0083818	1.7344687
30.25984629328638	2.9948497	1.7305634
30.278002784194037	3.0352168	1.7421874
30.296160053459246	3.0118551	1.7354697
30.314318101638033	2.986933	1.7282746
30.332476929286646	2.9515893	1.718019
30.35063653696153	2.9135566	1.7069143
30.368796925219307	3.007436	1.7341961
30.386958094616844	3.0332055	1.74161
30.40512004571115	3.0246098	1.7391405
30.423282779059463	3.0638084	1.7503738
30.441446295219233	3.015625	1.7365555
30.459610594748067	2.949963	1.7175456
30.47777567820382	2.9680555	1.7228045
30.495941546144504	2.9421692	1.7152753
30.51410819912835	2.908406	1.705405
30.532275637713795	2.7939527	1.6715121
30.55044386245946	2.785895	1.6691
30.56861287392416	2.823475	1.6803199
30.586782672666956	2.8271942	1.6814263
30.604953259247047	2.810915	1.6765784
30.623124634223885	2.804602	1.6746945
30.641296798157075	2.7328699	1.6531394
30.659469751606462	2.7716641	1.6648315
30.677643495132074	2.7705853	1.6645075
30.695818029294152	2.7513208	1.6587106
30.713993354653116	2.8419042	1.6857948
30.73216947176962	2.8686647	1.6937133
30.75034638120448	2.7481844	1.6577649
30.768524083518756	2.683703	1.6382011
30.786702579273673	2.788579	1.6699039
30.80488186903069	2.8664136	1.6930486
30.82306195335144	2.9335434	1.712759
30.841242832797782	3.0781915	1.7544776
30.85942450793176	3.351696	1.8307638
30.877606979315637	3.6950824	1.9222597
30.895790247511883	4.067145	2.0167162
30.913974313083134	4.5526757	2.1337
30.932159176592283	4.857722	2.204024
30.95034483860237	4.95879	2.226834
30.968531299676698	4.808343	2.1927934
30.98671856037873	4.497387	2.1207044
31.00490662127215	4.001004	2.000251
31.023095482920848	3.498062	1.8703107
31.04128514588892	3.123499	1.7673423
31.059475610740662	2.8129394	1.677182
31.07766687804056	2.5912347	1.6097312
31.09585894835335	2.521894	1.5880473
31.11405182224393	2.5278473	1.5899205
31.132245500277417	2.4467542	1.5642104
31.15043998301914	2.4296741	1.5587412
31.168635271034628	2.4232118	1.5566669
31.18683136488964	2.5126092	1.5851212
31.20502826515008	2.5273416	1.5897615
31.223225972382135	2.5158527	1.586144
31.241424487152155	2.4693718	1.5714235
31.259623810026692	2.4373646	1.5612061
31.27782394157253	2.4007611	1.549439
31.296024882356644	2.409082	1.5521218
31.314226632946237	2.3871293	1.5450338
31.332429193908684	2.4430985	1.5630414
31.350632565811598	2.5236301	1.5885937
31.368836749222787	2.527963	1.5899569
31.387041744710295	2.456963	1.5674703
31.40524755284232	2.4640183	1.5697192
31.423454174187317	2.4676497	1.5708754
31.441661609313922	2.4345665	1.5603098
31.459869858791002	2.4597638	1.5683634
31.478078923187628	2.4626899	1.569296
31.496288803073064	2.3568752	1.5352118
31.514499499016807	2.3398347	1.5296518
31.532711011588546	2.3442435	1.5310923
31.550923341358178	2.3397117	1.5296116
31.56913648889584	2.353018	1.533955
31.587350454771844	2.3514807	1.5334538
31.605565239556732	2.2850857	1.51165
31.62378084382127	2.2364373	1.4954723
31.641997268136382	2.2805967	1.5101645
31.660214513073274	2.2888994	1.512911
31.67843257920331	2.306965	1.5188696
31.6966514670981	2.2695444	1.5065007
31.71487117732944	2.2476797	1.4992263
31.733091710469346	2.2718022	1.5072498
31.751313067090052	2.4196303	1.5555161
31.769535247764008	2.417701	1.5548959
31.787758253063878	2.3087676	1.519463
31.805982083562526	2.2855504	1.5118036
31.824206739833024	2.3157225	1.5217499
31.84243222244869	2.300867	1.516861
31.860658531983013	2.2527719	1.5009236
31.878885669009737	2.2565804	1.5021919
31.897113634102784	2.308487	1.5193706
31.91534242783632	2.2249103	1.4916133
31.933572050784694	2.2075164	1.4857713
31.951802503522508	2.2721293	1.5073584
31.970033786624548	2.2582936	1.502762
31.988265900665834	2.2208912	1.4902655
32.006498846221575	2.2761195	1.5086814
32.02473262386724	2.2439222	1.4979727
32.04296723417845	2.1834009	1.4776336
32.0612026777311	2.1310208	1.4598017
32.07943895510129	2.1327236	1.4603847
32.097676066865304	2.1213493	1.4564853
32.115914013599685	2.0861638	1.4443558
32.13415279588115	2.1071653	1.4516078
32.152392414286666	2.2319043	1.493956
32.1706328693934	2.2820847	1.5106571
32.18887416177875	2.2377048	1.495896
32.20711629202032	2.1401243	1.4629164
32.225359260695924	2.0668132	1.4376415
32.243603068383614	2.1275792	1.4586223
32.26184771566166	2.237828	1.4959372
32.28009320310852	2.249794	1.4999313
32.2983395313029	2.1627407	1.470626
32.31658670082372	2.110413	1.4527261
32.33483471225012	2.130584	1.4596521
32.35308356616143	2.1724622	1.4739275
32.371333263137245	2.1549804	1.4679852
32.38958380375734	2.162827	1.4706553
32.407835188601744	2.1780064	1.4758071
32.42608741825067	2.0878444	1.4449375
32.444340493284585	2.0770574	1.4412
32.46259441428416	2.0484872	1.4312537
32.48084918183028	2.0880027	1.4449923
32.49910479650405	2.0498888	1.4317433
32.51736125888683	2.0171356	1.420259
32.53561856956014	2.044575	1.4298863
32.5538767291058	2.1132743	1.4537106
32.572135738105764	2.0412302	1.4287163
32.59039559714228	1.9759188	1.4056737
32.608656306797776	1.9768312	1.4059983
32.62691786765491	2.0585473	1.4347638
32.645180280296586	2.0895774	1.4455371
32.663443545305896	2.0770085	1.441183
32.68170766326619	2.0205033	1.421444
32.69997263476099	2.0561213	1.4339182
32.7182384603741	2.1487882	1.4658746
32.7365051406895	2.0567997	1.4341546
32.75477267629144	1.9340084	1.3906863
32.77304106776434	1.8513372	1.3606385
32.79131031569289	1.9379219	1.3920926
32.809580420661966	2.0131402	1.4188517
32.827851383256714	1.9980389	1.41352
32.84612320406245	1.9817532	1.4077476
32.86439588366476	1.978107	1.406452
32.88266942264945	1.9322978	1.3900712
32.9009438216025	1.9752837	1.4054478
32.9192190811102	2.015867	1.4198123
32.937495201758985	2.036708	1.4271328
32.95577218413556	2.0337842	1.426108
32.974050028826866	1.967521	1.4026835
32.992328736420035	1.9592432	1.3997297
33.010608307502444	1.9540348	1.3978679
33.02888874266169	1.945111	1.3946724
33.047170042485604	1.9535121	1.397681
33.06545220756225	2.0125659	1.4186493
33.083735238479896	2.1046133	1.4507285
33.10201913582707	2.0882945	1.4450933
33.12030390019248	2.0446024	1.429896
33.138589532165135	2.0267673	1.4236457
33.15687603233419	1.9891473	1.4103713
33.17516340128909	2.008874	1.4173476
33.19345163961947	2.0299397	1.4247595
33.211740747915215	1.9964801	1.4129685
33.23003072676643	1.9095286	1.3818569
33.248321576763466	1.9319898	1.3899604
33.266613298496885	1.9613311	1.4004753
33.28490589255747	1.9648484	1.4017305
33.30319935953626	1.9075735	1.3811493
33.32149370002451	1.869464	1.3672835
33.339788914613706	1.9499172	1.3963944
33.358085003895575	2.0123022	1.4185563
33.376381968462034	2.0134234	1.4189515
33.39467980890529	1.9371204	1.3918047
33.41297852581774	1.8439629	1.357926
33.43127811979204	1.7882066	1.3372384
33.44957859142105	1.8281614	1.3520951
33.467879941297866	1.8354379	1.3547833
33.486182170015844	1.8960814	1.3769827
33.50448527816853	1.9123257	1.3828686
33.522789266349754	1.9905795	1.410879
33.541094135153514	2.0258045	1.4233077
33.55939988517411	2.0153565	1.4196326
33.57770651700602	1.907671	1.3811846
33.59601403124398	1.941511	1.3933811
33.61432242848296	1.965555	1.4019825
33.632631709318154	1.9335415	1.3905184
33.650941874344994	1.9653783	1.4019195
33.66925292415916	2.0288026	1.4243604
33.68756485935654	1.9921043	1.4114193
33.70587768053328	1.9196302	1.3855072
33.724191388285746	1.868571	1.3669568
33.74250598321054	1.9526742	1.3973812
33.760821465904506	1.9124181	1.382902
33.77913783696474	1.8872535	1.3737735
33.79745509698852	1.8734772	1.3687502
33.815773246573414	1.9456363	1.3948606
33.8340922863172	1.9814745	1.4076486
33.852412216817896	2.0774453	1.4413345
33.87073303867377	2.1118703	1.4532275
33.889054752483304	2.038421	1.4277328
33.907377358845245	1.9609407	1.4003359
33.92570085835853	1.8867902	1.3736048
33.94402525162239	1.7906089	1.3381363
33.96235053923627	1.8112793	1.3458377
33.980676721799824	2.030167	1.4248394
33.999003799912984	2.0766008	1.4410416
34.01733177417592	2.033539	1.426022
34.03566064518901	1.9126294	1.3829784
34.0539904135529	1.8828139	1.3721566
34.07232107986846	1.987412	1.409756
34.090652644736785	2.015771	1.4197785
34.108985108759235	2.0034363	1.4154279
34.12731847253742	1.9661725	1.4022027
34.14565273667313	1.9155658	1.3840396
34.16398790176847	1.9192438	1.3853678
34.18232396842574	1.9491819	1.396131
34.20066093724749	1.9146912	1.3837236
34.21899880883651	1.9208761	1.3859568
34.23733758379583	1.9802018	1.4071964
34.25567726272874	2.027199	1.4237974
34.27401784623872	2.0736847	1.4400294
34.29235933492957	2.0584798	1.4347403
34.31070172940526	2.055222	1.4336046
34.32904503027003	1.9877937	1.4098914
34.347389238128386	1.9356776	1.3912864
34.36573435358502	1.9428358	1.3938564
34.38408037724492	1.9082677	1.3814006
34.402427309713296	1.8598461	1.3637618
34.42077515159559	1.9215906	1.3862145
34.43912390349752	1.9709082	1.4038904
34.45747356602499	2.0318377	1.4254254
34.47582413978423	2.0122442	1.418536
34.49417562538163	1.970705	1.403818
34.51252802342388	1.8255111	1.3511147
34.53088133451789	1.8979683	1.3776677
34.54923555927084	1.8810785	1.3715241
34.567590698290104	1.9293268	1.3890021
34.58594675218336	2.017968	1.420552
34.6043037215585	2.0214553	1.4217789
34.62266160702365	1.9215623	1.3862042
34.641020409187234	2.0445244	1.4298687
34.65938012865785	2.0941076	1.4471031
34.677740766044394	1.9623191	1.400828
34.69610232195598	1.8517191	1.3607789
34.714464797002016	1.8137491	1.346755
34.73282819179208	1.9316155	1.3898257
34.751192506936064	2.0852172	1.4440281
34.76955774304408	1.9169388	1.3845356
34.7879239007265	1.7252064	1.3134711
34.80629098059391	1.9310594	1.3896257
34.824658983257194	2.1174564	1.4551482
34.843027909327446	2.0618076	1.4358996
34.86139775941603	1.9882835	1.410065
34.879768534134534	2.0051048	1.4160172
34.89814023409483	2.0892422	1.4454211
34.91651285990901	2.0747657	1.4404047
34.93488641218944	1.9963288	1.412915
34.95326089154871	1.9267713	1.3880819
34.97163629859967	1.935098	1.391078
34.99001263395542	1.9992235	1.413939
35.00838989822934	1.9144771	1.3836464
35.02676809203499	1.7557033	1.3250296
35.04514721598624	1.9089525	1.3816484
35.063527270697215	2.076045	1.4408487
35.081908256782256	2.0583708	1.4347024
35.10029017485597	2.0710232	1.439105
35.11867302553321	2.074281	1.4402364
35.137056809429104	1.8892376	1.3744954
35.155441527159006	1.9271891	1.3882324
35.173827179338524	2.066916	1.4376773
35.19221376658354	2.205395	1.4850572
35.21060128951017	2.0219815	1.4219639
35.2289897487348	1.8516808	1.3607647
35.24737914487405	1.9128069	1.3830426
35.26576947854479	2.0709238	1.4390705
35.28416075036418	2.3874648	1.5451423
35.30255296094958	2.3421767	1.5304172
35.32094611091867	2.1596017	1.4695584
35.33934020088932	2.1797166	1.4763863
35.35773523147969	2.365991	1.5381778
35.3761312033082	2.144762	1.4645007
35.394528116993506	1.9693797	1.4033458
35.41292597315452	2.1363518	1.4616264
35.431324772410434	2.5665722	1.6020525
35.449724515380666	2.6832104	1.6380508
35.46812520268491	2.4982693	1.5805914
35.486526834943106	2.575525	1.6048442
35.504929412775454	2.44654	1.564142
35.52333293680242	2.0650532	1.4370294
35.54173740764471	1.8027487	1.3426647
35.560142825923286	1.7811247	1.3345878
35.5785491922594	2.058172	1.434633
35.59695650727454	2.338701	1.5292813
35.61536477159042	2.705336	1.6447906
