0.008763373481513119	0.0	0.0
0.026290120649546365	0.0	0.0
0.043816868432600686	0.13114059	0.36213338
0.06134361724069026	0.24742065	0.49741396
0.07887036748382949	0.19327974	0.43963593
0.0963971195720331	0.15980077	0.3997509
0.11392387391531617	0.031922847	0.17866966
0.1314506309236943	0.052420996	0.22895631
0.1489773910071836	0.18420719	0.42919365
0.16650415457580078	0.24420483	0.49417084
0.18403092203956356	0.23274268	0.48243412
0.20155769380849	0.13796864	0.3714413
0.2190844702925996	0.06541941	0.2557722
0.2366112519019124	0.105752654	0.32519633
0.2541380390464497	0.11165729	0.3341516
0.27166483213623416	0.11800275	0.34351528
0.28919163158128947	0.084539376	0.29075655
0.3067184377916406	0.0525188	0.2291698
0.324245251177314	0.04405277	0.20988752
0.34177207214833777	0.03826944	0.19562577
0.3592989011147415	0.053949326	0.23226994
0.37682573848655654	0.08077603	0.28421125
0.39435258467381573	0.11281643	0.33588156
0.41187944008655414	0.12542018	0.3541471
0.42940630513480854	0.15201144	0.38988644
0.446933180228618	0.13784717	0.37127775
0.4644600657780234	0.12321894	0.35102555
0.48198696219306775	0.13836794	0.3719784
0.49951386988379676	0.11630825	0.34103996
0.5170407892602581	0.11190944	0.33452868
0.5345677207325025	0.10213713	0.31958902
0.5520946647105822	0.10211795	0.31955898
0.5696216216045534	0.11233578	0.3351653
0.5871485918244737	0.13204552	0.36338067
0.6046755757804043	0.13704143	0.37019107
0.6222025738824094	0.14478289	0.38050348
0.6397295865405557	0.15133664	0.38902012
0.6572566141649129	0.15455206	0.3931311
0.6747836571655547	0.16982147	0.412094
0.6923107159525568	0.15956318	0.3994536
0.7098377909359992	0.18887952	0.4346027
0.7273648825259653	0.1789384	0.42301112
0.7448919911325411	0.18383154	0.42875582
0.762419117165817	0.17806694	0.42197978
0.7799462610358868	0.18520989	0.43036017
0.7974734231528482	0.21011169	0.45837942
0.8150006039268024	0.2157965	0.46453902
0.8325278037678551	0.23005225	0.47963762
0.8500550230861152	0.2549734	0.5049489
0.8675822622916969	0.26487783	0.5146628
0.8851095217947171	0.24492036	0.4948943
0.9026368020052984	0.20812742	0.45620984
0.9201641033335665	0.18647358	0.43182588
0.9376914261896523	0.17041427	0.41281262
0.9552187709836915	0.20955782	0.45777485
0.9727461381258234	0.25014362	0.5001436
0.990273528026193	0.25465867	0.5046372
1.0078009410949496	0.26554674	0.51531225
1.0253283777422473	0.2710092	0.5205854
1.0428558383782454	0.31795025	0.5638708
1.0603833234131086	0.33827943	0.58161795
1.0779108332570058	0.36776644	0.6064375
1.0954383683201119	0.33580488	0.5794867
1.112965929012607	0.36710316	0.6058904
1.1304935157446763	0.4596643	0.6779855
1.1480211289265108	0.51459664	0.71735394
1.1655487689683062	1.3110355	1.1450046
1.1830764362802655	1.6440489	1.2822047
1.200604131272596	2.0431042	1.429372
1.2181318543555117	2.2643762	1.5047845
1.235659605939232	2.2712872	1.507079
1.253187386433982	3.7708569	1.9418694
1.270715196249994	5.9459767	2.4384375
1.2882430357975057	11.260151	3.355615
1.3057709054867608	16.202633	4.0252495
1.3232988057280106	22.24373	4.7163258
1.3408267369315112	26.954924	5.191813
1.358354699507526	30.047112	5.4815245
1.3758826938663256	33.690865	5.8043833
1.3934107204181858	35.417427	5.9512544
1.410938779573391	36.012615	6.001051
1.4284668717422309	36.500366	6.0415535
1.4459949973350033	36.431366	6.03584
1.4635231567620117	36.578983	6.048056
1.4810513504335687	36.043884	6.003656
1.4985795787599925	35.605045	5.966996
1.5161078421516088	35.27065	5.9389095
1.5336361410187505	34.71966	5.892339
1.5511644757717598	34.57638	5.8801684
1.5686928468209842	35.09505	5.9241076
1.58622125457678	35.380016	5.94811
1.6037496994495108	36.747124	6.0619407
1.621278181849548	36.690197	6.0572433
1.6388067021872719	37.343304	6.1109166
1.6563352608730693	36.3795	6.0315423
1.673863858317336	35.517365	5.959645
1.6913924949304753	34.58152	5.880605
1.7089211711228998	33.794678	5.813319
1.7264498873050296	32.761772	5.72379
1.7439786438872935	32.045666	5.660889
1.7615074412801288	31.138596	5.580197
1.779036279893981	30.573223	5.529306
1.796565160139305	29.791666	5.458174
1.814094082426564	28.899845	5.375858
1.8316230471662298	28.107584	5.3016586
1.849152054768784	27.383627	5.232937
1.8666811056447168	27.272594	5.2223167
1.8842102002045273	26.4871	5.146562
1.901739338858724	25.828762	5.0822005
1.9192685220178245	25.131031	5.013086
1.9367977500923557	24.427557	4.9424243
1.9543270234928547	23.77934	4.8764067
1.971856342629867	23.276657	4.824589
1.9893857079139496	22.63486	4.757611
2.006915119755667	22.223063	4.714134
2.0244445785655945	21.965687	4.6867566
2.0419740847543175	21.607452	4.6483817
2.0595036387324317	21.373842	4.623185
2.0770332409105414	20.724508	4.5524178
2.094562891699263	20.262367	4.501374
2.1120925915092217	19.668173	4.434881
2.129622340751053	19.27561	4.3904
2.1471521398354043	187.34518	13.687409
2.1646819891729323	443.75235	21.06543
2.182211889174303	440.08612	20.97823
2.1997418402501974	452.6275	21.275043
2.2172718428113023	432.6914	20.801235
2.234801897268317	320.6198	17.905859
2.2523320040319548	16.950455	4.117093
2.269862163512935	16.41829	4.051949
2.287392376121992	16.158392	4.01975
2.304922642269869	16.011637	4.0014544
2.322452962367322	15.837541	3.9796407
2.3399833368251164	15.548523	3.9431615
2.357513766054032	14.972625	3.8694477
2.3750442504648586	14.442488	3.8003273
2.3925747904683963	14.174449	3.7648969
2.410105386475459	14.147274	3.7612863
2.4276360388968707	14.051625	3.7485497
2.445166748143469	13.895611	3.7276816
2.4626975146261025	13.47197	3.6704183
2.4802283387556323	13.260552	3.641504
2.4977592209429305	13.033579	3.610205
2.5152901615988825	12.729197	3.5678
2.5328211611343865	12.608137	3.550794
2.5503522199603523	12.431177	3.5257874
2.5678833384877024	12.424951	3.5249043
2.5854145171273712	12.3056135	3.5079358
2.6029457562903064	12.113955	3.4805107
2.620477056387469	11.862874	3.4442523
2.6380084178298326	11.548731	3.3983424
2.655539841028383	11.249778	3.3540688
2.673071326394119	11.016091	3.3190498
2.6906028743380523	10.900589	3.301604
2.708134485271211	10.782412	3.2836583
2.7256661596046325	10.514626	3.2426264
2.743197897749369	10.39988	3.2248845
2.760729700116486	10.3502035	3.217173
2.778261567117063	10.266364	3.2041168
2.795793499162193	10.230751	3.1985545
2.8133254966629817	10.043322	3.16912
2.830857560030551	9.774601	3.1264358
2.8483896896760337	9.6163225	3.1010196
2.865921886010578	9.524247	3.086138
2.883454149445347	9.382999	3.0631683
2.9009864803915177	9.184115	3.0305305
2.91851887926028	9.111239	3.018483
2.9360513464628384	9.020543	3.0034218
2.953583882410413	8.883073	2.9804485
2.9711164875142373	8.742739	2.9568121
2.9886491621855606	8.609734	2.9342349
3.0061819068356455	8.525917	2.9199173
3.023714721875769	8.338133	2.8875825
3.041247607717225	8.094945	2.8451617
3.0587805647713213	7.9968443	2.8278692
3.0763135934493806	8.021025	2.8321414
3.0938466941627407	7.8909507	2.8090837
3.1113798673227544	7.87132	2.8055873
3.1289131133407904	7.7497835	2.7838433
3.1464464326282315	7.620057	2.760445
3.1639798255964786	7.449275	2.729336
3.1815132926569443	7.3274603	2.7069283
3.1990468342210603	7.26757	2.695843
3.216580450700272	7.279198	2.697999
3.2341141425060416	7.261206	2.6946626
3.251647910049847	7.162281	2.6762438
3.2691817537431813	7.0539947	2.6559358
3.286715673997555	6.9578633	2.6377761
3.3042496712244938	6.995926	2.6449814
3.32178374583554	7.0064306	2.6469662
3.339317898242251	6.896566	2.6261313
3.3568521288562034	6.684975	2.585532
3.3743864380889876	6.491423	2.5478272
3.3919208263522127	6.414038	2.5325952
3.4094552940575023	6.404675	2.530746
3.4269898416164972	6.496747	2.5488718
3.444524469440858	6.524661	2.5543416
3.4620591779422587	6.474745	2.544552
3.479593967532391	6.3852663	2.5269084
3.4971288386229658	6.290775	2.5081418
3.5146637916257086	6.2780046	2.5055947
3.5321988269523628	6.1821885	2.4864006
3.5497339450146903	6.117136	2.4732845
3.5672691462244708	6.061974	2.4621077
3.5848044309934988	6.094264	2.4686563
3.60233979973359	6.181602	2.4862828
3.619875252856575	6.2430596	2.4986115
3.6374107907743034	6.1552405	2.4809756
3.6549464138986427	6.1766434	2.4852853
3.6724821226414788	6.2022953	2.4904408
3.690017917414714	6.2630286	2.5026045
3.7075537986302702	6.2406917	2.4981377
3.7250897667000857	6.2128167	2.4925523
3.7426258220361235	6.3589163	2.5216892
3.7601619650503553	6.705102	2.5894213
3.777698196154779	7.1973314	2.6827843
3.7952345157614067	8.242835	2.871034
3.8127709242822716	9.010208	3.0017009
3.830307422129425	11.226188	3.3505504
3.847844009714936	29.970362	5.4745193
3.8653806874508954	97.4874	9.87357
3.882917455749409	96.74591	9.83595
3.900454315022606	96.517204	9.824317
3.917991265682631	41.129723	6.4132457
3.9355283081416506	10.744799	3.277926
3.9530654428118495	8.579376	2.9290571
3.970602670105433	7.3576317	2.7124956
3.9881399904346244	6.406009	2.5310094
4.005677404211669	6.270559	2.5041084
4.023214911848827	6.222626	2.4945192
4.0407525137583855	6.235544	2.4971073
4.058290210352644	6.233773	2.4967525
4.075828002043927	6.0345097	2.456524
4.0933658892445814	5.946165	2.438476
4.110903872366966	5.9491453	2.439087
4.128441951823468	5.9666615	2.442675
4.145980128026488	6.1189513	2.4736514
4.163518401388452	6.1281323	2.4755065
4.181056772321807	6.0591903	2.4615424
4.1985952412390155	6.0823984	2.4662519
4.216133808552567	6.0246964	2.4545257
4.233672474674966	6.0737934	2.4645066
4.251211240018741	6.1471148	2.4793375
4.268750104996445	6.3760614	2.5250864
4.286289070020643	7.435155	2.726748
4.303828135503928	9.149327	3.0247855
4.3213673018589125	29.489902	5.4304605
4.3389065694982305	90.60871	9.518861
4.356445938834537	165.87294	12.879167
4.3739854102805085	171.35023	13.090081
4.391524984248844	172.30428	13.126472
4.409064661152262	136.36523	11.677552
4.426604441403504	96.583244	9.827678
4.444144325415337	75.73692	8.702696
4.461684313600543	21.728107	4.6613417
4.47922440637193	22.182009	4.709778
4.496764604142329	20.469027	4.524271
4.5143049073245916	18.347466	4.2833943
4.531845316331589	16.111544	4.013919
4.5493858315762195	13.101705	3.6196277
4.566926453471405	10.989289	3.3150096
4.584467182430081	9.002921	3.0004869
4.602008018865218	8.005588	2.8294146
4.619548963189798	7.400132	2.7203183
4.637090015816834	6.886591	2.6242316
4.654631177159353	6.609116	2.57082
4.672172447630417	6.3178997	2.5135434
4.689713827643102	6.2159386	2.4931784
4.7072553176105085	5.965455	2.442428
4.724796917945764	5.7943344	2.4071424
4.742338629062015	5.678915	2.3830473
4.759880451372434	5.6536264	2.3777356
4.777422385290215	5.7306356	2.3938746
4.794964431228581	5.7200146	2.3916552
4.812506589600768	5.6263204	2.3719866
4.830048860820047	5.5569158	2.357311
4.847591245299709	5.4749427	2.3398595
4.8651337434530655	5.399243	2.323627
4.882676355693457	5.3398566	2.310813
4.900219082434242	5.353332	2.313727
4.917761924088813	5.3983493	2.3234348
4.935304881070575	5.444353	2.3333137
4.952847953792969	5.4831824	2.3416197
4.970391142669449	5.429867	2.3302073
4.9879344481135055	5.471928	2.3392153
5.005477870538642	5.408387	2.325594
5.023021410358394	5.347061	2.3123713
5.040565067986324	5.282891	2.298454
5.05810884383601	5.27367	2.2964473
5.075652738321066	5.2757964	2.2969103
5.09319675185512	5.230975	2.2871325
5.110740884851836	5.186483	2.277385
5.128285137724894	5.1361246	2.2663019
5.145829510888007	5.164207	2.272489
5.163374004754908	5.327252	2.308084
5.1809186197393595	5.3493443	2.312865
5.198463356255145	5.3137827	2.3051643
5.216008214716077	5.2486873	2.2910013
5.233553195535998	5.181193	2.2762234
5.251098299128764	5.1453037	2.2683263
5.268643525908272	5.1496463	2.2692833
5.286188876288432	5.1303062	2.265018
5.3037343506831895	5.150289	2.269425
5.32127994950651	5.0990167	2.2581003
5.3388256731723915	5.1306834	2.2651012
5.356371522094851	5.1048465	2.2593908
5.373917496687938	5.088883	2.2558553
5.391463597365729	5.118402	2.2623885
5.40900982454232	5.154668	2.2703893
5.426556178631843	5.177075	2.2753186
5.444102660048449	5.17513	2.2748911
5.4616492692063225	5.150021	2.2693658
5.479196006519669	5.0922	2.2565904
5.496742872402727	5.010172	2.2383413
5.514289867269756	5.0505347	2.2473395
5.531836991535049	5.052039	2.2476742
5.549384245612924	5.0470533	2.2465649
5.566931629917724	4.99269	2.234433
5.584479144863822	5.003503	2.2368512
5.6020267908656205	4.9958754	2.2351456
5.619574568337545	5.0404363	2.2450917
5.637122477694054	4.9606986	2.2272625
5.654670519349629	4.9666066	2.2285886
5.672218693718784	4.9918094	2.2342358
5.689767001216059	5.0718627	2.2520797
5.707315442256021	5.114912	2.2616172
5.724864017253266	5.1279945	2.2645075
5.7424127266224225	5.1152225	2.2616858
5.75996157077814	5.1413097	2.2674456
5.777510550135105	5.1928706	2.2787871
5.795059665108022	5.201134	2.2805996
5.812608916111639	5.177501	2.2754123
5.830158303560715	5.2400975	2.289126
5.847707827870055	5.303052	2.3028357
5.86525748945448	5.3273845	2.3081129
5.8828072887288485	5.372052	2.3177688
5.900357226108044	5.391682	2.3219995
5.917907302006979	5.4932814	2.343775
5.9354575168406	6.0918813	2.4681737
5.9530078710238765	6.7226624	2.5928097
5.970558364971812	7.2392077	2.6905775
5.988108999099438	7.495967	2.7378764
6.005659773821818	7.9425316	2.8182497
6.023210689554039	7.7217097	2.7787964
6.040761746711227	8.194958	2.8626838
6.058312945708531	7.690118	2.773106
6.075864286961132	7.203887	2.6840057
6.093415770884244	6.501564	2.5498164
6.1109673978931065	5.942063	2.4376347
6.128519168402993	5.4430065	2.3330252
6.146071082829204	5.4139237	2.326784
6.163623141587075	5.259482	2.293356
6.181175345091969	5.191549	2.278497
6.198727693759281	5.1164002	2.2619462
6.216280188004435	5.1168494	2.2620454
6.233832828242885	5.0849895	2.2549922
6.251385614890126	5.050627	2.24736
6.268938548361669	4.9696355	2.2292678
6.286491629073067	4.9313045	2.220654
6.304044857439898	4.879583	2.2089777
6.321598233877777	4.775211	2.1852255
6.339151758802344	4.7369757	2.1764596
6.356705432629277	4.683124	2.1640527
6.37425925577428	4.806381	2.192346
6.391813228653095	4.814399	2.1941738
6.409367351681486	4.865659	2.205824
6.426921625275259	4.8512115	2.2025466
6.44447604985025	4.925403	2.2193248
6.46203062582232	4.9607377	2.2272713
6.47958535360737	4.9868145	2.2331176
6.497140233621328	4.9546595	2.2259064
6.514695266280161	4.9164343	2.2173033
6.532250451999859	4.8888946	2.2110844
6.549805791196454	4.944334	2.2235858
6.567361284286002	4.9264874	2.2195692
6.584916931684597	4.8985195	2.21326
6.602472733808367	4.84652	2.2014813
6.6200286910734665	4.814979	2.1943061
6.637584803896092	4.830973	2.1979475
6.655141072692462	4.8387446	2.1997147
6.672697497878842	4.8648458	2.2056396
6.690254079871514	4.882004	2.2095256
6.707810819086808	4.8557696	2.203581
6.725367715941078	4.860251	2.2045977
6.742924770850719	4.8554974	2.2035193
6.760481984232151	4.90559	2.2148566
6.778039356501836	4.939	2.2223861
6.795596888076266	4.9637256	2.227942
6.813154579371963	4.9816494	2.2319608
6.830712430805492	4.9792295	2.2314186
6.84827044279344	4.955807	2.2261643
6.865828615752445	4.8911853	2.2116024
6.883386950099159	4.869705	2.2067409
6.900945446250287	4.8262687	2.196877
6.918504104622553	4.818298	2.1950622
6.936062925632727	4.8149447	2.1942983
6.953621909697607	4.858694	2.2042446
6.971181057234028	4.9200487	2.2181182
6.988740368658859	5.0010095	2.2362938
7.006299844389007	5.047343	2.2466292
7.023859484841407	5.112766	2.2611425
7.041419290433036	5.212493	2.2830884
7.058979261580902	5.388295	2.3212702
7.0765393987020495	5.673033	2.381813
7.094099702213559	6.0157995	2.4527128
7.111660172532549	6.31712	2.5133882
7.129220810076164	6.5628614	2.5618083
7.146781615261595	7.00145	2.6460254
7.16434258850606	7.1976914	2.6828513
7.181903730226821	7.6719027	2.76982
7.1994650408411704	7.846581	2.8011749
7.217026520766437	8.05987	2.838991
7.234588170419983	8.333816	2.8868349
7.252149990219215	8.32542	2.8853805
7.269711980581568	8.2493515	2.8721685
7.2872741419245175	8.063074	2.8395553
7.304836474665574	7.695363	2.7740517
7.322398979222286	7.4197507	2.723922
7.339961656012233	7.12722	2.6696854
7.357524505453039	6.8481884	2.6169043
7.375087527962357	6.535076	2.5563796
7.392650723957886	6.172155	2.4843822
7.410214093857353	5.811765	2.4107604
7.427777638078528	5.5764503	2.361451
7.445341357039213	5.397466	2.3232448
7.4629052511572525	5.279864	2.2977955
7.480469320850524	5.2529974	2.291942
7.498033566536948	5.204418	2.2813194
7.5155979886344735	5.052799	2.2478433
7.5331625875610975	4.9731846	2.230064
7.550727363734844	5.0192833	2.2403758
7.568292317573788	5.0755887	2.2529068
7.585857449496025	5.0859914	2.2552142
7.603422759919705	5.074436	2.252651
7.620988249263007	5.058092	2.2490203
7.638553917944147	5.1229568	2.263395
7.656119766381391	5.149704	2.269296
7.673685794993023	5.1664453	2.2729816
7.691252004197388	5.204574	2.2813535
7.70881839441285	5.186479	2.2773843
7.726384966057826	5.215948	2.283845
7.743951719550762	5.1852155	2.2771068
7.761518655310149	5.184275	2.2769003
7.779085773754511	5.1583815	2.271207
7.796653075302419	5.1611743	2.2718217
7.814220560372475	5.1676826	2.2732537
7.831788229383323	5.1832232	2.2766693
7.8493560827536495	5.2225804	2.2852967
7.866924120902174	5.220683	2.2848814
7.884492344247663	5.2458205	2.2903757
7.9020607532089135	5.2322907	2.28742
7.919629348204771	5.217473	2.2841787
7.937198129654115	5.231569	2.2872622
7.954767097975865	5.272681	2.296232
7.972336253588986	5.2789974	2.297607
7.989905596912472	5.3031855	2.3028646
8.007475128365371	5.3137	2.3051465
8.025044848366756	5.4118304	2.326334
8.042614757335754	5.526033	2.3507516
8.060184855691523	5.6208744	2.3708384
8.07775514385327	5.715371	2.3906841
8.095325622240228	5.73864	2.3955457
8.112896291271687	5.7586718	2.3997233
8.130467151366968	5.7694874	2.4019756
8.148038202945436	5.7648563	2.4010115
8.165609446426497	5.723814	2.3924494
8.183180882229594	5.7471485	2.3973212
8.200752510774217	5.732086	2.3941777
8.218324332479893	5.7859774	2.4054058
8.235896347766193	5.840706	2.4167552
8.253468557052724	5.871181	2.423052
8.27104096075914	5.8725257	2.4233294
8.288613559305137	5.9624543	2.4418137
8.306186353110448	6.06032	2.4617717
8.32375934259485	6.1510315	2.4801273
8.341332528178162	6.14821	2.4795585
8.358905910280246	6.1247067	2.4748144
8.376479489321003	6.142762	2.4784596
8.394053265720377	6.171476	2.4842455
8.411627239898356	6.192514	2.4884763
8.42920141227497	6.20063	2.4901063
8.44677578327029	6.174238	2.4848015
8.464350353304427	6.160044	2.4819436
8.48192512279754	6.1696997	2.483888
8.499500092169827	6.1836033	2.4866853
8.51707526184153	6.1332307	2.476536
8.534650632232934	6.0759106	2.4649363
8.552226203764365	6.076554	2.4650667
8.569801976856192	5.9878182	2.447002
8.587377951928834	6.0628004	2.4622755
8.60495412940274	6.1279635	2.4754725
8.622530509698416	6.141078	2.4781199
8.6401070932364	6.223136	2.4946215
8.657683880437283	6.3044124	2.5108588
8.675260871721695	6.5396094	2.557266
8.692838067510303	6.7710004	2.6021147
8.710415468223834	6.913418	2.6293378
8.727993074283043	7.0311785	2.6516368
8.745570886108737	6.9714994	2.6403596
8.763148904121765	6.945503	2.6354322
8.78072712874302	6.9339156	2.6332328
8.798305560393441	7.1632714	2.6764288
8.815884199494006	7.3948793	2.7193527
8.833463046465745	7.6501274	2.7658863
8.851042101729728	7.73767	2.7816668
8.86862136570707	8.030171	2.8337557
8.886200838818924	8.12298	2.8500843
8.903780521486505	8.215632	2.8662925
8.921360414131055	8.338824	2.8877022
8.938940517173874	8.399411	2.8981738
8.956520831036297	8.507113	2.9166956
8.97410135613971	8.746262	2.957408
8.99168209290554	8.850665	2.9750068
9.009263041755265	9.16168	3.0268269
9.026844203110405	9.490852	3.0807228
9.044425577392525	9.720918	3.1178386
9.062007165023239	9.818138	3.133391
9.079588966424197	10.038795	3.1684058
9.097170982017108	10.189668	3.1921258
9.11475321222372	11.182066	3.3439596
9.132335657465825	12.065222	3.4735029
9.149918318165264	12.141002	3.484394
9.167501194743924	12.782648	3.575283
9.18508428762374	12.494633	3.5347748
9.202667597226693	12.531319	3.5399601
9.220251123974803	12.096412	3.4779897
9.237834868290143	11.745836	3.4272199
9.255418830594836	11.513644	3.393176
9.273003011311046	11.120297	3.334711
9.290587410860985	10.920433	3.3046079
9.308172029666911	10.261633	3.2033784
9.32575686815113	9.978737	3.1589139
9.343341926735997	8.692676	2.9483345
9.360927205843916	8.526784	2.9200656
9.378512705897327	8.342652	2.888365
9.396098427318728	8.146618	2.854228
9.413684370530664	7.9730835	2.823665
9.431270535955722	7.804089	2.79358
9.448856924016539	7.7461014	2.783182
9.466443535135806	7.643776	2.7647378
9.484030369736251	7.69348	2.7737124
9.501617428240658	7.6993666	2.7747734
9.519204711071852	7.727972	2.779923
9.536792218652714	7.736842	2.781518
9.55437995140617	7.7260528	2.7795777
9.571967909755191	7.7275853	2.7798536
9.589556094122802	7.7905927	2.7911632
9.60714450493207	7.9197316	2.8142018
9.624733142606116	7.9616656	2.8216424
9.642322007568108	7.9495378	2.8194926
9.659911100241267	7.8667264	2.8047686
9.677500421048851	7.892508	2.8093607
9.695089970414175	7.9385214	2.8175383
9.712679748760609	8.012596	2.830653
9.730269756511557	8.043727	2.8361466
9.747859994090492	8.00999	2.8301926
9.765450461920915	8.0436535	2.8361335
9.78304116042639	8.081929	2.8428733
9.800632090030527	8.098274	2.8457468
9.81822325115699	8.132738	2.8517957
9.835814644229481	8.112374	2.848223
9.853406269671762	8.179757	2.8600276
9.870998127907646	8.158995	2.8563955
9.888590219360985	8.16981	2.858288
9.906182544455698	8.130177	2.8513465
9.923775103615734	8.113663	2.8484492
9.941367897265108	8.127832	2.8509355
9.958960925827878	8.168312	2.8580258
9.97655418972816	8.122321	2.8499687
9.994147689390106	8.139674	2.8530114
10.011741425237934	8.096398	2.845417
10.029335397695904	8.09888	2.845853
10.04692960718833	8.035279	2.8346567
10.06452405413958	7.997599	2.8280027
10.082118738974064	8.07145	2.84103
10.099713662116246	8.112168	2.8481867
10.117308823990651	8.152923	2.8553324
10.134904225021844	8.076186	2.8418632
10.152499865634445	8.035868	2.8347607
10.170095746253125	8.0324335	2.8341548
10.18769186730261	8.084836	2.8433845
10.205288229207675	8.105121	2.8469493
10.222884832393145	8.0487175	2.8370261
10.2404816772839	8.033139	2.8342793
10.258078764304868	8.039202	2.8353486
10.275676093881035	8.038569	2.835237
10.293273666437438	8.006615	2.8295963
10.310871482399158	7.988738	2.8264356
10.32846954219134	7.9891253	2.826504
10.346067846239173	8.006931	2.829652
10.363666394967908	7.938258	2.8174915
10.38126518880283	7.944945	2.818678
10.398864228169298	8.026438	2.8330967
10.416463513492713	8.118401	2.8492806
10.434063045198531	8.1052685	2.8469753
10.451662823712262	8.062294	2.839418
10.469262849459467	8.052531	2.8376982
10.486863122865758	8.012972	2.8307192
10.504463644356806	7.9961934	2.827754
10.522064414358338	7.9762917	2.8242328
10.539665433296118	7.9524307	2.8200054
10.557266701595987	7.8767753	2.8065593
10.574868219683818	7.7357907	2.781329
10.592469987985552	7.6263247	2.76158
10.610072006927185	7.495977	2.737878
10.627674276934751	7.4329576	2.726345
10.64527679843435	7.3301353	2.7074223
10.662879571852143	7.2101684	2.6851757
10.680482597614331	7.1144996	2.667302
10.698085876147173	7.0283904	2.6511111
10.715689407876988	6.9717126	2.6404002
10.733293193230146	6.8504133	2.6173294
10.750897232633072	6.679948	2.5845594
10.76850152651225	6.546331	2.55858
10.786106075294207	6.3979073	2.5294085
10.803710879405534	6.3960896	2.5290492
10.821315939272877	6.4019337	2.5302043
10.83892125532294	6.3715315	2.5241892
10.856526827982472	6.2427073	2.498541
10.874132657678285	6.118689	2.4735985
10.891738744837243	6.0636196	2.4624417
10.909345089886271	6.1075644	2.4713488
10.926951693252343	6.157019	2.4813342
10.944558555362494	6.125519	2.4749784
10.96216567664381	6.0114384	2.4518235
10.979773057523436	5.8518744	2.4190648
10.997380698428573	5.744475	2.3967633
11.014988599786477	5.6597486	2.3790226
11.032596762024461	5.6416397	2.3752136
11.050205185569892	5.6485863	2.3766754
11.067813870850198	5.5588593	2.3577232
11.085422818292859	5.5110917	2.3475714
11.10303202832541	5.408272	2.3255692
11.120641501375454	5.3906436	2.321776
11.138251237870636	5.343785	2.3116627
11.155861238238671	5.2774916	2.2972791
11.173471502907317	5.16921	2.2735896
11.191082032304402	5.0114636	2.2386298
11.208692826857805	4.9121585	2.2163389
11.226303886995465	4.854358	2.203261
11.243915213145371	4.8405685	2.2001293
11.261526805735578	4.8517084	2.2026594
11.279138665194196	4.8333364	2.198485
11.296750791949393	4.7983904	2.190523
11.314363186429393	4.741932	2.1775978
11.331975849062479	4.7312984	2.175155
11.34958878027699	4.6518946	2.156825
11.36720198050133	4.5959992	2.1438282
11.384815450163948	4.5475297	2.1324937
11.402429189693366	4.4829054	2.1172872
11.420043199518153	4.4493136	2.1093397
11.437657480066942	63.39207	7.9619136
11.455272031768422	85.1054	9.225259
11.472886855051353	107.50914	10.368662
11.490501950344528	99.13294	9.9565525
11.508117318076819	84.42657	9.188393
11.52573295867715	45.788216	6.766699
11.543348872574514	4.070463	2.0175388
11.560965060197946	4.08487	2.021106
11.57858152197655	4.06922	2.0172307
11.59619825833949	4.015401	2.0038464
11.613815269715985	3.9718106	1.9929402
11.631432556535323	38.514515	6.2060065
11.649050119226837	82.99656	9.110245
11.666667958219929	93.38647	9.663668
11.68428607394406	107.589264	10.372524
11.701904466828756	82.40532	9.077738
11.719523137303586	65.25292	8.077929
11.737142085798196	4.5293517	2.1282275
11.754761312742286	3.6699696	1.9157164
11.772380818565619	3.6218054	1.9031042
11.790000603698015	3.5823998	1.8927228
11.80762066856935	3.5552096	1.8855263
11.825241013609572	3.5409706	1.8817466
11.842861639248683	3.5238304	1.8771869
11.860482545916748	3.4905097	1.8682905
11.878103734043883	3.3981028	1.8433944
11.895725204060282	3.3487992	1.8299725
11.91334695639619	3.350474	1.83043
11.930968991481919	3.3583257	1.8325735
11.948591309747824	3.3400793	1.8275884
11.966213911624347	3.3140574	1.8204553
11.98383679754198	3.3030648	1.8174336
12.001459967931268	3.2684746	1.8078923
12.019083423222835	3.260663	1.8057306
12.036707163847352	3.216825	1.793551
12.05433119023556	3.177741	1.782622
12.071955502818259	3.108898	1.7632067
12.089580102026313	3.0745604	1.7534424
12.107204988290643	3.1019838	1.761245
12.12483016204224	3.109907	1.7634928
12.142455623712152	3.1181366	1.7658247
12.16008137373149	3.0949476	1.7592463
12.177707412531431	3.0848458	1.7563729
12.19533374054321	3.0567207	1.748348
12.212960358198126	3.0160217	1.7366698
12.230587265927545	2.982567	1.727011
12.248214464162889	2.9847481	1.7276424
12.265841953335649	2.9920166	1.7297447
12.283469733877375	2.9941275	1.7303548
12.301097806219685	2.9732692	1.7243171
12.31872617079425	2.9489899	1.7172623
12.336354828032825	2.9095824	1.7057498
12.353983778367205	2.8802536	1.6971309
12.371613022229262	2.853143	1.689125
12.389242560050928	2.8496392	1.6880875
12.406872392264201	2.8474557	1.6874406
12.424502519301143	2.835147	1.6837895
12.442132941593874	2.8327167	1.6830677
12.459763659574586	2.8042834	1.6745994
12.477394673675532	2.800145	1.6733633
12.49502598432903	2.7827966	1.6681716
12.51265759196746	2.7545567	1.6596857
12.530289497023267	2.7338781	1.6534443
12.547921699928967	2.7372081	1.654451
12.565554201117134	2.7357957	1.6540241
12.583187001020404	2.7105613	1.6463783
12.600820100071486	2.727469	1.6515051
12.618453498703152	2.7415364	1.6557585
12.636087197348235	2.7485855	1.6578858
12.65372119643964	2.7373745	1.6545013
12.671355496410326	2.760988	1.661622
12.68899009769333	2.7764978	1.6662827
12.706625000721749	2.7998848	1.6732856
12.724260205928752	2.8177614	1.6786189
12.741895713747551	2.8480506	1.6876168
12.759531524611454	2.91944	1.7086369
12.777167638953818	2.9392908	1.7144359
12.794804057208072	2.9599748	1.7204577
12.812440779807702	3.0167742	1.7368864
12.830077807186271	3.1798854	1.7832233
12.847715139777405	3.2294095	1.7970557
12.865352778014795	3.4159467	1.848228
12.882990722332197	3.5113285	1.8738539
12.90062897316344	3.5850315	1.893418
12.918267530942412	3.6315873	1.9056724
12.935906396103071	3.5258737	1.877731
12.953545569079449	3.6658509	1.9146411
12.971185050305628	3.5066278	1.8725992
12.988824840215775	3.558079	1.8862871
13.006464939244115	3.6050532	1.8986977
13.024105347824943	3.4580364	1.8595797
13.041746066392617	3.4804335	1.865592
13.05938709538157	3.27348	1.8092761
13.077028435226296	3.2965953	1.8156528
13.094670086361363	3.1945922	1.7873422
13.112312049221401	3.1168287	1.7654543
13.129954324241112	3.0154848	1.7365152
13.147596911855258	2.780384	1.6674484
13.165239812498685	2.7417169	1.6558131
13.182883026606293	2.6858475	1.6388556
13.200526554613058	2.6894689	1.63996
13.218170396954017	2.6713872	1.6344379
13.235814554064284	2.6466393	1.6268495
13.253459026379034	2.6589775	1.6306372
13.271103814333523	2.6388443	1.624452
13.288748918363058	2.640525	1.6249692
13.306394338903031	2.6678896	1.6333675
13.32404007638889	2.6816187	1.6375649
13.341686131256164	2.6865294	1.6390636
13.359332503940449	2.6234713	1.6197133
13.376979194877402	2.6091034	1.6152719
13.394626204502751	2.6220984	1.6192895
13.412273533252307	2.641874	1.6253843
13.429921181561937	2.6623654	1.6316756
13.447569149867581	2.6796293	1.6369573
13.465217438605247	2.6722357	1.6346974
13.482866048211022	2.6735291	1.635093
13.500514979121052	2.6744468	1.6353736
13.518164231771568	2.6644895	1.6323264
13.535813806598844	2.658056	1.6303545
13.553463704039254	2.611653	1.616061
13.571113924529229	2.5821688	1.6069129
13.588764468505275	2.593276	1.6103652
13.606415336403956	2.661928	1.6315416
13.624066528661917	2.7180417	1.6486484
13.641718045715882	2.7770658	1.666453
13.659369888002635	2.8062904	1.6751986
13.67702205595903	2.8534238	1.689208
13.694674550021993	2.9130316	1.7067605
13.712327370628532	2.9529457	1.7184137
13.729980518215713	3.0224998	1.7385339
13.747633993220681	3.0830262	1.7558548
13.765287796080647	3.1677732	1.7798239
13.7829419272329	3.2033129	1.7897801
13.800596387114801	3.242283	1.800634
13.818251176163775	3.2358527	1.7988476
13.835906294817324	3.3023303	1.8172315
13.853561743513023	3.3674834	1.8350704
13.871217522688525	3.4370933	1.8539399
13.888873632781538	3.4409325	1.8549751
13.906530074229858	3.434882	1.8533435
13.92418684747135	3.4208477	1.8495533
13.941843952943948	3.4867423	1.867282
13.959501391085665	3.4751627	1.8641789
13.977159162334578	3.4016593	1.8443588
13.994817267128846	3.3256416	1.8236341
14.012475705906693	3.2045124	1.7901152
14.030134479106424	3.1692677	1.7802438
14.047793587166414	3.121454	1.7667637
14.065453030525108	3.0693445	1.7519544
14.083112809621026	3.0286703	1.7403076
14.100772924892766	2.9892507	1.7289449
14.118433376778997	2.8967054	1.701971
14.136094165718458	2.8199613	1.6792741
14.153755292149969	2.7608314	1.661575
14.171416756512416	2.6876538	1.6394066
14.189078559244768	2.6015737	1.6129395
14.20674070078606	2.5576837	1.599276
14.224403181575408	2.5140176	1.5855653
14.242066002051999	2.463451	1.5695385
14.259729162655093	2.4126668	1.5532762
14.277392663824022	2.4085884	1.5519627
14.295056505998208	2.4250956	1.5572718
14.312720689617128	2.3943195	1.5473589
14.330385215120348	2.3654757	1.5380102
14.348050082947497	2.3288693	1.5260633
14.3657152935383	2.3741174	1.5408171
14.383380847332528	2.3778827	1.5420384
14.401046744770051	2.3778286	1.5420209
14.418712986290798	2.3749716	1.5410943
14.436379572334793	2.3403137	1.5298084
14.454046503342123	2.3244622	1.5246187
14.471713779752946	2.3390553	1.529397
14.489381402007504	2.3409607	1.5300199
14.507049370546113	2.3617158	1.5367875
14.524717685809168	2.3466237	1.5318693
14.542386348237134	2.376467	1.5415794
14.560055358270553	2.3647707	1.5377811
14.577724716350051	2.3888853	1.545602
14.595394422916325	2.4052646	1.5508915
14.61306447841015	2.4462924	1.5640628
14.63073488327237	2.489784	1.5779049
14.648405637943917	2.491213	1.5783577
14.6660767428658	2.4858284	1.576651
14.683748198479094	2.472405	1.5723883
14.701420005224954	2.4848642	1.5763452
14.719092163544628	2.5327795	1.5914708
14.73676467387942	2.5786788	1.6058265
14.754437536670727	2.5832453	1.6072477
14.772110752360014	2.5962598	1.6112914
14.78978432138882	2.5803335	1.6063416
14.807458244198777	2.6379423	1.6241744
14.82513252123159	2.6435485	1.6258993
14.842807152929028	2.6962657	1.642031
14.860482139732962	2.6907215	1.6403419
14.87815748208531	2.66195	1.6315484
14.8958331804281	2.6682913	1.6334906
14.91350923520342	2.6488433	1.6275268
14.931185646853438	2.6780906	1.6364872
14.948862415820408	2.6455245	1.6265068
14.966539542546656	2.633798	1.622898
14.98421702747459	2.5866733	1.6083138
15.001894871046696	2.605218	1.6140687
15.019573073705542	2.6242948	1.6199675
15.037251635893766	2.6166282	1.6175995
15.054930558054092	2.6422482	1.6254994
15.072609840629323	2.642607	1.6256098
15.090289484062351	2.772718	1.665148
15.107969488796124	2.9278162	1.7110863
15.125649855273691	3.1891418	1.7858168
15.14333058393817	3.5327058	1.8795494
15.161011675232768	4.09249	2.0229905
15.17869312960076	4.7126036	2.1708531
15.196374947485506	5.423704	2.3288848
15.214057129330447	6.7306356	2.5943468
15.231739675579114	8.8824	2.9803355
15.249422586675102	13.551507	3.6812372
15.267105863062092	18.145742	4.259782
15.284789505183847	25.483215	5.0480905
15.302473513484218	30.533667	5.5257277
15.320157888407127	34.707054	5.891269
15.337842630396578	33.468723	5.785216
15.355527739896656	30.51245	5.5238075
15.37321321735153	23.73071	4.8714175
15.39089906320545	16.142815	4.0178123
15.408585277902748	10.370137	3.2202697
15.42627186188783	6.4076734	2.5313382
15.443958815605198	4.552187	2.1335855
15.461646139499424	3.7318997	1.9318125
15.479333834015168	3.2721336	1.8089039
15.497021899597165	2.9793766	1.7260871
15.514710336690234	2.790954	1.6706148
15.53239914573928	2.6530879	1.6288302
15.550088327189297	2.5791488	1.6059729
15.567777881485336	2.5125186	1.5850927
15.58546780907256	2.4856253	1.5765866
15.6031581103962	2.4458215	1.5639123
15.620848785901568	2.4677963	1.5709221
15.638539836034063	2.4964762	1.5800241
15.656231261239173	2.4660692	1.5703723
15.673923061962451	2.4047995	1.5507416
15.691615238649552	2.4115708	1.5529233
15.709307791746202	2.4261584	1.557613
15.727000721698221	2.4407365	1.5622857
15.744694028951498	2.424192	1.5569817
15.76238771395202	2.4115853	1.552928
15.780081777145844	2.44272	1.5629203
15.797776218979125	2.42518	1.5572989
15.815471039898094	2.4205291	1.555805
15.833166240349064	2.4053955	1.5509337
15.850861820778437	2.4117794	1.5529904
15.868557781632699	2.421822	1.5562204
15.886254123358412	2.422491	1.5564353
15.903950846402232	2.4289498	1.5585089
15.921647951210897	2.486809	1.576962
15.939345438231225	2.5265076	1.5894991
15.957043307910133	2.5267334	1.5895702
15.974741560694602	2.4980826	1.5805324
15.992440197031714	2.485205	1.5764533
16.01013921736862	2.4977052	1.580413
16.02783862215259	2.4812431	1.5751963
16.045538411830933	2.447886	1.5645721
16.06323858685107	2.4218044	1.5562148
16.080939147660512	2.4136617	1.5535964
16.09864009470684	2.3815746	1.5432351
16.11634142843774	2.3859482	1.5446515
16.134043149300954	2.3924136	1.5467429
16.15174525774433	2.4015949	1.549708
16.169447754215817	2.398535	1.5487205
16.18715063916342	2.386876	1.5449518
16.204853913035244	2.385214	1.5444138
16.222557576279478	2.38878	1.5455679
16.240261629344403	22.389605	4.7317653
16.257966072678386	42.940437	6.5528955
16.275670906729868	38.07141	6.1702037
16.293376131947387	2.5130045	1.5852458
16.31108174877957	2.5188842	1.5870993
16.328787757675133	2.5047722	1.5826472
16.34649415908287	2.518447	1.5869615
16.364200953451657	2.57739	1.6054251
16.38190814123048	2.5836465	1.6073725
16.39961572286839	2.5956268	1.611095
16.41732369881455	2.6532469	1.6288791
16.43503206951817	2.705922	1.6449686
16.45274083542859	2.73311	1.653212
16.47044999699522	2.753537	1.6593785
16.488159554667558	2.798629	1.6729103
16.505869508895184	2.8796787	1.6969616
16.523579860127786	2.9170508	1.7079376
16.541290608815117	2.9782968	1.7257743
16.559001755407035	3.070647	1.7523261
16.57671330035348	3.1913636	1.7864388
16.59442524410448	3.2695444	1.8081882
16.61213758711015	3.4069157	1.8457832
16.629850329820705	3.439251	1.8545218
16.647563472686436	3.5031033	1.8716578
16.665277016157724	3.4513848	1.8577904
16.682990960685053	3.487848	1.8675781
16.70070530671898	3.4824193	1.8661242
16.718420054710155	3.5002732	1.8709017
16.736135205109335	3.4831293	1.8663144
16.753850758367335	3.5170808	1.8753881
16.771566714935087	3.588743	1.8943977
16.789283075263597	3.6381276	1.9073876
16.80699983980398	3.674244	1.9168317
16.82471700900741	3.7294333	1.931174
16.84243458332518	3.8468316	1.9613341
16.860152563208665	3.9525504	1.9881022
16.87787094910932	3.9914503	1.9978614
16.89558974147871	4.0606713	2.0151107
16.913308940768466	4.1486125	2.0368142
16.931028547430333	4.2535567	2.0624154
16.94874856191613	4.3211155	2.0787294
16.966468984677785	4.3234844	2.079299
16.98418981616729	4.2919803	2.0717094
17.00191105683676	4.282613	2.0694475
17.019632707138374	4.318589	2.0781217
17.03735476752442	4.4332256	2.1055226
17.05507723844728	4.521886	2.1264727
17.072800120359403	4.598759	2.144472
17.090523413713353	4.6300845	2.1517632
17.108247118961785	4.619196	2.1492314
17.125971236557437	4.592866	2.1430972
17.143695766953133	4.62079	2.1496022
17.161420710601806	4.664042	2.1596394
17.179146067956477	4.667949	2.1605437
17.19687183947025	4.64448	2.1551056
17.21459802559634	4.624119	2.1503763
17.232324626788028	4.5691013	2.1375456
17.25005164349871	4.5745115	2.1388109
17.267779076181863	4.529528	2.1282687
17.285506925291074	4.5224814	2.1266127
17.30323519127999	4.487053	2.1182666
17.320963874602384	4.4685674	2.1138985
17.33869297571211	4.4540277	2.1104567
17.356422495063114	4.470922	2.1144555
17.37415243310944	4.4510865	2.1097598
17.391882790305218	4.4735055	2.1150663
17.40961356710468	4.49264	2.1195848
17.42734476396215	4.5307975	2.128567
17.445076381332044	4.597096	2.144084
17.462808419668868	4.6274858	2.151159
17.48054087942723	4.696731	2.1671944
17.498273761061835	4.7918987	2.1890407
17.51600706502747	5.1332197	2.265661
17.533740791779024	5.713711	2.390337
17.551474941771485	6.60994	2.5709803
17.56920951545993	8.49651	2.9148772
17.586944513299528	9.756697	3.1235712
17.60467993574556	12.613617	3.5515654
17.622415783253373	15.306607	3.912366
17.64015205627843	18.177496	4.2635074
17.657888755276293	20.748508	4.555053
17.675625880702604	22.334808	4.7259717
17.69336343301311	20.89915	4.571559
17.71110141266366	18.711382	4.3256655
17.728839820110178	15.871212	3.983869
17.746578655808705	12.710847	3.5652275
17.764317920215372	10.54289	3.2469816
17.7820576137864	8.788435	2.9645295
17.79979773697811	7.414886	2.723029
17.81753829024692	6.069106	2.4635556
17.835279274049356	5.2846317	2.2988327
17.85302068884201	4.484395	2.117639
17.870762535081607	4.0641823	2.0159817
17.888504813224934	3.795005	1.9480773
17.90624752372891	3.6454813	1.9093144
17.923990667050536	3.5253065	1.8775799
17.941734243646895	3.4827592	1.8662152
17.959478253975185	3.4609067	1.8603512
17.9772226984927	3.4467645	1.8565464
17.994967577656833	3.4092124	1.8464053
18.01271289192506	3.391692	1.8416547
18.030458641754965	3.400798	1.8441253
18.04820482760425	3.374364	1.8369442
18.06595144993067	3.2834225	1.8120216
18.083698509192125	3.2233994	1.7953829
18.101446005846576	3.2246308	1.7957257
18.119193940352105	3.2699833	1.8083096
18.136942313166887	3.2647116	1.8068513
18.1546911247492	3.2147727	1.7929788
18.1724403755574	3.1675956	1.7797741
18.19019006604997	3.155531	1.7763814
18.207940196685467	3.1332784	1.7701069
18.225690767922575	3.129062	1.7689154
18.243441780220046	3.1158073	1.765165
18.261193234036764	3.1230357	1.7672113
18.278945129831676	3.1165314	1.76537
18.29669746806386	3.1015365	1.7611179
18.314450249192483	3.059163	1.7490463
18.3322034736768	3.017957	1.7372268
18.349957141976184	3.004588	1.7333747
18.3677112545501	3.015984	1.7366589
18.385465811858108	3.03439	1.74195
18.403220814359884	3.0188231	1.7374761
18.420976262515172	3.0680764	1.7515925
18.43873215678387	3.1383069	1.7715267
18.456488497625923	3.1738727	1.7815366
18.474245285501407	3.190217	1.7861179
18.492002520870486	3.223003	1.7952724
18.50976020419343	3.2864683	1.8128619
18.527518335930615	3.563623	1.8877561
18.545276916542516	4.1172276	2.0290952
18.563035946489688	4.2926497	2.071871
18.580795426232832	4.683446	2.164127
18.598555356232698	4.560921	2.1356313
18.616315736950185	4.856878	2.2038326
18.63407656884626	4.54713	2.1324
18.65183785238201	4.7141747	2.171215
18.669599588018617	4.515867	2.125057
18.68736177621737	4.4821873	2.1171176
18.705124417439652	4.5130515	2.1243944
18.72288751214696	4.3751583	2.091688
18.740651060800886	4.507117	2.122997
18.758415063863115	4.2499614	2.0615435
18.77617952179546	4.4135723	2.1008503
18.793944435059814	4.1858864	2.045944
18.811709804118184	4.1897373	2.0468848
18.829475629432675	4.1686664	2.041731
18.8472419114655	3.9338796	1.9834011
18.86500865067897	3.978691	1.9946656
18.88277584753551	3.644607	1.9090854
18.90054350249763	3.7244575	1.9298854
18.918311616027957	3.449636	1.8573196
18.936080188589226	3.337561	1.8268993
18.953849220644265	2.9990537	1.7317777
18.971618712656007	2.8365448	1.6842045
18.9893886650875	2.7759476	1.6661175
19.007159078401887	7.952563	2.8200288
19.024929953062408	32.86624	5.7329087
19.042701289532435	32.841057	5.730712
19.060473088275405	25.395205	5.0393653
19.07824534975489	2.6842391	1.6383648
19.096018074434568	2.656487	1.6298733
19.113791262778197	2.6165788	1.6175842
19.13156491524966	2.5859447	1.6080873
19.149339032312945	2.5529668	1.5978006
19.167113614432136	2.5496879	1.5967742
19.184888662071433	2.53129	1.5910028
19.202664175695123	2.5064118	1.5831652
19.220440155767623	2.4901164	1.5780102
19.238216602753447	2.5020452	1.5817854
19.2559935171172	2.5378659	1.5930681
19.27377089932361	2.5236933	1.5886136
19.291548749837514	2.507804	1.5836047
19.309327069123835	2.4866285	1.5769048
19.32710585764763	2.4872632	1.577106
19.344885115874032	2.5026028	1.5819618
19.362664844268313	2.5009327	1.5814338
19.380445043295822	2.4902794	1.5780619
19.39822571342203	2.4718428	1.5722095
19.41600685511252	2.4388504	1.5616819
19.43378846883297	2.4469597	1.5642761
19.451570555049173	2.456415	1.5672954
19.469353114227037	2.4551592	1.5668948
19.48713614683254	2.457668	1.5676951
19.50491965333182	2.474606	1.573088
19.52270363419109	2.4786823	1.5743831
19.540488089876686	2.4705126	1.5717864
19.55827302085503	2.4636471	1.5696009
19.576058427592674	2.4696548	1.5715135
19.593844310556282	2.4533803	1.566327
19.611630670212598	2.4769862	1.5738444
19.629417507028506	2.494106	1.5792739
19.64720482147098	2.516299	1.5862846
19.6649926140071	2.4950948	1.5795869
19.682780885104084	2.5109432	1.5845956
19.70056963522921	2.4986982	1.5807271
19.718358864849908	2.5001037	1.5811716
19.7361485744337	2.4995546	1.580998
19.753938764448215	2.5058594	1.5829906
19.771729435361202	2.514403	1.5856869
19.789520587640506	2.4915276	1.5784574
19.807312221754092	2.4752896	1.5733052
19.825104338170043	2.4403048	1.5621475
19.842896937356517	2.4161131	1.5543852
19.860690019781824	2.4573674	1.5675993
19.87848358591436	2.5176992	1.586726
19.896277636222635	2.5409029	1.594021
19.914072171175278	2.492749	1.5788442
19.931867191241015	2.4974763	1.5803406
19.94966269688869	2.4974642	1.5803367
19.967458688587264	2.50775	1.5835878
19.985255166805807	2.4722347	1.5723342
20.00305213201348	2.4400163	1.5620551
20.020849584679578	2.4492714	1.5650148
20.038647525273507	2.4988163	1.5807644
20.05644595426477	2.52425	1.5887889
20.07424487212299	2.4727995	1.5725138
20.092044279317903	2.444192	1.5633912
20.109844176319353	2.3874123	1.5451254
20.127644563597304	2.3844426	1.5441641
20.145445441621817	2.3831728	1.5437528
20.16324681086307	2.3681881	1.5388919
20.181048671791373	2.3394692	1.5295323
20.198851024877122	2.3381178	1.5290905
20.216653870590836	2.347962	1.5323061
20.234457209403146	2.3523178	1.5337268
20.252261041784802	2.377239	1.5418297
20.270065368206662	2.3960268	1.5479105
20.287870189139685	2.3994067	1.5490018
20.305675505054968	2.3925624	1.546791
20.323481316423702	2.3464038	1.5317975
20.341287623717207	2.3262568	1.5252072
20.359094427406884	2.304212	1.5179632
20.376901727964288	2.3498726	1.5329294
20.39470952586107	2.3290412	1.5261197
20.41251782156899	2.2713754	1.5071083
20.430326615559935	2.2483063	1.4994353
20.448135908305886	2.263629	1.5045362
20.465945700278965	2.3165617	1.5220255
20.483755991951384	2.334723	1.5279801
20.50156678379548	2.3511405	1.533343
20.519378076283708	2.3286068	1.5259774
20.537189869888635	2.304025	1.5179015
20.55500216508294	2.2856574	1.511839
20.572814962339415	2.2881298	1.5126566
20.59062826213098	2.3012733	1.5169948
20.60844206493066	2.2922025	1.5140021
20.626256371211593	2.2777739	1.5092295
20.644071181447032	2.3143072	1.5212847
20.66188649611036	2.3298085	1.526371
20.67970231567506	2.2849822	1.5116158
20.697518640614742	2.2237055	1.4912094
20.715335471403122	2.2324648	1.4941435
20.73315280851404	2.2700348	1.5066634
20.750970652421447	2.2633314	1.5044372
20.768789003599412	2.2399385	1.4966424
20.786607862522136	2.267062	1.5056766
20.8044272296639	2.271967	1.5073045
20.82224710549913	2.2894237	1.5130842
20.84006749050237	2.3009546	1.5168898
20.857888385148268	3.8707664	1.9674263
20.8757097899116	45.996906	6.782102
20.893531705267254	64.86364	8.053797
20.911354131690224	83.841484	9.1565
20.92917706965566	69.04664	8.309431
20.94700051963877	50.106297	7.07858
20.96482448211493	29.401937	5.422355
20.982648957559622	4.175225	2.0433366
21.00047394644843	2.2646754	1.5048839
21.01829944925707	2.2484884	1.4994961
21.036125466461375	2.2092752	1.486363
21.053951998537297	2.194325	1.4813254
21.071779045960906	2.1786582	1.4760278
21.089606609208378	2.1727898	1.4740386
21.10743468875603	2.1362143	1.4615793
21.12526328508028	2.1435428	1.4640843
21.143092398657675	2.1519604	1.4669561
21.16092202996488	2.1884882	1.479354
21.17875217947867	2.1757689	1.4750488
21.19658284767596	2.1940649	1.4812376
21.21441403503377	2.1818886	1.4771217
21.232245742029225	2.1593504	1.4694729
21.2500779691396	2.1739743	1.4744403
21.26791071684227	2.173032	1.4741207
21.28574398561475	2.1527486	1.4672248
21.30357777593465	2.1016517	1.4497074
21.321412088279704	2.1068466	1.451498
21.339246923127792	2.112786	1.4535426
21.357082280956888	2.1060038	1.4512076
21.3749181622451	2.1127934	1.4535451
21.392754567470647	2.106239	1.4512888
21.41059149711187	2.0874023	1.4447845
21.42842895164726	2.0939233	1.4470395
21.446266931555378	2.10231	1.4499345
21.464105437314945	2.109544	1.4524269
21.481944469404798	2.1023734	1.4499563
21.49978402830388	2.1117358	1.4531813
21.51762411449127	2.1193185	1.4557879
21.53546472844617	2.0992904	1.4488928
21.553305870647876	2.0525553	1.4326742
21.571147541575865	2.0342762	1.4262806
21.58898974170967	2.0344417	1.4263386
21.60683247152899	2.0496795	1.4316702
21.62467573151363	2.0631058	1.4363515
21.642519522143523	2.0660286	1.4373686
21.660363843898722	2.046289	1.4304856
21.6782086972594	2.0329256	1.425807
21.696054082705864	2.032591	1.4256897
21.713900000718535	2.0476708	1.4309685
21.73174645177795	2.0792015	1.4419436
21.749593436364794	2.0800717	1.4422454
21.767440954959845	2.057635	1.4344459
21.785289008044032	2.0449126	1.4300044
21.803137596098388	2.03889	1.427897
21.820986719604086	2.0657675	1.4372778
21.838836379042412	2.061411	1.4357615
21.85668657489478	2.0236993	1.4225678
21.87453730764273	1.9693059	1.4033196
21.892388577767914	1.9766028	1.405917
21.91024038575213	1.9688236	1.4031477
21.928092732077285	1.9978375	1.4134488
21.945945617225426	2.0253959	1.423164
21.963799041678694	2.0190885	1.4209464
21.981653005919398	31.309414	5.5954814
21.999507510429943	78.11845	8.838464
22.01736255569286	73.064384	8.5477705
22.035218142190818	4.1484103	2.0367646
22.05307427040661	1.9812474	1.4075679
22.07093094082315	2.017572	1.4204125
22.088788153923474	2.0127466	1.418713
22.106645910190746	2.0182233	1.4206419
22.12450421010827	2.012094	1.418483
22.142363054159464	2.0277348	1.4239855
22.16022244282787	2.0055354	1.4161693
22.178082376597164	1.9641204	1.4014708
22.195942855951145	1.941514	1.3933822
22.213803881373742	1.941388	1.393337
22.231665453349002	1.9299257	1.3892176
22.24952757236111	1.9055823	1.3804283
22.26739023889438	1.8975552	1.3775178
22.28525345343323	1.9267759	1.3880836
22.30311721646225	1.9809927	1.4074774
22.320981528466113	1.972858	1.4045846
22.33884638992964	1.9623367	1.4008343
22.356711801337788	1.9153562	1.383964
22.37457776317561	1.9190046	1.3852814
22.392444275928337	1.9359039	1.3913677
22.410311340081282	1.9411458	1.3932501
22.428178956119904	1.9459102	1.3949589
22.446047124529805	1.9830139	1.4081953
22.46391584579669	1.9953936	1.4125841
22.481785120406414	1.9790986	1.4068043
22.49965494884496	1.9717423	1.4041874
22.51752533159841	1.9464569	1.3951548
22.53539626915302	1.9252433	1.3875314
22.553267761995137	1.9196371	1.3855097
22.571139810611264	1.917015	1.3845631
22.589012415488025	1.897783	1.3776004
22.60688557711216	1.9167446	1.3844655
22.624759295970566	1.9728036	1.4045652
22.642633572550263	1.9839599	1.4085311
22.660508407338362	1.961535	1.4005481
22.67838380082217	1.9294283	1.3890387
22.696259753489077	1.9383813	1.3922577
22.714136265826614	1.9414414	1.3933562
22.73201333832246	1.9319122	1.3899324
22.74989097146439	1.9350473	1.3910598
22.76776916574035	1.9219819	1.3863556
22.785647921638393	1.9380268	1.3921303
22.803527239646712	1.8969713	1.3773059
22.82140712025363	1.8955839	1.3768021
22.839287563947593	1.910491	1.3822051
22.85716857121719	1.9198529	1.3855876
22.875050142551135	1.8966191	1.377178
22.892932278438277	1.8701183	1.3675227
22.910814979367604	1.863374	1.3650546
22.928698245828222	1.8733923	1.3687192
22.946582078309387	1.8647859	1.3655716
22.96446647730047	1.8680387	1.3667622
22.98235144329098	1.8442626	1.3580363
23.000236976770562	1.8488451	1.3597225
23.018123078229	1.8596221	1.3636796
23.03600974815619	1.8855481	1.3731526
23.053896987042194	1.8932793	1.3759649
23.071784795377173	1.8778892	1.370361
23.08967317365145	1.8866563	1.373556
23.10756212235546	1.8828113	1.3721557
23.125451641979787	1.8798158	1.3710637
23.143341733015134	1.8843492	1.372716
23.161232395952357	1.8745756	1.3691515
23.179123631282426	1.8779337	1.3703772
23.197015439496468	1.8791412	1.3708177
23.214907821085717	1.9138932	1.3834352
23.23280077654157	1.8497262	1.3600464
23.250694306355538	1.8389769	1.3560888
23.268588411019277	1.838993	1.3560947
23.28648309102458	1.8770658	1.3700604
23.304378346863356	1.8837376	1.3724931
23.322274179027676	1.8795605	1.3709706
23.340170588009723	1.8915508	1.3753366
23.358067574301852	1.8867005	1.3735722
23.37596513839651	1.9073032	1.3810515
23.39386328078629	1.9276371	1.3883938
23.411762001963947	1.9265817	1.3880136
23.429661302422353	1.9219118	1.3863304
23.4475611826545	1.9121462	1.3828038
23.46546164315356	1.9026837	1.3793781
23.48336268441279	1.921614	1.386223
23.501264306925638	1.898736	1.3779463
23.51916651118564	1.9193162	1.3853939
23.537069297686497	1.9227037	1.386616
23.554972666922037	1.9245703	1.3872888
23.57287661938623	1.9021568	1.379187
23.59078115557318	1.8633046	1.3650292
23.608686275977128	1.882315	1.3719748
23.62659198109246	1.8944576	1.376393
23.6444982714137	1.9251553	1.3874997
23.66240514743549	1.9097501	1.381937
23.68031260965263	1.9164916	1.3843741
23.698220658560068	1.9236767	1.3869667
23.716129294652845	1.9211562	1.3860577
23.7340385184262	1.897858	1.3776277
23.75194833037546	1.8962245	1.3770347
23.769858730996123	1.8787432	1.3706726
23.78776972078382	1.8621631	1.3646109
23.80568130023431	1.8788222	1.3707013
23.823593469843495	1.8712778	1.3679466
23.841506230107424	1.8190889	1.348736
23.859419581522275	1.7980214	1.3409032
23.87733352458438	1.8749578	1.369291
23.89524805979019	1.9877979	1.4098928
23.913163187636318	2.0133734	1.4189339
23.931078908619508	1.9679872	1.4028497
23.948995223236633	2.0193374	1.421034
23.966912131984735	2.0741062	1.4401758
23.98482963536096	2.0732088	1.4398642
24.002747733862616	2.0340903	1.4262154
24.020666427987155	2.0552294	1.4336071
24.038585718232156	2.0470622	1.4307559
24.056505605095353	2.027291	1.4238297
24.074426089074617	2.0710547	1.439116
24.092347170667946	2.1064923	1.451376
24.110268850373515	2.0721042	1.4394805
24.128191128689586	2.0431714	1.4293954
24.146114006114626	1.9976124	1.4133692
24.164037483147187	1.9811974	1.4075501
24.181961560286005	1.9903102	1.4107835
24.199886238029926	1.9815403	1.4076719
24.21781151687797	2.0159006	1.4198241
24.235737397329274	2.0372837	1.4273344
24.253663879883135	2.0493145	1.4315428
24.271590965038975	2.039322	1.4280483
24.289518653296376	2.0445452	1.429876
24.30744694515505	2.072867	1.4397454
24.32537584111486	2.0538032	1.4331096
24.34330534167581	2.0359783	1.4268771
24.361235447338046	2.021153	1.4216726
24.379166158601876	1.9977064	1.4134024
24.39709747596772	1.9810648	1.407503
24.41502939993615	1.9889036	1.410285
24.432961931007917	2.011983	1.4184438
24.450895069683856	1.9855736	1.4091039
24.468828816465	1.9682627	1.4029479
24.4867631718525	1.9498736	1.3963788
24.504698136347656	1.9406431	1.3930696
24.52263371045192	1.9391654	1.3925391
24.540569894666874	1.9151121	1.3838757
24.558506689494266	1.8818005	1.3717873
24.57644409543597	1.8315016	1.3533298
24.594382112994012	1.8404162	1.3566194
24.61232074267057	1.8802582	1.3712251
24.630259984967953	1.9264461	1.3879647
24.64819984038863	1.9293878	1.389024
24.66614030943522	1.932219	1.3900428
24.684081392610462	1.9934106	1.4118819
24.702023090417274	2.004502	1.4158044
24.7199654033587	2.0028782	1.4152308
24.737908331937927	1.9730588	1.4046562
24.755851876658305	1.9820205	1.4078425
24.773796038023324	2.0215611	1.4218161
24.79174081653661	2.0718088	1.4393779
24.809686212701962	2.0984282	1.4485953
24.827632227023294	2.10091	1.4494516
24.8455788600047	2.113633	1.4538338
24.8635261121504	2.1011436	1.4495322
24.88147398396475	2.104628	1.4507337
24.899422475952303	2.1155717	1.4545006
24.917371588617698	2.1529078	1.4672791
24.935321322465768	2.219553	1.4898164
24.953271678001478	2.3531492	1.5339978
24.97122265572994	2.5174148	1.5866363
24.989174256156414	2.8810956	1.697379
25.00712647978632	3.4364607	1.8537693
25.02507932712521	4.3755546	2.0917826
25.043032798678798	5.7722607	2.4025528
25.060986894952933	7.4491587	2.7293148
25.078941616453637	9.03989	3.0066411
25.096896963687055	10.06214	3.1720877
25.114852937159508	10.637221	3.2614753
25.132809537377444	10.355164	3.217944
25.150766764847468	9.597348	3.0979588
25.168724620076347	8.31203	2.883059
25.186683103570985	7.0517745	2.6555178
25.204642215838426	5.6861343	2.3845618
25.222601957385894	4.6218286	2.149844
25.24056232872074	3.6196463	1.9025367
25.25852333035048	2.8897974	1.6999404
25.276484962782778	2.3990405	1.5488837
25.294447226525435	2.1973143	1.482334
25.312410122086423	2.131307	1.4598997
25.330373649973843	2.0354521	1.4266927
25.348337810695988	1.9581274	1.3993311
25.366302604761245	1.9141057	1.383512
25.384268032678207	1.9376742	1.3920037
25.40223409495558	1.9215939	1.3862157
25.420200792102257	1.9077952	1.3812296
25.438168124627246	1.9113908	1.3825306
25.45613609303974	1.9165754	1.3844043
25.474104697849057	1.9057075	1.3804736
25.492073939564698	1.9123484	1.3828769
25.510043818696285	1.8818232	1.3717957
25.528014335753614	1.8934073	1.3760114
25.54598549124664	1.9042073	1.3799301
25.56395728568544	1.9190484	1.3852972
25.58192971958028	1.8652145	1.3657285
25.59990279344156	1.8322934	1.3536223
25.617876507779833	1.795747	1.3400549
25.635850863105826	1.804421	1.3432873
25.653825859930386	1.8228208	1.3501188
25.671801498764548	1.8452305	1.3583926
25.68977778011949	1.82227	1.3499148
25.707754704506524	1.8266563	1.3515385
25.725732272437153	1.848277	1.3595135
25.743710484423012	1.8360374	1.3550045
25.761689340975888	1.8352776	1.3547242
25.77966884260774	1.8440092	1.3579429
25.797648989830662	1.8322792	1.3536171
25.815629783156922	1.8022475	1.3424782
25.83361122309895	1.834462	1.3544232
25.85159331016929	1.8713131	1.3679595
25.869576044880695	1.8611028	1.3642224
25.887559427746034	1.8445795	1.358153
25.90554345927836	1.8539684	1.361605
25.92352813999086	1.8603696	1.3639537
25.94151347039689	1.8733578	1.3687066
25.959499451009965	1.8457528	1.3585849
25.97748608234374	1.7869766	1.3367784
25.995473364912062	1.8009263	1.341986
26.013461299228904	1.8290931	1.3524396
26.03144988580839	1.8492991	1.3598894
26.04943912516483	1.8307106	1.3530376
26.067429017812675	1.8280038	1.352037
26.085419564266537	1.8077636	1.3445309
26.103410765041186	1.8248205	1.3508592
26.12140262065155	1.830744	1.3530499
26.139395131612723	1.845535	1.3585047
26.157388298439948	1.8125756	1.3463193
26.17538212164861	1.8015167	1.3422059
26.193376601754295	1.8017842	1.3423055
26.211371739272714	1.7706872	1.3306717
26.229367534719746	1.746545	1.3215691
26.247363988611433	1.766123	1.3289557
26.26536110146397	1.7847584	1.3359485
26.283358873793727	1.8113333	1.3458579
26.301357306117204	1.8396896	1.3563516
26.319356398951104	1.8129343	1.3464525
26.33735615281224	1.8153293	1.3473415
26.35535656821762	1.8217529	1.3497232
26.373357645684404	1.830701	1.353034
26.39135938572991	1.8314786	1.3533213
26.409361788871614	1.8169664	1.3479489
26.427364855627165	1.8169603	1.3479468
26.445368586514352	1.8371075	1.3553994
26.46337298205115	1.8152515	1.3473127
26.48137804275568	1.8178012	1.3482586
26.499383769146217	1.8056525	1.3437457
26.517390161741215	1.8147061	1.3471103
26.53539722105928	1.8356373	1.354857
26.553404947619182	1.869171	1.3671763
26.571413341939856	1.8586257	1.3633143
26.589422404540397	1.8004407	1.341805
26.60743213594006	1.7865983	1.3366369
26.62544253665827	1.7934666	1.3392037
26.64345360721459	1.8010299	1.3420246
26.66146534812879	1.760168	1.3267132
26.679477759920758	1.7657709	1.3288231
26.69749084311057	1.7764176	1.3328232
26.71550459821847	1.7737802	1.3318334
26.733519025764842	1.7651931	1.3286057
26.751534126270258	1.7798129	1.3340963
26.769549900255434	1.8136585	1.3467214
26.787566348241267	1.7819089	1.3348815
26.80558347074881	1.7427914	1.3201482
26.823601268299267	1.7851003	1.3360765
26.841619741414036	1.8201367	1.3491244
26.85963889061465	1.8299431	1.3527539
26.877658716422832	1.8453455	1.3584349
26.89567921936045	1.8549856	1.3619785
26.913700399949544	1.8459144	1.3586444
26.93172225871233	1.8160595	1.3476125
26.949744796171174	1.7798158	1.3340974
26.967768012848605	1.7448541	1.3209293
26.98579190926733	1.7341037	1.3168538
27.003816485950225	1.7504679	1.3230525
27.021841743420318	1.7819847	1.33491
27.039867682200814	1.764705	1.328422
27.057894302815072	1.7736189	1.3317728
27.07592160578664	1.7309473	1.3156546
27.0939495916392	1.7524093	1.323786
27.111978260896635	1.7795647	1.3340033
27.13000761408296	1.832401	1.3536621
27.148037651722397	1.8325622	1.3537216
27.166068374339304	1.8277476	1.3519422
27.184099782458215	1.8310806	1.3531742
27.20213187660384	1.7806777	1.3344203
27.22016465730105	1.7934605	1.3392015
27.23819812507487	1.7908237	1.3382167
27.256232280450533	1.8008184	1.3419458
27.274267123953383	1.8104365	1.3455247
27.292302656108987	1.793235	1.3391172
27.31033887744306	1.7814682	1.3347166
27.32837578848146	1.8328422	1.3538251
27.34641338975026	1.8143195	1.3469667
27.364451681775673	1.7871813	1.3368549
27.382490665084074	1.7995902	1.3414881
27.400530340202046	1.8512541	1.360608
27.41857070765629	1.8526506	1.361121
27.436611767973726	1.8354577	1.3547907
27.454653521681404	1.8250104	1.3509295
27.472695969306564	1.8135349	1.3466755
27.490739111376627	1.7998573	1.3415875
27.508782948419153	1.7977742	1.340811
27.526827480961902	1.815489	1.3474009
27.54487270953279	1.8446636	1.358184
27.562918634659898	1.8290293	1.3524162
27.580965256871508	1.830606	1.3529989
27.599012576696026	1.8003304	1.341764
27.617060594662068	1.787955	1.3371444
27.63510931129842	1.8393732	1.3562349
27.65315872713401	1.8567713	1.362634
27.67120884269797	1.8145605	1.3470563
27.68925965851958	1.7854398	1.3362036
27.707311175128307	1.8433638	1.3577054
27.725363393053787	1.8807261	1.3713957
27.74341631282583	1.8575268	1.3629111
27.7614699349744	1.8524776	1.3610575
27.77952426002968	2.0231142	1.4223622
27.797579288521973	2.1136014	1.4538231
27.815635020981784	2.5418875	1.5943298
27.83369145793979	2.6333084	1.6227472
27.85174859992682	2.4901414	1.5780182
27.869806447473923	2.3283985	1.5259091
27.887865001112267	2.09416	1.4471213
27.905924261373233	2.028561	1.4242756
27.92398422878836	1.9800701	1.4071497
27.94204490388936	1.8912307	1.3752202
27.96010628720813	1.865521	1.3658408
27.978168379276728	1.8752935	1.3694136
27.9962311806274	1.8180175	1.3483388
28.014294691792568	1.8016523	1.3422564
28.0323589133048	1.8145009	1.3470341
28.050423845696887	1.8445659	1.358148
28.068489489501758	1.8261693	1.3513583
28.086555845252523	1.849047	1.3597966
28.104622913482487	1.9127544	1.3830236
28.122690694725115	1.9627085	1.400967
28.14075918951405	1.9783454	1.4065367
28.15882839838312	1.9651622	1.4018425
28.176898321866304	1.9541038	1.3978926
28.1949689604978	1.9611912	1.4004253
28.213040314811945	1.9841466	1.4085974
28.23111238534327	1.9521891	1.3972076
28.249185172626493	1.918391	1.38506
28.267258677196473	1.9184414	1.3850781
28.285332899588294	1.9597936	1.3999263
28.303407840337172	2.0143461	1.4192766
28.321483499978545	2.0034287	1.4154253
28.33955987904799	1.9535502	1.3976946
28.357636978081285	1.8974218	1.3774693
28.37571479761439	1.9555817	1.3984212
28.393793338183425	2.0474484	1.4308908
28.41187260032469	2.0355332	1.4267211
28.429952584574686	2.0026915	1.4151648
28.448033291470065	2.0036826	1.415515
28.46611472154769	1.9872643	1.4097036
28.484196875344566	1.9364522	1.3915646
28.502279753397914	1.944533	1.3944651
28.52036335624511	1.9899726	1.4106638
28.538447684423716	2.0287778	1.4243517
28.556532738471482	2.0200086	1.42127
28.574618518926325	1.9961294	1.4128444
28.59270502632635	2.0480702	1.431108
28.61079226120985	2.0512109	1.4322048
28.628880224115274	2.0496404	1.4316565
28.646968915581287	2.0515234	1.432314
28.66505833614671	2.1014688	1.4496443
28.68314848635055	2.0939114	1.4470354
28.701239366732004	2.1139362	1.4539381
28.71933097783044	2.0863116	1.444407
28.737423320185403	2.039628	1.4281554
28.75551639433665	2.0434864	1.4295056
28.773610200824074	2.0917282	1.4462808
28.791704740187793	2.107123	1.4515933
28.80980001296809	2.133983	1.4608158
28.827896019705413	2.13682	1.4617866
28.845992760940433	2.1388967	1.4624968
28.86409023721397	2.1565156	1.468508
28.88218844906704	2.1299372	1.4594305
28.900287397040845	2.1701508	1.4731431
28.918387081676755	2.197961	1.4825522
28.936487503516343	2.234101	1.494691
28.954588663101365	2.2843792	1.5114163
28.97269056097374	2.3452303	1.5314145
28.990793197675597	2.364297	1.537627
29.00889657374923	2.3309476	1.5267441
29.027000689737125	2.2957997	1.5151896
29.04510554618196	2.3047063	1.5181259
29.06321114362659	2.3952732	1.547667
29.08131748261405	2.4380221	1.5614167
29.099424563687567	2.4241111	1.5569557
29.11753238739057	2.416811	1.5546095
29.13564095426663	2.4783137	1.5742661
29.15375026485954	2.6227112	1.6194787
29.171860319713275	2.647968	1.6272578
29.18997111937199	2.6991906	1.6429213
29.20808266438002	2.704541	1.6445489
29.226194955281898	2.6964266	1.64208
29.244307992622335	2.7320805	1.6529006
29.26242177694624	2.7491922	1.6580688
29.2805363087987	2.7661297	1.6631685
29.29865158872498	2.8891335	1.699745
29.316767617270557	3.0132406	1.7358688
29.334884394981064	3.0185292	1.7373915
29.353001922402367	3.0184577	1.7373708
29.37112020008047	3.021353	1.738204
29.389239228561596	3.0370936	1.742726
29.407359008392152	3.239323	1.799812
29.42547954011872	3.6313539	1.9056112
29.44360082428809	4.205181	2.050654
29.46172286144722	5.0636063	2.2502458
29.479845652143283	6.501846	2.5498717
29.497969196923606	9.08167	3.0135808
29.516093496335728	12.928582	3.5956337
29.5342185509274	16.765266	4.094541
29.55234436124651	20.17748	4.4919353
29.570470927841175	21.72431	4.6609344
29.588598251259686	21.557535	4.643009
29.60672633205055	19.775187	4.44693
29.624855170762405	16.645908	4.07994
29.642984767944146	13.214352	3.635155
29.66111512414481	9.7638445	3.124715
29.67924623991366	7.159247	2.6756768
29.697378115800138	5.38179	2.3198686
29.71551075235387	4.3755536	2.0917823
29.733644150124675	3.8674717	1.9665889
29.751778309662576	3.688483	1.9205424
29.769913231517766	3.6220818	1.9031768
29.78804891624066	3.516763	1.8753034
29.806185364381818	3.4368243	1.8538674
29.82432257649206	3.3694649	1.8356103
29.842460553122333	3.3059638	1.818231
29.86059929482382	3.3205023	1.8222245
29.878738802147872	3.312768	1.8201011
29.896879075646048	3.2559915	1.8044366
29.915020115870114	3.2855961	1.8126214
29.933161923371976	3.3090754	1.8190864
29.951304498703777	3.2635303	1.8065244
29.969447842417857	3.1539755	1.7759435
29.987591955066733	3.183544	1.7842488
30.005736837203123	3.2318716	1.7977407
30.023882489379943	3.1916265	1.7865124
30.04202891215028	3.2028983	1.7896643
30.060176106067455	3.2202735	1.794512
30.078324071684946	3.2341726	1.7983805
30.09647280955646	3.2626278	1.8062745
30.114622320235863	3.241931	1.8005363
30.132772604277257	3.1432886	1.7729322
30.1509236622349	3.0691547	1.7519003
30.16907549466328	3.0650828	1.7507378
30.18722810211705	3.0166705	1.7368565
30.205381485151097	2.9905894	1.7293321
30.22353564432045	2.9456224	1.7162815
30.241690580180403	2.9233806	1.7097896
30.25984629328638	3.027181	1.7398796
30.278002784194037	3.1034937	1.7616736
30.296160053459246	3.0628042	1.7500869
30.314318101638033	3.032607	1.7414383
30.332476929286646	3.0103283	1.7350298
30.35063653696153	2.9632921	1.7214216
30.368796925219307	2.9395492	1.7145114
30.386958094616844	2.9790504	1.7259926
30.40512004571115	2.9298885	1.7116917
30.423282779059463	2.9170198	1.7079285
30.441446295219233	2.8980002	1.7023513
30.459610594748067	2.8101807	1.6763593
30.47777567820382	2.813243	1.6772724
30.495941546144504	2.8405106	1.6853814
30.51410819912835	2.8121953	1.6769601
30.532275637713795	2.7265284	1.6512203
30.55044386245946	2.7821217	1.6679693
30.56861287392416	2.8520272	1.6887946
30.586782672666956	2.853552	1.689246
30.604953259247047	2.770016	1.6643364
30.623124634223885	2.7902496	1.6704041
30.641296798157075	2.8172615	1.67847
30.659469751606462	2.7856066	1.6690136
30.677643495132074	2.7220545	1.649865
30.695818029294152	2.6798024	1.6370102
30.713993354653116	2.7458868	1.6570717
30.73216947176962	2.7729702	1.6652237
30.75034638120448	2.8181026	1.6787205
30.768524083518756	2.7994788	1.6731642
30.786702579273673	2.781786	1.6678687
30.80488186903069	2.7954056	1.6719466
30.82306195335144	2.9859204	1.7279816
30.841242832797782	3.215596	1.7932082
30.85942450793176	3.5496914	1.8840625
30.877606979315637	3.964686	1.9911519
30.895790247511883	4.4832587	2.1173706
30.913974313083134	4.9528275	2.2254949
30.932159176592283	5.2836895	2.2986279
30.95034483860237	5.4891233	2.3428879
30.968531299676698	5.4892645	2.342918
30.98671856037873	5.2570972	2.2928362
31.00490662127215	4.886349	2.2105088
31.023095482920848	4.4001822	2.097661
31.04128514588892	3.8039153	1.9503628
31.059475610740662	3.1575165	1.7769402
31.07766687804056	2.700757	1.643398
31.09585894835335	2.5013797	1.581575
31.11405182224393	2.4991343	1.580865
31.132245500277417	2.5343747	1.591972
31.15043998301914	2.4573538	1.5675949
31.168635271034628	2.4314384	1.5593071
31.18683136488964	2.4469664	1.5642782
31.20502826515008	2.4325957	1.5596781
31.223225972382135	2.4388876	1.5616938
31.241424487152155	2.4969707	1.5801805
31.259623810026692	2.5457122	1.5955288
31.27782394157253	2.5256503	1.5892295
31.296024882356644	2.4631343	1.5694376
31.314226632946237	2.4075682	1.5516341
31.332429193908684	2.4686854	1.571205
31.350632565811598	2.4861717	1.5767599
31.368836749222787	2.5191905	1.5871958
31.387041744710295	2.5428889	1.5946438
31.40524755284232	2.6094213	1.6153703
31.423454174187317	2.6335266	1.6228144
31.441661609313922	2.5580235	1.5993822
31.459869858791002	2.4577737	1.5677289
31.478078923187628	2.4453661	1.5637666
31.496288803073064	2.4250202	1.5572476
31.514499499016807	2.415732	1.5542625
31.532711011588546	2.3652124	1.5379248
31.550923341358178	2.4026923	1.5500621
31.56913648889584	2.4071198	1.5514895
31.587350454771844	2.3378108	1.5289901
31.605565239556732	2.31812	1.5225374
31.62378084382127	2.3693838	1.5392803
31.641997268136382	2.3679826	1.538825
31.660214513073274	2.3471024	1.5320256
31.67843257920331	2.431278	1.5592556
31.6966514670981	2.4448147	1.5635903
31.71487117732944	2.3779058	1.542046
31.733091710469346	2.3395321	1.5295529
31.751313067090052	2.3596861	1.536127
31.769535247764008	2.3769746	1.541744
31.787758253063878	2.3296156	1.5263078
31.805982083562526	2.3382869	1.5291458
31.824206739833024	2.3644996	1.5376929
31.84243222244869	2.3660157	1.5381858
31.860658531983013	2.2766294	1.5088503
31.878885669009737	2.234564	1.4948459
31.897113634102784	2.1799512	1.4764658
31.91534242783632	2.2296362	1.4931966
31.933572050784694	2.2662585	1.5054097
31.951802503522508	2.2193155	1.4897367
31.970033786624548	2.174303	1.4745518
31.988265900665834	2.2212234	1.490377
32.006498846221575	2.2714415	1.5071303
32.02473262386724	2.2352858	1.4950873
32.04296723417845	2.1001306	1.4491827
32.0612026777311	2.002721	1.4151753
32.07943895510129	2.0579567	1.434558
32.097676066865304	2.1151862	1.454368
32.115914013599685	2.179943	1.4764631
32.13415279588115	2.2094402	1.4864186
32.152392414286666	2.1968372	1.4821731
32.1706328693934	2.170821	1.4733706
32.18887416177875	2.156535	1.4685146
32.20711629202032	2.2106164	1.4868141
32.225359260695924	2.264886	1.5049537
32.243603068383614	2.3156073	1.521712
32.26184771566166	2.2901194	1.513314
32.28009320310852	2.2491074	1.4997025
32.2983395313029	2.2147884	1.4882165
32.31658670082372	2.2094467	1.4864208
32.33483471225012	2.1958172	1.481829
32.35308356616143	2.1607454	1.4699475
32.371333263137245	2.0900195	1.4456899
32.38958380375734	2.1193514	1.4557992
32.407835188601744	2.1431105	1.4639367
32.42608741825067	2.093606	1.4469298
32.444340493284585	2.022516	1.4221519
32.46259441428416	2.06503	1.4370213
32.48084918183028	2.1015553	1.4496742
32.49910479650405	2.0921233	1.4464175
32.51736125888683	2.05815	1.4346254
32.53561856956014	2.0002282	1.4142942
32.5538767291058	1.9640911	1.4014603
32.572135738105764	2.0445437	1.4298754
32.59039559714228	2.0844502	1.4437625
32.608656306797776	2.076289	1.4409333
32.62691786765491	2.0138888	1.4191155
32.645180280296586	2.0059347	1.4163102
32.663443545305896	2.0318875	1.4254429
32.68170766326619	2.1015897	1.449686
32.69997263476099	2.1000555	1.4491568
32.7182384603741	2.0300972	1.4248148
32.7365051406895	1.968209	1.4029287
32.75477267629144	1.951868	1.3970927
32.77304106776434	1.977146	1.4061103
32.79131031569289	1.9853672	1.4090306
32.809580420661966	1.9449682	1.3946211
32.827851383256714	1.9712201	1.4040015
32.84612320406245	1.9803084	1.4072343
32.86439588366476	2.1343076	1.460927
32.88266942264945	2.158267	1.4691042
32.9009438216025	2.0598454	1.4352162
32.9192190811102	2.0213559	1.421744
32.937495201758985	1.9869761	1.4096014
32.95577218413556	1.9290625	1.388907
32.974050028826866	1.9321606	1.3900218
32.992328736420035	1.9653716	1.4019171
33.010608307502444	1.943168	1.3939756
33.02888874266169	1.9470896	1.3953815
33.047170042485604	1.9852222	1.4089792
33.06545220756225	1.9461188	1.3950336
33.083735238479896	1.909904	1.3819928
33.10201913582707	1.860169	1.3638802
33.12030390019248	1.8035872	1.342977
33.138589532165135	1.8270065	1.351668
33.15687603233419	1.9616262	1.4005806
33.17516340128909	1.9837509	1.4084569
33.19345163961947	2.0408788	1.4285933
33.211740747915215	1.995281	1.4125441
33.23003072676643	1.9832376	1.4082747
33.248321576763466	2.0407405	1.4285449
33.266613298496885	2.058216	1.4346484
33.28490589255747	1.9718317	1.4042193
33.30319935953626	1.9181713	1.3849806
33.32149370002451	1.8860481	1.3733346
33.339788914613706	1.8714696	1.3680167
33.358085003895575	1.8796688	1.3710102
33.376381968462034	1.9560603	1.3985922
33.39467980890529	2.0371172	1.4272761
33.41297852581774	2.0115266	1.418283
33.43127811979204	1.888071	1.3740709
33.44957859142105	1.8322647	1.3536117
33.467879941297866	1.8921186	1.375543
33.486182170015844	2.0055249	1.4161656
33.50448527816853	2.0298173	1.4247166
33.522789266349754	1.9878418	1.4099084
33.541094135153514	1.9266843	1.3880506
33.55939988517411	1.9261218	1.3878479
33.57770651700602	1.8436145	1.3577976
33.59601403124398	1.911771	1.3826681
33.61432242848296	2.006283	1.4164332
33.632631709318154	1.992201	1.4114535
33.650941874344994	2.038527	1.4277699
33.66925292415916	2.0758448	1.4407792
33.68756485935654	1.9981709	1.4135667
33.70587768053328	1.8197607	1.3489851
33.724191388285746	1.7220256	1.3122598
33.74250598321054	1.816363	1.3477252
33.760821465904506	1.9615712	1.4005611
33.77913783696474	2.059204	1.4349927
33.79745509698852	2.0857248	1.4442039
33.815773246573414	2.0596085	1.4351336
33.8340922863172	1.9746207	1.4052119
33.852412216817896	1.9088539	1.3816128
33.87073303867377	1.9317037	1.3898574
33.889054752483304	1.8317387	1.3534174
33.907377358845245	1.9052151	1.3802953
33.92570085835853	1.8914195	1.3752888
33.94402525162239	1.8802575	1.3712248
33.96235053923627	1.8730477	1.3685933
33.980676721799824	1.8855659	1.373159
33.999003799912984	1.8916774	1.3753827
34.01733177417592	1.8621054	1.3645898
34.03566064518901	1.9523368	1.3972604
34.0539904135529	1.902117	1.3791726
34.07232107986846	1.9128884	1.3830721
34.090652644736785	2.0198357	1.4212092
34.108985108759235	2.1286392	1.4589857
34.12731847253742	2.0382533	1.427674
34.14565273667313	1.9753821	1.4054829
34.16398790176847	1.9995524	1.4140553
34.18232396842574	2.0162325	1.4199411
34.20066093724749	1.9955662	1.4126451
34.21899880883651	2.0881853	1.4450555
34.23733758379583	2.0829258	1.4432344
34.25567726272874	2.1634278	1.4708595
34.27401784623872	2.2489972	1.4996657
34.29235933492957	2.1775916	1.4756665
34.31070172940526	2.1529415	1.4672905
34.32904503027003	2.1363187	1.4616151
34.347389238128386	2.046476	1.4305509
34.36573435358502	1.9509516	1.3967646
34.38408037724492	1.929925	1.3892174
34.402427309713296	1.8840208	1.3725964
34.42077515159559	1.8298353	1.3527141
34.43912390349752	1.7982552	1.3409904
34.45747356602499	1.8710983	1.367881
34.47582413978423	1.9706807	1.4038093
34.49417562538163	2.076204	1.4409039
34.51252802342388	1.9781706	1.4064746
34.53088133451789	2.0052602	1.4160721
34.54923555927084	2.0265155	1.4235573
34.567590698290104	2.0345986	1.4263935
34.58594675218336	1.9249386	1.3874216
34.6043037215585	2.0148618	1.4194583
34.62266160702365	1.9731101	1.4046744
34.641020409187234	1.9815085	1.4076606
34.65938012865785	2.0165806	1.4200636
34.677740766044394	2.0170507	1.4202291
34.69610232195598	2.0666358	1.4375799
34.714464797002016	2.1203659	1.4561476
34.73282819179208	2.1253421	1.4578553
34.751192506936064	2.2498395	1.4999465
34.76955774304408	2.2623403	1.5041078
34.7879239007265	1.862702	1.3648084
34.80629098059391	1.5990609	1.2645398
34.824658983257194	1.7806368	1.3344051
34.843027909327446	1.9489716	1.3960557
34.86139775941603	1.8731364	1.3686258
34.879768534134534	1.9034979	1.3796731
34.89814023409483	1.9020578	1.3791511
34.91651285990901	1.8226162	1.350043
34.93488641218944	1.7657869	1.3288292
34.95326089154871	1.5963795	1.2634791
34.97163629859967	1.7005908	1.304067
34.99001263395542	1.856843	1.3626603
35.00838989822934	1.9371363	1.3918104
35.02676809203499	2.0826857	1.4431514
35.04514721598624	2.3199902	1.5231514
35.063527270697215	2.238713	1.496233
35.081908256782256	1.9723998	1.4044216
35.10029017485597	1.9223927	1.3865038
35.11867302553321	2.107624	1.4517659
35.137056809429104	2.1295445	1.4592959
35.155441527159006	2.0594852	1.4350907
35.173827179338524	2.2331276	1.4943653
35.19221376658354	2.2006938	1.4834735
35.21060128951017	2.0554805	1.4336947
35.2289897487348	1.8095139	1.3451817
35.24737914487405	1.9532619	1.3975915
35.26576947854479	2.0963995	1.4478948
35.28416075036418	2.0699916	1.4387466
35.30255296094958	2.0375366	1.4274231
35.32094611091867	2.0840585	1.4436269
35.33934020088932	2.2431734	1.4977227
35.35773523147969	2.1529827	1.4673046
35.3761312033082	1.9234002	1.386867
35.394528116993506	1.8930823	1.3758932
35.41292597315452	2.0011692	1.4146268
35.431324772410434	2.1980817	1.4825929
35.449724515380666	2.3405633	1.52989
35.46812520268491	2.150596	1.466491
35.486526834943106	1.927857	1.3884729
35.504929412775454	1.9643024	1.4015357
35.52333293680242	2.1988792	1.4828619
35.54173740764471	2.2880008	1.5126139
35.560142825923286	1.7900531	1.3379287
35.5785491922594	1.5650084	1.2510029
35.59695650727454	1.7286136	1.3147675
35.61536477159042	1.9318032	1.3898933
