0.008763373481513119	0.0	0.0
0.026290120649546365	0.0	0.0
0.043816868432600686	0.0	0.0
0.06134361724069026	0.04474922	0.21154012
0.07887036748382949	0.10288612	0.32075867
0.0963971195720331	0.16386925	0.40480766
0.11392387391531617	0.12473741	0.35318184
0.1314506309236943	0.104647554	0.32349274
0.1489773910071836	0.122940704	0.350629
0.16650415457580078	0.13507888	0.3675308
0.18403092203956356	0.1394791	0.373469
0.20155769380849	0.11287903	0.33597475
0.2190844702925996	0.11857648	0.34434935
0.2366112519019124	0.11239389	0.335252
0.2541380390464497	0.120053224	0.346487
0.27166483213623416	0.10251766	0.32018378
0.28919163158128947	0.11670798	0.3416255
0.3067184377916406	0.1362062	0.36906123
0.324245251177314	0.15185308	0.3896833
0.34177207214833777	0.10288703	0.32076007
0.3592989011147415	0.11388005	0.33746117
0.37682573848655654	0.11872963	0.34457165
0.39435258467381573	0.14441319	0.38001734
0.41187944008655414	0.18463475	0.42969146
0.42940630513480854	0.18090557	0.42532995
0.446933180228618	0.15953945	0.3994239
0.4644600657780234	0.15241708	0.3904063
0.48198696219306775	0.1623401	0.40291452
0.49951386988379676	0.13801798	0.3715077
0.5170407892602581	0.13242333	0.36390015
0.5345677207325025	0.11726283	0.3424366
0.5520946647105822	0.14203572	0.37687626
0.5696216216045534	0.16543181	0.4067331
0.5871485918244737	0.20125492	0.44861445
0.6046755757804043	0.25361338	0.5036004
0.6222025738824094	0.25957483	0.5094849
0.6397295865405557	0.24506938	0.49504483
0.6572566141649129	0.20752582	0.45555001
0.6747836571655547	0.20315374	0.4507258
0.6923107159525568	0.22244982	0.47164586
0.7098377909359992	0.2286472	0.4781707
0.7273648825259653	0.26194203	0.51180273
0.7448919911325411	0.28813782	0.5367847
0.762419117165817	0.26202276	0.5118816
0.7799462610358868	0.2231159	0.47235146
0.7974734231528482	0.16699795	0.40865383
0.8150006039268024	0.14688058	0.38325003
0.8325278037678551	0.1475104	0.3840708
0.8500550230861152	0.16845402	0.4104315
0.8675822622916969	0.22004655	0.4690912
0.8851095217947171	0.24990806	0.49990806
0.9026368020052984	0.25894865	0.50887
0.9201641033335665	0.24994287	0.49994287
0.9376914261896523	0.23134245	0.48098072
0.9552187709836915	0.21671224	0.4655236
0.9727461381258234	0.19947909	0.4466308
0.990273528026193	0.2534265	0.5034148
1.0078009410949496	0.27525818	0.5246505
1.0253283777422473	0.31112596	0.55778664
1.0428558383782454	0.30572677	0.55292565
1.0603833234131086	0.31256956	0.55907923
1.0779108332570058	0.3482513	0.59012824
1.0954383683201119	0.3982493	0.63106996
1.112965929012607	0.44241622	0.6651438
1.1304935157446763	0.5686675	0.75410044
1.1480211289265108	0.5979684	0.77328414
1.1655487689683062	1.4448901	1.2020358
1.1830764362802655	1.7409616	1.319455
1.200604131272596	2.1343546	1.4609431
1.2181318543555117	2.562195	1.6006858
1.235659605939232	2.5708494	1.6033869
1.253187386433982	3.9367664	1.9841286
1.270715196249994	6.382392	2.5263395
1.2882430357975057	11.984507	3.4618647
1.3057709054867608	16.914957	4.1127796
1.3232988057280106	22.706425	4.7651258
1.3408267369315112	27.731504	5.266071
1.358354699507526	31.450733	5.608095
1.3758826938663256	35.570934	5.9641376
1.3934107204181858	37.480026	6.122093
1.410938779573391	37.640125	6.1351547
1.4284668717422309	38.226677	6.1827726
1.4459949973350033	37.71924	6.141599
1.4635231567620117	37.975315	6.1624117
1.4810513504335687	36.933376	6.077284
1.4985795787599925	36.051197	6.004265
1.5161078421516088	35.647892	5.9705853
1.5336361410187505	35.086784	5.92341
1.5511644757717598	35.223232	5.9349165
1.5686928468209842	35.968884	5.9974065
1.58622125457678	36.35558	6.0295587
1.6037496994495108	38.16483	6.177769
1.621278181849548	38.004406	6.1647716
1.6388067021872719	38.90305	6.237231
1.6563352608730693	38.018654	6.165927
1.673863858317336	36.96255	6.0796833
1.6913924949304753	36.329514	6.0273967
1.7089211711228998	35.117584	5.926009
1.7264498873050296	34.716625	5.8920817
1.7439786438872935	33.704758	5.8055797
1.7615074412801288	32.91478	5.73714
1.779036279893981	31.794292	5.638643
1.796565160139305	30.918842	5.5604715
1.814094082426564	30.075432	5.484107
1.8316230471662298	29.143106	5.3984356
1.849152054768784	28.049938	5.2962193
1.8666811056447168	27.674923	5.260696
1.8842102002045273	27.014357	5.1975336
1.901739338858724	26.687256	5.165971
1.9192685220178245	26.138887	5.1126204
1.9367977500923557	25.647522	5.064338
1.9543270234928547	24.805895	4.9805517
1.971856342629867	23.857899	4.8844547
1.9893857079139496	23.143204	4.8107386
2.006915119755667	22.936665	4.7892237
2.0244445785655945	22.55042	4.7487283
2.0419740847543175	22.11012	4.70214
2.0595036387324317	21.653526	4.653335
2.0770332409105414	21.307457	4.616
2.094562891699263	21.100658	4.5935454
2.1120925915092217	20.67654	4.5471463
2.129622340751053	20.159489	4.489932
2.1471521398354043	188.18176	13.717936
2.1646819891729323	444.4515	21.082018
2.182211889174303	440.57373	20.98985
2.1997418402501974	453.00278	21.283861
2.2172718428113023	433.01566	20.809029
2.234801897268317	320.99973	17.916466
2.2523320040319548	17.576283	4.1924076
2.269862163512935	17.193907	4.1465535
2.287392376121992	16.8724	4.1076026
2.304922642269869	16.495262	4.061436
2.322452962367322	16.066353	4.0082855
2.3399833368251164	15.490435	3.9357889
2.357513766054032	15.268216	3.9074564
2.3750442504648586	14.95309	3.8669226
2.3925747904683963	14.8063345	3.8479
2.410105386475459	14.74983	3.8405507
2.4276360388968707	14.472277	3.8042445
2.445166748143469	14.389526	3.7933528
2.4626975146261025	13.970709	3.7377412
2.4802283387556323	13.683068	3.699063
2.4977592209429305	13.48579	3.6723003
2.5152901615988825	13.204269	3.6337678
2.5328211611343865	13.026403	3.609211
2.5503522199603523	12.590897	3.5483654
2.5678833384877024	12.406423	3.5222752
2.5854145171273712	12.214057	3.4948616
2.6029457562903064	12.124452	3.4820182
2.620477056387469	11.908121	3.4508145
2.6380084178298326	11.8244705	3.4386728
2.655539841028383	11.750314	3.4278731
2.673071326394119	11.709358	3.4218938
2.6906028743380523	11.617172	3.4083972
2.708134485271211	11.401143	3.3765578
2.7256661596046325	11.190068	3.345156
2.743197897749369	10.844296	3.293068
2.760729700116486	10.625333	3.2596521
2.778261567117063	10.420597	3.228095
2.795793499162193	10.434849	3.2303016
2.8133254966629817	10.291227	3.2079942
2.830857560030551	10.12666	3.1822414
2.8483896896760337	9.850868	3.1386092
2.865921886010578	9.720974	3.1178477
2.883454149445347	9.813458	3.132644
2.9009864803915177	9.816808	3.1331785
2.91851887926028	9.561619	3.0921867
2.9360513464628384	9.25939	3.0429246
2.953583882410413	8.962649	2.9937685
2.9711164875142373	8.860632	2.9766815
2.9886491621855606	8.943793	2.9906175
3.0061819068356455	8.889078	2.9814558
3.023714721875769	8.76762	2.9610167
3.041247607717225	8.562005	2.9260905
3.0587805647713213	8.55414	2.9247463
3.0763135934493806	8.423206	2.902276
3.0938466941627407	8.208869	2.8651123
3.1113798673227544	8.203155	2.864115
3.1289131133407904	8.045963	2.8365407
3.1464464326282315	7.9062333	2.8118024
3.1639798255964786	7.7388706	2.7818825
3.1815132926569443	7.592463	2.7554424
3.1990468342210603	7.568142	2.7510257
3.216580450700272	7.734261	2.781054
3.2341141425060416	7.7330327	2.780833
3.251647910049847	7.6118617	2.7589602
3.2691817537431813	7.4625735	2.7317712
3.286715673997555	7.3493443	2.7109673
3.3042496712244938	7.3801303	2.7166395
3.32178374583554	7.2683477	2.6959872
3.339317898242251	7.1031723	2.6651778
3.3568521288562034	6.9953446	2.6448715
3.3743864380889876	6.962928	2.638736
3.3919208263522127	6.943794	2.635108
3.4094552940575023	6.904139	2.6275728
3.4269898416164972	6.8569345	2.6185749
3.444524469440858	6.7584915	2.59971
3.4620591779422587	6.7355943	2.5953023
3.479593967532391	6.726014	2.593456
3.4971288386229658	6.6052465	2.5700674
3.5146637916257086	6.4804773	2.5456781
3.5321988269523628	6.3969874	2.5292265
3.5497339450146903	6.453836	2.54044
3.5672691462244708	6.4918346	2.5479078
3.5848044309934988	6.4560184	2.5408697
3.60233979973359	6.315551	2.513076
3.619875252856575	6.204466	2.4908764
3.6374107907743034	6.231523	2.496302
3.6549464138986427	6.2662606	2.5032501
3.6724821226414788	6.26959	2.5039148
3.690017917414714	6.2577415	2.5015478
3.7075537986302702	6.29675	2.5093327
3.7250897667000857	6.524384	2.5542874
3.7426258220361235	6.733337	2.5948675
3.7601619650503553	7.0057907	2.6468453
3.777698196154779	7.3816524	2.7169197
3.7952345157614067	8.374448	2.893864
3.8127709242822716	9.207642	3.0344095
3.830307422129425	11.442528	3.3826807
3.847844009714936	30.361238	5.510103
3.8653806874508954	97.86229	9.892537
3.882917455749409	97.12292	9.855096
3.900454315022606	96.771	9.837225
3.917991265682631	41.242386	6.4220233
3.9355283081416506	10.873156	3.2974467
3.9530654428118495	8.735302	2.9555545
3.970602670105433	7.5409546	2.74608
3.9881399904346244	6.7320676	2.5946229
4.005677404211669	6.701999	2.588822
4.023214911848827	6.6844354	2.5854275
4.0407525137583855	6.6512733	2.5790062
4.058290210352644	6.572121	2.5636148
4.075828002043927	6.4345922	2.5366497
4.0933658892445814	6.3485007	2.519623
4.110903872366966	6.2439003	2.4987798
4.128441951823468	6.2103305	2.4920535
4.145980128026488	6.3051057	2.510997
4.163518401388452	6.2976937	2.5095205
4.181056772321807	6.2945604	2.5088964
4.1985952412390155	6.2755227	2.5050993
4.216133808552567	6.294404	2.508865
4.233672474674966	6.324436	2.5148432
4.251211240018741	6.5009737	2.5497007
4.268750104996445	6.626221	2.5741448
4.286289070020643	7.5966063	2.756194
4.303828135503928	9.352217	3.0581393
4.3213673018589125	29.739204	5.4533663
4.3389065694982305	90.92021	9.535209
4.356445938834537	166.14209	12.889611
4.3739854102805085	171.74414	13.105119
4.391524984248844	172.55133	13.1358795
4.409064661152262	136.61449	11.68822
4.426604441403504	96.7653	9.836935
4.444144325415337	75.6413	8.697201
4.461684313600543	21.604708	4.6480865
4.47922440637193	22.114084	4.7025614
4.496764604142329	20.575413	4.5360126
4.5143049073245916	18.757647	4.33101
4.531845316331589	16.748917	4.092544
4.5493858315762195	13.970237	3.737678
4.566926453471405	11.691122	3.4192283
4.584467182430081	9.575028	3.0943544
4.602008018865218	8.276163	2.8768322
4.619548963189798	7.4473157	2.728977
4.637090015816834	6.951985	2.6366618
4.654631177159353	6.7400527	2.5961611
4.672172447630417	6.57131	2.5634568
4.689713827643102	6.361991	2.5222988
4.7072553176105085	6.028431	2.4552863
4.724796917945764	5.8453083	2.4177072
4.742338629062015	5.774816	2.4030848
4.759880451372434	5.770856	2.4022605
4.777422385290215	5.8191085	2.412283
4.794964431228581	5.7538867	2.398726
4.812506589600768	5.7641487	2.4008641
4.830048860820047	5.6814456	2.3835783
4.847591245299709	5.719144	2.391473
4.8651337434530655	5.6368117	2.374197
4.882676355693457	5.628831	2.3725157
4.900219082434242	5.5978155	2.3659704
4.917761924088813	5.598481	2.366111
4.935304881070575	5.623579	2.3714087
4.952847953792969	5.6403794	2.3749483
4.970391142669449	5.582636	2.3627603
4.9879344481135055	5.44508	2.3334694
5.005477870538642	5.323561	2.3072844
5.023021410358394	5.393686	2.322431
5.040565067986324	5.4641857	2.3375597
5.05810884383601	5.564111	2.358837
5.075652738321066	5.5511837	2.356095
5.09319675185512	5.493475	2.3438163
5.110740884851836	5.4274406	2.3296869
5.128285137724894	5.4279337	2.3297927
5.145829510888007	5.4745116	2.3397675
5.163374004754908	5.465378	2.3378148
5.1809186197393595	5.457028	2.3360283
5.198463356255145	5.4678717	2.3383482
5.216008214716077	5.449039	2.3343177
5.233553195535998	5.323164	2.3071983
5.251098299128764	5.2640543	2.2943528
5.268643525908272	5.271234	2.2959168
5.286188876288432	5.3309603	2.3088872
5.3037343506831895	5.3145695	2.305335
5.32127994950651	5.330709	2.308833
5.3388256731723915	5.353341	2.3137288
5.356371522094851	5.3772492	2.3188896
5.373917496687938	5.4247866	2.329117
5.391463597365729	5.3734283	2.3180656
5.40900982454232	5.285397	2.298999
5.426556178631843	5.218077	2.284311
5.444102660048449	5.2118025	2.2829373
5.4616492692063225	5.241857	2.2895103
5.479196006519669	5.250078	2.2913048
5.496742872402727	5.2210608	2.284964
5.514289867269756	5.2302146	2.2869663
5.531836991535049	5.2441425	2.2900093
5.549384245612924	5.310162	2.304379
5.566931629917724	5.331482	2.3090003
5.584479144863822	5.3291917	2.308504
5.6020267908656205	5.2708354	2.29583
5.619574568337545	5.27857	2.297514
5.637122477694054	5.296285	2.3013659
5.654670519349629	5.239138	2.2889163
5.672218693718784	5.1693344	2.273617
5.689767001216059	5.1641016	2.272466
5.707315442256021	5.2542562	2.2922165
5.724864017253266	5.2972126	2.3015673
5.7424127266224225	5.288416	2.2996557
5.75996157077814	5.1686435	2.2734652
5.777510550135105	5.18085	2.276148
5.795059665108022	5.1851587	2.2770944
5.812608916111639	5.2562227	2.2926455
5.830158303560715	5.380127	2.31951
5.847707827870055	5.3801665	2.3195186
5.86525748945448	5.4365993	2.3316517
5.8828072887288485	5.531229	2.3518565
5.900357226108044	5.5797744	2.3621547
5.917907302006979	5.679609	2.383193
5.9354575168406	6.3150573	2.5129778
5.9530078710238765	6.96502	2.6391325
5.970558364971812	7.5227857	2.7427697
5.988108999099438	7.8161592	2.7957394
6.005659773821818	8.312038	2.8830607
6.023210689554039	8.033814	2.8343985
6.040761746711227	8.482404	2.9124568
6.058312945708531	7.8964114	2.8100555
6.075864286961132	7.4262443	2.7251136
6.093415770884244	6.7193413	2.5921693
6.1109673978931065	6.164397	2.4828203
6.128519168402993	5.5909758	2.3645244
6.146071082829204	5.501224	2.3454688
6.163623141587075	5.407072	2.3253112
6.181175345091969	5.266006	2.2947779
6.198727693759281	5.160662	2.2717092
6.216280188004435	5.1985073	2.2800236
6.233832828242885	5.283735	2.2986376
6.251385614890126	5.345363	2.312004
6.268938548361669	5.349794	2.312962
6.286491629073067	5.259215	2.2932978
6.304044857439898	5.261632	2.2938247
6.321598233877777	5.179377	2.2758245
6.339151758802344	5.1067657	2.2598155
6.356705432629277	5.055596	2.2484653
6.37425925577428	5.037846	2.2445147
6.391813228653095	5.0985975	2.2580075
6.409367351681486	5.171778	2.2741544
6.426921625275259	5.179252	2.2757971
6.44447604985025	5.1891212	2.2779644
6.46203062582232	5.174824	2.274824
6.47958535360737	5.161185	2.2718241
6.497140233621328	5.1400485	2.2671676
6.514695266280161	5.0584445	2.2490985
6.532250451999859	5.077933	2.2534268
6.549805791196454	5.063565	2.2502365
6.567361284286002	5.12303	2.2634113
6.584916931684597	5.095175	2.2572494
6.602472733808367	5.099251	2.258152
6.6200286910734665	5.135324	2.2661254
6.637584803896092	5.1209693	2.262956
6.655141072692462	5.0780277	2.253448
6.672697497878842	5.0706415	2.2518084
6.690254079871514	5.0657196	2.2507153
6.707810819086808	5.060974	2.249661
6.725367715941078	5.067766	2.25117
6.742924770850719	5.102035	2.2587686
6.760481984232151	5.184164	2.276876
6.778039356501836	5.082989	2.2545485
6.795596888076266	5.110079	2.2605484
6.813154579371963	5.1036577	2.2591276
6.830712430805492	5.14744	2.268797
6.84827044279344	5.166543	2.273003
6.865828615752445	5.1480646	2.2689347
6.883386950099159	5.1463356	2.2685537
6.900945446250287	5.1477585	2.2688673
6.918504104622553	5.074614	2.2526903
6.936062925632727	5.0671945	2.251043
6.953621909697607	5.12165	2.2631063
6.971181057234028	5.1134753	2.2612994
6.988740368658859	5.1284065	2.2645986
7.006299844389007	5.2129097	2.2831798
7.023859484841407	5.308299	2.3039746
7.041419290433036	5.4476566	2.3340216
7.058979261580902	5.5992727	2.3662782
7.0765393987020495	5.896067	2.428182
7.094099702213559	6.2994537	2.5098712
7.111660172532549	6.6197495	2.5728874
7.129220810076164	6.9820595	2.6423588
7.146781615261595	7.4677024	2.7327096
7.16434258850606	7.6330886	2.7628045
7.181903730226821	8.031759	2.8340359
7.1994650408411704	8.248909	2.8720913
7.217026520766437	8.487184	2.9132771
7.234588170419983	8.752937	2.9585364
7.252149990219215	8.701525	2.9498346
7.269711980581568	8.5608835	2.9258988
7.2872741419245175	8.365716	2.8923547
7.304836474665574	7.920735	2.81438
7.322398979222286	7.5105624	2.7405405
7.339961656012233	7.174843	2.6785898
7.357524505453039	6.8997974	2.6267467
7.375087527962357	6.664641	2.5815966
7.392650723957886	6.4038305	2.530579
7.410214093857353	5.9922996	2.4479175
7.427777638078528	5.780998	2.4043705
7.445341357039213	5.6292453	2.3726032
7.4629052511572525	5.4665728	2.3380704
7.480469320850524	5.396748	2.3230903
7.498033566536948	5.3121815	2.304817
7.5155979886344735	5.2524223	2.2918165
7.5331625875610975	5.2265544	2.286166
7.550727363734844	5.283951	2.2986846
7.568292317573788	5.2775464	2.297291
7.585857449496025	5.242312	2.2896097
7.603422759919705	5.190151	2.2781904
7.620988249263007	5.2377663	2.2886167
7.638553917944147	5.278218	2.2974372
7.656119766381391	5.228989	2.2866983
7.673685794993023	5.205871	2.281638
7.691252004197388	5.2115154	2.2828743
7.70881839441285	5.274918	2.296719
7.726384966057826	5.294033	2.3008766
7.743951719550762	5.329251	2.308517
7.761518655310149	5.368158	2.3169286
7.779085773754511	5.379926	2.3194668
7.796653075302419	5.391787	2.3220222
7.814220560372475	5.3689756	2.317105
7.831788229383323	5.3325458	2.3092306
7.8493560827536495	5.3105583	2.3044648
7.866924120902174	5.320303	2.3065782
7.884492344247663	5.297245	2.3015745
7.9020607532089135	5.2995954	2.302085
7.919629348204771	5.3443666	2.3117886
7.937198129654115	5.3849964	2.3205595
7.954767097975865	5.422344	2.3285928
7.972336253588986	5.449912	2.3345046
7.989905596912472	5.515379	2.3484843
8.007475128365371	5.562394	2.3584728
8.025044848366756	5.587921	2.3638785
8.042614757335754	5.636481	2.3741274
8.060184855691523	5.691074	2.3855972
8.07775514385327	5.8064485	2.4096572
8.095325622240228	5.8243847	2.413376
8.112896291271687	5.878188	2.4244976
8.130467151366968	5.9323797	2.4356477
8.148038202945436	5.9022527	2.4294553
8.165609446426497	5.90686	2.4304032
8.183180882229594	5.9516263	2.4395955
8.200752510774217	6.0459824	2.458858
8.218324332479893	6.077474	2.4652534
8.235896347766193	6.081302	2.4660296
8.253468557052724	6.0248003	2.454547
8.27104096075914	6.0588837	2.46148
8.288613559305137	6.1338487	2.4766607
8.306186353110448	6.207569	2.4914994
8.32375934259485	6.320753	2.5141108
8.341332528178162	6.3876276	2.5273757
8.358905910280246	6.469525	2.5435262
8.376479489321003	6.432554	2.536248
8.394053265720377	6.4266686	2.5350876
8.411627239898356	6.393462	2.5285296
8.42920141227497	6.3418174	2.5182965
8.44677578327029	6.3281984	2.5155911
8.464350353304427	6.257654	2.5015304
8.48192512279754	6.2118335	2.492355
8.499500092169827	6.172864	2.484525
8.51707526184153	6.165815	2.483106
8.534650632232934	6.227096	2.495415
8.552226203764365	6.2259955	2.4951944
8.569801976856192	6.2563095	2.5012615
8.587377951928834	6.3375664	2.5174522
8.60495412940274	6.4549565	2.5406606
8.622530509698416	6.4753575	2.5446725
8.6401070932364	6.527628	2.5549223
8.657683880437283	6.5727434	2.5637362
8.675260871721695	6.672684	2.583154
8.692838067510303	6.898766	2.6265502
8.710415468223834	7.02771	2.6509829
8.727993074283043	7.2282214	2.6885352
8.745570886108737	7.2774544	2.6976757
8.763148904121765	7.322967	2.706098
8.78072712874302	7.2786393	2.6978953
8.798305560393441	7.450915	2.7296364
8.815884199494006	7.5867257	2.7544012
8.833463046465745	7.809596	2.7945654
8.851042101729728	7.977493	2.8244455
8.86862136570707	8.313495	2.8833132
8.886200838818924	8.416194	2.9010677
8.903780521486505	8.418852	2.9015257
8.921360414131055	8.512965	2.9176986
8.938940517173874	8.639943	2.939378
8.956520831036297	8.860292	2.9766243
8.97410135613971	9.180274	3.0298967
8.99168209290554	9.305826	3.0505452
9.009263041755265	9.519159	3.0853136
9.026844203110405	9.688658	3.112661
9.044425577392525	9.883486	3.1438012
9.062007165023239	10.091272	3.1766763
9.079588966424197	10.397975	3.224589
9.097170982017108	10.554132	3.2487125
9.11475321222372	11.508254	3.3923817
9.132335657465825	12.3961735	3.52082
9.149918318165264	12.482162	3.5330105
9.167501194743924	13.091576	3.6182282
9.18508428762374	12.716274	3.5659885
9.202667597226693	12.705395	3.5644627
9.220251123974803	12.315929	3.5094059
9.237834868290143	12.007544	3.4651902
9.255418830594836	11.729017	3.4247653
9.273003011311046	11.196989	3.3461902
9.290587410860985	10.934917	3.3067987
9.308172029666911	10.344406	3.216272
9.32575686815113	10.155456	3.1867626
9.343341926735997	8.971803	2.9952967
9.360927205843916	8.743145	2.956881
9.378512705897327	8.446573	2.9062989
9.396098427318728	8.182514	2.8605094
9.413684370530664	8.113956	2.8485007
9.431270535955722	8.11151	2.8480713
9.448856924016539	8.131095	2.8515074
9.466443535135806	8.022551	2.8324108
9.484030369736251	7.947349	2.8191042
9.501617428240658	7.857984	2.8032095
9.519204711071852	7.870114	2.8053722
9.536792218652714	7.867823	2.804964
9.55437995140617	7.9205785	2.8143523
9.571967909755191	8.0020075	2.828782
9.589556094122802	8.012411	2.8306203
9.60714450493207	8.056844	2.838458
9.624733142606116	8.085289	2.8434644
9.642322007568108	8.121215	2.8497746
9.659911100241267	8.1466	2.854225
9.677500421048851	8.145469	2.8540268
9.695089970414175	8.178072	2.8597329
9.712679748760609	8.153864	2.8554971
9.730269756511557	8.186226	2.8611581
9.747859994090492	8.270075	2.8757737
9.765450461920915	8.207397	2.8648555
9.78304116042639	8.272539	2.876202
9.800632090030527	8.303569	2.8815913
9.81822325115699	8.378709	2.8946
9.835814644229481	8.378622	2.894585
9.853406269671762	8.327544	2.8857484
9.870998127907646	8.29006	2.8792465
9.888590219360985	8.297444	2.8805285
9.906182544455698	8.293463	2.8798373
9.923775103615734	8.346366	2.8890078
9.941367897265108	8.391554	2.896818
9.958960925827878	8.450667	2.9070032
9.97655418972816	8.465632	2.909576
9.994147689390106	8.522558	2.919342
10.011741425237934	8.427631	2.9030383
10.029335397695904	8.409374	2.899892
10.04692960718833	8.408572	2.8997538
10.06452405413958	8.399496	2.8981884
10.082118738974064	8.445781	2.9061625
10.099713662116246	8.305498	2.881926
10.117308823990651	8.265445	2.8749688
10.134904225021844	8.279751	2.8774557
10.152499865634445	8.376486	2.8942158
10.170095746253125	8.409154	2.8998542
10.18769186730261	8.398421	2.898003
10.205288229207675	8.326446	2.8855581
10.222884832393145	8.239754	2.8704972
10.2404816772839	8.15005	2.8548293
10.258078764304868	8.072767	2.8412616
10.275676093881035	8.059171	2.838868
10.293273666437438	8.100794	2.8461893
10.310871482399158	8.183459	2.8606746
10.32846954219134	8.245835	2.8715563
10.346067846239173	8.232648	2.869259
10.363666394967908	8.248835	2.8720784
10.38126518880283	8.280141	2.8775234
10.398864228169298	8.365961	2.8923972
10.416463513492713	8.404114	2.898985
10.434063045198531	8.36534	2.8922899
10.451662823712262	8.390025	2.896554
10.469262849459467	8.399049	2.8981113
10.486863122865758	8.282836	2.8779917
10.504463644356806	8.271354	2.875996
10.522064414358338	8.180506	2.8601584
10.539665433296118	8.120064	2.8495727
10.557266701595987	8.031307	2.833956
10.574868219683818	7.8746877	2.8061874
10.592469987985552	7.831615	2.7985022
10.610072006927185	7.7248096	2.779354
10.627674276934751	7.667538	2.769032
10.64527679843435	7.4557076	2.730514
10.662879571852143	7.3259854	2.7066557
10.680482597614331	7.2830567	2.698714
10.698085876147173	7.2746577	2.6971574
10.715689407876988	7.1802683	2.6796021
10.733293193230146	7.076625	2.6601927
10.750897232633072	6.8992357	2.6266396
10.76850152651225	6.7600846	2.6000164
10.786106075294207	6.635598	2.5759654
10.803710879405534	6.518145	2.5530658
10.821315939272877	6.444779	2.538657
10.83892125532294	6.411573	2.5321083
10.856526827982472	6.3750315	2.5248826
10.874132657678285	6.351572	2.5202324
10.891738744837243	6.331342	2.5162158
10.909345089886271	6.252258	2.5004516
10.926951693252343	6.236705	2.4973395
10.944558555362494	6.238324	2.4976637
10.96216567664381	6.17774	2.485506
10.979773057523436	6.067599	2.4632497
10.997380698428573	5.9154058	2.4321606
11.014988599786477	5.8255363	2.4136147
11.032596762024461	5.7777762	2.4037006
11.050205185569892	5.7462425	2.3971322
11.067813870850198	5.705691	2.3886588
11.085422818292859	5.598647	2.366146
11.10303202832541	5.529609	2.3515122
11.120641501375454	5.5165815	2.3487403
11.138251237870636	5.467217	2.338208
11.155861238238671	5.43802	2.3319564
11.173471502907317	5.3786306	2.3191874
11.191082032304402	5.310463	2.304444
11.208692826857805	5.186774	2.277449
11.226303886995465	5.103691	2.259135
11.243915213145371	5.030633	2.2429073
11.261526805735578	5.0336547	2.2435808
11.279138665194196	5.0085177	2.2379718
11.296750791949393	4.982082	2.2320578
11.314363186429393	4.8913946	2.2116497
11.331975849062479	4.7931495	2.1893263
11.34958878027699	4.7648587	2.1828556
11.36720198050133	4.724834	2.1736684
11.384815450163948	4.67129	2.1613166
11.402429189693366	4.61817	2.1489928
11.420043199518153	4.5585036	2.1350653
11.437657480066942	63.503456	7.9689054
11.455272031768422	85.201004	9.230439
11.472886855051353	107.61548	10.373788
11.490501950344528	99.1898	9.959408
11.508117318076819	84.51291	9.19309
11.52573295867715	45.89768	6.7747827
11.543348872574514	4.21953	2.0541494
11.560965060197946	4.1908875	2.0471656
11.57858152197655	4.1192884	2.029603
11.59619825833949	4.069469	2.0172925
11.613815269715985	4.044285	2.0110407
11.631432556535323	38.57769	6.211094
11.649050119226837	83.08246	9.114958
11.666667958219929	93.466545	9.6678095
11.68428607394406	107.756905	10.380602
11.701904466828756	82.64194	9.090761
11.719523137303586	65.50853	8.093734
11.737142085798196	4.7192492	2.1723833
11.754761312742286	3.7675316	1.9410131
11.772380818565619	3.6985908	1.923172
11.790000603698015	3.6483243	1.9100587
11.80762066856935	3.658782	1.9127944
11.825241013609572	3.6135018	1.9009213
11.842861639248683	3.5868115	1.893888
11.860482545916748	3.524644	1.8774035
11.878103734043883	3.4917922	1.8686337
11.895725204060282	3.454603	1.8586562
11.91334695639619	3.4367678	1.8538522
11.930968991481919	3.4129431	1.8474152
11.948591309747824	3.3913033	1.8415492
11.966213911624347	3.3666487	1.8348429
11.98383679754198	3.3769398	1.8376452
12.001459967931268	3.3315547	1.8252547
12.019083423222835	3.267708	1.8076802
12.036707163847352	3.2408838	1.8002455
12.05433119023556	3.2644484	1.8067784
12.071955502818259	3.285941	1.8127165
12.089580102026313	3.2862234	1.8127943
12.107204988290643	3.2308824	1.7974656
12.12483016204224	3.225743	1.7960354
12.142455623712152	3.179149	1.7830168
12.16008137373149	3.1618104	1.778148
12.177707412531431	3.146837	1.7739326
12.19533374054321	3.1370845	1.7711817
12.212960358198126	3.1373472	1.7712559
12.230587265927545	3.0924325	1.7585313
12.248214464162889	3.0643504	1.7505286
12.265841953335649	3.063388	1.7502537
12.283469733877375	3.0334525	1.741681
12.301097806219685	2.9952135	1.7306685
12.31872617079425	2.9489522	1.7172513
12.336354828032825	2.9485888	1.7171456
12.353983778367205	2.9582732	1.7199631
12.371613022229262	2.9705105	1.723517
12.389242560050928	2.9810438	1.72657
12.406872392264201	2.967927	1.7227672
12.424502519301143	2.957845	1.7198386
12.442132941593874	2.920859	1.7090521
12.459763659574586	2.8855605	1.6986938
12.477394673675532	2.8563802	1.6900829
12.49502598432903	2.8428447	1.6860738
12.51265759196746	2.8374324	1.684468
12.530289497023267	2.8811498	1.697395
12.547921699928967	2.8858626	1.6987827
12.565554201117134	2.9038107	1.7040571
12.583187001020404	2.897734	1.7022731
12.600820100071486	2.8423247	1.6859195
12.618453498703152	2.8030198	1.6742221
12.636087197348235	2.785099	1.6688616
12.65372119643964	2.8325589	1.6830207
12.671355496410326	2.8603177	1.6912473
12.68899009769333	2.8646152	1.6925174
12.706625000721749	2.8731968	1.6950507
12.724260205928752	2.8916395	1.7004821
12.741895713747551	2.9183528	1.7083187
12.759531524611454	2.9954777	1.7307448
12.777167638953818	3.0484836	1.7459908
12.794804057208072	3.072874	1.7529615
12.812440779807702	3.1168897	1.7654716
12.830077807186271	3.253985	1.8038806
12.847715139777405	3.280148	1.8111179
12.865352778014795	3.476627	1.8645716
12.882990722332197	3.5825877	1.8927724
12.90062897316344	3.7266133	1.9304438
12.918267530942412	3.8128402	1.9526496
12.935906396103071	3.7517507	1.9369437
12.953545569079449	3.8748028	1.9684519
12.971185050305628	3.6578856	1.91256
12.988824840215775	3.6142993	1.901131
13.006464939244115	3.615128	1.901349
13.024105347824943	3.4831343	1.8663157
13.041746066392617	3.5884736	1.8943267
13.05938709538157	3.431357	1.8523922
13.077028435226296	3.4675355	1.862132
13.094670086361363	3.3682547	1.8352805
13.112312049221401	3.2642248	1.8067166
13.129954324241112	3.1559865	1.7765096
13.147596911855258	2.984699	1.7276281
13.165239812498685	2.9551437	1.7190531
13.182883026606293	2.8710923	1.6944298
13.200526554613058	2.7945647	1.6716951
13.218170396954017	2.7159543	1.6480153
13.235814554064284	2.6890411	1.6398296
13.253459026379034	2.690017	1.6401272
13.271103814333523	2.7359986	1.6540854
13.288748918363058	2.7628562	1.6621842
13.306394338903031	2.7493649	1.6581209
13.32404007638889	2.7111833	1.6465671
13.341686131256164	2.7101083	1.6462406
13.359332503940449	2.6596193	1.630834
13.376979194877402	2.66648	1.632936
13.394626204502751	2.6864061	1.6390259
13.412273533252307	2.7349389	1.6537651
13.429921181561937	2.7459044	1.6570771
13.447569149867581	2.7486084	1.6578927
13.465217438605247	2.7172427	1.6484061
13.482866048211022	2.6745596	1.635408
13.500514979121052	2.6803048	1.6371636
13.518164231771568	2.7359638	1.6540749
13.535813806598844	2.7780359	1.6667441
13.553463704039254	2.7558923	1.6600881
13.571113924529229	2.7031534	1.6441269
13.588764468505275	2.678372	1.6365732
13.606415336403956	2.7479434	1.6576922
13.624066528661917	2.7750132	1.665837
13.641718045715882	2.8466654	1.6872064
13.659369888002635	2.8975992	1.7022336
13.67702205595903	2.9818099	1.7267917
13.694674550021993	3.039786	1.7434982
13.712327370628532	3.0834072	1.7559633
13.729980518215713	3.154701	1.7761478
13.747633993220681	3.1843262	1.784468
13.765287796080647	3.2090456	1.7913809
13.7829419272329	3.253366	1.8037089
13.800596387114801	3.3304813	1.8249606
13.818251176163775	3.3759356	1.837372
13.835906294817324	3.4264107	1.8510567
13.853561743513023	3.461826	1.8605983
13.871217522688525	3.510246	1.8735651
13.888873632781538	3.5597441	1.8867284
13.906530074229858	3.5874193	1.8940483
13.92418684747135	3.6055977	1.8988411
13.941843952943948	3.6010544	1.8976444
13.959501391085665	3.5313442	1.8791871
13.977159162334578	3.4321618	1.8526095
13.994817267128846	3.3774002	1.8377705
14.012475705906693	3.305211	1.8180239
14.030134479106424	3.227236	1.796451
14.047793587166414	3.1642244	1.7788267
14.065453030525108	3.0945282	1.7591271
14.083112809621026	3.0055451	1.7336508
14.100772924892766	2.9823465	1.7269472
14.118433376778997	2.9649549	1.7219044
14.136094165718458	2.900119	1.7029736
14.153755292149969	2.8164437	1.6782264
14.171416756512416	2.7386813	1.6548961
14.189078559244768	2.6885686	1.6396855
14.20674070078606	2.619667	1.6185385
14.224403181575408	2.6051545	1.6140491
14.242066002051999	2.5787454	1.6058472
14.259729162655093	2.5627236	1.6008509
14.277392663824022	2.54413	1.5950329
14.295056505998208	2.4892013	1.5777203
14.312720689617128	2.4178548	1.5549452
14.330385215120348	2.3717854	1.5400602
14.348050082947497	2.40404	1.5504967
14.3657152935383	2.419941	1.5556159
14.383380847332528	2.39853	1.5487188
14.401046744770051	2.3919442	1.5465912
14.418712986290798	2.4327843	1.5597385
14.436379572334793	2.471183	1.5719997
14.454046503342123	2.467581	1.5708536
14.471713779752946	2.448941	1.5649092
14.489381402007504	2.4275932	1.5580735
14.507049370546113	2.4310455	1.5591811
14.524717685809168	2.4336298	1.5600095
14.542386348237134	2.4176457	1.554878
14.560055358270553	2.4401839	1.5621088
14.577724716350051	2.4934115	1.579054
14.595394422916325	2.517673	1.5867177
14.61306447841015	2.528969	1.5902733
14.63073488327237	2.5030038	1.5820885
14.648405637943917	2.535292	1.59226
14.6660767428658	2.5578635	1.5993322
14.683748198479094	2.5836985	1.6073887
14.701420005224954	2.6493425	1.6276801
14.719092163544628	2.685281	1.6386827
14.73676467387942	2.7051322	1.6447287
14.754437536670727	2.7120795	1.6468393
14.772110752360014	2.687548	1.6393743
14.78978432138882	2.6656682	1.6326874
14.807458244198777	2.7016354	1.6436652
14.82513252123159	2.7184484	1.6487718
14.842807152929028	2.7876265	1.6696187
14.860482139732962	2.769453	1.6641674
14.87815748208531	2.7452064	1.6568664
14.8958331804281	2.7379122	1.6546638
14.91350923520342	2.705924	1.6449693
14.931185646853438	2.7566233	1.6603082
14.948862415820408	2.7509072	1.6585859
14.966539542546656	2.7524207	1.6590421
14.98421702747459	2.7200854	1.6492682
15.001894871046696	2.7624104	1.66205
15.019573073705542	2.730683	1.6524779
15.037251635893766	2.6774395	1.6362883
15.054930558054092	2.6552062	1.6294804
15.072609840629323	2.689757	1.6400479
15.090289484062351	2.8368285	1.6842887
15.107969488796124	3.1440988	1.7731607
15.125649855273691	3.5853627	1.8935053
15.14333058393817	4.1324773	2.0328496
15.161011675232768	5.147691	2.2688522
15.17869312960076	6.5694723	2.5630982
15.196374947485506	8.423453	2.9023187
15.214057129330447	11.458187	3.3849945
15.231739675579114	16.205011	4.0255446
15.249422586675102	21.233192	4.607949
15.267105863062092	24.381691	4.937782
15.284789505183847	24.602837	4.9601245
15.302473513484218	22.455343	4.738707
15.320157888407127	18.846792	4.341289
15.337842630396578	14.6863165	3.832273
15.355527739896656	11.440375	3.3823624
15.37321321735153	8.951553	2.9919147
15.39089906320545	6.5584645	2.56095
15.408585277902748	4.9915047	2.2341676
15.42627186188783	3.917814	1.9793469
15.443958815605198	3.375825	1.8373418
15.461646139499424	3.0652113	1.7507745
15.479333834015168	2.8480468	1.6876158
15.497021899597165	2.7457032	1.6570164
15.514710336690234	2.6702688	1.6340957
15.53239914573928	2.649361	1.6276858
15.550088327189297	2.5972362	1.6115943
15.567777881485336	2.5414011	1.5941772
15.58546780907256	2.5262241	1.58941
15.6031581103962	2.4809482	1.5751026
15.620848785901568	2.4641175	1.5697508
15.638539836034063	2.4675872	1.5708556
15.656231261239173	2.4777157	1.5740762
15.673923061962451	2.4937608	1.5791646
15.691615238649552	2.473996	1.5728941
15.709307791746202	2.4687824	1.5712359
15.727000721698221	2.4459767	1.5639619
15.744694028951498	2.4383981	1.5615371
15.76238771395202	2.4061046	1.5511624
15.780081777145844	2.401305	1.5496144
15.797776218979125	2.3961377	1.5479463
15.815471039898094	2.3988955	1.5488368
15.833166240349064	2.4149368	1.5540067
15.850861820778437	2.4224532	1.5564232
15.868557781632699	2.399593	1.549062
15.886254123358412	2.4012623	1.5496007
15.903950846402232	2.4077759	1.551701
15.921647951210897	2.4251628	1.5572934
15.939345438231225	2.4316337	1.5593697
15.957043307910133	2.429567	1.5587069
15.974741560694602	2.4236035	1.5567927
15.992440197031714	2.431135	1.5592097
16.01013921736862	2.407398	1.5515792
16.02783862215259	2.3961046	1.5479356
16.045538411830933	2.3925753	1.5467951
16.06323858685107	2.4013305	1.5496227
16.080939147660512	2.4417357	1.5626054
16.09864009470684	2.4392078	1.5617963
16.11634142843774	2.4389787	1.561723
16.134043149300954	2.417685	1.5548906
16.15174525774433	2.3972516	1.548306
16.169447754215817	2.382424	1.5435103
16.18715063916342	2.392711	1.546839
16.204853913035244	2.4236364	1.5568032
16.222557576279478	2.4792714	1.5745702
16.240261629344403	22.498915	4.743302
16.257966072678386	43.059036	6.5619383
16.275670906729868	38.15265	6.176783
16.293376131947387	2.559643	1.5998884
16.31108174877957	2.5518239	1.5974429
16.328787757675133	2.5835085	1.6073296
16.34649415908287	2.6242545	1.6199551
16.364200953451657	2.6605582	1.6311218
16.38190814123048	2.694559	1.6415112
16.39961572286839	2.7073681	1.6454082
16.41732369881455	2.732835	1.6531289
16.43503206951817	2.741065	1.6556162
16.45274083542859	2.751542	1.6587772
16.47044999699522	2.7970107	1.6724266
16.488159554667558	2.8561263	1.6900078
16.505869508895184	2.9345746	1.71306
16.523579860127786	2.963309	1.7214265
16.541290608815117	2.9684186	1.7229099
16.559001755407035	3.0244987	1.7391086
16.57671330035348	3.09205	1.7584226
16.59442524410448	3.13603	1.7708839
16.61213758711015	3.1654825	1.7791803
16.629850329820705	3.2292526	1.7970121
16.647563472686436	3.308521	1.8189341
16.665277016157724	3.3916519	1.8416438
16.682990960685053	3.4687867	1.8624679
16.70070530671898	3.5026474	1.8715361
16.718420054710155	3.5142384	1.8746302
16.736135205109335	3.5844052	1.8932525
16.753850758367335	3.684845	1.919595
16.771566714935087	3.6845129	1.9195085
16.789283075263597	3.7112625	1.9264637
16.80699983980398	3.718958	1.92846
16.82471700900741	3.8058321	1.9508542
16.84243458332518	3.9483287	1.9870402
16.860152563208665	4.074824	2.0186193
16.87787094910932	4.125621	2.0311625
16.89558974147871	4.1191916	2.0295792
16.913308940768466	4.1497345	2.0370898
16.931028547430333	4.207054	2.0511105
16.94874856191613	4.2937646	2.0721402
16.966468984677785	4.3869057	2.094494
16.98418981616729	4.4569054	2.1111383
17.00191105683676	4.5369844	2.13002
17.019632707138374	4.534999	2.1295538
17.03735476752442	4.5586476	2.135099
17.05507723844728	4.560748	2.1355908
17.072800120359403	4.6022067	2.1452754
17.090523413713353	4.6662884	2.1601593
17.108247118961785	4.736618	2.1763773
17.125971236557437	4.792359	2.1891458
17.143695766953133	4.809329	2.1930182
17.161420710601806	4.815134	2.1943414
17.179146067956477	4.74063	2.1772988
17.19687183947025	4.6951637	2.1668327
17.21459802559634	4.66801	2.1605577
17.232324626788028	4.6933117	2.1664052
17.25005164349871	4.7402787	2.1772182
17.267779076181863	4.7491517	2.1792548
17.285506925291074	4.6760764	2.1624238
17.30323519127999	4.6338806	2.152645
17.320963874602384	4.5836244	2.14094
17.33869297571211	4.557418	2.134811
17.356422495063114	4.5762067	2.1392071
17.37415243310944	4.5905128	2.142548
17.391882790305218	4.5839367	2.141013
17.40961356710468	4.575832	2.1391194
17.42734476396215	4.570119	2.1377835
17.445076381332044	4.582169	2.1406002
17.462808419668868	4.6398253	2.1540253
17.48054087942723	4.7384405	2.176796
17.498273761061835	5.0677595	2.2511685
17.51600706502747	5.5896306	2.36424
17.533740791779024	6.362904	2.5224798
17.551474941771485	7.8010187	2.7930305
17.56920951545993	8.9045	2.984041
17.586944513299528	11.085505	3.3294902
17.60467993574556	12.6677885	3.5591836
17.622415783253373	14.327834	3.7852125
17.64015205627843	15.751614	3.9688303
17.657888755276293	16.79133	4.0977225
17.675625880702604	17.251045	4.1534376
17.69336343301311	17.021406	4.1257005
17.71110141266366	16.236639	4.0294714
17.728839820110178	15.299562	3.9114654
17.746578655808705	14.507519	3.8088737
17.764317920215372	13.122195	3.622457
17.7820576137864	11.607271	3.4069445
17.79979773697811	9.502235	3.0825696
17.81753829024692	7.5505486	2.747826
17.835279274049356	5.8429403	2.4172175
17.85302068884201	4.8199053	2.1954284
17.870762535081607	4.234421	2.0577707
17.888504813224934	3.929471	1.9822893
17.90624752372891	3.7756214	1.9430958
17.923990667050536	3.6524563	1.9111401
17.941734243646895	3.589914	1.8947068
17.959478253975185	3.5673125	1.888733
17.9772226984927	3.5529685	1.8849319
17.994967577656833	3.490783	1.8683637
18.01271289192506	3.4337916	1.8530493
18.030458641754965	3.392318	1.8418247
18.04820482760425	3.3871136	1.8404113
18.06595144993067	3.3242962	1.8232653
18.083698509192125	3.3026195	1.817311
18.101446005846576	3.2564268	1.8045572
18.119193940352105	3.2366714	1.7990751
18.136942313166887	3.233111	1.7980853
18.1546911247492	3.22291	1.7952465
18.1724403755574	3.2255976	1.7959949
18.19019006604997	3.1902487	1.7861267
18.207940196685467	3.170142	1.7804892
18.225690767922575	3.1688454	1.7801251
18.243441780220046	3.1772606	1.7824872
18.261193234036764	3.1602027	1.7776959
18.278945129831676	3.130813	1.7694104
18.29669746806386	3.1072617	1.7627426
18.314450249192483	3.0905042	1.757983
18.3322034736768	3.0560744	1.7481631
18.349957141976184	3.039433	1.743397
18.3677112545501	3.0660381	1.7510107
18.385465811858108	3.0984237	1.760234
18.403220814359884	3.0702393	1.7522098
18.420976262515172	3.075912	1.7538278
18.43873215678387	3.1169784	1.7654966
18.456488497625923	3.202575	1.7895739
18.474245285501407	3.2931042	1.8146912
18.492002520870486	3.3698766	1.8357223
18.50976020419343	3.3838706	1.83953
18.527518335930615	3.646372	1.9095476
18.545276916542516	4.249695	2.0614789
18.563035946489688	4.4797473	2.1165414
18.580795426232832	4.961509	2.2274446
18.598555356232698	4.8566456	2.20378
18.616315736950185	5.1233063	2.263472
18.63407656884626	4.758764	2.1814592
18.65183785238201	4.956811	2.2263896
18.669599588018617	4.7378078	2.1766505
18.68736177621737	4.71712	2.1718931
18.705124417439652	4.7036595	2.1687922
18.72288751214696	4.5379505	2.1302466
18.740651060800886	4.7077804	2.169742
18.758415063863115	4.4184637	2.1020143
18.77617952179546	4.5662036	2.1368678
18.793944435059814	4.284513	2.0699065
18.811709804118184	4.3042846	2.074677
18.829475629432675	4.2437325	2.0600321
18.8472419114655	3.9971726	1.999293
18.86500865067897	4.06095	2.0151799
18.88277584753551	3.7420168	1.9344293
18.90054350249763	3.7857695	1.9457054
18.918311616027957	3.4855814	1.8669711
18.936080188589226	3.3871565	1.8404229
18.953849220644265	3.0615287	1.7497225
18.971618712656007	2.9250338	1.710273
18.9893886650875	2.859392	1.6909736
19.007159078401887	8.031279	2.833951
19.024929953062408	32.905643	5.736344
19.042701289532435	32.86093	5.7324457
19.060473088275405	25.419102	5.041736
19.07824534975489	2.7106113	1.6463934
19.096018074434568	2.6953974	1.6417665
19.113791262778197	2.6869318	1.6391864
19.13156491524966	2.6719277	1.6346033
19.149339032312945	2.665397	1.6326044
19.167113614432136	2.6591523	1.6306907
19.184888662071433	2.638134	1.6242334
19.202664175695123	2.6229253	1.6195447
19.220440155767623	2.6023161	1.6131696
19.238216602753447	2.5890515	1.609053
19.2559935171172	2.603814	1.6136338
19.27377089932361	2.554481	1.5982744
19.291548749837514	2.5112028	1.5846775
19.309327069123835	2.4918265	1.578552
19.32710585764763	2.48139	1.5752429
19.344885115874032	2.4861317	1.5767472
19.362664844268313	2.5072134	1.5834183
19.380445043295822	2.506527	1.5832015
19.39822571342203	2.4928265	1.5788687
19.41600685511252	2.4934268	1.5790589
19.43378846883297	2.5252569	1.5891057
19.451570555049173	2.5313027	1.5910069
19.469353114227037	2.544851	1.595259
19.48713614683254	2.505277	1.5828067
19.50491965333182	2.484135	1.5761138
19.52270363419109	2.491131	1.5783317
19.540488089876686	2.5084631	1.5838128
19.55827302085503	2.4940317	1.5792503
19.576058427592674	2.4989324	1.5808011
19.593844310556282	2.520204	1.5875151
19.611630670212598	2.538038	1.5931221
19.629417507028506	2.51015	1.5843452
19.64720482147098	2.532349	1.5913357
19.6649926140071	2.5164926	1.5863457
19.682780885104084	2.5404298	1.5938725
19.70056963522921	2.5406437	1.5939397
19.718358864849908	2.525385	1.589146
19.7361485744337	2.5027387	1.5820047
19.753938764448215	2.4967272	1.5801035
19.771729435361202	2.5346816	1.5920683
19.789520587640506	2.4986005	1.5806962
19.807312221754092	2.5056636	1.5829288
19.825104338170043	2.5084052	1.5837946
19.842896937356517	2.4901407	1.578018
19.860690019781824	2.4970171	1.5801953
19.87848358591436	2.5035686	1.5822669
19.896277636222635	2.5198264	1.5873961
19.914072171175278	2.5059009	1.5830038
19.931867191241015	2.5289245	1.5902592
19.94966269688869	2.5491834	1.5966163
19.967458688587264	2.5413208	1.5941521
19.985255166805807	2.513003	1.5852455
20.00305213201348	2.5334194	1.5916718
20.020849584679578	2.513349	1.5853546
20.038647525273507	2.5034633	1.5822337
20.05644595426477	2.466789	1.5706015
20.07424487212299	2.4713442	1.5720509
20.092044279317903	2.4685826	1.5711724
20.109844176319353	2.458409	1.5679314
20.127644563597304	2.4738033	1.572833
20.145445441621817	2.481003	1.57512
20.16324681086307	2.4576664	1.5676947
20.181048671791373	2.3994296	1.5490092
20.198851024877122	2.3622313	1.5369552
20.216653870590836	2.3421159	1.5303973
20.234457209403146	2.3865101	1.5448334
20.252261041784802	2.4194224	1.5554492
20.270065368206662	2.4349744	1.5604404
20.287870189139685	2.4135237	1.5535519
20.305675505054968	2.3933125	1.5470334
20.323481316423702	2.3781617	1.5421289
20.341287623717207	2.3725786	1.5403177
20.359094427406884	2.3827605	1.5436193
20.376901727964288	2.3580835	1.5356052
20.39470952586107	2.3319128	1.5270602
20.41251782156899	2.3180935	1.5225286
20.430326615559935	2.3662226	1.5382531
20.448135908305886	2.3818955	1.5433391
20.465945700278965	2.4012003	1.5495807
20.483755991951384	2.389377	1.545761
20.50156678379548	2.3623986	1.5370096
20.519378076283708	2.355031	1.534611
20.537189869888635	2.3750129	1.5411077
20.55500216508294	2.3865333	1.5448408
20.572814962339415	2.3419445	1.5303413
20.59062826213098	2.3499458	1.5329533
20.60844206493066	2.34956	1.5328275
20.626256371211593	2.3506238	1.5331744
20.644071181447032	2.323202	1.5242053
20.66188649611036	2.331765	1.5270118
20.67970231567506	2.3516421	1.5335065
20.697518640614742	2.325436	1.5249381
20.715335471403122	2.3535466	1.5341274
20.73315280851404	2.3801715	1.5427804
20.750970652421447	2.3738163	1.5407194
20.768789003599412	2.3450084	1.531342
20.786607862522136	2.2951117	1.5149626
20.8044272296639	2.3008218	1.516846
20.82224710549913	2.3304791	1.5265907
20.84006749050237	2.361277	1.5366447
20.857888385148268	3.9103222	1.9774535
20.8757097899116	46.012253	6.783233
20.893531705267254	64.84974	8.052934
20.911354131690224	83.84865	9.156891
20.92917706965566	69.10592	8.312997
20.94700051963877	50.17977	7.0837684
20.96482448211493	29.460197	5.427725
20.982648957559622	4.205199	2.0506582
21.00047394644843	2.3164618	1.5219927
21.01829944925707	2.314848	1.5214624
21.036125466461375	2.2938893	1.5145591
21.053951998537297	2.2767737	1.5088981
21.071779045960906	2.25342	1.5011396
21.089606609208378	2.2424285	1.4974741
21.10743468875603	2.2067714	1.4855206
21.12526328508028	2.213719	1.4878571
21.143092398657675	2.2421327	1.4973752
21.16092202996488	2.2352777	1.4950845
21.17875217947867	2.2088788	1.4862297
21.19658284767596	2.1855354	1.4783556
21.21441403503377	2.1906807	1.4800948
21.232245742029225	2.1902835	1.4799607
21.2500779691396	2.200042	1.4832538
21.26791071684227	2.1933646	1.4810013
21.28574398561475	2.1809943	1.4768189
21.30357777593465	2.1812546	1.4769071
21.321412088279704	2.1840577	1.4778558
21.339246923127792	2.208971	1.4862608
21.357082280956888	2.21684	1.4889057
21.3749181622451	2.19518	1.481614
21.392754567470647	2.1800225	1.4764899
21.41059149711187	2.1653044	1.4714973
21.42842895164726	2.1649272	1.4713691
21.446266931555378	2.173646	1.474329
21.464105437314945	2.1815064	1.4769924
21.481944469404798	2.1867735	1.4787743
21.49978402830388	2.1844838	1.4779999
21.51762411449127	2.1821175	1.4771992
21.53546472844617	2.1360173	1.461512
21.553305870647876	2.1307983	1.4597254
21.571147541575865	2.1128197	1.4535542
21.58898974170967	2.115335	1.4544191
21.60683247152899	2.0974538	1.4482589
21.62467573151363	2.0583303	1.4346882
21.642519522143523	2.0651073	1.4370481
21.660363843898722	2.0760624	1.4408548
21.6782086972594	2.0922785	1.4464711
21.696054082705864	2.1128807	1.4535751
21.713900000718535	2.1040132	1.4505217
21.73174645177795	2.0789163	1.4418447
21.749593436364794	2.0471077	1.4307717
21.767440954959845	2.0353594	1.4266602
21.785289008044032	2.0589323	1.434898
21.803137596098388	2.079102	1.4419092
21.820986719604086	2.062389	1.436102
21.838836379042412	2.0260844	1.4234059
21.85668657489478	2.0177107	1.4204614
21.87453730764273	2.0249548	1.423009
21.892388577767914	2.0415812	1.4288391
21.91024038575213	2.0063257	1.4164482
21.928092732077285	1.9631569	1.401127
21.945945617225426	1.9689139	1.4031799
21.963799041678694	2.0046954	1.4158727
21.981653005919398	31.344976	5.5986586
21.999507510429943	78.14501	8.839967
22.01736255569286	73.10503	8.550148
22.035218142190818	4.2236876	2.0551612
22.05307427040661	2.0576434	1.4344488
22.07093094082315	2.043725	1.4295892
22.088788153923474	2.0545971	1.4333866
22.106645910190746	2.0361364	1.4269325
22.12450421010827	1.9882395	1.4100494
22.142363054159464	1.9637065	1.4013231
22.16022244282787	1.9931031	1.4117731
22.178082376597164	2.0210967	1.4216528
22.195942855951145	2.0144718	1.419321
22.213803881373742	2.019857	1.4212167
22.231665453349002	2.010321	1.4178579
22.24952757236111	1.9985863	1.4137137
22.26739023889438	1.974298	1.4050971
22.28525345343323	1.9422556	1.3936483
22.30311721646225	1.963318	1.4011844
22.320981528466113	2.0085235	1.4172238
22.33884638992964	2.0194623	1.4210778
22.356711801337788	2.0031734	1.415335
22.37457776317561	1.9705521	1.4037635
22.392444275928337	1.9552326	1.3982964
22.410311340081282	1.969239	1.4032958
22.428178956119904	1.9875041	1.4097887
22.446047124529805	1.9855865	1.4091084
22.46391584579669	1.9729699	1.4046245
22.481785120406414	1.9738578	1.4049405
22.49965494884496	1.983215	1.4082667
22.51752533159841	1.9871483	1.4096625
22.53539626915302	1.9828179	1.4081256
22.553267761995137	1.9871131	1.40965
22.571139810611264	1.979475	1.4069382
22.589012415488025	1.9669116	1.4024663
22.60688557711216	1.9682817	1.4029547
22.624759295970566	1.9750743	1.4053733
22.642633572550263	1.9818379	1.4077777
22.660508407338362	1.9859321	1.4092311
22.67838380082217	1.9912202	1.411106
22.696259753489077	1.9986713	1.4137437
22.714136265826614	1.9846281	1.4087683
22.73201333832246	1.986908	1.4095773
22.74989097146439	1.9645861	1.401637
22.76776916574035	1.9416919	1.3934461
22.785647921638393	1.9255139	1.3876289
22.803527239646712	1.9374366	1.3919183
22.82140712025363	1.9775162	1.4062419
22.839287563947593	1.9904752	1.4108421
22.85716857121719	2.007932	1.4170152
22.875050142551135	1.9685847	1.4030626
22.892932278438277	1.9543298	1.3979735
22.910814979367604	1.8920379	1.3755137
22.928698245828222	1.8703325	1.367601
22.946582078309387	1.8715442	1.3680439
22.96446647730047	1.9342077	1.3907579
22.98235144329098	1.9427096	1.3938111
23.000236976770562	1.92684	1.3881066
23.018123078229	1.9350393	1.3910569
23.03600974815619	1.9660268	1.4021508
23.053896987042194	1.9275752	1.3883715
23.071784795377173	1.8813044	1.3716065
23.08967317365145	1.8767949	1.3699616
23.10756212235546	1.9142852	1.383577
23.125451641979787	1.9508817	1.3967397
23.143341733015134	1.9233048	1.3868326
23.161232395952357	1.9288373	1.3888259
23.179123631282426	1.9144776	1.3836465
23.197015439496468	1.9206464	1.3858739
23.214907821085717	1.9341681	1.3907437
23.23280077654157	1.9366934	1.3916513
23.250694306355538	1.9953334	1.4125627
23.268588411019277	2.006715	1.4165857
23.28648309102458	2.0013745	1.4146994
23.304378346863356	1.9872195	1.4096878
23.322274179027676	2.017459	1.4203728
23.340170588009723	2.0088305	1.4173322
23.358067574301852	1.9724393	1.4044356
23.37596513839651	1.9675736	1.4027022
23.39386328078629	1.9731883	1.4047022
23.411762001963947	1.9267815	1.3880856
23.429661302422353	1.9064474	1.3807416
23.4475611826545	1.9119976	1.38275
23.46546164315356	1.9171432	1.3846095
23.48336268441279	1.9205132	1.3858258
23.501264306925638	1.9210665	1.3860254
23.51916651118564	1.956371	1.3987033
23.537069297686497	1.9774494	1.4062182
23.554972666922037	1.9716777	1.4041644
23.57287661938623	1.9702369	1.4036512
23.59078115557318	1.9377831	1.3920428
23.608686275977128	1.9431227	1.3939594
23.62659198109246	1.9343811	1.3908203
23.6444982714137	1.9043232	1.3799722
23.66240514743549	1.8852186	1.3730327
23.68031260965263	1.8796041	1.3709866
23.698220658560068	1.8968492	1.3772615
23.716129294652845	1.9141314	1.3835213
23.7340385184262	1.9379814	1.392114
23.75194833037546	1.941882	1.3935143
23.769858730996123	1.9238707	1.3870367
23.78776972078382	1.9094994	1.3818464
23.80568130023431	1.9171252	1.3846029
23.823593469843495	1.9162881	1.3843006
23.841506230107424	1.9189947	1.3852779
23.859419581522275	1.9394143	1.3926286
23.87733352458438	1.9763927	1.4058423
23.89524805979019	1.9617996	1.4006426
23.913163187636318	1.9093434	1.3817899
23.931078908619508	1.9383303	1.3922393
23.948995223236633	1.98328	1.4082897
23.966912131984735	2.0139167	1.4191253
23.98482963536096	2.0342355	1.4262663
24.002747733862616	2.0356355	1.426757
24.020666427987155	2.0467155	1.4306346
24.038585718232156	2.0093334	1.4175096
24.056505605095353	1.9675936	1.4027094
24.074426089074617	2.032285	1.4255823
24.092347170667946	2.0706208	1.4389652
24.110268850373515	2.111893	1.4532354
24.128191128689586	2.1132922	1.4537166
24.146114006114626	2.1265702	1.4582765
24.164037483147187	2.1257532	1.4579962
24.181961560286005	2.121576	1.4565631
24.199886238029926	2.0980794	1.4484749
24.21781151687797	2.0516286	1.4323508
24.235737397329274	2.0403275	1.4284004
24.253663879883135	2.0109115	1.4180661
24.271590965038975	2.0519505	1.432463
24.289518653296376	2.074254	1.440227
24.30744694515505	2.0454633	1.430197
24.32537584111486	2.0399537	1.4282695
24.34330534167581	2.0464067	1.4305267
24.361235447338046	2.0546312	1.4333985
24.379166158601876	2.0466805	1.4306225
24.39709747596772	2.067285	1.4378057
24.41502939993615	2.0341372	1.4262319
24.432961931007917	2.0216327	1.4218413
24.450895069683856	1.9545859	1.3980651
24.468828816465	1.8746837	1.3691909
24.4867631718525	1.8661886	1.3660852
24.504698136347656	1.9161237	1.3842412
24.52263371045192	1.9949187	1.4124159
24.540569894666874	2.0335796	1.4260364
24.558506689494266	2.0296216	1.4246479
24.57644409543597	2.0154874	1.4196787
24.594382112994012	2.0208385	1.421562
24.61232074267057	2.019108	1.4209533
24.630259984967953	2.005734	1.4162394
24.64819984038863	1.9733802	1.4047705
24.66614030943522	1.9521959	1.39721
24.684081392610462	1.9380363	1.3921337
24.702023090417274	1.9614074	1.4005026
24.7199654033587	1.9785322	1.4066031
24.737908331937927	2.0281687	1.4241378
24.755851876658305	2.0345786	1.4263866
24.773796038023324	2.015419	1.4196545
24.79174081653661	2.0616696	1.4358516
24.809686212701962	2.1324372	1.4602867
24.827632227023294	2.172897	1.474075
24.8455788600047	2.1716943	1.4736669
24.8635261121504	2.1565711	1.4685268
24.88147398396475	2.1161811	1.45471
24.899422475952303	2.1379578	1.4621757
24.917371588617698	2.1697462	1.4730058
24.935321322465768	2.224876	1.4916018
24.953271678001478	2.2941792	1.5146548
24.97122265572994	2.4609783	1.5687505
24.989174256156414	2.794054	1.6715424
25.00712647978632	3.2768004	1.8101934
25.02507932712521	3.880803	1.9699754
25.043032798678798	4.413951	2.1009405
25.060986894952933	5.0129223	2.2389557
25.078941616453637	5.700154	2.3874996
25.096896963687055	6.6155095	2.5720632
25.114852937159508	7.7537694	2.784559
25.132809537377444	8.24624	2.8716266
25.150766764847468	8.288711	2.879012
25.168724620076347	7.7407284	2.7822165
25.186683103570985	6.746505	2.5974035
25.204642215838426	5.6390734	2.3746734
25.222601957385894	4.317891	2.0779536
25.24056232872074	3.3145986	1.8206038
25.25852333035048	2.6868787	1.6391702
25.276484962782778	2.3105223	1.5200403
25.294447226525435	2.1108341	1.452871
25.312410122086423	2.0371282	1.42728
25.330373649973843	2.008669	1.4172752
25.348337810695988	1.940688	1.3930858
25.366302604761245	1.9192448	1.3853681
25.384268032678207	1.916653	1.3844324
25.40223409495558	1.9364921	1.391579
25.420200792102257	1.9234276	1.386877
25.438168124627246	1.8733953	1.3687203
25.45613609303974	1.8649052	1.3656154
25.474104697849057	1.8903939	1.374916
25.492073939564698	1.9183939	1.3850609
25.510043818696285	1.896912	1.3772843
25.528014335753614	1.921442	1.3861609
25.54598549124664	1.9313589	1.3897334
25.56395728568544	1.9403344	1.3929589
25.58192971958028	1.8859332	1.3732928
25.59990279344156	1.8824304	1.3720169
25.617876507779833	1.8606577	1.3640593
25.635850863105826	1.861672	1.364431
25.653825859930386	1.9147562	1.3837471
25.671801498764548	1.9175158	1.3847439
25.68977778011949	1.9016515	1.3790038
25.707754704506524	1.8927302	1.3757653
25.725732272437153	1.8705522	1.3676813
25.743710484423012	1.8467598	1.3589554
25.761689340975888	1.8442391	1.3580277
25.77966884260774	1.8758291	1.3696091
25.797648989830662	1.8962944	1.37706
25.815629783156922	1.853686	1.3615013
25.83361122309895	1.8577197	1.3629819
25.85159331016929	1.8506851	1.3603989
25.869576044880695	1.8540272	1.3616266
25.887559427746034	1.8547336	1.361886
25.90554345927836	1.8581451	1.363138
25.92352813999086	1.8672235	1.3664639
25.94151347039689	1.8915157	1.3753239
25.959499451009965	1.9259628	1.3877906
25.97748608234374	1.909442	1.3818256
25.995473364912062	1.8669944	1.36638
26.013461299228904	1.8394163	1.3562508
26.03144988580839	1.8321955	1.3535862
26.04943912516483	1.8544438	1.3617797
26.067429017812675	1.8499166	1.3601164
26.085419564266537	1.9021282	1.3791766
26.103410765041186	1.9266871	1.3880515
26.12140262065155	1.9462923	1.3950958
26.139395131612723	1.9205811	1.3858503
26.157388298439948	1.8694781	1.3672886
26.17538212164861	1.8374082	1.3555104
26.193376601754295	1.820646	1.3493131
26.211371739272714	1.8722626	1.3683065
26.229367534719746	1.8722289	1.3682941
26.247363988611433	1.8707129	1.36774
26.26536110146397	1.8406875	1.3567194
26.283358873793727	1.8436306	1.3578036
26.301357306117204	1.8275703	1.3518766
26.319356398951104	1.8540783	1.3616455
26.33735615281224	1.8360527	1.3550102
26.35535656821762	1.809462	1.3451624
26.373357645684404	1.8137232	1.3467454
26.39135938572991	1.8272307	1.351751
26.409361788871614	1.8115731	1.3459469
26.427364855627165	1.792105	1.3386953
26.445368586514352	1.7938899	1.3393618
26.46337298205115	1.8151637	1.3472801
26.48137804275568	1.8159006	1.3475535
26.499383769146217	1.8674271	1.3665384
26.517390161741215	1.9002569	1.3784981
26.53539722105928	1.8830813	1.3722541
26.553404947619182	1.8431652	1.3576322
26.571413341939856	1.7898365	1.3378477
26.589422404540397	1.7549119	1.3247309
26.60743213594006	1.8110325	1.345746
26.62544253665827	1.8458421	1.3586178
26.64345360721459	1.8466189	1.3589035
26.66146534812879	1.7968782	1.3404769
26.679477759920758	1.768563	1.3298733
26.69749084311057	1.7488998	1.3224598
26.71550459821847	1.782933	1.3352652
26.733519025764842	1.798702	1.341157
26.751534126270258	1.7754701	1.3324677
26.769549900255434	1.7850634	1.3360627
26.787566348241267	1.8260592	1.3513176
26.80558347074881	1.8218127	1.3497454
26.823601268299267	1.8412434	1.3569243
26.841619741414036	1.8494971	1.3599621
26.85963889061465	1.8678896	1.3667076
26.877658716422832	1.8635756	1.3651284
26.89567921936045	1.8162808	1.3476946
26.913700399949544	1.7655778	1.3287505
26.93172225871233	1.762193	1.3274761
26.949744796171174	1.808766	1.3449037
26.967768012848605	1.876582	1.3698839
26.98579190926733	1.8983173	1.3777944
27.003816485950225	1.8490342	1.359792
27.021841743420318	1.7787348	1.3336922
27.039867682200814	1.7681458	1.3297164
27.057894302815072	1.7910564	1.3383036
27.07592160578664	1.8120528	1.3461251
27.0939495916392	1.8401828	1.3565334
27.111978260896635	1.845618	1.3585353
27.13000761408296	1.8433421	1.3576974
27.148037651722397	1.8528552	1.3611963
27.166068374339304	1.8378707	1.355681
27.184099782458215	1.8625623	1.3647572
27.20213187660384	1.8849832	1.3729469
27.22016465730105	1.8847032	1.3728449
27.23819812507487	1.8528012	1.3611764
27.256232280450533	1.8225329	1.3500122
27.274267123953383	1.8537097	1.36151
27.292302656108987	1.8991547	1.3780982
27.31033887744306	1.9172391	1.384644
27.32837578848146	1.8567225	1.3626161
27.34641338975026	1.8140361	1.3468616
27.364451681775673	1.7980525	1.3409148
27.382490665084074	1.8260075	1.3512985
27.400530340202046	1.8336282	1.3541152
27.41857070765629	1.8235358	1.3503835
27.436611767973726	1.7909126	1.3382498
27.454653521681404	1.7536944	1.3242713
27.472695969306564	1.7656115	1.3287631
27.490739111376627	1.834701	1.3545114
27.508782948419153	1.8652552	1.3657435
27.526827480961902	1.8602291	1.3639022
27.54487270953279	1.8192681	1.3488024
27.562918634659898	1.7870125	1.3367919
27.580965256871508	1.7929165	1.3389983
27.599012576696026	1.8229573	1.3501693
27.617060594662068	1.8245164	1.3507466
27.63510931129842	1.8138348	1.3467869
27.65315872713401	1.8427523	1.3574802
27.67120884269797	1.8494229	1.3599349
27.68925965851958	1.8544259	1.3617731
27.707311175128307	1.8489794	1.3597718
27.725363393053787	1.8626901	1.364804
27.74341631282583	1.8768305	1.3699746
27.7614699349744	1.8726667	1.3684541
27.77952426002968	2.0611134	1.4356579
27.797579288521973	2.1263523	1.4582018
27.815635020981784	2.5432153	1.5947461
27.83369145793979	2.5733225	1.6041579
27.85174859992682	2.4158702	1.554307
27.869806447473923	2.2859297	1.5119292
27.887865001112267	1.9984008	1.413648
27.905924261373233	1.9029952	1.379491
27.92398422878836	1.9087049	1.3815589
27.94204490388936	1.9064208	1.3807319
27.96010628720813	1.9313304	1.3897232
27.978168379276728	1.9101994	1.3820996
27.9962311806274	1.8500313	1.3601586
28.014294691792568	1.8636805	1.3651668
28.0323589133048	1.8802822	1.3712338
28.050423845696887	1.8501723	1.3602104
28.068489489501758	1.8142912	1.3469563
28.086555845252523	1.8321732	1.353578
28.104622913482487	1.8567271	1.3626177
28.122690694725115	1.8745142	1.369129
28.14075918951405	1.8893346	1.3745307
28.15882839838312	1.9000627	1.3784276
28.176898321866304	1.917613	1.3847791
28.1949689604978	1.8959965	1.3769518
28.213040314811945	1.8556747	1.3622315
28.23111238534327	1.8371462	1.3554137
28.249185172626493	1.8525604	1.3610879
28.267258677196473	1.8962413	1.3770407
28.285332899588294	1.9411683	1.3932582
28.303407840337172	1.9471717	1.3954109
28.321483499978545	1.9294938	1.3890622
28.33955987904799	1.9238008	1.3870115
28.357636978081285	1.9243634	1.3872143
28.37571479761439	1.9693806	1.4033462
28.393793338183425	2.0238326	1.4226147
28.41187260032469	2.0135717	1.4190037
28.429952584574686	1.9526429	1.39737
28.448033291470065	1.9267049	1.388058
28.46611472154769	1.9216555	1.3862379
28.484196875344566	1.918972	1.3852696
28.502279753397914	1.9169692	1.3845465
28.52036335624511	1.9667939	1.4024243
28.538447684423716	1.965369	1.4019161
28.556532738471482	1.9816157	1.4076988
28.574618518926325	2.0588684	1.4348757
28.59270502632635	2.0600574	1.43529
28.61079226120985	2.0101545	1.4177991
28.628880224115274	2.0360513	1.4269027
28.646968915581287	2.0762787	1.4409298
28.66505833614671	2.0677118	1.4379541
28.68314848635055	2.066013	1.4373633
28.701239366732004	2.0944436	1.4472193
28.71933097783044	2.0863442	1.4444183
28.737423320185403	2.0774467	1.4413351
28.75551639433665	2.1034505	1.4503278
28.773610200824074	2.1775935	1.4756671
28.791704740187793	2.1833158	1.4776047
28.80980001296809	2.2140803	1.4879786
28.827896019705413	2.2326553	1.4942073
28.845992760940433	2.2503014	1.5001005
28.86409023721397	2.2039566	1.4845729
28.88218844906704	2.1296358	1.4593272
28.900287397040845	2.2188685	1.4895867
28.918387081676755	2.2497942	1.4999315
28.936487503516343	2.3177311	1.5224097
28.954588663101365	2.3681946	1.5388939
28.97269056097374	2.2998369	1.5165213
28.990793197675597	2.279244	1.5097165
29.00889657374923	2.3115573	1.5203806
29.027000689737125	2.3435771	1.5308746
29.04510554618196	2.4123085	1.5531608
29.06321114362659	2.476957	1.5738351
29.08131748261405	2.5177543	1.5867434
29.099424563687567	2.5908961	1.609626
29.11753238739057	2.5885005	1.6088817
29.13564095426663	2.4941447	1.5792861
29.15375026485954	2.459516	1.5682844
29.171860319713275	2.540369	1.5938535
29.18997111937199	2.5925114	1.6101278
29.20808266438002	2.610268	1.6156324
29.226194955281898	2.700288	1.6432554
29.244307992622335	2.7875433	1.6695938
29.26242177694624	2.8286552	1.6818607
29.2805363087987	2.87424	1.6953584
29.29865158872498	2.9135785	1.7069207
29.316767617270557	2.9847453	1.7276416
29.334884394981064	3.0087347	1.7345705
29.353001922402367	3.0014167	1.7324597
29.37112020008047	3.0316021	1.7411497
29.389239228561596	3.1280878	1.76864
29.407359008392152	3.4307108	1.8522178
29.42547954011872	3.7537014	1.9374472
29.44360082428809	4.385492	2.0941565
29.46172286144722	5.4105864	2.3260667
29.479845652143283	6.967656	2.6396317
29.497969196923606	9.000001	3.0000002
29.516093496335728	11.553874	3.399099
29.5342185509274	14.107035	3.7559333
29.55234436124651	16.48515	4.0601907
29.570470927841175	17.814795	4.2207575
29.588598251259686	17.648355	4.2009945
29.60672633205055	16.23543	4.029321
29.624855170762405	14.097063	3.7546055
29.642984767944146	11.450321	3.3838322
29.66111512414481	8.734911	2.9554882
29.67924623991366	6.472514	2.5441136
29.697378115800138	5.0779963	2.253441
29.71551075235387	4.2668443	2.065634
29.733644150124675	3.8727286	1.967925
29.751778309662576	3.576962	1.8912858
29.769913231517766	3.4012723	1.8442539
29.78804891624066	3.343832	1.8286148
29.806185364381818	3.3065898	1.8184031
29.82432257649206	3.2837892	1.8121228
29.842460553122333	3.2762911	1.8100528
29.86059929482382	3.324414	1.8232976
29.878738802147872	3.3745062	1.836983
29.896879075646048	3.4726741	1.8635112
29.915020115870114	3.3826215	1.8391905
29.933161923371976	3.2715771	1.8087502
29.951304498703777	3.296112	1.8155198
29.969447842417857	3.3329222	1.8256292
29.987591955066733	3.2749937	1.8096944
30.005736837203123	3.197459	1.788144
30.023882489379943	3.1488612	1.7745031
30.04202891215028	3.220343	1.7945315
30.060176106067455	3.254663	1.8040684
30.078324071684946	3.1644063	1.7788779
30.09647280955646	3.1067545	1.7625988
30.114622320235863	3.083605	1.7560197
30.132772604277257	3.13296	1.770017
30.1509236622349	3.1278327	1.7685679
30.16907549466328	3.157474	1.7769283
30.18722810211705	3.1068206	1.7626176
30.205381485151097	3.0727315	1.7529209
30.22353564432045	3.0612524	1.7496434
30.241690580180403	3.1075573	1.7628266
30.25984629328638	3.0598226	1.7492348
30.278002784194037	3.0211992	1.7381598
30.296160053459246	2.9848413	1.7276694
30.314318101638033	2.9670656	1.7225173
30.332476929286646	2.9383392	1.7141584
30.35063653696153	3.0035028	1.7330617
30.368796925219307	3.0002964	1.7321364
30.386958094616844	2.9981196	1.7315079
30.40512004571115	2.895011	1.7014731
30.423282779059463	2.8944504	1.7013085
30.441446295219233	2.8919013	1.7005591
30.459610594748067	2.8838105	1.6981785
30.47777567820382	2.8862057	1.6988837
30.495941546144504	2.8160567	1.6781111
30.51410819912835	2.8043091	1.6746072
30.532275637713795	2.8244586	1.6806126
30.55044386245946	2.8546236	1.6895632
30.56861287392416	2.8599985	1.691153
30.586782672666956	2.8190112	1.6789911
30.604953259247047	2.7313244	1.6526719
30.623124634223885	2.7736073	1.665415
30.641296798157075	2.8045485	1.6746787
30.659469751606462	2.792721	1.6711437
30.677643495132074	2.7574096	1.660545
30.695818029294152	2.7660966	1.6631587
30.713993354653116	2.7369275	1.6543663
30.73216947176962	2.7381809	1.654745
30.75034638120448	2.7976396	1.6726146
30.768524083518756	2.8405557	1.6853948
30.786702579273673	2.820124	1.6793225
30.80488186903069	2.8187895	1.6789252
30.82306195335144	2.887027	1.6991254
30.841242832797782	3.0715735	1.7525905
30.85942450793176	3.4039445	1.8449782
30.877606979315637	3.695531	1.9223764
30.895790247511883	4.0733247	2.0182478
30.913974313083134	4.5453377	2.1319797
30.932159176592283	4.9167876	2.2173831
30.95034483860237	4.9989805	2.23584
30.968531299676698	4.758455	2.1813884
30.98671856037873	4.3807125	2.0930152
31.00490662127215	4.045416	2.011322
31.023095482920848	3.6006207	1.8975302
31.04128514588892	3.0814219	1.7553979
31.059475610740662	2.7252784	1.6508417
31.07766687804056	2.6058996	1.6142799
31.09585894835335	2.5460207	1.5956255
31.11405182224393	2.4550226	1.5668511
31.132245500277417	2.4441688	1.5633838
31.15043998301914	2.5029213	1.5820624
31.168635271034628	2.495168	1.5796101
31.18683136488964	2.5051882	1.5827787
31.20502826515008	2.5454347	1.5954418
31.223225972382135	2.5066385	1.5832367
31.241424487152155	2.4628115	1.5693347
31.259623810026692	2.4672084	1.570735
31.27782394157253	2.4556787	1.5670605
31.296024882356644	2.4444392	1.5634702
31.314226632946237	2.4722993	1.5723547
31.332429193908684	2.4375734	1.561273
31.350632565811598	2.468	1.570987
31.368836749222787	2.4368176	1.561031
31.387041744710295	2.4368587	1.5610441
31.40524755284232	2.555642	1.5986375
31.423454174187317	2.5944674	1.610735
31.441661609313922	2.4944599	1.5793859
31.459869858791002	2.444428	1.5634667
31.478078923187628	2.4070122	1.5514549
31.496288803073064	2.3651226	1.5378954
31.514499499016807	2.335134	1.5281146
31.532711011588546	2.3914397	1.5464281
31.550923341358178	2.443397	1.5631369
31.56913648889584	2.4452868	1.5637413
31.587350454771844	2.3952234	1.5476509
31.605565239556732	2.329093	1.5261366
31.62378084382127	2.2810004	1.5102981
31.641997268136382	2.3074214	1.5190198
31.660214513073274	2.3958673	1.547859
31.67843257920331	2.3502574	1.533055
31.6966514670981	2.2742727	1.5080692
31.71487117732944	2.3499303	1.5329483
31.733091710469346	2.4199955	1.5556335
31.751313067090052	2.4192958	1.5554086
31.769535247764008	2.3984497	1.548693
31.787758253063878	2.329788	1.5263643
31.805982083562526	2.2612426	1.5037428
31.824206739833024	2.2105005	1.4867752
31.84243222244869	2.2047417	1.4848373
31.860658531983013	2.2569826	1.5023258
31.878885669009737	2.268817	1.5062592
31.897113634102784	2.2841282	1.5113332
31.91534242783632	2.2618167	1.5039338
31.933572050784694	2.2567787	1.5022578
31.951802503522508	2.2047205	1.4848301
31.970033786624548	2.1801827	1.4765441
31.988265900665834	2.157482	1.4688369
32.006498846221575	2.2257738	1.4919027
32.02473262386724	2.2768128	1.5089111
32.04296723417845	2.1869125	1.4788213
32.0612026777311	2.1625702	1.470568
32.07943895510129	2.1849434	1.4781554
32.097676066865304	2.161072	1.4700586
32.115914013599685	2.1670272	1.4720826
32.13415279588115	2.2077086	1.485836
32.152392414286666	2.1704476	1.473244
32.1706328693934	2.170971	1.4734215
32.18887416177875	2.1807883	1.4767492
32.20711629202032	2.2257702	1.4919015
32.225359260695924	2.2378368	1.4959401
32.243603068383614	2.1610656	1.4700563
32.26184771566166	2.0898082	1.445617
32.28009320310852	2.0962975	1.4478596
32.2983395313029	2.1220329	1.4567199
32.31658670082372	2.1198485	1.4559699
32.33483471225012	2.1416671	1.4634436
32.35308356616143	2.076825	1.4411193
32.371333263137245	2.0222228	1.4220488
32.38958380375734	2.056163	1.4339328
32.407835188601744	2.1058378	1.4511505
32.42608741825067	2.0956364	1.4476312
32.444340493284585	2.0716672	1.4393288
32.46259441428416	2.030008	1.4247835
32.48084918183028	1.9799525	1.4071078
32.49910479650405	1.9381565	1.3921769
32.51736125888683	1.9269701	1.3881536
32.53561856956014	1.930433	1.3894002
32.5538767291058	2.0010955	1.4146008
32.572135738105764	2.1071527	1.4516035
32.59039559714228	2.1454072	1.4647208
32.608656306797776	2.051312	1.4322402
32.62691786765491	1.9594461	1.3998022
32.645180280296586	1.9581802	1.3993499
32.663443545305896	2.015121	1.4195496
32.68170766326619	2.061258	1.4357082
32.69997263476099	2.023747	1.4225847
32.7182384603741	1.9955033	1.4126228
32.7365051406895	2.0350752	1.4265606
32.75477267629144	2.0770063	1.4411823
32.77304106776434	2.1093893	1.4523736
32.79131031569289	2.060635	1.4354912
32.809580420661966	1.9834417	1.4083471
32.827851383256714	1.9180378	1.3849324
32.84612320406245	2.0178006	1.4204931
32.86439588366476	2.146726	1.465171
32.88266942264945	2.135881	1.4614654
32.9009438216025	2.047407	1.4308763
32.9192190811102	2.0164263	1.4200093
32.937495201758985	1.960254	1.4000907
32.95577218413556	1.9089509	1.381648
32.974050028826866	1.9595519	1.39984
32.992328736420035	2.0705976	1.4389571
33.010608307502444	2.1177683	1.4552554
33.02888874266169	1.9810683	1.4075043
33.047170042485604	1.9475198	1.3955357
33.06545220756225	1.977309	1.4061682
33.083735238479896	1.9705725	1.4037708
33.10201913582707	1.915386	1.3839747
33.12030390019248	1.9588552	1.3995911
33.138589532165135	2.012604	1.4186628
33.15687603233419	2.0363445	1.4270054
33.17516340128909	2.1305673	1.4596463
33.19345163961947	2.1381845	1.4622532
33.211740747915215	2.0645769	1.4368635
33.23003072676643	2.1130717	1.4536408
33.248321576763466	2.0706768	1.4389846
33.266613298496885	1.922344	1.3864862
33.28490589255747	1.9051467	1.3802705
33.30319935953626	1.941651	1.3934314
33.32149370002451	1.9072969	1.3810492
33.339788914613706	1.8404094	1.3566169
33.358085003895575	1.8930554	1.3758835
33.376381968462034	1.9778103	1.4063464
33.39467980890529	1.9617953	1.4006411
33.41297852581774	1.8204824	1.3492526
33.43127811979204	1.8000166	1.341647
33.44957859142105	1.8216802	1.3496963
33.467879941297866	2.0311654	1.4251896
33.486182170015844	2.0172825	1.4203107
33.50448527816853	1.9207387	1.3859072
33.522789266349754	1.918073	1.3849452
33.541094135153514	1.9235654	1.3869267
33.55939988517411	1.9174577	1.384723
33.57770651700602	1.9686538	1.4030873
33.59601403124398	1.9716568	1.4041569
33.61432242848296	1.8839018	1.372553
33.632631709318154	1.8745496	1.3691419
33.650941874344994	1.9687172	1.4031098
33.66925292415916	1.9778494	1.4063603
33.68756485935654	1.9012889	1.3788723
33.70587768053328	1.8260181	1.3513024
33.724191388285746	1.8019818	1.3423792
33.74250598321054	1.9346609	1.3909209
33.760821465904506	1.9921411	1.4114323
33.77913783696474	1.9296404	1.389115
33.79745509698852	1.8302284	1.3528594
33.815773246573414	1.8279686	1.3520238
33.8340922863172	1.9539185	1.3978263
33.852412216817896	1.9948035	1.4123751
33.87073303867377	1.8839667	1.3725767
33.889054752483304	1.8763624	1.3698038
33.907377358845245	1.980588	1.4073336
33.92570085835853	2.0252318	1.4231064
33.94402525162239	2.082088	1.4429442
33.96235053923627	2.1250095	1.4577413
33.980676721799824	2.0366433	1.4271101
33.999003799912984	1.9445075	1.394456
34.01733177417592	1.8608742	1.3641386
34.03566064518901	1.7728769	1.3314942
34.0539904135529	1.7916008	1.3385069
34.07232107986846	1.9172348	1.3846425
34.090652644736785	2.0609	1.4355835
34.108985108759235	2.1361976	1.4615737
34.12731847253742	2.1786904	1.4760388
34.14565273667313	2.1530955	1.467343
34.16398790176847	2.0379224	1.4275582
34.18232396842574	1.9191465	1.3853327
34.20066093724749	1.9557803	1.3984921
34.21899880883651	2.059321	1.4350334
34.23733758379583	2.046999	1.4307337
34.25567726272874	1.9702829	1.4036677
34.27401784623872	1.9424938	1.3937337
34.29235933492957	2.0712914	1.4391981
34.31070172940526	2.0967417	1.4480131
34.32904503027003	2.0167341	1.4201176
34.347389238128386	1.9793792	1.4069041
34.36573435358502	2.0377302	1.4274908
34.38408037724492	2.096178	1.4478184
34.402427309713296	2.02028	1.4213655
34.42077515159559	1.8340068	1.3542551
34.43912390349752	1.8109974	1.345733
34.45747356602499	1.8134443	1.3466419
34.47582413978423	1.9908079	1.41096
34.49417562538163	2.1566262	1.4685456
34.51252802342388	2.093327	1.4468335
34.53088133451789	2.1360908	1.4615371
34.54923555927084	2.1318002	1.4600686
34.567590698290104	2.1488478	1.4658949
34.58594675218336	2.1685772	1.4726089
34.6043037215585	2.01737	1.4203415
34.62266160702365	1.7963096	1.3402648
34.641020409187234	1.6698956	1.2922444
34.65938012865785	1.7156459	1.3098266
34.677740766044394	1.7598987	1.3266118
34.69610232195598	1.8290226	1.3524137
34.714464797002016	1.9352309	1.3911258
34.73282819179208	1.895164	1.3766496
34.751192506936064	1.8636644	1.365161
34.76955774304408	1.9329365	1.3903009
34.7879239007265	1.9009995	1.3787674
34.80629098059391	1.9547585	1.3981268
34.824658983257194	1.8382527	1.3558217
34.843027909327446	1.723644	1.3128762
34.86139775941603	1.7166486	1.3102094
34.879768534134534	1.8309277	1.3531178
34.89814023409483	1.9411008	1.3932339
34.91651285990901	1.962517	1.4008987
34.93488641218944	1.8204217	1.34923
34.95326089154871	1.9411987	1.3932691
34.97163629859967	2.1233594	1.4571751
34.99001263395542	2.0754993	1.4406593
35.00838989822934	1.9471622	1.3954076
35.02676809203499	1.7591728	1.3263382
35.04514721598624	1.7455213	1.3211818
35.063527270697215	1.8478822	1.3593683
35.081908256782256	2.0643742	1.436793
35.10029017485597	2.0790784	1.441901
35.11867302553321	2.1020293	1.4498377
35.137056809429104	1.937716	1.3920187
35.155441527159006	1.8295425	1.3526058
35.173827179338524	1.9579183	1.3992563
35.19221376658354	1.8485154	1.3596011
35.21060128951017	1.8853444	1.3730785
35.2289897487348	1.8683752	1.3668852
35.24737914487405	1.9015377	1.3789625
35.26576947854479	1.9041384	1.3799052
35.28416075036418	1.8614163	1.3643373
35.30255296094958	1.9066737	1.3808235
35.32094611091867	2.022367	1.4220995
35.33934020088932	2.015816	1.4197943
35.35773523147969	2.0360012	1.4268851
35.3761312033082	2.2734492	1.5077962
35.394528116993506	2.1910076	1.4802053
35.41292597315452	1.9318947	1.3899261
35.431324772410434	1.811896	1.3460668
35.449724515380666	1.8389972	1.3560963
35.46812520268491	2.1191106	1.4557165
35.486526834943106	2.2198145	1.4899042
35.504929412775454	2.122425	1.4568545
35.52333293680242	2.023559	1.4225186
35.54173740764471	1.9286329	1.3887522
35.560142825923286	1.5014447	1.2253345
35.5785491922594	1.167976	1.0807294
35.59695650727454	1.1671554	1.0803497
35.61536477159042	1.1140177	1.0554703
