0.008763373481513119	0.0	0.0
0.026290120649546365	0.0	0.0
0.043816868432600686	0.0	0.0
0.06134361724069026	0.0	0.0
0.07887036748382949	0.0	0.0
0.0963971195720331	0.0	0.0
0.11392387391531617	0.0	0.0
0.1314506309236943	0.026983535	0.16426666
0.1489773910071836	0.038716078	0.19676402
0.16650415457580078	0.11012218	0.33184662
0.18403092203956356	0.11692347	0.34194073
0.20155769380849	0.13329078	0.3650901
0.2190844702925996	0.14637744	0.38259307
0.2366112519019124	0.20634641	0.45425367
0.2541380390464497	0.22273566	0.4719488
0.27166483213623416	0.21676733	0.4655828
0.28919163158128947	0.21713482	0.46597728
0.3067184377916406	0.15572456	0.3946195
0.324245251177314	0.17147192	0.41409168
0.34177207214833777	0.13059488	0.36137915
0.3592989011147415	0.17644064	0.4200484
0.37682573848655654	0.22524989	0.474605
0.39435258467381573	0.245712	0.49569345
0.41187944008655414	0.26522866	0.51500356
0.42940630513480854	0.23101021	0.48063523
0.446933180228618	0.22823523	0.47773972
0.4644600657780234	0.16594523	0.40736377
0.48198696219306775	0.107970834	0.32858917
0.49951386988379676	0.07214751	0.26860288
0.5170407892602581	0.080360405	0.2834791
0.5345677207325025	0.12927924	0.35955423
0.5520946647105822	0.15313289	0.39132196
0.5696216216045534	0.1823144	0.4269829
0.5871485918244737	0.16100277	0.4012515
0.6046755757804043	0.13573933	0.36842817
0.6222025738824094	0.11982519	0.34615776
0.6397295865405557	0.10829028	0.3290749
0.6572566141649129	0.13114262	0.3621362
0.6747836571655547	0.13036622	0.36106262
0.6923107159525568	0.15820186	0.39774597
0.7098377909359992	0.18143162	0.4259479
0.7273648825259653	0.20056416	0.4478439
0.7448919911325411	0.23497628	0.4847435
0.762419117165817	0.17831881	0.42227814
0.7799462610358868	0.14040178	0.37470224
0.7974734231528482	0.11397918	0.33760804
0.8150006039268024	0.16403893	0.4050172
0.8325278037678551	0.21549428	0.4642136
0.8500550230861152	0.26400906	0.51381814
0.8675822622916969	0.25790882	0.50784725
0.8851095217947171	0.21868676	0.46763957
0.9026368020052984	0.18924959	0.43502825
0.9201641033335665	0.19518581	0.4417984
0.9376914261896523	0.21249388	0.46097058
0.9552187709836915	0.2403935	0.4902994
0.9727461381258234	0.2535994	0.50358653
0.990273528026193	0.25216594	0.50216126
1.0078009410949496	0.25171173	0.5017088
1.0253283777422473	0.26308236	0.51291555
1.0428558383782454	0.25869378	0.5086195
1.0603833234131086	0.24854381	0.49854168
1.0779108332570058	0.24898575	0.49898472
1.0954383683201119	0.2912279	0.5396554
1.112965929012607	0.33211097	0.5762907
1.1304935157446763	0.46338898	0.6807268
1.1480211289265108	0.50960255	0.7138645
1.1655487689683062	1.3506615	1.1621796
1.1830764362802655	1.6764954	1.2947955
1.200604131272596	2.1005614	1.4493314
1.2181318543555117	2.462323	1.569179
1.235659605939232	2.476049	1.5735466
1.253187386433982	3.8420005	1.9601022
1.270715196249994	6.132656	2.47642
1.2882430357975057	11.803825	3.4356697
1.3057709054867608	16.765575	4.0945787
1.3232988057280106	22.562847	4.7500367
1.3408267369315112	27.079712	5.203817
1.358354699507526	30.73705	5.5441003
1.3758826938663256	34.701332	5.890784
1.3934107204181858	36.79768	6.066109
1.410938779573391	37.204617	6.099559
1.4284668717422309	37.899334	6.1562433
1.4459949973350033	37.363014	6.1125293
1.4635231567620117	37.28338	6.106012
1.4810513504335687	36.714787	6.059273
1.4985795787599925	36.147625	6.0122895
1.5161078421516088	35.902798	5.9918942
1.5336361410187505	35.051918	5.920466
1.5511644757717598	34.771866	5.8967676
1.5686928468209842	35.652695	5.970988
1.58622125457678	36.540237	6.0448523
1.6037496994495108	37.66867	6.1374807
1.621278181849548	37.70197	6.140193
1.6388067021872719	38.337063	6.191693
1.6563352608730693	37.730537	6.142519
1.673863858317336	36.66202	6.0549173
1.6913924949304753	35.39472	5.949346
1.7089211711228998	34.08932	5.838606
1.7264498873050296	33.249737	5.7662582
1.7439786438872935	32.79737	5.7268987
1.7615074412801288	31.941172	5.6516523
1.779036279893981	31.340464	5.5982556
1.796565160139305	30.25677	5.500615
1.814094082426564	29.685078	5.4484015
1.8316230471662298	28.869694	5.3730526
1.849152054768784	28.066784	5.297809
1.8666811056447168	27.471533	5.241329
1.8842102002045273	26.817003	5.1785135
1.901739338858724	26.175293	5.1161795
1.9192685220178245	25.65921	5.065492
1.9367977500923557	24.975964	4.997596
1.9543270234928547	24.500965	4.949845
1.971856342629867	24.07715	4.9068475
1.9893857079139496	23.647226	4.8628416
2.006915119755667	22.916058	4.7870717
2.0244445785655945	22.065199	4.697361
2.0419740847543175	21.449293	4.631338
2.0595036387324317	21.065136	4.5896773
2.0770332409105414	20.615461	4.5404253
2.094562891699263	20.263443	4.5014935
2.1120925915092217	19.68324	4.4365797
2.129622340751053	19.549246	4.421453
2.1471521398354043	187.72615	13.70132
2.1646819891729323	444.2445	21.077108
2.182211889174303	440.60974	20.990705
2.1997418402501974	452.9197	21.28191
2.2172718428113023	432.92233	20.806786
2.234801897268317	320.9012	17.913715
2.2523320040319548	17.436083	4.1756535
2.269862163512935	17.139866	4.1400323
2.287392376121992	16.653305	4.0808463
2.304922642269869	16.297548	4.037022
2.322452962367322	15.948383	3.9935427
2.3399833368251164	15.554179	3.9438787
2.357513766054032	15.552442	3.9436584
2.3750442504648586	15.234119	3.903091
2.3925747904683963	14.951535	3.8667214
2.410105386475459	14.7095995	3.8353095
2.4276360388968707	14.284962	3.779545
2.445166748143469	14.140251	3.7603526
2.4626975146261025	13.668819	3.6971366
2.4802283387556323	13.458848	3.6686304
2.4977592209429305	13.232163	3.637604
2.5152901615988825	12.953738	3.5991302
2.5328211611343865	12.95409	3.599179
2.5503522199603523	12.755002	3.5714145
2.5678833384877024	12.635305	3.5546174
2.5854145171273712	12.359866	3.51566
2.6029457562903064	12.059185	3.4726338
2.620477056387469	11.908979	3.450939
2.6380084178298326	11.656479	3.4141586
2.655539841028383	11.568552	3.4012575
2.673071326394119	11.488468	3.3894644
2.6906028743380523	11.216765	3.349144
2.708134485271211	10.941667	3.3078191
2.7256661596046325	10.587077	3.253779
2.743197897749369	10.328678	3.2138262
2.760729700116486	10.287116	3.2073534
2.778261567117063	10.245878	3.2009184
2.795793499162193	10.221806	3.197156
2.8133254966629817	10.149443	3.185819
2.830857560030551	9.895192	3.1456625
2.8483896896760337	9.622646	3.102039
2.865921886010578	9.432184	3.071186
2.883454149445347	9.434453	3.0715554
2.9009864803915177	9.482696	3.0793986
2.91851887926028	9.3239355	3.053512
2.9360513464628384	9.119159	3.0197945
2.953583882410413	8.962296	2.9937093
2.9711164875142373	8.861171	2.9767718
2.9886491621855606	8.732566	2.9550915
3.0061819068356455	8.690528	2.9479702
3.023714721875769	8.623649	2.936605
3.041247607717225	8.493941	2.9144368
3.0587805647713213	8.22433	2.8678093
3.0763135934493806	8.016335	2.8313131
3.0938466941627407	7.857288	2.8030853
3.1113798673227544	7.80706	2.7941117
3.1289131133407904	7.7473326	2.7834032
3.1464464326282315	7.809571	2.794561
3.1639798255964786	7.8009286	2.7930143
3.1815132926569443	7.6907907	2.7732275
3.1990468342210603	7.587882	2.754611
3.216580450700272	7.534585	2.7449198
3.2341141425060416	7.4587803	2.7310767
3.251647910049847	7.4526143	2.7299476
3.2691817537431813	7.2898026	2.6999633
3.286715673997555	7.07054	2.6590488
3.3042496712244938	6.9650016	2.639129
3.32178374583554	6.8607516	2.6193037
3.339317898242251	6.9333444	2.6331244
3.3568521288562034	6.8115916	2.6099026
3.3743864380889876	6.7396812	2.5960896
3.3919208263522127	6.6953535	2.587538
3.4094552940575023	6.7062006	2.5896332
3.4269898416164972	6.7318215	2.5945754
3.444524469440858	6.552696	2.5598235
3.4620591779422587	6.4176016	2.5332985
3.479593967532391	6.3960586	2.529043
3.4971288386229658	6.418654	2.5335062
3.5146637916257086	6.45851	2.54136
3.5321988269523628	6.4163294	2.5330474
3.5497339450146903	6.507534	2.5509868
3.5672691462244708	6.472441	2.5440993
3.5848044309934988	6.4260473	2.534965
3.60233979973359	6.3545823	2.5208297
3.619875252856575	6.3553348	2.520979
3.6374107907743034	6.339247	2.5177863
3.6549464138986427	6.373968	2.5246718
3.6724821226414788	6.336558	2.517252
3.690017917414714	6.360368	2.521977
3.7075537986302702	6.3621607	2.5223324
3.7250897667000857	6.3166327	2.5132911
3.7426258220361235	6.524808	2.5543704
3.7601619650503553	6.763094	2.600595
3.777698196154779	7.3376646	2.7088125
3.7952345157614067	8.417635	2.9013162
3.8127709242822716	9.34008	3.0561545
3.830307422129425	11.526396	3.3950546
3.847844009714936	30.201685	5.495606
3.8653806874508954	97.78767	9.888764
3.882917455749409	97.11926	9.854911
3.900454315022606	97.1368	9.855801
3.917991265682631	41.73389	6.4601774
3.9355283081416506	11.303232	3.362028
3.9530654428118495	9.013574	3.0022614
3.970602670105433	7.701591	2.7751741
3.9881399904346244	6.728732	2.59398
4.005677404211669	6.5131702	2.5520914
4.023214911848827	6.3764	2.5251534
4.0407525137583855	6.450959	2.5398738
4.058290210352644	6.53374	2.5561182
4.075828002043927	6.4959416	2.5487137
4.0933658892445814	6.4133034	2.53245
4.110903872366966	6.2961836	2.5092196
4.128441951823468	6.23719	2.4974365
4.145980128026488	6.2748995	2.5049748
4.163518401388452	6.245575	2.4991148
4.181056772321807	6.1722107	2.4843934
4.1985952412390155	6.119952	2.4738538
4.216133808552567	6.0231013	2.4542007
4.233672474674966	6.1862707	2.4872215
4.251211240018741	6.4522333	2.5401247
4.268750104996445	6.754235	2.598891
4.286289070020643	7.706453	2.7760499
4.303828135503928	9.309167	3.0510926
4.3213673018589125	29.663654	5.446435
4.3389065694982305	90.81341	9.529607
4.356445938834537	166.0122	12.884572
4.3739854102805085	171.53217	13.097029
4.391524984248844	172.45221	13.132106
4.409064661152262	136.52289	11.684301
4.426604441403504	96.84635	9.841054
4.444144325415337	75.92518	8.713506
4.461684313600543	22.053837	4.6961513
4.47922440637193	22.522932	4.745833
4.496764604142329	20.610012	4.539825
4.5143049073245916	18.770357	4.332477
4.531845316331589	16.650766	4.080535
4.5493858315762195	13.895674	3.7276902
4.566926453471405	11.584067	3.4035375
4.584467182430081	9.390216	3.0643458
4.602008018865218	8.243545	2.8711574
4.619548963189798	7.524698	2.7431183
4.637090015816834	7.06352	2.6577284
4.654631177159353	6.7678094	2.6015015
4.672172447630417	6.5414367	2.5576231
4.689713827643102	6.3212786	2.5142152
4.7072553176105085	6.0835056	2.4664764
4.724796917945764	5.9259048	2.434318
4.742338629062015	5.8541994	2.4195452
4.759880451372434	5.8345547	2.4154823
4.777422385290215	5.811693	2.4107454
4.794964431228581	5.7481823	2.3975368
4.812506589600768	5.747344	2.397362
4.830048860820047	5.692232	2.38584
4.847591245299709	5.6403813	2.3749487
4.8651337434530655	5.611659	2.368894
4.882676355693457	5.5675626	2.3595684
4.900219082434242	5.595978	2.365582
4.917761924088813	5.5748086	2.3611033
4.935304881070575	5.5055428	2.3463893
4.952847953792969	5.4767737	2.3402507
4.970391142669449	5.385893	2.3207526
4.9879344481135055	5.423133	2.328762
5.005477870538642	5.4077473	2.3254564
5.023021410358394	5.3706665	2.3174698
5.040565067986324	5.3396072	2.310759
5.05810884383601	5.341972	2.3112707
5.075652738321066	5.475002	2.3398721
5.09319675185512	5.445582	2.3335772
5.110740884851836	5.459537	2.3365653
5.128285137724894	5.41522	2.3270624
5.145829510888007	5.439717	2.33232
5.163374004754908	5.3906517	2.3217778
5.1809186197393595	5.3876066	2.321122
5.198463356255145	5.3020725	2.302623
5.216008214716077	5.2538486	2.2921276
5.233553195535998	5.312212	2.3048236
5.251098299128764	5.339229	2.3106773
5.268643525908272	5.3395314	2.3107426
5.286188876288432	5.2793465	2.2976828
5.3037343506831895	5.2573643	2.2928944
5.32127994950651	5.2136374	2.283339
5.3388256731723915	5.2055564	2.2815688
5.356371522094851	5.1495	2.2692509
5.373917496687938	5.1869674	2.2774916
5.391463597365729	5.2365947	2.2883606
5.40900982454232	5.308744	2.3040712
5.426556178631843	5.3087854	2.3040802
5.444102660048449	5.303114	2.302849
5.4616492692063225	5.2337227	2.287733
5.479196006519669	5.2066298	2.281804
5.496742872402727	5.1664453	2.2729816
5.514289867269756	5.161537	2.2719016
5.531836991535049	5.0624003	2.2499778
5.549384245612924	5.0732245	2.252382
5.566931629917724	5.136073	2.2662907
5.584479144863822	5.190117	2.2781827
5.6020267908656205	5.150152	2.2693946
5.619574568337545	5.0629787	2.2501063
5.637122477694054	5.134451	2.2659328
5.654670519349629	5.148774	2.2690911
5.672218693718784	5.1477733	2.2688706
5.689767001216059	5.0592294	2.249273
5.707315442256021	5.01733	2.2399397
5.724864017253266	5.049152	2.2470317
5.7424127266224225	5.1041303	2.2592323
5.75996157077814	5.161797	2.2719588
5.777510550135105	5.18725	2.2775536
5.795059665108022	5.2016187	2.2807057
5.812608916111639	5.232454	2.2874558
5.830158303560715	5.2672954	2.295059
5.847707827870055	5.272158	2.296118
5.86525748945448	5.3514338	2.3133166
5.8828072887288485	5.490153	2.3431075
5.900357226108044	5.5358415	2.3528368
5.917907302006979	5.572045	2.360518
5.9354575168406	6.1933312	2.4886405
5.9530078710238765	6.8369355	2.6147535
5.970558364971812	7.449998	2.7294683
5.988108999099438	7.708504	2.7764194
6.005659773821818	8.186596	2.8612227
6.023210689554039	7.852279	2.802192
6.040761746711227	8.230312	2.8688521
6.058312945708531	7.6936116	2.773736
6.075864286961132	7.3159556	2.7048023
6.093415770884244	6.677858	2.584155
6.1109673978931065	6.1147633	2.4728048
6.128519168402993	5.5215416	2.349796
6.146071082829204	5.326677	2.3079596
6.163623141587075	5.179158	2.2757764
6.181175345091969	5.096996	2.2576528
6.198727693759281	5.098001	2.2578754
6.216280188004435	5.1572046	2.270948
6.233832828242885	5.1827497	2.2765653
6.251385614890126	5.1725607	2.2743263
6.268938548361669	5.1165175	2.261972
6.286491629073067	5.077116	2.2532456
6.304044857439898	5.0369763	2.2443209
6.321598233877777	4.9285836	2.2200413
6.339151758802344	4.96109	2.2273505
6.356705432629277	4.96054	2.227227
6.37425925577428	4.9834747	2.2323697
6.391813228653095	4.961757	2.2275002
6.409367351681486	4.9887056	2.233541
6.426921625275259	4.9820666	2.2320542
6.44447604985025	4.968511	2.2290158
6.46203062582232	4.9620876	2.2275743
6.47958535360737	4.9997306	2.2360077
6.497140233621328	5.0421853	2.245481
6.514695266280161	5.007324	2.2377052
6.532250451999859	5.0297403	2.2427082
6.549805791196454	5.065003	2.2505562
6.567361284286002	5.076043	2.2530077
6.584916931684597	5.0901012	2.2561252
6.602472733808367	5.0604224	2.2495382
6.6200286910734665	4.997224	2.2354472
6.637584803896092	5.0153346	2.2394943
6.655141072692462	4.999045	2.2358544
6.672697497878842	4.9936924	2.234657
6.690254079871514	4.94004	2.22262
6.707810819086808	4.9426823	2.2232144
6.725367715941078	4.9376955	2.2220926
6.742924770850719	4.944132	2.2235403
6.760481984232151	5.015237	2.2394724
6.778039356501836	5.00904	2.2380884
6.795596888076266	4.9734397	2.230121
6.813154579371963	4.9469748	2.2241795
6.830712430805492	4.9678597	2.2288697
6.84827044279344	4.995875	2.2351453
6.865828615752445	4.999839	2.236032
6.883386950099159	4.978231	2.231195
6.900945446250287	5.047759	2.2467217
6.918504104622553	5.0839343	2.2547581
6.936062925632727	5.112199	2.2610173
6.953621909697607	5.078454	2.2535427
6.971181057234028	5.0923696	2.2566278
6.988740368658859	5.135219	2.266102
7.006299844389007	5.1754813	2.2749684
7.023859484841407	5.260464	2.2935703
7.041419290433036	5.3154874	2.3055341
7.058979261580902	5.431198	2.3304932
7.0765393987020495	5.6299157	2.3727443
7.094099702213559	5.99644	2.448763
7.111660172532549	6.4033732	2.5304887
7.129220810076164	6.7616124	2.60031
7.146781615261595	7.32533	2.7065346
7.16434258850606	7.6173964	2.759963
7.181903730226821	8.065918	2.840056
7.1994650408411704	8.285215	2.878405
7.217026520766437	8.429571	2.9033723
7.234588170419983	8.653553	2.941692
7.252149990219215	8.545022	2.923187
7.269711980581568	8.410092	2.9000158
7.2872741419245175	8.174604	2.8591266
7.304836474665574	7.7057023	2.7759147
7.322398979222286	7.366523	2.714134
7.339961656012233	7.132953	2.670759
7.357524505453039	6.8888187	2.624656
7.375087527962357	6.6733017	2.5832734
7.392650723957886	6.3896265	2.527771
7.410214093857353	5.9889026	2.4472234
7.427777638078528	5.7208443	2.3918285
7.445341357039213	5.5305533	2.351713
7.4629052511572525	5.3456926	2.3120754
7.480469320850524	5.2618165	2.293865
7.498033566536948	5.198628	2.28005
7.5155979886344735	5.162899	2.2722013
7.5331625875610975	5.118616	2.262436
7.550727363734844	5.115564	2.2617612
7.568292317573788	5.1189475	2.262509
7.585857449496025	5.1565614	2.2708063
7.603422759919705	5.139669	2.267084
7.620988249263007	5.1663713	2.2729654
7.638553917944147	5.168781	2.2734952
7.656119766381391	5.1799717	2.2759552
7.673685794993023	5.1585565	2.2712455
7.691252004197388	5.1504984	2.269471
7.70881839441285	5.1712065	2.2740288
7.726384966057826	5.2036896	2.2811596
7.743951719550762	5.1719933	2.2742016
7.761518655310149	5.222472	2.2852728
7.779085773754511	5.218829	2.2844758
7.796653075302419	5.250741	2.2914495
7.814220560372475	5.272725	2.2962415
7.831788229383323	5.2734303	2.296395
7.8493560827536495	5.318754	2.3062425
7.866924120902174	5.3205333	2.3066282
7.884492344247663	5.3336487	2.3094695
7.9020607532089135	5.353924	2.3138547
7.919629348204771	5.3663244	2.3165329
7.937198129654115	5.3444324	2.3118029
7.954767097975865	5.379439	2.3193617
7.972336253588986	5.393632	2.3224194
7.989905596912472	5.4711456	2.339048
8.007475128365371	5.4516425	2.3348753
8.025044848366756	5.520935	2.349667
8.042614757335754	5.5668526	2.359418
8.060184855691523	5.6570687	2.3784592
8.07775514385327	5.774517	2.4030225
8.095325622240228	5.8026004	2.4088588
8.112896291271687	5.821301	2.4127371
8.130467151366968	5.815834	2.411604
8.148038202945436	5.921359	2.4333842
8.165609446426497	5.969222	2.4431992
8.183180882229594	5.9773083	2.4448535
8.200752510774217	5.8993783	2.4288635
8.218324332479893	5.8836484	2.4256234
8.235896347766193	5.933243	2.4358249
8.253468557052724	6.0415726	2.457961
8.27104096075914	6.0724463	2.4642334
8.288613559305137	6.0685596	2.4634447
8.306186353110448	6.084966	2.4667723
8.32375934259485	6.1307793	2.476041
8.341332528178162	6.261674	2.5023336
8.358905910280246	6.301028	2.5101848
8.376479489321003	6.2898955	2.5079665
8.394053265720377	6.2983866	2.5096586
8.411627239898356	6.336709	2.517282
8.42920141227497	6.318468	2.5136564
8.44677578327029	6.254169	2.5008337
8.464350353304427	6.19497	2.4889698
8.48192512279754	6.1957026	2.489117
8.499500092169827	6.2067914	2.4913433
8.51707526184153	6.1966953	2.4893162
8.534650632232934	6.2115855	2.4923053
8.552226203764365	6.2053227	2.4910486
8.569801976856192	6.2067394	2.4913328
8.587377951928834	6.2390294	2.4978049
8.60495412940274	6.233996	2.496797
8.622530509698416	6.314318	2.5128307
8.6401070932364	6.4449344	2.5386875
8.657683880437283	6.5361176	2.5565832
8.675260871721695	6.7243667	2.5931385
8.692838067510303	6.927199	2.6319573
8.710415468223834	7.143148	2.6726668
8.727993074283043	7.2383947	2.6904266
8.745570886108737	7.2322817	2.6892903
8.763148904121765	7.193126	2.6820004
8.78072712874302	7.1816306	2.6798565
8.798305560393441	7.381073	2.716813
8.815884199494006	7.578321	2.752875
8.833463046465745	7.792573	2.791518
8.851042101729728	7.912902	2.812988
8.86862136570707	8.209197	2.8651695
8.886200838818924	8.375768	2.8940918
8.903780521486505	8.425259	2.9026296
8.921360414131055	8.523804	2.9195554
8.938940517173874	8.663278	2.9433446
8.956520831036297	8.829348	2.9714217
8.97410135613971	9.048516	3.0080752
8.99168209290554	9.208327	3.0345225
9.009263041755265	9.441722	3.0727384
9.026844203110405	9.726575	3.1187458
9.044425577392525	9.878659	3.1430335
9.062007165023239	10.026573	3.1664765
9.079588966424197	10.287226	3.2073705
9.097170982017108	10.430354	3.229606
9.11475321222372	11.404708	3.3770857
9.132335657465825	12.227098	3.4967268
9.149918318165264	12.225806	3.496542
9.167501194743924	12.896293	3.5911407
9.18508428762374	12.620136	3.552483
9.202667597226693	12.647803	3.556375
9.220251123974803	12.384687	3.5191884
9.237834868290143	12.010693	3.4656446
9.255418830594836	11.744033	3.426957
9.273003011311046	11.215711	3.3489866
9.290587410860985	11.086857	3.3296933
9.308172029666911	10.508361	3.24166
9.32575686815113	10.167228	3.1886091
9.343341926735997	8.809453	2.9680722
9.360927205843916	8.590309	2.930923
9.378512705897327	8.376547	2.8942266
9.396098427318728	8.207738	2.864915
9.413684370530664	8.046922	2.8367097
9.431270535955722	7.9676805	2.822708
9.448856924016539	7.9255533	2.8152359
9.466443535135806	7.837625	2.7995758
9.484030369736251	7.836107	2.7993047
9.501617428240658	7.8040233	2.7935681
9.519204711071852	7.80658	2.794026
9.536792218652714	7.858945	2.803381
9.55437995140617	7.91795	2.8138852
9.571967909755191	7.8782077	2.8068144
9.589556094122802	7.8474765	2.8013349
9.60714450493207	7.8200116	2.7964284
9.624733142606116	7.809838	2.7946086
9.642322007568108	7.8372107	2.799502
9.659911100241267	7.926927	2.81548
9.677500421048851	8.039323	2.83537
9.695089970414175	8.110169	2.847836
9.712679748760609	8.182859	2.8605697
9.730269756511557	8.143428	2.8536692
9.747859994090492	8.166633	2.857732
9.765450461920915	8.121858	2.8498874
9.78304116042639	8.134166	2.8520458
9.800632090030527	8.147513	2.854385
9.81822325115699	8.198129	2.8632374
9.835814644229481	8.237376	2.8700829
9.853406269671762	8.266893	2.8752205
9.870998127907646	8.275796	2.8767684
9.888590219360985	8.263331	2.8746011
9.906182544455698	8.303983	2.881663
9.923775103615734	8.371317	2.8933227
9.941367897265108	8.410655	2.9001129
9.958960925827878	8.38544	2.8957624
9.97655418972816	8.324932	2.8852959
9.994147689390106	8.320915	2.8845997
10.011741425237934	8.299102	2.8808162
10.029335397695904	8.2917	2.8795314
10.04692960718833	8.30381	2.8816333
10.06452405413958	8.317095	2.8839374
10.082118738974064	8.420183	2.901755
10.099713662116246	8.344991	2.8887699
10.117308823990651	8.301861	2.881295
10.134904225021844	8.261988	2.8743672
10.152499865634445	8.230348	2.8688583
10.170095746253125	8.302288	2.881369
10.18769186730261	8.327806	2.885794
10.205288229207675	8.2540245	2.8729818
10.222884832393145	8.123976	2.8502588
10.2404816772839	8.007729	2.829793
10.258078764304868	8.042022	2.835846
10.275676093881035	8.073455	2.8413825
10.293273666437438	8.037252	2.8350048
10.310871482399158	8.015689	2.8311992
10.32846954219134	8.083157	2.8430893
10.346067846239173	8.154727	2.8556483
10.363666394967908	8.158723	2.8563478
10.38126518880283	8.112677	2.8482761
10.398864228169298	8.102055	2.8464108
10.416463513492713	8.203849	2.864236
10.434063045198531	8.2936735	2.8798738
10.451662823712262	8.351211	2.889846
10.469262849459467	8.3159075	2.8837316
10.486863122865758	8.1863165	2.8611739
10.504463644356806	8.084468	2.84332
10.522064414358338	8.059801	2.8389788
10.539665433296118	8.022271	2.8323615
10.557266701595987	8.047515	2.8368142
10.574868219683818	7.9257092	2.8152635
10.592469987985552	7.8256693	2.7974398
10.610072006927185	7.777111	2.7887473
10.627674276934751	7.715856	2.777743
10.64527679843435	7.5760927	2.7524703
10.662879571852143	7.4123325	2.72256
10.680482597614331	7.2571774	2.693915
10.698085876147173	7.1204324	2.6684139
10.715689407876988	6.963891	2.6389186
10.733293193230146	6.8067327	2.6089716
10.750897232633072	6.6660514	2.5818698
10.76850152651225	6.5707145	2.5633404
10.786106075294207	6.5112944	2.5517237
10.803710879405534	6.4649544	2.5426276
10.821315939272877	6.447463	2.5391855
10.83892125532294	6.394259	2.5286872
10.856526827982472	6.311878	2.512345
10.874132657678285	6.271635	2.5043232
10.891738744837243	6.2441	2.4988198
10.909345089886271	6.2197323	2.4939392
10.926951693252343	6.1595945	2.481853
10.944558555362494	6.1144857	2.4727485
10.96216567664381	5.992094	2.4478755
10.979773057523436	5.9135437	2.431778
10.997380698428573	5.790642	2.4063752
11.014988599786477	5.7240715	2.3925033
11.032596762024461	5.699072	2.3872728
11.050205185569892	5.657297	2.3785074
11.067813870850198	5.5941005	2.365185
11.085422818292859	5.5218267	2.3498569
11.10303202832541	5.4377384	2.3318958
11.120641501375454	5.3664036	2.31655
11.138251237870636	5.2990694	2.3019707
11.155861238238671	5.230662	2.287064
11.173471502907317	5.1869116	2.2774792
11.191082032304402	5.227401	2.286351
11.208692826857805	5.210528	2.282658
11.226303886995465	5.195643	2.2793953
11.243915213145371	5.110183	2.2605712
11.261526805735578	5.0367923	2.2442799
11.279138665194196	4.9904737	2.2339368
11.296750791949393	4.899202	2.2134142
11.314363186429393	4.8550496	2.2034178
11.331975849062479	4.7960825	2.189996
11.34958878027699	4.7546806	2.180523
11.36720198050133	4.6740923	2.161965
11.384815450163948	4.5519247	2.133524
11.402429189693366	4.4539986	2.1104498
11.420043199518153	4.389582	2.095133
11.437657480066942	63.433132	7.964492
11.455272031768422	85.17373	9.228961
11.472886855051353	107.582855	10.372215
11.490501950344528	99.16622	9.958223
11.508117318076819	84.501015	9.192443
11.52573295867715	45.86172	6.772128
11.543348872574514	4.157641	2.0390294
11.560965060197946	4.1152663	2.028612
11.57858152197655	4.0699406	2.0174093
11.59619825833949	4.007174	2.0017927
11.613815269715985	4.033746	2.0084188
11.631432556535323	38.599102	6.2128177
11.649050119226837	83.13068	9.117602
11.666667958219929	93.53963	9.671589
11.68428607394406	107.76942	10.381205
11.701904466828756	82.51995	9.084049
11.719523137303586	65.28398	8.07985
11.737142085798196	4.5380845	2.130278
11.754761312742286	3.6646543	1.9143287
11.772380818565619	3.6767597	1.9174879
11.790000603698015	3.6611013	1.9134004
11.80762066856935	3.617581	1.9019939
11.825241013609572	3.57737	1.8913937
11.842861639248683	3.5451064	1.8828453
11.860482545916748	3.558437	1.886382
11.878103734043883	3.551714	1.8845991
11.895725204060282	3.4878652	1.8675827
11.91334695639619	3.4589875	1.8598354
11.930968991481919	3.414225	1.8477622
11.948591309747824	3.3961043	1.8428522
11.966213911624347	3.3206239	1.8222579
11.98383679754198	3.2626417	1.8062783
12.001459967931268	3.1893651	1.7858794
12.019083423222835	3.162344	1.778298
12.036707163847352	3.1820009	1.7838163
12.05433119023556	3.1946752	1.7873654
12.071955502818259	3.2034867	1.7898287
12.089580102026313	3.203965	1.7899623
12.107204988290643	3.1758294	1.7820857
12.12483016204224	3.199166	1.7886213
12.142455623712152	3.1864414	1.7850606
12.16008137373149	3.136491	1.7710141
12.177707412531431	3.094845	1.7592171
12.19533374054321	3.0573769	1.7485356
12.212960358198126	3.057359	1.7485305
12.230587265927545	3.0297244	1.7406104
12.248214464162889	3.0451128	1.7450252
12.265841953335649	3.0364995	1.7425555
12.283469733877375	3.0362003	1.7424695
12.301097806219685	3.0231824	1.7387301
12.31872617079425	2.9927115	1.7299455
12.336354828032825	2.9573166	1.7196851
12.353983778367205	2.9032066	1.7038798
12.371613022229262	2.9058516	1.7046559
12.389242560050928	2.9265597	1.7107191
12.406872392264201	2.924335	1.7100687
12.424502519301143	2.9062152	1.7047625
12.442132941593874	2.8784153	1.6965894
12.459763659574586	2.8562808	1.6900535
12.477394673675532	2.839588	1.6851077
12.49502598432903	2.8871546	1.699163
12.51265759196746	2.8740344	1.6952977
12.530289497023267	2.854073	1.6894002
12.547921699928967	2.82321	1.6802411
12.565554201117134	2.7970967	1.6724523
12.583187001020404	2.7998517	1.6732757
12.600820100071486	2.7859654	1.6691211
12.618453498703152	2.7768395	1.6663852
12.636087197348235	2.7505434	1.6584762
12.65372119643964	2.7444804	1.6566473
12.671355496410326	2.7624943	1.6620753
12.68899009769333	2.7996185	1.6732061
12.706625000721749	2.8264813	1.6812142
12.724260205928752	2.8539271	1.689357
12.741895713747551	2.8815024	1.6974989
12.759531524611454	2.9389944	1.7143495
12.777167638953818	2.9646018	1.7218019
12.794804057208072	3.00998	1.7349293
12.812440779807702	3.0579598	1.7487023
12.830077807186271	3.213873	1.7927278
12.847715139777405	3.203883	1.7899394
12.865352778014795	3.3800697	1.8384966
12.882990722332197	3.5255148	1.8776355
12.90062897316344	3.6256454	1.9041128
12.918267530942412	3.766873	1.9408433
12.935906396103071	3.6456857	1.9093679
12.953545569079449	3.7968864	1.9485601
12.971185050305628	3.615461	1.9014366
12.988824840215775	3.6141245	1.9010851
13.006464939244115	3.6172476	1.9019063
13.024105347824943	3.403366	1.8448215
13.041746066392617	3.4778507	1.8648996
13.05938709538157	3.2941446	1.8149779
13.077028435226296	3.3540852	1.8314161
13.094670086361363	3.2928452	1.8146199
13.112312049221401	3.1891327	1.7858143
13.129954324241112	3.0653076	1.750802
13.147596911855258	2.8698623	1.6940668
13.165239812498685	2.8756042	1.6957606
13.182883026606293	2.813749	1.6774234
13.200526554613058	2.7377322	1.6546093
13.218170396954017	2.7163105	1.6481234
13.235814554064284	2.7293613	1.6520779
13.253459026379034	2.7691414	1.6640737
13.271103814333523	2.7432854	1.6562866
13.288748918363058	2.7337043	1.6533917
13.306394338903031	2.7380133	1.6546943
13.32404007638889	2.7305968	1.6524518
13.341686131256164	2.7326164	1.6530627
13.359332503940449	2.6712747	1.6344035
13.376979194877402	2.686587	1.6390811
13.394626204502751	2.7156575	1.6479253
13.412273533252307	2.758648	1.6609178
13.429921181561937	2.7279856	1.6516615
13.447569149867581	2.7501705	1.6583638
13.465217438605247	2.742841	1.6561525
13.482866048211022	2.7054694	1.6448311
13.500514979121052	2.687178	1.6392614
13.518164231771568	2.6861434	1.6389458
13.535813806598844	2.6781387	1.636502
13.553463704039254	2.7076306	1.6454879
13.571113924529229	2.6845667	1.6384648
13.588764468505275	2.6765206	1.6360075
13.606415336403956	2.6843514	1.638399
13.624066528661917	2.7338133	1.6534247
13.641718045715882	2.818931	1.6789672
13.659369888002635	2.852007	1.6887887
13.67702205595903	2.9183764	1.7083256
13.694674550021993	2.9638286	1.7215774
13.712327370628532	3.0327058	1.7414665
13.729980518215713	3.1037292	1.7617404
13.747633993220681	3.1942787	1.7872546
13.765287796080647	3.228357	1.796763
13.7829419272329	3.2650976	1.8069581
13.800596387114801	3.291638	1.8142872
13.818251176163775	3.3379989	1.8270191
13.835906294817324	3.378558	1.8380854
13.853561743513023	3.4361737	1.8536919
13.871217522688525	3.4319088	1.8525412
13.888873632781538	3.455058	1.8587787
13.906530074229858	3.4998677	1.8707933
13.92418684747135	3.5386477	1.8811294
13.941843952943948	3.5482638	1.8836836
13.959501391085665	3.5378115	1.880907
13.977159162334578	3.4810975	1.86577
13.994817267128846	3.4217098	1.8497864
14.012475705906693	3.3186164	1.821707
14.030134479106424	3.224641	1.7957286
14.047793587166414	3.1412044	1.7723444
14.065453030525108	3.085679	1.7566102
14.083112809621026	3.0043333	1.7333013
14.100772924892766	2.9319637	1.7122978
14.118433376778997	2.9134107	1.7068716
14.136094165718458	2.8141935	1.6775558
14.153755292149969	2.7429996	1.6562003
14.171416756512416	2.6463993	1.6267757
14.189078559244768	2.6247663	1.620113
14.20674070078606	2.5981355	1.6118733
14.224403181575408	2.554353	1.5982343
14.242066002051999	2.5155106	1.5860361
14.259729162655093	2.4420264	1.5626985
14.277392663824022	2.4173677	1.5547886
14.295056505998208	2.4057858	1.5510596
14.312720689617128	2.3672473	1.5385861
14.330385215120348	2.3974242	1.5483618
14.348050082947497	2.4427674	1.5629355
14.3657152935383	2.4630287	1.5694039
14.383380847332528	2.4409087	1.5623407
14.401046744770051	2.4230173	1.5566044
14.418712986290798	2.4201021	1.5556678
14.436379572334793	2.447423	1.5644242
14.454046503342123	2.4242444	1.5569985
14.471713779752946	2.380441	1.5428678
14.489381402007504	2.3587792	1.5358318
14.507049370546113	2.3791873	1.5424615
14.524717685809168	2.420871	1.5559149
14.542386348237134	2.4014	1.5496452
14.560055358270553	2.4060693	1.5511509
14.577724716350051	2.4151115	1.554063
14.595394422916325	2.438373	1.561529
14.61306447841015	2.452618	1.5660837
14.63073488327237	2.454773	1.5667715
14.648405637943917	2.4631958	1.5694572
14.6660767428658	2.4583595	1.5679157
14.683748198479094	2.4826758	1.5756509
14.701420005224954	2.5279524	1.5899535
14.719092163544628	2.5950787	1.6109248
14.73676467387942	2.6598747	1.6309122
14.754437536670727	2.7074668	1.6454382
14.772110752360014	2.7171793	1.6483868
14.78978432138882	2.682373	1.6377952
14.807458244198777	2.6709113	1.6342922
14.82513252123159	2.6337647	1.6228877
14.842807152929028	2.6735132	1.6350881
14.860482139732962	2.6691964	1.6337675
14.87815748208531	2.6757538	1.6357732
14.8958331804281	2.6856096	1.638783
14.91350923520342	2.6480677	1.6272885
14.931185646853438	2.6467962	1.6268977
14.948862415820408	2.643431	1.6258632
14.966539542546656	2.6792912	1.636854
14.98421702747459	2.6844506	1.6384293
15.001894871046696	2.64831	1.6273628
15.019573073705542	2.6343877	1.6230797
15.037251635893766	2.6320891	1.6223714
15.054930558054092	2.6784952	1.6366109
15.072609840629323	2.7453077	1.656897
15.090289484062351	2.8468983	1.6872754
15.107969488796124	3.1395044	1.7718647
15.125649855273691	3.5450008	1.8828173
15.14333058393817	4.0217476	2.0054295
15.161011675232768	4.908608	2.2155378
15.17869312960076	6.255133	2.5010264
15.196374947485506	8.145212	2.8539817
15.214057129330447	11.128393	3.3359246
15.231739675579114	15.706043	3.9630852
15.249422586675102	20.791965	4.5598207
15.267105863062092	24.077192	4.906852
15.284789505183847	24.45677	4.945379
15.302473513484218	22.393806	4.7322097
15.320157888407127	18.8094	4.3369803
15.337842630396578	14.705045	3.8347158
15.355527739896656	11.454584	3.384462
15.37321321735153	8.919734	2.9865923
15.39089906320545	6.537018	2.5567594
15.408585277902748	4.9107924	2.2160308
15.42627186188783	3.76921	1.9414454
15.443958815605198	3.2378244	1.7993956
15.461646139499424	2.921815	1.7093318
15.479333834015168	2.8043983	1.6746337
15.497021899597165	2.7516418	1.6588073
15.514710336690234	2.6994	1.6429851
15.53239914573928	2.5957243	1.6111252
15.550088327189297	2.5206172	1.5876452
15.567777881485336	2.5011096	1.5814897
15.58546780907256	2.5092363	1.584057
15.6031581103962	2.4763334	1.573637
15.620848785901568	2.4570446	1.5674963
15.638539836034063	2.4289677	1.5585146
15.656231261239173	2.3996596	1.5490835
15.673923061962451	2.405505	1.550969
15.691615238649552	2.389474	1.5457923
15.709307791746202	2.3834586	1.5438454
15.727000721698221	2.3588753	1.535863
15.744694028951498	2.3673625	1.5386236
15.76238771395202	2.3851473	1.5443922
15.780081777145844	2.416497	1.5545086
15.797776218979125	2.3945932	1.5474473
15.815471039898094	2.378755	1.5423213
15.833166240349064	2.3451734	1.5313959
15.850861820778437	2.3808336	1.542995
15.868557781632699	2.3585882	1.5357696
15.886254123358412	2.3415024	1.5301969
15.903950846402232	2.3204887	1.5233151
15.921647951210897	2.3366673	1.5286162
15.939345438231225	2.3869896	1.5449885
15.957043307910133	2.3946445	1.5474639
15.974741560694602	2.4072485	1.5515311
15.992440197031714	2.3960936	1.547932
16.01013921736862	2.415999	1.5543483
16.02783862215259	2.440607	1.5622443
16.045538411830933	2.4395916	1.5619192
16.06323858685107	2.419832	1.555581
16.080939147660512	2.4098725	1.5523764
16.09864009470684	2.3806477	1.5429348
16.11634142843774	2.3485954	1.5325128
16.134043149300954	2.3701582	1.5395318
16.15174525774433	2.393149	1.5469806
16.169447754215817	2.4655092	1.570194
16.18715063916342	2.4721835	1.5723178
16.204853913035244	2.445523	1.5638168
16.222557576279478	2.406939	1.5514313
16.240261629344403	22.376045	4.7303324
16.257966072678386	42.95063	6.5536733
16.275670906729868	38.062004	6.169441
16.293376131947387	2.505942	1.5830168
16.31108174877957	2.51723	1.5865781
16.328787757675133	2.5162475	1.5862684
16.34649415908287	2.5497184	1.5967838
16.364200953451657	2.5784588	1.605758
16.38190814123048	2.663426	1.6320006
16.39961572286839	2.6994834	1.6430105
16.41732369881455	2.7046595	1.6445849
16.43503206951817	2.6682034	1.6334636
16.45274083542859	2.6636531	1.6320702
16.47044999699522	2.7465417	1.6572694
16.488159554667558	2.848221	1.6876674
16.505869508895184	2.908602	1.7054625
16.523579860127786	2.9186869	1.7084165
16.541290608815117	2.9748251	1.7247682
16.559001755407035	2.9774754	1.7255362
16.57671330035348	3.0289507	1.740388
16.59442524410448	3.0955045	1.7594045
16.61213758711015	3.1841512	1.7844191
16.629850329820705	3.253595	1.8037724
16.647563472686436	3.2793803	1.8109059
16.665277016157724	3.3618512	1.8335352
16.682990960685053	3.3684258	1.8353271
16.70070530671898	3.41166	1.847068
16.718420054710155	3.4616191	1.8605427
16.736135205109335	3.5343225	1.8799794
16.753850758367335	3.6159282	1.9015594
16.771566714935087	3.6588333	1.9128077
16.789283075263597	3.7399828	1.9339036
16.80699983980398	3.788091	1.9463018
16.82471700900741	3.829794	1.956986
16.84243458332518	3.853045	1.9629174
16.860152563208665	3.9551203	1.9887484
16.87787094910932	4.0126877	2.0031693
16.89558974147871	4.089971	2.0223677
16.913308940768466	4.1516967	2.0375712
16.931028547430333	4.2023563	2.049965
16.94874856191613	4.2777734	2.0682778
16.966468984677785	4.3529024	2.086361
16.98418981616729	4.465746	2.1132312
17.00191105683676	4.5013957	2.1216493
17.019632707138374	4.532154	2.1288857
17.03735476752442	4.507355	2.1230533
17.05507723844728	4.5396543	2.1306465
17.072800120359403	4.546857	2.132336
17.090523413713353	4.5356193	2.1296992
17.108247118961785	4.5398164	2.1306844
17.125971236557437	4.647332	2.1557672
17.143695766953133	4.701945	2.168397
17.161420710601806	4.6803446	2.1634104
17.179146067956477	4.6480365	2.1559305
17.19687183947025	4.638883	2.1538067
17.21459802559634	4.667224	2.1603758
17.232324626788028	4.6569204	2.15799
17.25005164349871	4.629919	2.1517246
17.267779076181863	4.6528683	2.1570508
17.285506925291074	4.623946	2.1503363
17.30323519127999	4.6052322	2.1459806
17.320963874602384	4.5655694	2.1367192
17.33869297571211	4.5782576	2.1396863
17.356422495063114	4.5652275	2.1366394
17.37415243310944	4.5469613	2.1323605
17.391882790305218	4.5012813	2.1216223
17.40961356710468	4.506464	2.1228433
17.42734476396215	4.5243263	2.1270463
17.445076381332044	4.5330443	2.1290948
17.462808419668868	4.55175	2.1334832
17.48054087942723	4.634509	2.152791
17.498273761061835	4.9006057	2.213731
17.51600706502747	5.3561325	2.314332
17.533740791779024	6.0607104	2.4618511
17.551474941771485	7.450032	2.7294748
17.56920951545993	8.608883	2.93409
17.586944513299528	10.886946	3.2995372
17.60467993574556	12.618495	3.552252
17.622415783253373	14.3445425	3.787419
17.64015205627843	15.757222	3.9695368
17.657888755276293	16.713842	4.088257
17.675625880702604	17.18189	4.1451044
17.69336343301311	17.091108	4.1341395
17.71110141266366	16.313711	4.0390234
17.728839820110178	15.351243	3.9180663
17.746578655808705	14.369556	3.7907197
17.764317920215372	12.864474	3.586708
17.7820576137864	11.349279	3.368869
17.79979773697811	9.372208	3.0614061
17.81753829024692	7.5664806	2.7507236
17.835279274049356	5.9148026	2.4320366
17.85302068884201	4.864642	2.2055933
17.870762535081607	4.2096562	2.0517447
17.888504813224934	3.901074	1.9751136
17.90624752372891	3.703656	1.9244885
17.923990667050536	3.5870748	1.8939574
17.941734243646895	3.4902294	1.8682156
17.959478253975185	3.4509048	1.8576611
17.9772226984927	3.4121578	1.8472027
17.994967577656833	3.3669267	1.8349187
18.01271289192506	3.3687944	1.8354276
18.030458641754965	3.3155563	1.820867
18.04820482760425	3.3024783	1.8172722
18.06595144993067	3.3231957	1.8229635
18.083698509192125	3.3533769	1.8312228
18.101446005846576	3.3274434	1.8241282
18.119193940352105	3.2466362	1.8018425
18.136942313166887	3.2165344	1.7934699
18.1546911247492	3.2000306	1.788863
18.1724403755574	3.1968508	1.7879739
18.19019006604997	3.2011774	1.7891834
18.207940196685467	3.1695993	1.7803369
18.225690767922575	3.1397219	1.771926
18.243441780220046	3.0640388	1.7504396
18.261193234036764	3.0968707	1.7597928
18.278945129831676	3.1005476	1.7608372
18.29669746806386	3.1112401	1.7638708
18.314450249192483	3.0494177	1.7462583
18.3322034736768	3.016707	1.736867
18.349957141976184	3.0245435	1.7391214
18.3677112545501	3.036282	1.742493
18.385465811858108	3.0579734	1.7487062
18.403220814359884	3.0511608	1.7467573
18.420976262515172	3.0969613	1.7598186
18.43873215678387	3.0894616	1.7576864
18.456488497625923	3.1381447	1.7714809
18.474245285501407	3.2150548	1.7930573
18.492002520870486	3.2804189	1.8111926
18.50976020419343	3.3657207	1.8345901
18.527518335930615	3.6149077	1.901291
18.545276916542516	4.197799	2.0488532
18.563035946489688	4.368033	2.089984
18.580795426232832	4.8230953	2.1961546
18.598555356232698	4.729783	2.1748064
18.616315736950185	5.1029983	2.2589817
18.63407656884626	4.7916903	2.188993
18.65183785238201	4.9759097	2.2306747
18.669599588018617	4.7017336	2.168348
18.68736177621737	4.672059	2.1614947
18.705124417439652	4.6680694	2.1605716
18.72288751214696	4.5186276	2.1257064
18.740651060800886	4.6600504	2.158715
18.758415063863115	4.3606186	2.0882094
18.77617952179546	4.475394	2.1155126
18.793944435059814	4.2095156	2.0517104
18.811709804118184	4.235365	2.0580003
18.829475629432675	4.2098274	2.0517864
18.8472419114655	3.9857924	1.996445
18.86500865067897	4.006664	2.0016654
18.88277584753551	3.7112317	1.9264557
18.90054350249763	3.8239436	1.9554906
18.918311616027957	3.5412912	1.8818319
18.936080188589226	3.421418	1.8497075
18.953849220644265	3.0835896	1.7560153
18.971618712656007	2.9043021	1.7042013
18.9893886650875	2.8735332	1.6951499
19.007159078401887	8.048545	2.8369958
19.024929953062408	32.914234	5.737093
19.042701289532435	32.79912	5.7270517
19.060473088275405	25.33094	5.032985
19.07824534975489	2.6431744	1.6257843
19.096018074434568	2.68659	1.6390821
19.113791262778197	2.6626863	1.631774
19.13156491524966	2.6335578	1.6228241
19.149339032312945	2.6112847	1.615947
19.167113614432136	2.5933664	1.6103933
19.184888662071433	2.5672603	1.6022673
19.202664175695123	2.5299551	1.5905833
19.220440155767623	2.4909854	1.5782856
19.238216602753447	2.4965851	1.5800586
19.2559935171172	2.517389	1.5866282
19.27377089932361	2.5151587	1.5859252
19.291548749837514	2.5072293	1.5834233
19.309327069123835	2.5172246	1.5865763
19.32710585764763	2.5009975	1.5814543
19.344885115874032	2.4708033	1.5718789
19.362664844268313	2.4777682	1.5740929
19.380445043295822	2.457137	1.5675257
19.39822571342203	2.4679258	1.5709634
19.41600685511252	2.4690728	1.5713284
19.43378846883297	2.5138898	1.585525
19.451570555049173	2.5032077	1.5821528
19.469353114227037	2.4649343	1.5700109
19.48713614683254	2.416454	1.5544947
19.50491965333182	2.4565477	1.5673378
19.52270363419109	2.48372	1.5759822
19.540488089876686	2.5028667	1.5820451
19.55827302085503	2.4879372	1.5773196
19.576058427592674	2.5112672	1.5846978
19.593844310556282	2.5369005	1.5927651
19.611630670212598	2.5322723	1.5913116
19.629417507028506	2.5059726	1.5830264
19.64720482147098	2.531626	1.5911084
19.6649926140071	2.5058997	1.5830034
19.682780885104084	2.4746084	1.5730888
19.70056963522921	2.4461172	1.5640068
19.718358864849908	2.4843743	1.5761898
19.7361485744337	2.4749591	1.5732002
19.753938764448215	2.5183623	1.5869349
19.771729435361202	2.5350838	1.5921947
19.789520587640506	2.50699	1.5833477
19.807312221754092	2.4770465	1.5738635
19.825104338170043	2.4954605	1.5797026
19.842896937356517	2.5155942	1.5860626
19.860690019781824	2.5306697	1.5908079
19.87848358591436	2.5211911	1.5878259
19.896277636222635	2.4949956	1.5795555
19.914072171175278	2.464199	1.5697768
19.931867191241015	2.4555948	1.5670338
19.94966269688869	2.4860196	1.5767117
19.967458688587264	2.498573	1.5806875
19.985255166805807	2.5114605	1.5847589
20.00305213201348	2.5004752	1.581289
20.020849584679578	2.4773493	1.5739597
20.038647525273507	2.4268851	1.5578463
20.05644595426477	2.4243274	1.5570252
20.07424487212299	2.4510257	1.5655752
20.092044279317903	2.4656923	1.5702523
20.109844176319353	2.452423	1.5660214
20.127644563597304	2.4197142	1.5555431
20.145445441621817	2.3864794	1.5448234
20.16324681086307	2.3565755	1.5351142
20.181048671791373	2.3786376	1.5422832
20.198851024877122	2.4100459	1.5524323
20.216653870590836	2.4051533	1.5508556
20.234457209403146	2.4085202	1.5519408
20.252261041784802	2.4010434	1.54953
20.270065368206662	2.4158773	1.5543092
20.287870189139685	2.4181488	1.5550398
20.305675505054968	2.412531	1.5532324
20.323481316423702	2.3700182	1.5394864
20.341287623717207	2.333632	1.5276229
20.359094427406884	2.31798	1.5224915
20.376901727964288	2.3560755	1.5349513
20.39470952586107	2.3350391	1.5280834
20.41251782156899	2.3136716	1.5210758
20.430326615559935	2.3027039	1.5174663
20.448135908305886	2.3237019	1.5243694
20.465945700278965	2.305381	1.5183481
20.483755991951384	2.3276849	1.5256752
20.50156678379548	2.368589	1.5390221
20.519378076283708	2.3771253	1.5417929
20.537189869888635	2.3503208	1.5330756
20.55500216508294	2.3455062	1.5315045
20.572814962339415	2.3295498	1.5262862
20.59062826213098	2.3306582	1.5266494
20.60844206493066	2.3192468	1.5229074
20.626256371211593	2.32397	1.5244573
20.644071181447032	2.341161	1.5300853
20.66188649611036	2.3320053	1.5270904
20.67970231567506	2.3074524	1.5190301
20.697518640614742	2.3105474	1.5200485
20.715335471403122	2.3091207	1.519579
20.73315280851404	2.3100598	1.519888
20.750970652421447	2.2733831	1.5077742
20.768789003599412	2.2364595	1.4954797
20.786607862522136	2.2695458	1.5065012
20.8044272296639	2.3011196	1.5169442
20.82224710549913	2.3302207	1.5265061
20.84006749050237	2.3093216	1.5196452
20.857888385148268	3.8050716	1.9506593
20.8757097899116	45.892033	6.774366
20.893531705267254	64.775	8.048292
20.911354131690224	83.80239	9.154365
20.92917706965566	69.04312	8.309219
20.94700051963877	50.107124	7.0786386
20.96482448211493	29.350302	5.417592
20.982648957559622	4.087546	2.021768
21.00047394644843	2.22421	1.4913785
21.01829944925707	2.2704072	1.5067871
21.036125466461375	2.2721813	1.5073756
21.053951998537297	2.2692962	1.5064183
21.071779045960906	2.2620168	1.5040003
21.089606609208378	2.259648	1.5032126
21.10743468875603	2.2260296	1.4919885
21.12526328508028	2.209154	1.4863223
21.143092398657675	2.181889	1.4771218
21.16092202996488	2.157594	1.468875
21.17875217947867	2.1544955	1.4678199
21.19658284767596	2.1538248	1.4675915
21.21441403503377	2.1638238	1.4709941
21.232245742029225	2.1762562	1.4752139
21.2500779691396	2.1925564	1.4807283
21.26791071684227	2.2054772	1.4850849
21.28574398561475	2.1650515	1.4714113
21.30357777593465	2.1601088	1.4697309
21.321412088279704	2.2003422	1.483355
21.339246923127792	2.2428641	1.4976195
21.357082280956888	2.2084608	1.4860891
21.3749181622451	2.1268423	1.4583697
21.392754567470647	2.0924406	1.4465271
21.41059149711187	2.095369	1.447539
21.42842895164726	2.109723	1.4524885
21.446266931555378	2.109363	1.4523647
21.464105437314945	2.117283	1.4550887
21.481944469404798	2.1535707	1.4675049
21.49978402830388	2.1529534	1.4672946
21.51762411449127	2.1418762	1.463515
21.53546472844617	2.1058822	1.4511658
21.553305870647876	2.0903997	1.4458215
21.571147541575865	2.093429	1.4468688
21.58898974170967	2.0935714	1.4469179
21.60683247152899	2.0677407	1.4379641
21.62467573151363	2.0746644	1.4403695
21.642519522143523	2.083315	1.4433693
21.660363843898722	2.1171927	1.4550576
21.6782086972594	2.0946743	1.447299
21.696054082705864	2.09402	1.4470729
21.713900000718535	2.0696847	1.4386399
21.73174645177795	2.0419831	1.4289798
21.749593436364794	2.0316048	1.4253438
21.767440954959845	2.0284567	1.424239
21.785289008044032	2.0154297	1.4196583
21.803137596098388	2.0044422	1.4157833
21.820986719604086	2.0088887	1.4173527
21.838836379042412	2.0301442	1.4248313
21.85668657489478	2.0460892	1.4304157
21.87453730764273	2.0068038	1.416617
21.892388577767914	2.015745	1.4197693
21.91024038575213	2.0172145	1.4202868
21.928092732077285	2.0225234	1.4221545
21.945945617225426	1.9913015	1.4111348
21.963799041678694	1.9611464	1.4004093
21.981653005919398	31.298967	5.594548
21.999507510429943	78.11575	8.838311
22.01736255569286	73.08173	8.548785
22.035218142190818	4.177306	2.043846
22.05307427040661	1.982354	1.407961
22.07093094082315	1.9617994	1.4006425
22.088788153923474	1.9513364	1.3969024
22.106645910190746	1.9511256	1.396827
22.12450421010827	1.9589795	1.3996354
22.142363054159464	1.9459705	1.3949804
22.16022244282787	1.9425172	1.3937421
22.178082376597164	1.9353085	1.3911537
22.195942855951145	1.991041	1.4110425
22.213803881373742	2.0395136	1.4281154
22.231665453349002	2.1046388	1.4507374
22.24952757236111	2.0831432	1.4433098
22.26739023889438	2.0422726	1.429081
22.28525345343323	1.9910259	1.4110372
22.30311721646225	1.9762291	1.4057841
22.320981528466113	2.0247064	1.4229218
22.33884638992964	2.015576	1.4197098
22.356711801337788	1.9994545	1.4140207
22.37457776317561	1.9832319	1.4082726
22.392444275928337	2.0249262	1.422999
22.410311340081282	2.0044634	1.4157908
22.428178956119904	1.9584208	1.3994359
22.446047124529805	1.9191958	1.3853505
22.46391584579669	1.9299859	1.3892393
22.481785120406414	1.9306583	1.3894813
22.49965494884496	1.9219505	1.3863443
22.51752533159841	1.9264117	1.3879523
22.53539626915302	1.9251751	1.3875067
22.553267761995137	1.9189199	1.3852508
22.571139810611264	1.9301983	1.3893157
22.589012415488025	1.9378886	1.3920807
22.60688557711216	1.916291	1.3843017
22.624759295970566	1.9040964	1.37989
22.642633572550263	1.9401809	1.3929038
22.660508407338362	1.9525801	1.3973476
22.67838380082217	1.9417131	1.3934536
22.696259753489077	1.9212619	1.3860959
22.714136265826614	1.9102058	1.382102
22.73201333832246	1.9102756	1.3821272
22.74989097146439	1.9129517	1.383095
22.76776916574035	1.9564621	1.3987359
22.785647921638393	1.9686174	1.4030743
22.803527239646712	1.9797118	1.4070224
22.82140712025363	1.9567035	1.3988222
22.839287563947593	1.9215366	1.386195
22.85716857121719	1.9058454	1.3805236
22.875050142551135	1.9428021	1.3938444
22.892932278438277	1.9374435	1.3919208
22.910814979367604	1.8752208	1.369387
22.928698245828222	1.8546082	1.36184
22.946582078309387	1.8840065	1.3725911
22.96446647730047	1.9251815	1.3875091
22.98235144329098	1.9154295	1.3839904
23.000236976770562	1.89187	1.3754526
23.018123078229	1.9013528	1.3788955
23.03600974815619	1.91902	1.385287
23.053896987042194	1.9389284	1.392454
23.071784795377173	1.940355	1.3929663
23.08967317365145	1.9608622	1.4003079
23.10756212235546	1.9996843	1.414102
23.125451641979787	1.9739271	1.4049652
23.143341733015134	1.9098731	1.3819816
23.161232395952357	1.8620552	1.3645715
23.179123631282426	1.8602906	1.3639247
23.197015439496468	1.882702	1.3721159
23.214907821085717	1.9115932	1.3826038
23.23280077654157	1.9469566	1.3953339
23.250694306355538	1.9590386	1.3996567
23.268588411019277	1.9526229	1.3973628
23.28648309102458	1.9393804	1.3926164
23.304378346863356	1.916109	1.3842359
23.322274179027676	1.9299356	1.3892212
23.340170588009723	1.932649	1.3901975
23.358067574301852	1.9528043	1.3974278
23.37596513839651	1.9491367	1.3961148
23.39386328078629	1.9281496	1.3885783
23.411762001963947	1.8824304	1.3720169
23.429661302422353	1.8690058	1.3671159
23.4475611826545	1.9071496	1.3809959
23.46546164315356	1.8979443	1.377659
23.48336268441279	1.8872921	1.3737875
23.501264306925638	1.8367393	1.3552636
23.51916651118564	1.8912071	1.3752116
23.537069297686497	1.9271617	1.3882225
23.554972666922037	1.9630346	1.4010834
23.57287661938623	1.9584373	1.3994418
23.59078115557318	1.9621139	1.4007547
23.608686275977128	1.9594977	1.3998206
23.62659198109246	1.9206553	1.385877
23.6444982714137	1.89872	1.3779405
23.66240514743549	1.864828	1.365587
23.68031260965263	1.8712066	1.3679205
23.698220658560068	1.9115291	1.3825806
23.716129294652845	1.8933903	1.3760052
23.7340385184262	1.8994495	1.3782052
23.75194833037546	1.8910478	1.3751538
23.769858730996123	1.942547	1.3937528
23.78776972078382	1.9636861	1.4013158
23.80568130023431	1.9305731	1.3894507
23.823593469843495	1.9141294	1.3835206
23.841506230107424	1.8628641	1.3648678
23.859419581522275	1.855215	1.3620628
23.87733352458438	1.8184791	1.3485099
23.89524805979019	1.8485929	1.3596296
23.913163187636318	1.8867209	1.3735796
23.931078908619508	1.9338185	1.390618
23.948995223236633	1.940942	1.3931769
23.966912131984735	1.9679285	1.4028288
23.98482963536096	2.0256352	1.4232482
24.002747733862616	2.0191207	1.4209577
24.020666427987155	1.994034	1.4121027
24.038585718232156	2.0056484	1.4162091
24.056505605095353	1.9850466	1.4089168
24.074426089074617	1.9852867	1.4090021
24.092347170667946	2.0106533	1.4179751
24.110268850373515	2.0683055	1.4381604
24.128191128689586	2.107895	1.4518591
24.146114006114626	2.0918257	1.4463146
24.164037483147187	2.0931447	1.4467704
24.181961560286005	2.1123567	1.4533949
24.199886238029926	2.0986652	1.4486771
24.21781151687797	2.0453715	1.4301648
24.235737397329274	2.029786	1.4247056
24.253663879883135	2.0087535	1.417305
24.271590965038975	2.0226476	1.4221982
24.289518653296376	2.0394754	1.428102
24.30744694515505	2.0190225	1.4209231
24.32537584111486	1.9961314	1.4128451
24.34330534167581	2.018863	1.420867
24.361235447338046	2.0518706	1.4324352
24.379166158601876	2.0174787	1.4203798
24.39709747596772	1.9667168	1.4023968
24.41502939993615	1.9910573	1.4110483
24.432961931007917	1.9932177	1.4118136
24.450895069683856	1.966751	1.402409
24.468828816465	1.9326133	1.3901846
24.4867631718525	1.9710712	1.4039484
24.504698136347656	2.0082545	1.4171289
24.52263371045192	1.9846796	1.4087865
24.540569894666874	1.9796795	1.4070108
24.558506689494266	1.9476032	1.3955655
24.57644409543597	1.9387591	1.3923934
24.594382112994012	1.9408673	1.3931501
24.61232074267057	1.9564673	1.3987378
24.630259984967953	1.9699764	1.4035585
24.64819984038863	1.9514009	1.3969254
24.66614030943522	1.9741647	1.4050497
24.684081392610462	1.9442595	1.3943671
24.702023090417274	1.953353	1.397624
24.7199654033587	1.9556512	1.398446
24.737908331937927	1.9949526	1.4124279
24.755851876658305	2.0183809	1.4206973
24.773796038023324	2.0409143	1.4286057
24.79174081653661	2.0108712	1.4180518
24.809686212701962	2.0146582	1.4193865
24.827632227023294	2.0588632	1.4348739
24.8455788600047	2.0882947	1.4450934
24.8635261121504	2.0977507	1.4483614
24.88147398396475	2.099715	1.4490393
24.899422475952303	2.11507	1.4543281
24.917371588617698	2.1197052	1.4559207
24.935321322465768	2.1571686	1.4687303
24.953271678001478	2.2869015	1.5122504
24.97122265572994	2.4326017	1.55968
24.989174256156414	2.7394264	1.6551212
25.00712647978632	3.2259784	1.7961009
25.02507932712521	3.813399	1.9527926
25.043032798678798	4.366578	2.0896358
25.060986894952933	4.9745297	2.2303653
25.078941616453637	5.6770067	2.382647
25.096896963687055	6.5952086	2.5681138
25.114852937159508	7.789576	2.7909813
25.132809537377444	8.302034	2.881325
25.150766764847468	8.3093405	2.8825927
25.168724620076347	7.685014	2.7721858
25.186683103570985	6.7387714	2.5959144
25.204642215838426	5.684939	2.384311
25.222601957385894	4.4119177	2.1004565
25.24056232872074	3.304875	1.8179315
25.25852333035048	2.6738124	1.6351796
25.276484962782778	2.2967083	1.5154895
25.294447226525435	2.1354036	1.461302
25.312410122086423	2.0460095	1.4303879
25.330373649973843	1.9227486	1.3866321
25.348337810695988	1.8738223	1.3688763
25.366302604761245	1.8804028	1.3712778
25.384268032678207	1.8928226	1.375799
25.40223409495558	1.874273	1.3690408
25.420200792102257	1.832595	1.3537338
25.438168124627246	1.7914397	1.3384467
25.45613609303974	1.7840159	1.3356706
25.474104697849057	1.8448398	1.3582488
25.492073939564698	1.8732352	1.3686619
25.510043818696285	1.8820698	1.3718855
25.528014335753614	1.8773553	1.3701662
25.54598549124664	1.882954	1.3722078
25.56395728568544	1.904129	1.3799018
25.58192971958028	1.9311916	1.3896732
25.59990279344156	1.911986	1.3827459
25.617876507779833	1.8614502	1.3643497
25.635850863105826	1.8454689	1.3584803
25.653825859930386	1.8445417	1.358139
25.671801498764548	1.85399	1.361613
25.68977778011949	1.8246516	1.3507967
25.707754704506524	1.8756895	1.3695581
25.725732272437153	1.8770916	1.37007
25.743710484423012	1.8615463	1.3643849
25.761689340975888	1.8490554	1.3597997
25.77966884260774	1.7950966	1.3398122
25.797648989830662	1.7903284	1.3380315
25.815629783156922	1.8039361	1.3431069
25.83361122309895	1.8937153	1.3761233
25.85159331016929	1.900253	1.3784966
25.869576044880695	1.832901	1.3538468
25.887559427746034	1.7782	1.3334917
25.90554345927836	1.8007091	1.341905
25.92352813999086	1.8222913	1.3499227
25.94151347039689	1.8639735	1.3652742
25.959499451009965	1.8790772	1.3707944
25.97748608234374	1.8425516	1.3574061
25.995473364912062	1.8337051	1.3541436
26.013461299228904	1.865678	1.3658983
26.03144988580839	1.8768889	1.369996
26.04943912516483	1.8563309	1.3624723
26.067429017812675	1.8241884	1.3506252
26.085419564266537	1.8275665	1.3518752
26.103410765041186	1.8280782	1.3520644
26.12140262065155	1.8192381	1.3487914
26.139395131612723	1.7900957	1.3379446
26.157388298439948	1.8063679	1.3440119
26.17538212164861	1.8393998	1.3562448
26.193376601754295	1.8505177	1.3603374
26.211371739272714	1.854889	1.3619431
26.229367534719746	1.8583946	1.3632295
26.247363988611433	1.8384451	1.3558928
26.26536110146397	1.8310065	1.3531469
26.283358873793727	1.8058544	1.3438208
26.301357306117204	1.7923939	1.3388032
26.319356398951104	1.8040123	1.3431352
26.33735615281224	1.8448135	1.358239
26.35535656821762	1.8657434	1.3659222
26.373357645684404	1.819751	1.3489815
26.39135938572991	1.8157276	1.3474894
26.409361788871614	1.7983159	1.341013
26.427364855627165	1.8238621	1.3505044
26.445368586514352	1.7934614	1.3392018
26.46337298205115	1.7743887	1.3320618
26.48137804275568	1.7329696	1.316423
26.499383769146217	1.7535949	1.3242337
26.517390161741215	1.7859876	1.3364085
26.53539722105928	1.810226	1.3454463
26.553404947619182	1.7906415	1.3381486
26.571413341939856	1.7781347	1.3334671
26.589422404540397	1.763771	1.3280704
26.60743213594006	1.7809144	1.334509
26.62544253665827	1.8385797	1.3559424
26.64345360721459	1.9061741	1.3806427
26.66146534812879	1.8831286	1.3722713
26.679477759920758	1.8301513	1.3528309
26.69749084311057	1.781433	1.3347033
26.71550459821847	1.81952	1.3488958
26.733519025764842	1.8261029	1.3513337
26.751534126270258	1.8433573	1.357703
26.769549900255434	1.8564328	1.3625097
26.787566348241267	1.855221	1.362065
26.80558347074881	1.8776948	1.37029
26.823601268299267	1.8922093	1.375576
26.841619741414036	1.8578109	1.3630154
26.85963889061465	1.8235476	1.3503879
26.877658716422832	1.8292092	1.3524826
26.89567921936045	1.8650811	1.3656797
26.913700399949544	1.8371499	1.355415
26.93172225871233	1.8627633	1.3648309
26.949744796171174	1.8806506	1.3713682
26.967768012848605	1.8732966	1.3686843
26.98579190926733	1.8300331	1.3527871
27.003816485950225	1.8152957	1.3473291
27.021841743420318	1.832903	1.3538475
27.039867682200814	1.8454283	1.3584654
27.057894302815072	1.8859478	1.3732982
27.07592160578664	1.9060103	1.3805833
27.0939495916392	1.9030275	1.3795027
27.111978260896635	1.874504	1.3691252
27.13000761408296	1.8280671	1.3520603
27.148037651722397	1.761941	1.3273813
27.166068374339304	1.7451464	1.3210399
27.184099782458215	1.791528	1.3384798
27.20213187660384	1.8291118	1.3524466
27.22016465730105	1.8420535	1.3572227
27.23819812507487	1.812862	1.3464257
27.256232280450533	1.7666966	1.3291714
27.274267123953383	1.7445519	1.3208148
27.292302656108987	1.7851912	1.3361105
27.31033887744306	1.8036803	1.3430116
27.32837578848146	1.8400819	1.3564962
27.34641338975026	1.8872824	1.373784
27.364451681775673	1.924937	1.387421
27.382490665084074	1.8837202	1.3724868
27.400530340202046	1.8773108	1.3701499
27.41857070765629	1.8576934	1.3629723
27.436611767973726	1.8777308	1.3703032
27.454653521681404	1.8539454	1.3615966
27.472695969306564	1.8650805	1.3656795
27.490739111376627	1.8883985	1.3741901
27.508782948419153	1.866946	1.3663623
27.526827480961902	1.8144016	1.3469973
27.54487270953279	1.835309	1.3547357
27.562918634659898	1.8268776	1.3516203
27.580965256871508	1.8292661	1.3525037
27.599012576696026	1.7968417	1.3404633
27.617060594662068	1.7944953	1.3395878
27.63510931129842	1.8579329	1.3630601
27.65315872713401	1.8957535	1.3768636
27.67120884269797	1.8535979	1.361469
27.68925965851958	1.816715	1.3478557
27.707311175128307	1.8641924	1.3653543
27.725363393053787	1.9297763	1.3891639
27.74341631282583	1.9391081	1.3925186
27.7614699349744	1.9206803	1.3858861
27.77952426002968	2.0534625	1.4329908
27.797579288521973	2.0957966	1.4476867
27.815635020981784	2.3729641	1.5404428
27.83369145793979	2.4081333	1.5518161
27.85174859992682	2.384701	1.5442477
27.869806447473923	2.2840915	1.5113211
27.887865001112267	2.0086884	1.4172821
27.905924261373233	1.9021977	1.3792019
27.92398422878836	1.9048887	1.380177
27.94204490388936	1.8863218	1.3734343
27.96010628720813	1.8834099	1.3723738
27.978168379276728	1.8552655	1.3620813
27.9962311806274	1.8259827	1.3512893
28.014294691792568	1.8172655	1.3480599
28.0323589133048	1.8643991	1.36543
28.050423845696887	1.8557336	1.3622532
28.068489489501758	1.8811932	1.3715659
28.086555845252523	1.897328	1.3774353
28.104622913482487	1.8830316	1.372236
28.122690694725115	1.8535728	1.3614599
28.14075918951405	1.8439717	1.3579292
28.15882839838312	1.8780886	1.3704337
28.176898321866304	1.8891824	1.3744754
28.1949689604978	1.8784583	1.3705686
28.213040314811945	1.8754416	1.3694676
28.23111238534327	1.8866416	1.3735508
28.249185172626493	1.9024088	1.3792784
28.267258677196473	1.9039569	1.3798394
28.285332899588294	1.9112526	1.3824806
28.303407840337172	1.920077	1.3856684
28.321483499978545	1.8999501	1.3783867
28.33955987904799	1.9010004	1.3787677
28.357636978081285	1.892168	1.375561
28.37571479761439	1.9355853	1.3912531
28.393793338183425	1.9242508	1.3871737
28.41187260032469	1.91275	1.3830221
28.429952584574686	1.9287667	1.3888005
28.448033291470065	1.9652194	1.4018629
28.46611472154769	2.0031977	1.4153436
28.484196875344566	1.9900435	1.410689
28.502279753397914	2.0469518	1.4307172
28.52036335624511	2.0738323	1.4400806
28.538447684423716	2.0428638	1.4292879
28.556532738471482	1.9722787	1.4043784
28.574618518926325	1.9626476	1.4009452
28.59270502632635	1.9871596	1.4096665
28.61079226120985	2.0062833	1.4164333
28.628880224115274	2.0596616	1.4351522
28.646968915581287	2.0679398	1.4380333
28.66505833614671	2.0611622	1.4356748
28.68314848635055	2.0602384	1.435353
28.701239366732004	2.046274	1.4304804
28.71933097783044	2.0285053	1.4242561
28.737423320185403	2.0726469	1.439669
28.75551639433665	2.114019	1.4539666
28.773610200824074	2.190222	1.4799398
28.791704740187793	2.219833	1.4899104
28.80980001296809	2.1682682	1.472504
28.827896019705413	2.1445796	1.4644383
28.845992760940433	2.1561072	1.4683689
28.86409023721397	2.170769	1.473353
28.88218844906704	2.1728146	1.4740471
28.900287397040845	2.2132256	1.4876914
28.918387081676755	2.2493527	1.4997842
28.936487503516343	2.2711358	1.5070288
28.954588663101365	2.310248	1.5199499
28.97269056097374	2.3411524	1.5300825
28.990793197675597	2.3277922	1.5257103
29.00889657374923	2.3493316	1.532753
29.027000689737125	2.3890548	1.5456568
29.04510554618196	2.3775887	1.5419432
29.06321114362659	2.3431668	1.5307406
29.08131748261405	2.4190805	1.5553393
29.099424563687567	2.4896452	1.577861
29.11753238739057	2.528309	1.5900657
29.13564095426663	2.5654662	1.6017072
29.15375026485954	2.6085534	1.6151017
29.171860319713275	2.6306348	1.6219232
29.18997111937199	2.6012228	1.6128306
29.20808266438002	2.72009	1.6492695
29.226194955281898	2.8477688	1.6875334
29.244307992622335	2.8924024	1.7007065
29.26242177694624	2.876327	1.6959738
29.2805363087987	2.8946817	1.7013764
29.29865158872498	2.930864	1.7119766
29.316767617270557	2.934819	1.7131313
29.334884394981064	3.0042288	1.7332711
29.353001922402367	3.0043197	1.7332973
29.37112020008047	3.022751	1.7386061
29.389239228561596	3.1258101	1.7679961
29.407359008392152	3.3549886	1.8316628
29.42547954011872	3.6685212	1.9153384
29.44360082428809	4.2480764	2.0610862
29.46172286144722	5.2421827	2.2895813
29.479845652143283	6.9237747	2.6313066
29.497969196923606	9.108676	3.0180583
29.516093496335728	11.625142	3.4095662
29.5342185509274	14.416959	3.796967
29.55234436124651	16.962193	4.1185184
29.570470927841175	18.420967	4.2919655
29.588598251259686	17.91835	4.2330074
29.60672633205055	16.48849	4.060602
29.624855170762405	14.383602	3.792572
29.642984767944146	11.671609	3.4163737
29.66111512414481	8.984113	2.997351
29.67924623991366	6.6922016	2.586929
29.697378115800138	5.0784745	2.2535472
29.71551075235387	4.1176705	2.0292044
29.733644150124675	3.7023087	1.9241384
29.751778309662576	3.5288885	1.8785336
29.769913231517766	3.4664328	1.8618358
29.78804891624066	3.3776038	1.8378258
29.806185364381818	3.324968	1.8234495
29.82432257649206	3.287229	1.8130717
29.842460553122333	3.2555683	1.8043194
29.86059929482382	3.3372405	1.8268116
29.878738802147872	3.3211524	1.822403
29.896879075646048	3.3447313	1.8288606
29.915020115870114	3.3150482	1.8207273
29.933161923371976	3.2579947	1.8049916
29.951304498703777	3.2197962	1.794379
29.969447842417857	3.2908351	1.8140659
29.987591955066733	3.2783487	1.810621
30.005736837203123	3.2345014	1.7984719
30.023882489379943	3.2028174	1.7896417
30.04202891215028	3.2020128	1.7894169
30.060176106067455	3.1524012	1.7755003
30.078324071684946	3.1599414	1.7776225
30.09647280955646	3.1858976	1.7849083
30.114622320235863	3.173341	1.7813874
30.132772604277257	3.1727657	1.7812259
30.1509236622349	3.1386914	1.7716353
30.16907549466328	3.1362216	1.770938
30.18722810211705	3.1363847	1.770984
30.205381485151097	3.1379573	1.7714281
30.22353564432045	3.082831	1.7557992
30.241690580180403	3.0261772	1.7395911
30.25984629328638	3.017957	1.7372268
30.278002784194037	2.9763982	1.7252241
30.296160053459246	2.995657	1.7307966
30.314318101638033	3.0331357	1.74159
30.332476929286646	2.973064	1.7242575
30.35063653696153	2.8874404	1.699247
30.368796925219307	2.8692386	1.6938827
30.386958094616844	2.839902	1.6852008
30.40512004571115	2.853565	1.6892499
30.423282779059463	2.928506	1.7112877
30.441446295219233	2.9401128	1.7146757
30.459610594748067	2.8906553	1.7001927
30.47777567820382	2.8502326	1.6882632
30.495941546144504	2.819582	1.6791611
30.51410819912835	2.8221946	1.6799389
30.532275637713795	2.8089066	1.6759793
30.55044386245946	2.8374367	1.6844692
30.56861287392416	2.9213326	1.7091906
30.586782672666956	2.84758	1.6874774
30.604953259247047	2.7039678	1.6443746
30.623124634223885	2.7345054	1.653634
30.641296798157075	2.8146706	1.677698
30.659469751606462	2.802983	1.6742111
30.677643495132074	2.7775688	1.6666039
30.695818029294152	2.7431047	1.6562321
30.713993354653116	2.6989963	1.6428622
30.73216947176962	2.6746595	1.6354387
30.75034638120448	2.713286	1.6472055
30.768524083518756	2.7388215	1.6549386
30.786702579273673	2.7576413	1.6606147
30.80488186903069	2.832494	1.6830015
30.82306195335144	2.9393444	1.7144517
30.841242832797782	3.1384263	1.7715604
30.85942450793176	3.4456527	1.856247
30.877606979315637	3.8016229	1.9497751
30.895790247511883	4.0998154	2.0248
30.913974313083134	4.5418634	2.1311648
30.932159176592283	4.9270797	2.2197027
30.95034483860237	4.985395	2.2327998
30.968531299676698	4.73979	2.177106
30.98671856037873	4.333191	2.081632
31.00490662127215	3.886436	1.9714046
31.023095482920848	3.5130155	1.874304
31.04128514588892	3.0692194	1.7519188
31.059475610740662	2.8070853	1.6754359
31.07766687804056	2.7243547	1.6505619
31.09585894835335	2.7457774	1.6570387
31.11405182224393	2.630715	1.6219479
31.132245500277417	2.5132644	1.5853279
31.15043998301914	2.4316313	1.5593688
31.168635271034628	2.4511874	1.5656269
31.18683136488964	2.5447748	1.595235
31.20502826515008	2.5540879	1.5981514
31.223225972382135	2.4618745	1.5690361
31.241424487152155	2.3695805	1.5393442
31.259623810026692	2.3852253	1.5444175
31.27782394157253	2.461671	1.5689714
31.296024882356644	2.462529	1.5692447
31.314226632946237	2.4678679	1.5709449
31.332429193908684	2.483304	1.5758502
31.350632565811598	2.3790011	1.5424011
31.368836749222787	2.3377602	1.5289736
31.387041744710295	2.409789	1.5523496
31.40524755284232	2.39928	1.5489609
31.423454174187317	2.3771966	1.541816
31.441661609313922	2.4675975	1.5708588
31.459869858791002	2.4929364	1.5789036
31.478078923187628	2.378549	1.5422546
31.496288803073064	2.3387003	1.529281
31.514499499016807	2.3127196	1.5207628
31.532711011588546	2.2895026	1.5131103
31.550923341358178	2.2937791	1.5145228
31.56913648889584	2.3304043	1.5265661
31.587350454771844	2.4305298	1.5590156
31.605565239556732	2.4362557	1.560851
31.62378084382127	2.2870517	1.5123001
31.641997268136382	2.2832122	1.5110302
31.660214513073274	2.310123	1.5199089
31.67843257920331	2.2904112	1.5134104
31.6966514670981	2.3097365	1.5197817
31.71487117732944	2.3742692	1.5408664
31.733091710469346	2.3434713	1.53084
31.751313067090052	2.2716832	1.5072104
31.769535247764008	2.2905025	1.5134406
31.787758253063878	2.328207	1.5258464
31.805982083562526	2.3332922	1.5275118
31.824206739833024	2.2810402	1.5103112
31.84243222244869	2.245721	1.4985731
31.860658531983013	2.2684069	1.5061231
31.878885669009737	2.3586152	1.5357784
31.897113634102784	2.3586447	1.5357879
31.91534242783632	2.322403	1.5239432
31.933572050784694	2.2968817	1.5155467
31.951802503522508	2.2225144	1.49081
31.970033786624548	2.13301	1.4604827
31.988265900665834	2.120169	1.45608
32.006498846221575	2.2180023	1.489296
32.02473262386724	2.234222	1.4947314
32.04296723417845	2.2400107	1.4966666
32.0612026777311	2.1815372	1.4770027
32.07943895510129	2.1578653	1.4689674
32.097676066865304	2.164543	1.4712386
32.115914013599685	2.2120185	1.4872856
32.13415279588115	2.2269619	1.4923009
32.152392414286666	2.1329527	1.4604632
32.1706328693934	2.0807517	1.442481
32.18887416177875	2.0935285	1.4469031
32.20711629202032	2.15199	1.4669663
32.225359260695924	2.1212852	1.4564632
32.243603068383614	2.0854378	1.4441044
32.26184771566166	2.0824065	1.4430546
32.28009320310852	2.1352737	1.4612576
32.2983395313029	2.0970414	1.4481165
32.31658670082372	2.108878	1.4521976
32.33483471225012	2.105177	1.4509227
32.35308356616143	2.114048	1.4539766
32.371333263137245	2.0702298	1.4388293
32.38958380375734	2.0635295	1.436499
32.407835188601744	2.05823	1.4346533
32.42608741825067	2.0478027	1.4310145
32.444340493284585	1.9888128	1.4102527
32.46259441428416	1.9333079	1.3904344
32.48084918183028	2.0042944	1.4157311
32.49910479650405	2.0359151	1.426855
32.51736125888683	2.0468843	1.4306936
32.53561856956014	2.0063019	1.4164399
32.5538767291058	2.0248082	1.4229575
32.572135738105764	2.0664258	1.4375068
32.59039559714228	2.072131	1.4394898
32.608656306797776	2.013531	1.4189894
32.62691786765491	1.9977316	1.4134114
32.645180280296586	2.0168016	1.4201415
32.663443545305896	2.0063164	1.416445
32.68170766326619	1.9713162	1.4040357
32.69997263476099	1.9898397	1.4106168
32.7182384603741	1.989575	1.4105229
32.7365051406895	1.9267632	1.3880789
32.75477267629144	1.9353352	1.3911632
32.77304106776434	2.0241354	1.4227211
32.79131031569289	1.9592509	1.3997325
32.809580420661966	1.9030614	1.3795149
32.827851383256714	1.974163	1.4050491
32.84612320406245	2.0285165	1.42426
32.86439588366476	2.0149286	1.4194818
32.88266942264945	1.9610144	1.4003623
32.9009438216025	1.9119114	1.3827188
32.9192190811102	1.9979483	1.413488
32.937495201758985	1.9905456	1.410867
32.95577218413556	1.9837567	1.408459
32.974050028826866	1.9527708	1.3974158
32.992328736420035	1.9197423	1.3855476
33.010608307502444	1.9309553	1.3895881
33.02888874266169	2.0037086	1.4155241
33.047170042485604	2.0712352	1.4391787
33.06545220756225	2.0504143	1.4319268
33.083735238479896	1.9266137	1.388025
33.10201913582707	1.9036684	1.3797349
33.12030390019248	1.9260635	1.3878269
33.138589532165135	1.951938	1.3971177
33.15687603233419	1.9095954	1.3818811
33.17516340128909	1.8930143	1.3758686
33.19345163961947	1.8395975	1.3563176
33.211740747915215	1.9052502	1.380308
33.23003072676643	2.0008852	1.4145265
33.248321576763466	1.9670147	1.402503
33.266613298496885	1.9407581	1.393111
33.28490589255747	2.0186684	1.4207985
33.30319935953626	2.015237	1.4195905
33.32149370002451	1.9767381	1.4059652
33.339788914613706	1.9291779	1.3889484
33.358085003895575	1.9186468	1.3851522
33.376381968462034	1.8883501	1.3741726
33.39467980890529	1.8564603	1.3625199
33.41297852581774	1.7962779	1.3402529
33.43127811979204	1.7800534	1.3341864
33.44957859142105	1.7688694	1.3299885
33.467879941297866	1.8603605	1.3639504
33.486182170015844	1.9254944	1.3876219
33.50448527816853	2.0039093	1.415595
33.522789266349754	2.0044508	1.4157863
33.541094135153514	1.9540738	1.3978819
33.55939988517411	1.8550407	1.3619988
33.57770651700602	1.7785895	1.3336377
33.59601403124398	1.8852018	1.3730265
33.61432242848296	1.8926384	1.375732
33.632631709318154	1.9274536	1.3883276
33.650941874344994	2.0024197	1.4150687
33.66925292415916	2.0489795	1.4314257
33.68756485935654	1.9298648	1.3891957
33.70587768053328	1.8168973	1.3479233
33.724191388285746	1.803075	1.3427863
33.74250598321054	1.8900685	1.3747976
33.760821465904506	1.9930501	1.4117543
33.77913783696474	2.0633943	1.436452
33.79745509698852	2.0319035	1.4254485
33.815773246573414	1.957189	1.3989958
33.8340922863172	1.8758403	1.3696132
33.852412216817896	1.8172296	1.3480465
33.87073303867377	1.7949953	1.3397744
33.889054752483304	1.8343362	1.3543767
33.907377358845245	1.851221	1.3605958
33.92570085835853	1.8793793	1.3709046
33.94402525162239	1.8416921	1.3570895
33.96235053923627	1.7318879	1.3160121
33.980676721799824	1.8078392	1.3445591
33.999003799912984	1.7863188	1.3365324
34.01733177417592	1.7692338	1.3301255
34.03566064518901	1.7545965	1.3246118
34.0539904135529	1.8269397	1.3516433
34.07232107986846	1.9490691	1.3960906
34.090652644736785	1.9824032	1.4079784
34.108985108759235	1.9393306	1.3925985
34.12731847253742	1.9645532	1.4016252
34.14565273667313	1.9842639	1.4086391
34.16398790176847	1.8857659	1.3732319
34.18232396842574	1.7874833	1.336968
34.20066093724749	1.832404	1.3536632
34.21899880883651	1.980912	1.4074488
34.23733758379583	1.9423498	1.3936821
34.25567726272874	1.9062258	1.3806614
34.27401784623872	1.947091	1.395382
34.29235933492957	2.049645	1.4316581
34.31070172940526	2.086434	1.4444493
34.32904503027003	2.0278385	1.424022
34.347389238128386	2.0245924	1.4228817
34.36573435358502	1.9847853	1.4088241
34.38408037724492	2.0286646	1.424312
34.402427309713296	1.8951969	1.3766615
34.42077515159559	1.7918158	1.3385873
34.43912390349752	1.9262364	1.3878891
34.45747356602499	2.0860603	1.44432
34.47582413978423	2.0610194	1.4356251
34.49417562538163	1.9594194	1.3997927
34.51252802342388	1.7605312	1.32685
34.53088133451789	1.7162192	1.3100455
34.54923555927084	1.8859541	1.3733004
34.567590698290104	1.9246153	1.387305
34.58594675218336	1.9331698	1.3903848
34.6043037215585	1.9832103	1.408265
34.62266160702365	1.9109362	1.3823662
34.641020409187234	1.9566908	1.3988177
34.65938012865785	1.9630495	1.4010887
34.677740766044394	1.9651285	1.4018304
34.69610232195598	1.9663552	1.4022679
34.714464797002016	1.9560848	1.398601
34.73282819179208	1.9624795	1.4008852
34.751192506936064	1.9891319	1.4103659
34.76955774304408	2.0174203	1.4203593
34.7879239007265	2.0489879	1.4314286
34.80629098059391	1.9246045	1.3873012
34.824658983257194	1.8633379	1.3650414
34.843027909327446	1.9190859	1.3853108
34.86139775941603	1.9359105	1.3913699
34.879768534134534	1.9378624	1.3920712
34.89814023409483	2.030263	1.424873
34.91651285990901	2.0851912	1.4440191
34.93488641218944	2.0093668	1.4175214
34.95326089154871	1.9164096	1.3843445
34.97163629859967	2.035483	1.4267035
34.99001263395542	2.1241562	1.4574485
35.00838989822934	2.0687056	1.4382995
35.02676809203499	2.0210295	1.4216292
35.04514721598624	1.8929622	1.3758496
35.063527270697215	1.9993376	1.4139793
35.081908256782256	1.9983025	1.4136133
35.10029017485597	1.9105355	1.3822212
35.11867302553321	1.9561895	1.3986385
35.137056809429104	2.1468544	1.4652148
35.155441527159006	2.3290417	1.5261198
35.173827179338524	2.2343194	1.494764
35.19221376658354	2.0560856	1.4339057
35.21060128951017	2.1220663	1.4567313
35.2289897487348	2.1033137	1.4502805
35.24737914487405	1.991088	1.4110591
35.26576947854479	2.1150053	1.4543058
35.28416075036418	2.0232048	1.422394
35.30255296094958	1.9050567	1.3802379
35.32094611091867	1.6776861	1.2952552
35.33934020088932	1.8587178	1.363348
35.35773523147969	2.006288	1.416435
35.3761312033082	1.9181515	1.3849734
35.394528116993506	1.8309147	1.3531129
35.41292597315452	1.8706694	1.3677242
35.431324772410434	1.717016	1.3103496
35.449724515380666	2.0849302	1.4439287
35.46812520268491	2.5122635	1.5850122
35.486526834943106	2.4552038	1.566909
35.504929412775454	2.071402	1.4392366
35.52333293680242	1.6978021	1.3029974
35.54173740764471	1.5605497	1.2492197
35.560142825923286	1.4717044	1.2131382
35.5785491922594	1.4724778	1.213457
35.59695650727454	2.0908706	1.4459844
35.61536477159042	2.5249293	1.5890026
