0.008763373481513119	0.56609195	0.7523908
0.026290120649546365	0.18888974	0.43461448
0.043816868432600686	0.0908709	0.30144802
0.06134361724069026	0.0	0.0
0.07887036748382949	0.0	0.0
0.0963971195720331	0.05193423	0.22789083
0.11392387391531617	0.11703042	0.3420971
0.1314506309236943	0.16488048	0.4060548
0.1489773910071836	0.11724959	0.34241727
0.16650415457580078	0.12352538	0.35146177
0.18403092203956356	0.08100487	0.28461355
0.20155769380849	0.15895799	0.39869535
0.2190844702925996	0.19209372	0.43828496
0.2366112519019124	0.22423446	0.47353402
0.2541380390464497	0.2027959	0.45032865
0.27166483213623416	0.19469751	0.4412454
0.28919163158128947	0.162802	0.4034873
0.3067184377916406	0.11633152	0.34107408
0.324245251177314	0.10677677	0.32676715
0.34177207214833777	0.18114924	0.42561632
0.3592989011147415	0.24722078	0.497213
0.37682573848655654	0.24961178	0.49961162
0.39435258467381573	0.19175765	0.4379014
0.41187944008655414	0.12940472	0.3597287
0.42940630513480854	0.10785798	0.3284174
0.446933180228618	0.13204016	0.3633733
0.4644600657780234	0.16434214	0.40539134
0.48198696219306775	0.17704879	0.42077166
0.49951386988379676	0.1634218	0.40425462
0.5170407892602581	0.13394575	0.365986
0.5345677207325025	0.13065419	0.3614612
0.5520946647105822	0.13717848	0.37037614
0.5696216216045534	0.17076725	0.41323993
0.5871485918244737	0.21583074	0.4645759
0.6046755757804043	0.24516028	0.49513662
0.6222025738824094	0.21650957	0.4653059
0.6397295865405557	0.18528831	0.43045127
0.6572566141649129	0.18774308	0.4332933
0.6747836571655547	0.17265786	0.4155212
0.6923107159525568	0.21006773	0.45833147
0.7098377909359992	0.19545832	0.4421067
0.7273648825259653	0.16110739	0.40138185
0.7448919911325411	0.14149337	0.37615603
0.762419117165817	0.1812294	0.42571047
0.7799462610358868	0.2120761	0.4605172
0.7974734231528482	0.22361892	0.47288364
0.8150006039268024	0.17033091	0.41271165
0.8325278037678551	0.12887053	0.35898542
0.8500550230861152	0.11179911	0.33436376
0.8675822622916969	0.13885018	0.37262607
0.8851095217947171	0.18788229	0.43345392
0.9026368020052984	0.21799505	0.4668994
0.9201641033335665	0.20502064	0.45279205
0.9376914261896523	0.19449528	0.4410162
0.9552187709836915	0.21955751	0.46856964
0.9727461381258234	0.2460377	0.49602187
0.990273528026193	0.21715465	0.46599856
1.0078009410949496	0.19816734	0.4451599
1.0253283777422473	0.24751246	0.49750623
1.0428558383782454	0.3347983	0.5786176
1.0603833234131086	0.36749583	0.60621434
1.0779108332570058	0.3525523	0.59376115
1.0954383683201119	0.35674447	0.5972809
1.112965929012607	0.4284984	0.6545979
1.1304935157446763	0.5588283	0.74754816
1.1480211289265108	0.5318023	0.72924775
1.1655487689683062	1.380271	1.1748494
1.1830764362802655	1.669791	1.2922039
1.200604131272596	2.113038	1.4536293
1.2181318543555117	2.4402552	1.5621316
1.235659605939232	2.5398827	1.5937009
1.253187386433982	4.0721684	2.0179615
1.270715196249994	6.4581833	2.5412955
1.2882430357975057	12.04387	3.470428
1.3057709054867608	16.843557	4.10409
1.3232988057280106	22.6158	4.755607
1.3408267369315112	27.518942	5.24585
1.358354699507526	31.173273	5.583303
1.3758826938663256	35.4072	5.950395
1.3934107204181858	37.72616	6.1421623
1.410938779573391	38.10563	6.1729755
1.4284668717422309	38.92981	6.2393756
1.4459949973350033	38.462242	6.2017937
1.4635231567620117	38.719658	6.2225122
1.4810513504335687	37.784428	6.146904
1.4985795787599925	37.130444	6.0934753
1.5161078421516088	36.492294	6.0408854
1.5336361410187505	35.785854	5.982128
1.5511644757717598	35.657177	5.971363
1.5686928468209842	36.38255	6.031795
1.58622125457678	36.93904	6.0777497
1.6037496994495108	38.67964	6.219296
1.621278181849548	38.896297	6.2366896
1.6388067021872719	39.40682	6.277485
1.6563352608730693	38.4713	6.2025237
1.673863858317336	36.848312	6.070281
1.6913924949304753	36.077427	6.0064487
1.7089211711228998	35.11352	5.9256663
1.7264498873050296	34.471157	5.8712144
1.7439786438872935	33.77197	5.8113656
1.7615074412801288	32.99481	5.7441106
1.779036279893981	32.220337	5.676296
1.796565160139305	31.113695	5.5779653
1.814094082426564	30.396193	5.513274
1.8316230471662298	29.87446	5.4657536
1.849152054768784	28.976927	5.3830223
1.8666811056447168	28.171253	5.3076596
1.8842102002045273	27.103489	5.206101
1.901739338858724	26.662027	5.1635284
1.9192685220178245	26.200115	5.1186047
1.9367977500923557	25.716255	5.07112
1.9543270234928547	25.075748	5.0075693
1.971856342629867	24.248016	4.9242277
1.9893857079139496	23.74488	4.872872
2.006915119755667	23.43751	4.8412304
2.0244445785655945	22.893017	4.7846646
2.0419740847543175	22.313797	4.723748
2.0595036387324317	21.598858	4.647457
2.0770332409105414	21.12658	4.596366
2.094562891699263	20.907324	4.5724525
2.1120925915092217	20.667732	4.546178
2.129622340751053	20.602283	4.538974
2.1471521398354043	188.69862	13.736762
2.1646819891729323	444.84323	21.091307
2.182211889174303	440.77432	20.994625
2.1997418402501974	453.07407	21.285536
2.2172718428113023	433.10672	20.811216
2.234801897268317	321.26096	17.923754
2.2523320040319548	17.811556	4.220374
2.269862163512935	17.48548	4.1815643
2.287392376121992	17.279818	4.1569
2.304922642269869	17.017723	4.125254
2.322452962367322	16.58442	4.072397
2.3399833368251164	15.954112	3.9942598
2.357513766054032	15.60961	3.9508998
2.3750442504648586	15.288124	3.9100032
2.3925747904683963	15.251762	3.9053504
2.410105386475459	15.139477	3.890948
2.4276360388968707	14.728226	3.837737
2.445166748143469	14.376485	3.7916336
2.4626975146261025	14.026353	3.7451773
2.4802283387556323	13.823748	3.71803
2.4977592209429305	13.548939	3.6808884
2.5152901615988825	13.207818	3.6342561
2.5328211611343865	13.048759	3.6123066
2.5503522199603523	12.975348	3.6021311
2.5678833384877024	12.965451	3.6007571
2.5854145171273712	12.816857	3.5800638
2.6029457562903064	12.539153	3.5410666
2.620477056387469	12.173525	3.4890578
2.6380084178298326	11.884331	3.4473658
2.655539841028383	11.703821	3.421085
2.673071326394119	11.530289	3.395628
2.6906028743380523	11.510322	3.3926866
2.708134485271211	11.353382	3.369478
2.7256661596046325	11.1317835	3.3364327
2.743197897749369	10.8005705	3.2864223
2.760729700116486	10.592636	3.254633
2.778261567117063	10.503685	3.240939
2.795793499162193	10.390164	3.2233777
2.8133254966629817	10.350443	3.2172105
2.830857560030551	10.299225	3.2092404
2.8483896896760337	10.194677	3.1929104
2.865921886010578	10.080121	3.1749206
2.883454149445347	9.831233	3.1354797
2.9009864803915177	9.553069	3.0908039
2.91851887926028	9.301947	3.0499094
2.9360513464628384	9.2166	3.0358853
2.953583882410413	9.177978	3.0295177
2.9711164875142373	9.196492	3.0325718
2.9886491621855606	9.100858	3.0167627
3.0061819068356455	8.749389	2.9579365
3.023714721875769	8.70091	2.9497304
3.041247607717225	8.660057	2.9427974
3.0587805647713213	8.585926	2.930175
3.0763135934493806	8.391356	2.8967838
3.0938466941627407	8.216876	2.8665094
3.1113798673227544	8.044784	2.8363328
3.1289131133407904	7.9356775	2.8170335
3.1464464326282315	7.7949996	2.7919526
3.1639798255964786	7.6652093	2.7686114
3.1815132926569443	7.588363	2.7546983
3.1990468342210603	7.5937347	2.7556732
3.216580450700272	7.724571	2.7793112
3.2341141425060416	7.715095	2.777606
3.251647910049847	7.589195	2.7548494
3.2691817537431813	7.3335156	2.7080464
3.286715673997555	7.266516	2.6956477
3.3042496712244938	7.2886133	2.6997433
3.32178374583554	7.30162	2.702151
3.339317898242251	7.17767	2.6791174
3.3568521288562034	7.0202966	2.6495843
3.3743864380889876	6.959124	2.6380153
3.3919208263522127	6.8044944	2.6085427
3.4094552940575023	6.774273	2.6027434
3.4269898416164972	6.687098	2.5859423
3.444524469440858	6.5812683	2.5653982
3.4620591779422587	6.4366984	2.537065
3.479593967532391	6.322862	2.5145302
3.4971288386229658	6.3959894	2.5290294
3.5146637916257086	6.4891505	2.5473812
3.5321988269523628	6.4551363	2.5406961
3.5497339450146903	6.437809	2.537284
3.5672691462244708	6.4385047	2.537421
3.5848044309934988	6.5484347	2.558991
3.60233979973359	6.522615	2.553941
3.619875252856575	6.431728	2.5360851
3.6374107907743034	6.442633	2.5382342
3.6549464138986427	6.3933816	2.5285137
3.6724821226414788	6.3234487	2.5146468
3.690017917414714	6.3292046	2.515791
3.7075537986302702	6.422265	2.5342188
3.7250897667000857	6.47054	2.5437257
3.7426258220361235	6.6864104	2.5858095
3.7601619650503553	6.927983	2.632106
3.777698196154779	7.517105	2.741734
3.7952345157614067	8.627915	2.9373314
3.8127709242822716	9.365112	3.0602472
3.830307422129425	11.499166	3.391042
3.847844009714936	30.247911	5.49981
3.8653806874508954	97.771034	9.887923
3.882917455749409	97.0125	9.849492
3.900454315022606	96.69587	9.8334055
3.917991265682631	41.346382	6.430115
3.9355283081416506	11.011732	3.318393
3.9530654428118495	8.839256	2.9730887
3.970602670105433	7.4939857	2.7375145
3.9881399904346244	6.643462	2.5774915
4.005677404211669	6.5868306	2.566482
4.023214911848827	6.55559	2.5603886
4.0407525137583855	6.571387	2.5634716
4.058290210352644	6.6421366	2.5772343
4.075828002043927	6.5660515	2.5624309
4.0933658892445814	6.4982057	2.5491579
4.110903872366966	6.31086	2.5121427
4.128441951823468	6.1504207	2.480004
4.145980128026488	6.191328	2.4882379
4.163518401388452	6.3069205	2.5113583
4.181056772321807	6.3557644	2.521064
4.1985952412390155	6.2895327	2.507894
4.216133808552567	6.26985	2.5039668
4.233672474674966	6.341008	2.5181358
4.251211240018741	6.5564356	2.5605538
4.268750104996445	6.76314	2.6006038
4.286289070020643	7.7062063	2.7760055
4.303828135503928	9.531537	3.0873187
4.3213673018589125	29.909954	5.4689994
4.3389065694982305	91.03041	9.540986
4.356445938834537	166.11404	12.888524
4.3739854102805085	171.47446	13.094826
4.391524984248844	172.37926	13.129328
4.409064661152262	136.64795	11.6896515
4.426604441403504	97.03539	9.850655
4.444144325415337	76.00235	8.717933
4.461684313600543	21.92855	4.682793
4.47922440637193	22.36311	4.728965
4.496764604142329	20.724728	4.552442
4.5143049073245916	18.942017	4.352243
4.531845316331589	16.782318	4.096623
4.5493858315762195	13.852954	3.7219555
4.566926453471405	11.574884	3.402188
4.584467182430081	9.554483	3.0910327
4.602008018865218	8.407456	2.8995614
4.619548963189798	7.7040043	2.7756088
4.637090015816834	7.2159095	2.6862445
4.654631177159353	6.915608	2.6297543
4.672172447630417	6.5989723	2.5688465
4.689713827643102	6.4123816	2.532268
4.7072553176105085	6.168202	2.4835865
4.724796917945764	6.0024405	2.449988
4.742338629062015	5.8670444	2.4221983
4.759880451372434	5.8538885	2.419481
4.777422385290215	5.857902	2.4203103
4.794964431228581	5.8193207	2.4123268
4.812506589600768	5.7738357	2.4028807
4.830048860820047	5.776072	2.403346
4.847591245299709	5.775052	2.4031339
4.8651337434530655	5.798388	2.4079843
4.882676355693457	5.7518177	2.3982947
4.900219082434242	5.660331	2.379145
4.917761924088813	5.657423	2.3785338
4.935304881070575	5.620528	2.3707652
4.952847953792969	5.6451755	2.3759577
4.970391142669449	5.598892	2.3661978
4.9879344481135055	5.5391655	2.3535433
5.005477870538642	5.5178275	2.3490057
5.023021410358394	5.53259	2.352146
5.040565067986324	5.5288835	2.3513577
5.05810884383601	5.460863	2.336849
5.075652738321066	5.512438	2.3478582
5.09319675185512	5.480398	2.341025
5.110740884851836	5.5235868	2.3502312
5.128285137724894	5.510078	2.3473556
5.145829510888007	5.5126348	2.3479002
5.163374004754908	5.630436	2.372854
5.1809186197393595	5.6043286	2.3673463
5.198463356255145	5.495656	2.3442817
5.216008214716077	5.356483	2.3144076
5.233553195535998	5.3002133	2.3022192
5.251098299128764	5.3589644	2.3149438
5.268643525908272	5.4219575	2.3285098
5.286188876288432	5.3755074	2.318514
5.3037343506831895	5.3563323	2.3143752
5.32127994950651	5.31117	2.3045976
5.3388256731723915	5.260717	2.2936254
5.356371522094851	5.2030745	2.281025
5.373917496687938	5.2569594	2.292806
5.391463597365729	5.3002687	2.3022313
5.40900982454232	5.30943	2.30422
5.426556178631843	5.267414	2.2950847
5.444102660048449	5.2223024	2.2852356
5.4616492692063225	5.2501044	2.2913105
5.479196006519669	5.2604313	2.2935631
5.496742872402727	5.2542334	2.2922115
5.514289867269756	5.243128	2.2897878
5.531836991535049	5.29758	2.3016472
5.549384245612924	5.259349	2.293327
5.566931629917724	5.2862635	2.2991877
5.584479144863822	5.2586493	2.2931745
5.6020267908656205	5.2531767	2.291981
5.619574568337545	5.2503653	2.2913675
5.637122477694054	5.2416387	2.2894626
5.654670519349629	5.2239766	2.285602
5.672218693718784	5.2038417	2.281193
5.689767001216059	5.2329073	2.287555
5.707315442256021	5.1820664	2.2764153
5.724864017253266	5.1337013	2.2657673
5.7424127266224225	5.0667777	2.2509503
5.75996157077814	5.122966	2.263397
5.777510550135105	5.16295	2.2722125
5.795059665108022	5.26319	2.2941642
5.812608916111639	5.3115816	2.3046868
5.830158303560715	5.465895	2.3379254
5.847707827870055	5.4285035	2.3299148
5.86525748945448	5.402667	2.3243637
5.8828072887288485	5.561776	2.358342
5.900357226108044	5.6347446	2.3737617
5.917907302006979	5.758715	2.3997324
5.9354575168406	6.3271565	2.515384
5.9530078710238765	6.8863344	2.6241827
5.970558364971812	7.337557	2.7087924
5.988108999099438	7.6555915	2.766874
6.005659773821818	8.165533	2.8575397
6.023210689554039	8.016394	2.8313236
6.040761746711227	8.53291	2.9211147
6.058312945708531	7.929629	2.8159597
6.075864286961132	7.5205607	2.7423642
6.093415770884244	6.8751764	2.6220558
6.1109673978931065	6.3575573	2.5214198
6.128519168402993	5.709344	2.3894234
6.146071082829204	5.5268493	2.3509252
6.163623141587075	5.3507805	2.3131754
6.181175345091969	5.2101526	2.2825758
6.198727693759281	5.210885	2.2827363
6.216280188004435	5.2084827	2.28221
6.233832828242885	5.249637	2.2912087
6.251385614890126	5.2724786	2.2961879
6.268938548361669	5.2591105	2.293275
6.286491629073067	5.2109084	2.2827413
6.304044857439898	5.210081	2.28256
6.321598233877777	5.111849	2.2609398
6.339151758802344	5.04478	2.2460587
6.356705432629277	4.997847	2.2355864
6.37425925577428	5.0696187	2.2515814
6.391813228653095	5.1052923	2.2594893
6.409367351681486	5.1045656	2.2593286
6.426921625275259	5.0717044	2.2520444
6.44447604985025	5.09432	2.25706
6.46203062582232	5.1441655	2.2680752
6.47958535360737	5.124682	2.263776
6.497140233621328	5.0604215	2.249538
6.514695266280161	5.0370264	2.244332
6.532250451999859	5.1103206	2.2606018
6.549805791196454	5.1714506	2.2740824
6.567361284286002	5.1986284	2.28005
6.584916931684597	5.180971	2.2761748
6.602472733808367	5.1423497	2.267675
6.6200286910734665	5.100229	2.2583687
6.637584803896092	5.057117	2.2488034
6.655141072692462	5.026487	2.2419827
6.672697497878842	5.074401	2.252643
6.690254079871514	5.119302	2.2625873
6.707810819086808	5.1483445	2.2689965
6.725367715941078	5.1147575	2.261583
6.742924770850719	5.0754223	2.2528698
6.760481984232151	5.1215787	2.2630906
6.778039356501836	5.070279	2.251728
6.795596888076266	5.0437837	2.245837
6.813154579371963	5.0315256	2.2431061
6.830712430805492	5.117834	2.262263
6.84827044279344	5.1810884	2.2762005
6.865828615752445	5.20396	2.281219
6.883386950099159	5.133301	2.265679
6.900945446250287	5.074714	2.2527127
6.918504104622553	5.126825	2.2642493
6.936062925632727	5.1515656	2.269706
6.953621909697607	5.1150393	2.2616453
6.971181057234028	5.1643505	2.2725208
6.988740368658859	5.2389913	2.2888844
7.006299844389007	5.316664	2.3057892
7.023859484841407	5.377863	2.319022
7.041419290433036	5.4475102	2.33399
7.058979261580902	5.5859184	2.3634548
7.0765393987020495	5.797542	2.4078085
7.094099702213559	6.164628	2.482867
7.111660172532549	6.5511327	2.559518
7.129220810076164	6.9118934	2.629048
7.146781615261595	7.4823003	2.7353795
7.16434258850606	7.6084948	2.75835
7.181903730226821	7.9729724	2.823645
7.1994650408411704	8.060946	2.8391807
7.217026520766437	8.226803	2.8682404
7.234588170419983	8.558914	2.9255621
7.252149990219215	8.659715	2.9427392
7.269711980581568	8.6283	2.9373968
7.2872741419245175	8.34412	2.888619
7.304836474665574	7.9262466	2.815359
7.322398979222286	7.5317764	2.7444081
7.339961656012233	7.301252	2.7020829
7.357524505453039	6.9325013	2.6329644
7.375087527962357	6.671921	2.5830061
7.392650723957886	6.3346114	2.5168655
7.410214093857353	6.018755	2.453315
7.427777638078528	5.784892	2.4051802
7.445341357039213	5.6259966	2.3719184
7.4629052511572525	5.4719877	2.339228
7.480469320850524	5.4105062	2.3260496
7.498033566536948	5.344898	2.3119035
7.5155979886344735	5.3115587	2.304682
7.5331625875610975	5.2651224	2.2945855
7.550727363734844	5.252454	2.2918231
7.568292317573788	5.2733617	2.29638
7.585857449496025	5.2096157	2.2824583
7.603422759919705	5.235108	2.2880359
7.620988249263007	5.2464833	2.2905204
7.638553917944147	5.3696747	2.3172557
7.656119766381391	5.398834	2.3235393
7.673685794993023	5.412876	2.3265588
7.691252004197388	5.334443	2.3096414
7.70881839441285	5.28277	2.2984278
7.726384966057826	5.2562523	2.292652
7.743951719550762	5.266496	2.2948847
7.761518655310149	5.3531375	2.313685
7.779085773754511	5.3671055	2.3167014
7.796653075302419	5.3955655	2.3228357
7.814220560372475	5.422923	2.328717
7.831788229383323	5.349215	2.3128371
7.8493560827536495	5.2963576	2.3013816
7.866924120902174	5.2733073	2.2963684
7.884492344247663	5.2973123	2.301589
7.9020607532089135	5.3102584	2.3043997
7.919629348204771	5.309032	2.3041337
7.937198129654115	5.35083	2.3131862
7.954767097975865	5.4026265	2.3243551
7.972336253588986	5.427877	2.3297803
7.989905596912472	5.4994063	2.3450813
8.007475128365371	5.5034	2.3459327
8.025044848366756	5.5333657	2.3523107
8.042614757335754	5.567902	2.3596404
8.060184855691523	5.599142	2.3662508
8.07775514385327	5.753936	2.3987362
8.095325622240228	5.856518	2.4200244
8.112896291271687	5.908048	2.4306476
8.130467151366968	5.9733944	2.444053
8.148038202945436	5.928062	2.4347613
8.165609446426497	5.9474587	2.4387412
8.183180882229594	6.018493	2.4532619
8.200752510774217	6.064449	2.4626102
8.218324332479893	6.1192155	2.4737048
8.235896347766193	6.0724287	2.4642298
8.253468557052724	6.1444564	2.4788015
8.27104096075914	6.145615	2.4790351
8.288613559305137	6.2452316	2.499046
8.306186353110448	6.327005	2.515354
8.32375934259485	6.339613	2.5178587
8.341332528178162	6.318805	2.5137234
8.358905910280246	6.267301	2.5034578
8.376479489321003	6.2747188	2.5049388
8.394053265720377	6.344781	2.518885
8.411627239898356	6.398221	2.5294704
8.42920141227497	6.334248	2.5167933
8.44677578327029	6.331025	2.5161529
8.464350353304427	6.2235656	2.4947076
8.48192512279754	6.1914096	2.4882543
8.499500092169827	6.1740575	2.484765
8.51707526184153	6.275114	2.5050178
8.534650632232934	6.3386717	2.5176718
8.552226203764365	6.3611403	2.52213
8.569801976856192	6.3262177	2.5151973
8.587377951928834	6.341389	2.5182116
8.60495412940274	6.3759375	2.5250618
8.622530509698416	6.3783464	2.525539
8.6401070932364	6.461659	2.5419793
8.657683880437283	6.5825253	2.5656433
8.675260871721695	6.815382	2.6106286
8.692838067510303	7.001757	2.6460834
8.710415468223834	7.2094784	2.6850471
8.727993074283043	7.314055	2.7044508
8.745570886108737	7.2540593	2.693336
8.763148904121765	7.2106695	2.6852689
8.78072712874302	7.204654	2.6841488
8.798305560393441	7.448854	2.7292588
8.815884199494006	7.6112065	2.7588415
8.833463046465745	7.809527	2.794553
8.851042101729728	7.9475303	2.8191364
8.86862136570707	8.314394	2.883469
8.886200838818924	8.518476	2.9186428
8.903780521486505	8.621927	2.936312
8.921360414131055	8.736256	2.9557157
8.938940517173874	8.842626	2.9736552
8.956520831036297	8.915057	2.9858093
8.97410135613971	9.215119	3.0356414
8.99168209290554	9.410377	3.0676336
9.009263041755265	9.73689	3.120399
9.026844203110405	9.918219	3.1493204
9.044425577392525	10.006266	3.163268
9.062007165023239	10.053679	3.1707537
9.079588966424197	10.363794	3.2192848
9.097170982017108	10.486428	3.2382755
9.11475321222372	11.55325	3.3990073
9.132335657465825	12.440943	3.527172
9.149918318165264	12.565936	3.5448463
9.167501194743924	13.234047	3.637863
9.18508428762374	12.926208	3.5953035
9.202667597226693	12.788211	3.5760608
9.220251123974803	12.263625	3.501946
9.237834868290143	11.98192	3.461491
9.255418830594836	11.92784	3.4536705
9.273003011311046	11.494169	3.3903053
9.290587410860985	11.215302	3.3489256
9.308172029666911	10.551807	3.2483547
9.32575686815113	10.224599	3.1975927
9.343341926735997	8.929954	2.9883027
9.360927205843916	8.663759	2.9434264
9.378512705897327	8.471699	2.9106183
9.396098427318728	8.238154	2.8702185
9.413684370530664	8.135906	2.852351
9.431270535955722	8.013938	2.83089
9.448856924016539	7.9432545	2.818378
9.466443535135806	7.8255696	2.797422
9.484030369736251	7.8065233	2.7940156
9.501617428240658	7.8095546	2.794558
9.519204711071852	7.7962785	2.7921817
9.536792218652714	7.88442	2.807921
9.55437995140617	7.8881073	2.8085775
9.571967909755191	7.9898176	2.8266265
9.589556094122802	8.017794	2.8315709
9.60714450493207	8.153375	2.8554115
9.624733142606116	8.187045	2.8613012
9.642322007568108	8.142666	2.8535357
9.659911100241267	8.107576	2.8473806
9.677500421048851	8.080197	2.8425689
9.695089970414175	8.117758	2.8491678
9.712679748760609	8.177346	2.859606
9.730269756511557	8.271798	2.8760734
9.747859994090492	8.336318	2.8872683
9.765450461920915	8.323328	2.8850179
9.78304116042639	8.274518	2.8765461
9.800632090030527	8.282837	2.877992
9.81822325115699	8.3770075	2.894306
9.835814644229481	8.458569	2.908362
9.853406269671762	8.454988	2.907746
9.870998127907646	8.422937	2.9022298
9.888590219360985	8.444076	2.9058692
9.906182544455698	8.468657	2.9100957
9.923775103615734	8.53077	2.9207482
9.941367897265108	8.492741	2.9142308
9.958960925827878	8.462938	2.909113
9.97655418972816	8.475471	2.911266
9.994147689390106	8.491854	2.9140785
10.011741425237934	8.559066	2.9255881
10.029335397695904	8.500442	2.9155517
10.04692960718833	8.514232	2.9179156
10.06452405413958	8.459552	2.908531
10.082118738974064	8.481552	2.9123104
10.099713662116246	8.422021	2.9020717
10.117308823990651	8.5254965	2.9198453
10.134904225021844	8.540839	2.9224715
10.152499865634445	8.539497	2.922242
10.170095746253125	8.447352	2.9064329
10.18769186730261	8.284899	2.87835
10.205288229207675	8.29164	2.879521
10.222884832393145	8.406354	2.8993714
10.2404816772839	8.444733	2.9059823
10.258078764304868	8.448432	2.9066186
10.275676093881035	8.389151	2.896403
10.293273666437438	8.3773365	2.894363
10.310871482399158	8.380184	2.8948548
10.32846954219134	8.269897	2.875743
10.346067846239173	8.285732	2.8784947
10.363666394967908	8.290684	2.8793547
10.38126518880283	8.36622	2.892442
10.398864228169298	8.381566	2.8950934
10.416463513492713	8.309443	2.8826106
10.434063045198531	8.261612	2.874302
10.451662823712262	8.219083	2.8668942
10.469262849459467	8.241123	2.8707356
10.486863122865758	8.152366	2.8552349
10.504463644356806	8.096834	2.8454936
10.522064414358338	8.058639	2.8387742
10.539665433296118	8.054736	2.8380866
10.557266701595987	8.026401	2.8330903
10.574868219683818	7.964209	2.822093
10.592469987985552	7.862969	2.8040986
10.610072006927185	7.743054	2.7826343
10.627674276934751	7.6152825	2.7595801
10.64527679843435	7.456173	2.7305994
10.662879571852143	7.343276	2.709848
10.680482597614331	7.2425966	2.6912072
10.698085876147173	7.1196523	2.6682677
10.715689407876988	7.02272	2.6500416
10.733293193230146	6.908268	2.6283584
10.750897232633072	6.769206	2.6017697
10.76850152651225	6.7338853	2.594973
10.786106075294207	6.6887913	2.5862699
10.803710879405534	6.6684737	2.5823388
10.821315939272877	6.5861773	2.566355
10.83892125532294	6.5038505	2.5502648
10.856526827982472	6.3837695	2.5266123
10.874132657678285	6.3557477	2.521061
10.891738744837243	6.3284836	2.5156476
10.909345089886271	6.299605	2.5099013
10.926951693252343	6.265305	2.5030591
10.944558555362494	6.228443	2.4956849
10.96216567664381	6.1396317	2.477828
10.979773057523436	6.0743833	2.4646263
10.997380698428573	6.0432973	2.4583118
11.014988599786477	5.973944	2.4441652
11.032596762024461	5.882513	2.4253893
11.050205185569892	5.774665	2.4030533
11.067813870850198	5.6498375	2.3769386
11.085422818292859	5.591735	2.364685
11.10303202832541	5.543863	2.3545408
11.120641501375454	5.5075746	2.3468223
11.138251237870636	5.4392767	2.3322258
11.155861238238671	5.363869	2.3160028
11.173471502907317	5.3369036	2.310174
11.191082032304402	5.3040195	2.3030457
11.208692826857805	5.1918054	2.2785532
11.226303886995465	5.097277	2.257715
11.243915213145371	5.037322	2.2443979
11.261526805735578	4.969629	2.2292664
11.279138665194196	4.9466777	2.2241127
11.296750791949393	4.9323916	2.2208989
11.314363186429393	4.885656	2.210352
11.331975849062479	4.8315163	2.198071
11.34958878027699	4.7301064	2.1748807
11.36720198050133	4.681075	2.1635792
11.384815450163948	4.666689	2.160252
11.402429189693366	4.6782365	2.162923
11.420043199518153	4.6413	2.1543677
11.437657480066942	63.549553	7.9717975
11.455272031768422	85.24786	9.232977
11.472886855051353	107.6622	10.3760395
11.490501950344528	99.283714	9.964122
11.508117318076819	84.61092	9.19842
11.52573295867715	45.95566	6.7790604
11.543348872574514	4.1941833	2.0479705
11.560965060197946	4.13035	2.0323262
11.57858152197655	4.0909424	2.0226078
11.59619825833949	4.102647	2.025499
11.613815269715985	4.150825	2.0373573
11.631432556535323	38.664593	6.218086
11.649050119226837	83.197235	9.121252
11.666667958219929	93.59281	9.674337
11.68428607394406	107.85458	10.385306
11.701904466828756	82.63991	9.09065
11.719523137303586	65.46733	8.091188
11.737142085798196	4.7138486	2.17114
11.754761312742286	3.82324	1.9553107
11.772380818565619	3.7535632	1.9374114
11.790000603698015	3.6964514	1.9226158
11.80762066856935	3.671315	1.9160676
11.825241013609572	3.6336806	1.9062215
11.842861639248683	3.5657797	1.8883272
11.860482545916748	3.4952598	1.8695614
11.878103734043883	3.4967387	1.8699569
11.895725204060282	3.4928138	1.8689071
11.91334695639619	3.4797814	1.8654172
11.930968991481919	3.4281323	1.8515216
11.948591309747824	3.3780282	1.8379413
11.966213911624347	3.3738973	1.8368171
11.98383679754198	3.3972075	1.8431516
12.001459967931268	3.425597	1.8508369
12.019083423222835	3.4308927	1.8522669
12.036707163847352	3.4083495	1.8461716
12.05433119023556	3.3428013	1.8283329
12.071955502818259	3.2620873	1.8061249
12.089580102026313	3.196312	1.7878232
12.107204988290643	3.1799154	1.7832317
12.12483016204224	3.218144	1.7939186
12.142455623712152	3.254678	1.8040726
12.16008137373149	3.2183793	1.7939842
12.177707412531431	3.1657517	1.779256
12.19533374054321	3.1690133	1.7801722
12.212960358198126	3.1718423	1.7809666
12.230587265927545	3.1224217	1.7670375
12.248214464162889	3.0976868	1.7600247
12.265841953335649	3.0451143	1.7450256
12.283469733877375	3.0696747	1.7520487
12.301097806219685	3.0744946	1.7534237
12.31872617079425	3.0784633	1.754555
12.336354828032825	3.0554624	1.7479881
12.353983778367205	3.0382185	1.7430487
12.371613022229262	3.0029402	1.7328993
12.389242560050928	2.9448643	1.7160606
12.406872392264201	2.8985147	1.7025025
12.424502519301143	2.9051661	1.7044548
12.442132941593874	2.8659616	1.6929151
12.459763659574586	2.8721247	1.6947345
12.477394673675532	2.8572814	1.6903495
12.49502598432903	2.887117	1.6991519
12.51265759196746	2.8694568	1.6939471
12.530289497023267	2.8584912	1.6907073
12.547921699928967	2.8467047	1.6872181
12.565554201117134	2.8675728	1.693391
12.583187001020404	2.8853648	1.6986362
12.600820100071486	2.9082363	1.7053552
12.618453498703152	2.897675	1.7022558
12.636087197348235	2.86531	1.6927227
12.65372119643964	2.822495	1.6800283
12.671355496410326	2.7751157	1.6658678
12.68899009769333	2.7771378	1.6664747
12.706625000721749	2.8224635	1.6800189
12.724260205928752	2.9202123	1.7088629
12.741895713747551	2.9766622	1.7253006
12.759531524611454	3.0359588	1.7424003
12.777167638953818	3.0232599	1.7387524
12.794804057208072	3.0036135	1.7330936
12.812440779807702	3.012552	1.7356704
12.830077807186271	3.1940472	1.7871897
12.847715139777405	3.2280004	1.7966636
12.865352778014795	3.4707866	1.8630047
12.882990722332197	3.5937173	1.8957102
12.90062897316344	3.6913245	1.9212819
12.918267530942412	3.7956529	1.9482435
12.935906396103071	3.6926384	1.921624
12.953545569079449	3.8640583	1.9657208
12.971185050305628	3.6759002	1.9172637
12.988824840215775	3.7091286	1.9259098
13.006464939244115	3.7133965	1.9270176
13.024105347824943	3.5654767	1.888247
13.041746066392617	3.611794	1.900472
13.05938709538157	3.420836	1.8495502
13.077028435226296	3.4562998	1.8591126
13.094670086361363	3.390705	1.8413867
13.112312049221401	3.2993343	1.816407
13.129954324241112	3.1499815	1.7748188
13.147596911855258	2.9075727	1.7051606
13.165239812498685	2.8782964	1.6965543
13.182883026606293	2.8506978	1.688401
13.200526554613058	2.8072684	1.6754905
13.218170396954017	2.7668247	1.6633775
13.235814554064284	2.7257938	1.6509979
13.253459026379034	2.73675	1.6543125
13.271103814333523	2.7492464	1.6580851
13.288748918363058	2.784701	1.6687424
13.306394338903031	2.7684178	1.6638563
13.32404007638889	2.751253	1.6586901
13.341686131256164	2.757185	1.6604773
13.359332503940449	2.7476304	1.6575978
13.376979194877402	2.730679	1.6524767
13.394626204502751	2.7543979	1.6596379
13.412273533252307	2.763856	1.6624849
13.429921181561937	2.751555	1.6587812
13.447569149867581	2.7644446	1.6626619
13.465217438605247	2.758137	1.660764
13.482866048211022	2.730334	1.6523722
13.500514979121052	2.7498848	1.6582776
13.518164231771568	2.73817	1.6547416
13.535813806598844	2.7469335	1.6573875
13.553463704039254	2.7166562	1.6482282
13.571113924529229	2.6641243	1.6322145
13.588764468505275	2.682015	1.6376859
13.606415336403956	2.718709	1.6488508
13.624066528661917	2.8015473	1.6737823
13.641718045715882	2.8445537	1.6865804
13.659369888002635	2.9248614	1.7102226
13.67702205595903	2.962524	1.7211984
13.694674550021993	3.0384436	1.7431132
13.712327370628532	3.0863845	1.7568109
13.729980518215713	3.1414697	1.7724192
13.747633993220681	3.208137	1.7911273
13.765287796080647	3.2421956	1.8006098
13.7829419272329	3.285424	1.8125739
13.800596387114801	3.3151333	1.8207507
13.818251176163775	3.3282547	1.8243505
13.835906294817324	3.3814015	1.8388587
13.853561743513023	3.4033725	1.8448231
13.871217522688525	3.4641242	1.8612158
13.888873632781538	3.4685771	1.8624116
13.906530074229858	3.5323114	1.8794445
13.92418684747135	3.5571759	1.8860477
13.941843952943948	3.593569	1.8956711
13.959501391085665	3.6072118	1.8992661
13.977159162334578	3.499245	1.8706269
13.994817267128846	3.4506202	1.8575845
14.012475705906693	3.3422675	1.828187
14.030134479106424	3.2454214	1.8015053
14.047793587166414	3.1638677	1.7787265
14.065453030525108	3.0957122	1.7594635
14.083112809621026	3.0901713	1.7578883
14.100772924892766	3.0613413	1.749669
14.118433376778997	2.9807847	1.7264949
14.136094165718458	2.8800735	1.697078
14.153755292149969	2.80218	1.6739713
14.171416756512416	2.7449958	1.6568029
14.189078559244768	2.6838179	1.6382362
14.20674070078606	2.5813904	1.6066706
14.224403181575408	2.4978359	1.5804543
14.242066002051999	2.455199	1.5669074
14.259729162655093	2.4788928	1.57445
14.277392663824022	2.4709284	1.5719187
14.295056505998208	2.491225	1.5783615
14.312720689617128	2.481902	1.5754054
14.330385215120348	2.4836643	1.5759646
14.348050082947497	2.4653692	1.5701494
14.3657152935383	2.4640281	1.5697223
14.383380847332528	2.4616714	1.5689714
14.401046744770051	2.4767065	1.5737555
14.418712986290798	2.4648528	1.5699849
14.436379572334793	2.4357505	1.5606891
14.454046503342123	2.3958197	1.5478436
14.471713779752946	2.365502	1.538019
14.489381402007504	2.3546484	1.5344863
14.507049370546113	2.3633242	1.5373107
14.524717685809168	2.3979113	1.548519
14.542386348237134	2.3808186	1.5429902
14.560055358270553	2.3785708	1.5422616
14.577724716350051	2.413241	1.553461
14.595394422916325	2.44951	1.5650911
14.61306447841015	2.5102117	1.5843648
14.63073488327237	2.5183733	1.5869384
14.648405637943917	2.5622213	1.6006941
14.6660767428658	2.5564106	1.5988779
14.683748198479094	2.554108	1.5981576
14.701420005224954	2.5763023	1.6050863
14.719092163544628	2.653744	1.6290317
14.73676467387942	2.7028074	1.6440217
14.754437536670727	2.7595546	1.6611907
14.772110752360014	2.7842505	1.6686074
14.78978432138882	2.773466	1.6653726
14.807458244198777	2.7565494	1.660286
14.82513252123159	2.7131958	1.6471782
14.842807152929028	2.7502182	1.6583781
14.860482139732962	2.7815204	1.6677891
14.87815748208531	2.797841	1.6726748
14.8958331804281	2.776077	1.6661564
14.91350923520342	2.6861813	1.6389574
14.931185646853438	2.6784956	1.636611
14.948862415820408	2.6442966	1.6261294
14.966539542546656	2.6744657	1.6353793
14.98421702747459	2.6684835	1.6335493
15.001894871046696	2.7010057	1.6434736
15.019573073705542	2.71087	1.646472
15.037251635893766	2.683957	1.6382787
15.054930558054092	2.7110345	1.6465219
15.072609840629323	2.7528567	1.6591735
15.090289484062351	2.9387739	1.7142853
15.107969488796124	3.2347581	1.7985433
15.125649855273691	3.677977	1.9178053
15.14333058393817	4.156101	2.0386517
15.161011675232768	5.0293016	2.2426105
15.17869312960076	6.342282	2.5183887
15.196374947485506	8.132817	2.8518095
15.214057129330447	11.2225685	3.3500102
15.231739675579114	16.052214	4.006521
15.249422586675102	21.188213	4.6030655
15.267105863062092	24.423666	4.9420304
15.284789505183847	24.73067	4.9729943
15.302473513484218	22.598804	4.75382
15.320157888407127	18.949078	4.353054
15.337842630396578	14.717572	3.8363488
15.355527739896656	11.421045	3.3795037
15.37321321735153	8.9182	2.9863355
15.39089906320545	6.5029182	2.550082
15.408585277902748	4.8755155	2.208057
15.42627186188783	3.749404	1.9363377
15.443958815605198	3.2130527	1.7924991
15.461646139499424	2.913383	1.7068635
15.479333834015168	2.8015609	1.6737864
15.497021899597165	2.7682984	1.6638204
15.514710336690234	2.6982446	1.6426334
15.53239914573928	2.6530366	1.6288145
15.550088327189297	2.5520053	1.5974997
15.567777881485336	2.5304117	1.5907267
15.58546780907256	2.5490599	1.5965775
15.6031581103962	2.5559387	1.5987303
15.620848785901568	2.5505433	1.5970421
15.638539836034063	2.5071921	1.5834116
15.656231261239173	2.4865525	1.5768806
15.673923061962451	2.49475	1.5794778
15.691615238649552	2.5020826	1.5817972
15.709307791746202	2.4679718	1.5709779
15.727000721698221	2.4032898	1.5502547
15.744694028951498	2.3814902	1.5432078
15.76238771395202	2.3614402	1.5366979
15.780081777145844	2.3551993	1.5346658
15.797776218979125	2.3706176	1.539681
15.815471039898094	2.3870127	1.544996
15.833166240349064	2.392916	1.5469053
15.850861820778437	2.3763406	1.5415384
15.868557781632699	2.365265	1.5379418
15.886254123358412	2.4062274	1.5512019
15.903950846402232	2.4217088	1.556184
15.921647951210897	2.4252608	1.5573249
15.939345438231225	2.4384356	1.5615491
15.957043307910133	2.4584813	1.5679545
15.974741560694602	2.4497085	1.5651544
15.992440197031714	2.3912694	1.546373
16.01013921736862	2.3483036	1.5324175
16.02783862215259	2.3604188	1.5363655
16.045538411830933	2.4141142	1.553742
16.06323858685107	2.40948	1.55225
16.080939147660512	2.440991	1.5623671
16.09864009470684	2.4573731	1.5676011
16.11634142843774	2.4916828	1.5785065
16.134043149300954	2.503534	1.582256
16.15174525774433	2.5014153	1.5815864
16.169447754215817	2.4879608	1.5773271
16.18715063916342	2.4931223	1.5789624
16.204853913035244	2.4961574	1.5799233
16.222557576279478	2.46929	1.5713974
16.240261629344403	22.461325	4.739338
16.257966072678386	42.96262	6.554588
16.275670906729868	38.058697	6.1691732
16.293376131947387	2.4967308	1.5801047
16.31108174877957	2.5394015	1.59355
16.328787757675133	2.5723588	1.6038575
16.34649415908287	2.5805726	1.6064161
16.364200953451657	2.6114783	1.6160069
16.38190814123048	2.68112	1.6374125
16.39961572286839	2.7594628	1.6611631
16.41732369881455	2.7910278	1.6706369
16.43503206951817	2.775495	1.6659817
16.45274083542859	2.8087087	1.6759202
16.47044999699522	2.8255963	1.680951
16.488159554667558	2.8719344	1.6946783
16.505869508895184	2.8701549	1.6941532
16.523579860127786	2.9175725	1.7080903
16.541290608815117	2.987605	1.728469
16.559001755407035	3.0811353	1.7553163
16.57671330035348	3.136508	1.7710189
16.59442524410448	3.1784902	1.782832
16.61213758711015	3.2286236	1.7968371
16.629850329820705	3.2721126	1.8088982
16.647563472686436	3.349752	1.8302327
16.665277016157724	3.4152427	1.8480375
16.682990960685053	3.5245745	1.877385
16.70070530671898	3.5583682	1.8863637
16.718420054710155	3.5762904	1.8911083
16.736135205109335	3.5945103	1.8959194
16.753850758367335	3.6314075	1.9056252
16.771566714935087	3.6948833	1.922208
16.789283075263597	3.7526112	1.9371657
16.80699983980398	3.822333	1.9550788
16.82471700900741	3.8933556	1.9731588
16.84243458332518	4.0253286	2.0063221
16.860152563208665	4.100322	2.0249252
16.87787094910932	4.1624575	2.0402102
16.89558974147871	4.227792	2.0561595
16.913308940768466	4.276852	2.0680552
16.931028547430333	4.31338	2.0768678
16.94874856191613	4.330885	2.0810778
16.966468984677785	4.451447	2.1098452
16.98418981616729	4.498899	2.1210608
17.00191105683676	4.488894	2.118701
17.019632707138374	4.5023236	2.121868
17.03735476752442	4.560955	2.1356392
17.05507723844728	4.613922	2.1480043
17.072800120359403	4.589878	2.1424
17.090523413713353	4.6113396	2.147403
17.108247118961785	4.6930647	2.1663482
17.125971236557437	4.749593	2.179356
17.143695766953133	4.762477	2.18231
17.161420710601806	4.7195544	2.1724536
17.179146067956477	4.6830096	2.1640263
17.19687183947025	4.6908884	2.1658459
17.21459802559634	4.7315035	2.175202
17.232324626788028	4.739769	2.1771011
17.25005164349871	4.7162867	2.1717014
17.267779076181863	4.7067394	2.169502
17.285506925291074	4.650451	2.1564906
17.30323519127999	4.608628	2.1467714
17.320963874602384	4.5780244	2.1396317
17.33869297571211	4.5551777	2.1342862
17.356422495063114	4.5782523	2.1396852
17.37415243310944	4.60608	2.146178
17.391882790305218	4.5956163	2.143739
17.40961356710468	4.5926332	2.143043
17.42734476396215	4.5711412	2.1380227
17.445076381332044	4.5684133	2.1373847
17.462808419668868	4.5963073	2.1439
17.48054087942723	4.6785936	2.1630056
17.498273761061835	4.953005	2.2255347
17.51600706502747	5.447037	2.3338888
17.533740791779024	6.188782	2.4877262
17.551474941771485	7.6682897	2.7691677
17.56920951545993	8.776568	2.9625273
17.586944513299528	10.972646	3.3124983
17.60467993574556	12.60106	3.549797
17.622415783253373	14.296223	3.7810347
17.64015205627843	15.759275	3.9697955
17.657888755276293	16.8888	4.1095986
17.675625880702604	17.298414	4.1591363
17.69336343301311	17.115076	4.1370373
17.71110141266366	16.299707	4.0372896
17.728839820110178	15.378067	3.9214878
17.746578655808705	14.4238205	3.7978706
17.764317920215372	12.962714	3.6003768
17.7820576137864	11.401857	3.3766637
17.79979773697811	9.426243	3.0702188
17.81753829024692	7.58059	2.753287
17.835279274049356	5.9517617	2.4396234
17.85302068884201	4.9430757	2.2233028
17.870762535081607	4.306512	2.0752137
17.888504813224934	3.9657016	1.9914069
17.90624752372891	3.7628908	1.9398172
17.923990667050536	3.6944063	1.9220839
17.941734243646895	3.625976	1.9041996
17.959478253975185	3.6197524	1.9025646
17.9772226984927	3.557604	1.8861612
17.994967577656833	3.4929326	1.8689389
18.01271289192506	3.4102063	1.8466744
18.030458641754965	3.3948169	1.8425028
18.04820482760425	3.3917239	1.8416634
18.06595144993067	3.3866925	1.8402969
18.083698509192125	3.391655	1.8416446
18.101446005846576	3.3264353	1.8238518
18.119193940352105	3.292027	1.8143944
18.136942313166887	3.2270265	1.7963927
18.1546911247492	3.246649	1.801846
18.1724403755574	3.2561595	1.8044832
18.19019006604997	3.251943	1.8033144
18.207940196685467	3.2049212	1.7902294
18.225690767922575	3.169487	1.7803053
18.243441780220046	3.0850484	1.7564306
18.261193234036764	3.0847487	1.7563453
18.278945129831676	3.096369	1.7596502
18.29669746806386	3.1259463	1.7680346
18.314450249192483	3.0948803	1.7592272
18.3322034736768	3.0589	1.7489711
18.349957141976184	3.0432184	1.7444823
18.3677112545501	3.0753148	1.7536576
18.385465811858108	3.1187983	1.766012
18.403220814359884	3.1299455	1.7691652
18.420976262515172	3.1446939	1.7733284
18.43873215678387	3.1258507	1.7680075
18.456488497625923	3.1770258	1.7824214
18.474245285501407	3.2630837	1.8064008
18.492002520870486	3.3370533	1.8267603
18.50976020419343	3.3942885	1.8423595
18.527518335930615	3.723808	1.9297171
18.545276916542516	4.344987	2.0844631
18.563035946489688	4.5268373	2.1276367
18.580795426232832	4.9694285	2.2292216
18.598555356232698	4.8558235	2.2035933
18.616315736950185	5.240763	2.2892714
18.63407656884626	4.848768	2.2019918
18.65183785238201	5.0350676	2.2438955
18.669599588018617	4.745582	2.1784358
18.68736177621737	4.750828	2.1796393
18.705124417439652	4.7328467	2.1755106
18.72288751214696	4.554309	2.1340828
18.740651060800886	4.6893167	2.165483
18.758415063863115	4.3233805	2.079274
18.77617952179546	4.482865	2.1172776
18.793944435059814	4.2723713	2.0669715
18.811709804118184	4.325879	2.0798748
18.829475629432675	4.255305	2.062839
18.8472419114655	4.062096	2.0154643
18.86500865067897	4.1668363	2.041283
18.88277584753551	3.8760195	1.9687608
18.90054350249763	3.9191747	1.9796906
18.918311616027957	3.6219656	1.9031463
18.936080188589226	3.458823	1.8597912
18.953849220644265	3.1052048	1.7621591
18.971618712656007	2.9324563	1.7124416
18.9893886650875	2.8989017	1.7026161
19.007159078401887	8.069887	2.8407547
19.024929953062408	32.95579	5.7407136
19.042701289532435	32.92744	5.7382436
19.060473088275405	25.456913	5.0454845
19.07824534975489	2.7166083	1.6482136
19.096018074434568	2.6843288	1.6383921
19.113791262778197	2.671774	1.6345562
19.13156491524966	2.6343143	1.6230571
19.149339032312945	2.627819	1.6210549
19.167113614432136	2.619856	1.6185969
19.184888662071433	2.589843	1.609299
19.202664175695123	2.5820384	1.6068722
19.220440155767623	2.6092956	1.6153314
19.238216602753447	2.610289	1.615639
19.2559935171172	2.5611887	1.6003715
19.27377089932361	2.5461545	1.5956674
19.291548749837514	2.5520105	1.5975014
19.309327069123835	2.5513835	1.597305
19.32710585764763	2.5199604	1.5874383
19.344885115874032	2.531449	1.5910528
19.362664844268313	2.5492737	1.5966445
19.380445043295822	2.5516849	1.5973994
19.39822571342203	2.5458248	1.5955641
19.41600685511252	2.5406036	1.5939271
19.43378846883297	2.5374422	1.5929351
19.451570555049173	2.5250387	1.5890371
19.469353114227037	2.484725	1.5763011
19.48713614683254	2.4880822	1.5773656
19.50491965333182	2.5197418	1.5873694
19.52270363419109	2.5639687	1.6012397
19.540488089876686	2.575027	1.6046891
19.55827302085503	2.5467505	1.5958542
19.576058427592674	2.5490847	1.5965853
19.593844310556282	2.5195386	1.5873054
19.611630670212598	2.5549407	1.5984182
19.629417507028506	2.5794396	1.6060634
19.64720482147098	2.5873742	1.6085317
19.6649926140071	2.5472052	1.5959966
19.682780885104084	2.530061	1.5906166
19.70056963522921	2.5208519	1.5877191
19.718358864849908	2.52196	1.588068
19.7361485744337	2.5171037	1.5865383
19.753938764448215	2.5054812	1.5828712
19.771729435361202	2.4954252	1.5796915
19.789520587640506	2.5304685	1.5907446
19.807312221754092	2.5399432	1.59372
19.825104338170043	2.5331714	1.591594
19.842896937356517	2.5449073	1.5952766
19.860690019781824	2.5259883	1.5893358
19.87848358591436	2.4982672	1.5805907
19.896277636222635	2.5227833	1.5883272
19.914072171175278	2.5534527	1.5979527
19.931867191241015	2.5422912	1.5944564
19.94966269688869	2.5398738	1.5936981
19.967458688587264	2.5480077	1.596248
19.985255166805807	2.5540273	1.5981325
20.00305213201348	2.5252936	1.5891173
20.020849584679578	2.5042012	1.5824668
20.038647525273507	2.499918	1.5811129
20.05644595426477	2.4735937	1.5727663
20.07424487212299	2.4320118	1.5594909
20.092044279317903	2.4297528	1.5587665
20.109844176319353	2.4463582	1.5640838
20.127644563597304	2.454268	1.5666103
20.145445441621817	2.4514334	1.5657054
20.16324681086307	2.443688	1.5632299
20.181048671791373	2.4449425	1.5636312
20.198851024877122	2.4470289	1.5642982
20.216653870590836	2.4429684	1.5629998
20.234457209403146	2.42055	1.5558118
20.252261041784802	2.4014342	1.5496562
20.270065368206662	2.3944004	1.547385
20.287870189139685	2.4141912	1.5537668
20.305675505054968	2.4341993	1.5601921
20.323481316423702	2.4533176	1.566307
20.341287623717207	2.4424107	1.5628214
20.359094427406884	2.3733056	1.5405537
20.376901727964288	2.3410704	1.5300556
20.39470952586107	2.3552094	1.5346692
20.41251782156899	2.3919425	1.5465906
20.430326615559935	2.4187844	1.5552442
20.448135908305886	2.4199994	1.5556347
20.465945700278965	2.4088979	1.5520625
20.483755991951384	2.3907154	1.5461938
20.50156678379548	2.3566217	1.5351292
20.519378076283708	2.3470793	1.5320181
20.537189869888635	2.3182514	1.5225805
20.55500216508294	2.343491	1.5308465
20.572814962339415	2.363389	1.5373318
20.59062826213098	2.3603897	1.536356
20.60844206493066	2.3500905	1.5330005
20.626256371211593	2.363788	1.5374615
20.644071181447032	2.3662317	1.538256
20.66188649611036	2.3469665	1.5319812
20.67970231567506	2.3085577	1.5193939
20.697518640614742	2.3012383	1.5169833
20.715335471403122	2.2921598	1.513988
20.73315280851404	2.3161721	1.5218976
20.750970652421447	2.3149223	1.5214869
20.768789003599412	2.3076637	1.5190996
20.786607862522136	2.3114753	1.5203537
20.8044272296639	2.3328683	1.5273731
20.82224710549913	2.334005	1.5277451
20.84006749050237	2.3025634	1.5174199
20.857888385148268	3.8410842	1.9598684
20.8757097899116	45.93342	6.7774196
20.893531705267254	64.79811	8.049727
20.911354131690224	83.84316	9.156591
20.92917706965566	69.11674	8.313647
20.94700051963877	50.17119	7.0831623
20.96482448211493	29.443668	5.426202
20.982648957559622	4.191056	2.0472069
21.00047394644843	2.314184	1.5212442
21.01829944925707	2.3068626	1.5188359
21.036125466461375	2.2818096	1.510566
21.053951998537297	2.2541358	1.5013779
21.071779045960906	2.1986556	1.4827864
21.089606609208378	2.198139	1.4826123
21.10743468875603	2.2232213	1.491047
21.12526328508028	2.2524352	1.5008115
21.143092398657675	2.2547724	1.50159
21.16092202996488	2.245072	1.4983563
21.17875217947867	2.1976826	1.4824584
21.19658284767596	2.188786	1.4794546
21.21441403503377	2.1578379	1.4689581
21.232245742029225	2.1701665	1.4731485
21.2500779691396	2.1870785	1.4788774
21.26791071684227	2.2180817	1.4893225
21.28574398561475	2.208358	1.4860545
21.30357777593465	2.2066367	1.4854752
21.321412088279704	2.2108061	1.486878
21.339246923127792	2.2294726	1.4931419
21.357082280956888	2.2256157	1.4918498
21.3749181622451	2.2049482	1.4849068
21.392754567470647	2.2031941	1.4843161
21.41059149711187	2.1807835	1.4767476
21.42842895164726	2.1607554	1.4699508
21.446266931555378	2.1520038	1.4669709
21.464105437314945	2.1376157	1.4620587
21.481944469404798	2.1297915	1.4593805
21.49978402830388	2.1298497	1.4594004
21.51762411449127	2.1283035	1.4588706
21.53546472844617	2.1278138	1.4587028
21.553305870647876	2.1106858	1.45282
21.571147541575865	2.087008	1.444648
21.58898974170967	2.0857072	1.4441978
21.60683247152899	2.1038516	1.450466
21.62467573151363	2.11669	1.4548849
21.642519522143523	2.1206446	1.4562433
21.660363843898722	2.083768	1.4435261
21.6782086972594	2.0724142	1.4395882
21.696054082705864	2.0473804	1.4308671
21.713900000718535	2.0603669	1.4353979
21.73174645177795	2.0906658	1.4459134
21.749593436364794	2.0833287	1.443374
21.767440954959845	2.0649173	1.436982
21.785289008044032	2.0534735	1.4329946
21.803137596098388	2.0611737	1.4356788
21.820986719604086	2.039067	1.4279591
21.838836379042412	1.9928665	1.4116893
21.85668657489478	1.9966917	1.4130434
21.87453730764273	2.0190241	1.4209237
21.892388577767914	2.0348878	1.426495
21.91024038575213	2.0444787	1.4298527
21.928092732077285	2.017022	1.420219
21.945945617225426	2.0335443	1.426024
21.963799041678694	2.023435	1.422475
21.981653005919398	31.36971	5.600867
21.999507510429943	78.15545	8.840557
22.01736255569286	73.115364	8.550753
22.035218142190818	4.1908126	2.0471475
22.05307427040661	2.0443075	1.4297928
22.07093094082315	2.0689995	1.4384017
22.088788153923474	2.0624483	1.4361227
22.106645910190746	2.0049477	1.4159617
22.12450421010827	1.9484863	1.3958819
22.142363054159464	1.9580069	1.3992879
22.16022244282787	1.99017	1.4107338
22.178082376597164	2.0126755	1.4186879
22.195942855951145	2.0035777	1.4154779
22.213803881373742	1.997913	1.4134755
22.231665453349002	1.9967984	1.4130812
22.24952757236111	1.9856231	1.4091214
22.26739023889438	1.9793178	1.4068823
22.28525345343323	2.002329	1.4150368
22.30311721646225	2.0093973	1.4175321
22.320981528466113	1.9967136	1.4130511
22.33884638992964	1.9932113	1.4118114
22.356711801337788	1.9864619	1.409419
22.37457776317561	1.9772077	1.4061322
22.392444275928337	1.9700218	1.4035747
22.410311340081282	1.9829917	1.4081874
22.428178956119904	1.9863665	1.4093852
22.446047124529805	1.9949884	1.4124405
22.46391584579669	1.9914078	1.4111725
22.481785120406414	1.9930664	1.4117601
22.49965494884496	1.9556887	1.3984594
22.51752533159841	1.9482578	1.3958001
22.53539626915302	1.9376298	1.3919877
22.553267761995137	1.9361045	1.3914397
22.571139810611264	1.9440169	1.3942801
22.589012415488025	1.9766438	1.4059316
22.60688557711216	1.9755154	1.4055303
22.624759295970566	1.9608493	1.4003032
22.642633572550263	1.9529921	1.3974949
22.660508407338362	1.9527103	1.3973941
22.67838380082217	1.9586778	1.3995277
22.696259753489077	1.9907306	1.4109325
22.714136265826614	2.0501444	1.4318326
22.73201333832246	2.0156965	1.4197522
22.74989097146439	1.9831693	1.4082505
22.76776916574035	1.9224731	1.3865328
22.785647921638393	1.9160814	1.384226
22.803527239646712	1.9314073	1.3897508
22.82140712025363	1.9597306	1.3999038
22.839287563947593	1.9983174	1.4136186
22.85716857121719	1.9784657	1.4065794
22.875050142551135	1.9612631	1.4004511
22.892932278438277	1.9710528	1.4039419
22.910814979367604	1.9752713	1.4054434
22.928698245828222	1.9521223	1.3971837
22.946582078309387	1.9358703	1.3913555
22.96446647730047	1.9423503	1.3936822
22.98235144329098	1.9510485	1.3967993
23.000236976770562	1.9406337	1.3930663
23.018123078229	1.9612851	1.4004589
23.03600974815619	1.9687375	1.4031171
23.053896987042194	1.9191749	1.3853428
23.071784795377173	1.8857876	1.3732399
23.08967317365145	1.8966795	1.3771999
23.10756212235546	1.9230008	1.386723
23.125451641979787	1.9276737	1.3884069
23.143341733015134	1.9237533	1.3869944
23.161232395952357	1.941755	1.3934687
23.179123631282426	1.9636949	1.401319
23.197015439496468	1.9845848	1.4087529
23.214907821085717	1.9641871	1.4014946
23.23280077654157	1.9724114	1.4044256
23.250694306355538	1.9815335	1.4076695
23.268588411019277	2.0334005	1.4259735
23.28648309102458	2.0433369	1.4294534
23.304378346863356	1.9850299	1.4089109
23.322274179027676	1.9512306	1.3968645
23.340170588009723	1.9323288	1.3900824
23.358067574301852	1.9479831	1.3957016
23.37596513839651	1.922422	1.3865143
23.39386328078629	1.9545517	1.3980528
23.411762001963947	1.9767878	1.4059829
23.429661302422353	2.049899	1.4317468
23.4475611826545	2.0161133	1.419899
23.46546164315356	1.9643494	1.4015524
23.48336268441279	1.9219652	1.3863496
23.501264306925638	1.9192907	1.3853847
23.51916651118564	1.9267137	1.3880612
23.537069297686497	1.9616207	1.4005787
23.554972666922037	1.9775976	1.4062709
23.57287661938623	1.9581033	1.3993224
23.59078115557318	1.939777	1.3927587
23.608686275977128	1.9383266	1.392238
23.62659198109246	1.9449075	1.3945994
23.6444982714137	1.9347047	1.3909366
23.66240514743549	1.8897748	1.3746908
23.68031260965263	1.886894	1.3736426
23.698220658560068	1.930618	1.3894668
23.716129294652845	1.9415116	1.3933814
23.7340385184262	1.9490453	1.3960822
23.75194833037546	1.9408203	1.3931333
23.769858730996123	1.9602983	1.4001065
23.78776972078382	1.9637147	1.4013261
23.80568130023431	1.9288685	1.3888371
23.823593469843495	1.8973519	1.3774439
23.841506230107424	1.9118551	1.3826985
23.859419581522275	1.9019108	1.3790978
23.87733352458438	1.8893313	1.3745295
23.89524805979019	1.904966	1.380205
23.913163187636318	1.9305222	1.3894323
23.931078908619508	1.9586879	1.3995314
23.948995223236633	1.9771475	1.4061108
23.966912131984735	2.038706	1.4278326
23.98482963536096	2.1132426	1.4536996
24.002747733862616	2.1148958	1.4542681
24.020666427987155	2.0523462	1.4326012
24.038585718232156	2.0171554	1.4202659
24.056505605095353	2.0979512	1.4484305
24.074426089074617	2.145948	1.4649054
24.092347170667946	2.1498437	1.4662346
24.110268850373515	2.114206	1.454031
24.128191128689586	2.0888512	1.4452859
24.146114006114626	2.041855	1.4289349
24.164037483147187	2.0394351	1.428088
24.181961560286005	2.075208	1.4405582
24.199886238029926	2.1130173	1.4536221
24.21781151687797	2.138006	1.4621922
24.235737397329274	2.1306782	1.4596843
24.253663879883135	2.107153	1.4516035
24.271590965038975	2.0912805	1.446126
24.289518653296376	2.0618372	1.4359099
24.30744694515505	2.0842104	1.4436795
24.32537584111486	2.0904877	1.4458519
24.34330534167581	2.0537448	1.4330893
24.361235447338046	2.0190606	1.4209366
24.379166158601876	2.0034935	1.4154482
24.39709747596772	2.0149233	1.41948
24.41502939993615	2.014966	1.419495
24.432961931007917	1.9692978	1.4033167
24.450895069683856	1.9603223	1.4001151
24.468828816465	1.9622066	1.4007878
24.4867631718525	2.0009708	1.4145567
24.504698136347656	1.9870985	1.4096448
24.52263371045192	1.9895183	1.4105028
24.540569894666874	1.991069	1.4110525
24.558506689494266	1.986344	1.4093772
24.57644409543597	1.9594704	1.3998108
24.594382112994012	1.9520295	1.3971505
24.61232074267057	1.9702361	1.403651
24.630259984967953	1.968172	1.4029155
24.64819984038863	1.9374306	1.3919162
24.66614030943522	1.9210541	1.386021
24.684081392610462	1.9157681	1.3841127
24.702023090417274	1.9470217	1.3953573
24.7199654033587	1.9639176	1.4013984
24.737908331937927	1.983927	1.4085194
24.755851876658305	2.024342	1.4227937
24.773796038023324	2.0639074	1.4366306
24.79174081653661	2.0992408	1.4488757
24.809686212701962	2.1227162	1.4569545
24.827632227023294	2.1516297	1.4668435
24.8455788600047	2.1673052	1.472177
24.8635261121504	2.1566806	1.4685642
24.88147398396475	2.1427586	1.4638164
24.899422475952303	2.1254086	1.4578781
24.917371588617698	2.1449869	1.4645773
24.935321322465768	2.2184298	1.4894394
24.953271678001478	2.3251915	1.5248579
24.97122265572994	2.483783	1.5760022
24.989174256156414	2.7869592	1.6694188
25.00712647978632	3.3011591	1.8169092
25.02507932712521	3.8445082	1.9607418
25.043032798678798	4.3913054	2.095544
25.060986894952933	5.056198	2.248599
25.078941616453637	5.871086	2.4230325
25.096896963687055	6.8045897	2.6085608
25.114852937159508	7.92138	2.8144946
25.132809537377444	8.427152	2.9029558
25.150766764847468	8.386159	2.8958867
25.168724620076347	7.854976	2.802673
25.186683103570985	6.8602896	2.6192155
25.204642215838426	5.6576056	2.3785722
25.222601957385894	4.2436056	2.0600014
25.24056232872074	3.2183073	1.7939641
25.25852333035048	2.6074677	1.6147655
25.276484962782778	2.2427151	1.4975697
25.294447226525435	2.0877616	1.4449089
25.312410122086423	2.0650609	1.437032
25.330373649973843	2.0517473	1.4323921
25.348337810695988	2.0226533	1.4222002
25.366302604761245	1.9625422	1.4009076
25.384268032678207	1.9860134	1.4092599
25.40223409495558	1.970647	1.4037974
25.420200792102257	1.9633874	1.4012092
25.438168124627246	1.9555235	1.3984003
25.45613609303974	1.9576887	1.3991743
25.474104697849057	1.9693015	1.403318
25.492073939564698	1.9467224	1.39525
25.510043818696285	1.9174571	1.3847227
25.528014335753614	1.8996004	1.3782599
25.54598549124664	1.8438368	1.3578795
25.56395728568544	1.8730496	1.368594
25.58192971958028	1.9308841	1.3895626
25.59990279344156	1.9528085	1.3974292
25.617876507779833	1.9073051	1.3810521
25.635850863105826	1.8797364	1.3710347
25.653825859930386	1.8752077	1.3693823
25.671801498764548	1.8932167	1.3759421
25.68977778011949	1.951767	1.3970566
25.707754704506524	1.9853097	1.4090102
25.725732272437153	1.9955386	1.4126353
25.743710484423012	1.9635681	1.4012737
25.761689340975888	1.9263918	1.3879452
25.77966884260774	1.9105788	1.382237
25.797648989830662	1.8866085	1.3735386
25.815629783156922	1.8557554	1.3622612
25.83361122309895	1.8423123	1.357318
25.85159331016929	1.8578029	1.3630124
25.869576044880695	1.8954779	1.3767636
25.887559427746034	1.8733003	1.3686856
25.90554345927836	1.8015039	1.3422011
25.92352813999086	1.8144615	1.3470194
25.94151347039689	1.8928565	1.3758112
25.959499451009965	1.9308472	1.3895493
25.97748608234374	1.8842944	1.372696
25.995473364912062	1.8278916	1.3519955
26.013461299228904	1.8100555	1.345383
26.03144988580839	1.852591	1.3610992
26.04943912516483	1.8828201	1.3721589
26.067429017812675	1.8758652	1.3696223
26.085419564266537	1.8782293	1.3704851
26.103410765041186	1.862547	1.3647517
26.12140262065155	1.931845	1.3899082
26.139395131612723	1.9249996	1.3874435
26.157388298439948	1.8704673	1.3676503
26.17538212164861	1.830233	1.352861
26.193376601754295	1.8205701	1.349285
26.211371739272714	1.8411443	1.3568877
26.229367534719746	1.8259126	1.3512633
26.247363988611433	1.7824829	1.3350966
26.26536110146397	1.7529849	1.3240033
26.283358873793727	1.7720531	1.3311849
26.301357306117204	1.7971336	1.3405721
26.319356398951104	1.8426291	1.3574347
26.33735615281224	1.865728	1.3659165
26.35535656821762	1.8607497	1.364093
26.373357645684404	1.8364388	1.3551527
26.39135938572991	1.7680514	1.3296809
26.409361788871614	1.7740209	1.3319237
26.427364855627165	1.8213037	1.3495568
26.445368586514352	1.8736429	1.3688108
26.46337298205115	1.900345	1.37853
26.48137804275568	1.8542098	1.3616937
26.499383769146217	1.7962865	1.3402561
26.517390161741215	1.8275129	1.3518554
26.53539722105928	1.8683057	1.3668598
26.553404947619182	1.8492945	1.3598877
26.571413341939856	1.8420776	1.3572316
26.589422404540397	1.8243941	1.3507013
26.60743213594006	1.8068115	1.3441769
26.62544253665827	1.8130395	1.3464916
26.64345360721459	1.8443967	1.3580856
26.66146534812879	1.8855493	1.3731531
26.679477759920758	1.8909075	1.3751028
26.69749084311057	1.8739142	1.3689098
26.71550459821847	1.8506263	1.3603773
26.733519025764842	1.8314261	1.3533019
26.751534126270258	1.8333205	1.3540016
26.769549900255434	1.8441737	1.3580036
26.787566348241267	1.8661544	1.3660727
26.80558347074881	1.8333551	1.3540144
26.823601268299267	1.8176109	1.348188
26.841619741414036	1.8566446	1.3625875
26.85963889061465	1.9051697	1.3802788
26.877658716422832	1.9382479	1.3922098
26.89567921936045	1.9448947	1.3945948
26.913700399949544	1.9090766	1.3816934
26.93172225871233	1.838597	1.3559488
26.949744796171174	1.7691339	1.3300879
26.967768012848605	1.7335365	1.3166384
26.98579190926733	1.7883058	1.3372755
27.003816485950225	1.7977042	1.3407849
27.021841743420318	1.8009425	1.341992
27.039867682200814	1.8145854	1.3470654
27.057894302815072	1.8150201	1.3472269
27.07592160578664	1.8415552	1.3570391
27.0939495916392	1.8345919	1.3544711
27.111978260896635	1.8734158	1.3687278
27.13000761408296	1.9128428	1.3830556
27.148037651722397	1.8930956	1.3758981
27.166068374339304	1.8571895	1.3627874
27.184099782458215	1.8591452	1.3635048
27.20213187660384	1.8655031	1.3658342
27.22016465730105	1.8625945	1.364769
27.23819812507487	1.8178961	1.3482938
27.256232280450533	1.8379623	1.3557147
27.274267123953383	1.8625102	1.3647381
27.292302656108987	1.8776183	1.3702621
27.31033887744306	1.8570805	1.3627474
27.32837578848146	1.846226	1.3587589
27.34641338975026	1.8326764	1.3537638
27.364451681775673	1.7809747	1.3345317
27.382490665084074	1.754984	1.324758
27.400530340202046	1.775258	1.332388
27.41857070765629	1.7935444	1.3392328
27.436611767973726	1.7705348	1.3306144
27.454653521681404	1.8094707	1.3451656
27.472695969306564	1.807204	1.3443229
27.490739111376627	1.771914	1.3311327
27.508782948419153	1.7776189	1.3332738
27.526827480961902	1.835735	1.354893
27.54487270953279	1.8368148	1.3552914
27.562918634659898	1.8313417	1.3532708
27.580965256871508	1.8722786	1.3683124
27.599012576696026	1.8661134	1.3660576
27.617060594662068	1.8639641	1.3652707
27.63510931129842	1.8498154	1.3600792
27.65315872713401	1.8036299	1.3429929
27.67120884269797	1.7361654	1.3176363
27.68925965851958	1.7935317	1.339228
27.707311175128307	1.8463007	1.3587865
27.725363393053787	1.8439689	1.3579282
27.74341631282583	1.8135365	1.3466761
27.7614699349744	1.8382268	1.3558122
27.77952426002968	2.0647748	1.4369324
27.797579288521973	2.1400485	1.4628905
27.815635020981784	2.620141	1.618685
27.83369145793979	2.6858923	1.6388693
27.85174859992682	2.490016	1.5779785
27.869806447473923	2.296379	1.5153809
27.887865001112267	2.014616	1.4193717
27.905924261373233	1.889958	1.3747574
27.92398422878836	1.8617436	1.3644572
27.94204490388936	1.8893034	1.3745193
27.96010628720813	1.9523609	1.3972691
27.978168379276728	1.901824	1.3790663
27.9962311806274	1.8356748	1.3548708
28.014294691792568	1.8752742	1.3694065
28.0323589133048	1.9009955	1.378766
28.050423845696887	1.913197	1.3831837
28.068489489501758	1.9267592	1.3880775
28.086555845252523	1.9373355	1.391882
28.104622913482487	1.8881705	1.3741071
28.122690694725115	1.832168	1.353576
28.14075918951405	1.8893421	1.3745334
28.15882839838312	1.901941	1.3791088
28.176898321866304	1.9348732	1.3909972
28.1949689604978	1.9693269	1.4033271
28.213040314811945	2.009796	1.4176728
28.23111238534327	1.9730376	1.4046485
28.249185172626493	1.9715021	1.4041018
28.267258677196473	1.9561518	1.398625
28.285332899588294	1.974312	1.4051021
28.303407840337172	1.9332485	1.390413
28.321483499978545	1.9259485	1.3877854
28.33955987904799	1.9059309	1.3805546
28.357636978081285	1.903912	1.3798232
28.37571479761439	1.9259737	1.3877945
28.393793338183425	1.9379029	1.3920858
28.41187260032469	1.9015895	1.3789814
28.429952584574686	1.9543164	1.3979686
28.448033291470065	2.04476	1.4299511
28.46611472154769	2.0666351	1.4375796
28.484196875344566	2.01794	1.4205421
28.502279753397914	1.9508897	1.3967426
28.52036335624511	1.9482278	1.3957893
28.538447684423716	1.9855098	1.4090812
28.556532738471482	2.034354	1.4263078
28.574618518926325	2.0954418	1.4475641
28.59270502632635	2.091142	1.4460782
28.61079226120985	2.0392077	1.4280083
28.628880224115274	2.061957	1.4359516
28.646968915581287	2.0967736	1.448024
28.66505833614671	2.131738	1.4600472
28.68314848635055	2.1489968	1.4659457
28.701239366732004	2.1286614	1.4589933
28.71933097783044	2.1103373	1.4527
28.737423320185403	2.1181288	1.4553792
28.75551639433665	2.1474123	1.4654051
28.773610200824074	2.1317005	1.4600344
28.791704740187793	2.2192235	1.4897058
28.80980001296809	2.2758338	1.5085866
28.827896019705413	2.265113	1.5050293
28.845992760940433	2.235146	1.4950405
28.86409023721397	2.2473156	1.499105
28.88218844906704	2.2204788	1.4901271
28.900287397040845	2.217812	1.4892321
28.918387081676755	2.235375	1.4951171
28.936487503516343	2.2487488	1.4995829
28.954588663101365	2.2535996	1.5011994
28.97269056097374	2.2860937	1.5119834
28.990793197675597	2.3306994	1.5266628
29.00889657374923	2.3401806	1.5297649
29.027000689737125	2.3796139	1.5425997
29.04510554618196	2.4389622	1.5617177
29.06321114362659	2.4584544	1.567946
29.08131748261405	2.418478	1.5551456
29.099424563687567	2.3834918	1.5438561
29.11753238739057	2.4265935	1.5577527
29.13564095426663	2.5380988	1.5931412
29.15375026485954	2.630989	1.6220324
29.171860319713275	2.6815884	1.6375556
29.18997111937199	2.7470646	1.6574271
29.20808266438002	2.725376	1.6508713
29.226194955281898	2.7021616	1.6438253
29.244307992622335	2.814672	1.6776984
29.26242177694624	2.9418855	1.7151926
29.2805363087987	2.9642735	1.7217065
29.29865158872498	2.9475214	1.7168347
29.316767617270557	2.9374745	1.7139062
29.334884394981064	2.9548085	1.7189556
29.353001922402367	3.0336308	1.7417321
29.37112020008047	3.0792203	1.7547708
29.389239228561596	3.168496	1.7800269
29.407359008392152	3.3838694	1.8395296
29.42547954011872	3.767599	1.9410304
29.44360082428809	4.39298	2.0959437
29.46172286144722	5.3998375	2.323755
29.479845652143283	6.915747	2.6297808
29.497969196923606	9.022231	3.0037029
29.516093496335728	11.590141	3.4044297
29.5342185509274	14.359368	3.7893758
29.55234436124651	16.69807	4.086327
29.570470927841175	18.213459	4.267723
29.588598251259686	18.150576	4.2603493
29.60672633205055	16.697533	4.0862613
29.624855170762405	14.326544	3.785042
29.642984767944146	11.525055	3.3948572
29.66111512414481	8.919484	2.9865506
29.67924623991366	6.6566043	2.5800395
29.697378115800138	5.1918197	2.2785566
29.71551075235387	4.332505	2.0814672
29.733644150124675	3.8897824	1.9722531
29.751778309662576	3.6049025	1.898658
29.769913231517766	3.4236376	1.8503075
29.78804891624066	3.3932528	1.8420784
29.806185364381818	3.3922725	1.8418123
29.82432257649206	3.3839536	1.8395525
29.842460553122333	3.3562484	1.8320067
29.86059929482382	3.3265202	1.8238751
29.878738802147872	3.3383353	1.8271111
29.896879075646048	3.375345	1.8372113
29.915020115870114	3.3198967	1.8220583
29.933161923371976	3.2474759	1.8020754
29.951304498703777	3.2549338	1.8041435
29.969447842417857	3.302785	1.8173566
29.987591955066733	3.3089492	1.8190517
30.005736837203123	3.3259952	1.8237311
30.023882489379943	3.2944562	1.8150637
30.04202891215028	3.2909377	1.8140942
30.060176106067455	3.2346852	1.7985231
30.078324071684946	3.2536168	1.8037785
30.09647280955646	3.253504	1.8037472
30.114622320235863	3.215023	1.7930485
30.132772604277257	3.1402059	1.7720627
30.1509236622349	3.1023471	1.7613481
30.16907549466328	3.1029172	1.7615099
30.18722810211705	3.0715697	1.7525895
30.205381485151097	3.1106858	1.7637136
30.22353564432045	3.116797	1.7654452
30.241690580180403	3.0226157	1.7385671
30.25984629328638	2.9684958	1.7229323
30.278002784194037	2.9869113	1.7282683
30.296160053459246	3.0218217	1.7383388
30.314318101638033	3.0196261	1.7377071
30.332476929286646	3.0005262	1.7322026
30.35063653696153	2.9661405	1.7222487
30.368796925219307	2.930254	1.7117984
30.386958094616844	2.8871365	1.6991576
30.40512004571115	2.8768618	1.6961315
30.423282779059463	2.9013789	1.7033434
30.441446295219233	2.9056427	1.7045946
30.459610594748067	2.8650827	1.6926556
30.47777567820382	2.8538294	1.6893281
30.495941546144504	2.8917646	1.700519
30.51410819912835	2.8883655	1.6995192
30.532275637713795	2.844246	1.6864892
30.55044386245946	2.8380718	1.6846578
30.56861287392416	2.883511	1.6980904
30.586782672666956	2.8928993	1.7008525
30.604953259247047	2.8539054	1.6893506
30.623124634223885	2.86709	1.6932484
30.641296798157075	2.8457057	1.686922
30.659469751606462	2.826101	1.6811012
30.677643495132074	2.8118584	1.6768597
30.695818029294152	2.7987907	1.6729586
30.713993354653116	2.701176	1.6435255
30.73216947176962	2.6286995	1.6213264
30.75034638120448	2.6512313	1.6282603
30.768524083518756	2.768335	1.6638315
30.786702579273673	2.812776	1.6771333
30.80488186903069	2.849983	1.6881893
30.82306195335144	2.941305	1.7150233
30.841242832797782	3.2446213	1.8012832
30.85942450793176	3.6120303	1.9005342
30.877606979315637	3.9443526	1.9860394
30.895790247511883	4.199902	2.0493662
30.913974313083134	4.527338	2.1277542
30.932159176592283	4.8425035	2.200569
30.95034483860237	4.972507	2.2299118
30.968531299676698	4.7490764	2.1792376
30.98671856037873	4.3393574	2.0831125
31.00490662127215	3.9135144	1.9782604
31.023095482920848	3.5086398	1.8731364
31.04128514588892	3.1045783	1.7619814
31.059475610740662	2.7956812	1.6720291
31.07766687804056	2.650253	1.6279597
31.09585894835335	2.5831237	1.6072099
31.11405182224393	2.5537503	1.5980458
31.132245500277417	2.530224	1.5906678
31.15043998301914	2.5135021	1.5854028
31.168635271034628	2.5330212	1.5915468
31.18683136488964	2.5468361	1.595881
31.20502826515008	2.473033	1.572588
31.223225972382135	2.4089456	1.5520778
31.241424487152155	2.4458182	1.5639112
31.259623810026692	2.437441	1.5612307
31.27782394157253	2.460356	1.5685523
31.296024882356644	2.426249	1.5576421
31.314226632946237	2.4086564	1.5519847
31.332429193908684	2.3938696	1.5472136
31.350632565811598	2.4071295	1.5514927
31.368836749222787	2.4592903	1.5682124
31.387041744710295	2.5768137	1.6052457
31.40524755284232	2.640403	1.6249317
31.423454174187317	2.6209757	1.6189427
31.441661609313922	2.649526	1.6277364
31.459869858791002	2.610278	1.6156354
31.478078923187628	2.4527824	1.5661361
31.496288803073064	2.334885	1.528033
31.514499499016807	2.3171697	1.5222253
31.532711011588546	2.3506422	1.5331805
31.550923341358178	2.3035884	1.5177577
31.56913648889584	2.3672066	1.5385729
31.587350454771844	2.4587994	1.5680559
31.605565239556732	2.4280415	1.5582174
31.62378084382127	2.4020767	1.5498635
31.641997268136382	2.3709662	1.5397942
31.660214513073274	2.385141	1.5443901
31.67843257920331	2.4062943	1.5512235
31.6966514670981	2.3881164	1.5453532
31.71487117732944	2.267603	1.5058562
31.733091710469346	2.3469868	1.5319879
31.751313067090052	2.4306705	1.5590608
31.769535247764008	2.3636382	1.5374128
31.787758253063878	2.2939184	1.5145687
31.805982083562526	2.300721	1.5168128
31.824206739833024	2.366563	1.5383638
31.84243222244869	2.3045044	1.5180594
31.860658531983013	2.26823	1.5060644
31.878885669009737	2.338897	1.5293453
31.897113634102784	2.339842	1.5296543
31.91534242783632	2.3684368	1.5389726
31.933572050784694	2.3453028	1.5314381
31.951802503522508	2.2815404	1.5104768
31.970033786624548	2.2065516	1.4854466
31.988265900665834	2.2052577	1.485011
32.006498846221575	2.2359984	1.4953256
32.02473262386724	2.2688055	1.5062555
32.04296723417845	2.1935215	1.4810542
32.0612026777311	2.1827781	1.4774228
32.07943895510129	2.1879358	1.4791672
32.097676066865304	2.1455631	1.4647741
32.115914013599685	2.1152582	1.4543928
32.13415279588115	2.1501932	1.4663537
32.152392414286666	2.1846561	1.4780582
32.1706328693934	2.111629	1.4531446
32.18887416177875	2.0713334	1.4392128
32.20711629202032	2.1279056	1.4587343
32.225359260695924	2.171646	1.4736506
32.243603068383614	2.1739693	1.4744387
32.26184771566166	2.2309253	1.4936283
32.28009320310852	2.2385063	1.4961638
32.2983395313029	2.1682303	1.4724911
32.31658670082372	2.1695023	1.472923
32.33483471225012	2.1665404	1.4719173
32.35308356616143	2.1602576	1.4697815
32.371333263137245	2.1755874	1.4749873
32.38958380375734	2.2032356	1.48433
32.407835188601744	2.1328766	1.4604372
32.42608741825067	2.1306446	1.4596728
32.444340493284585	2.114907	1.454272
32.46259441428416	2.0467312	1.4306401
32.48084918183028	2.0358658	1.4268377
32.49910479650405	2.0626602	1.4361964
32.51736125888683	2.1397638	1.4627931
32.53561856956014	2.1301608	1.459507
32.5538767291058	2.0373342	1.4273522
32.572135738105764	2.043087	1.429366
32.59039559714228	2.1390448	1.4625473
32.608656306797776	2.1085904	1.4520986
32.62691786765491	2.0360622	1.4269066
32.645180280296586	2.0247543	1.4229386
32.663443545305896	2.0308795	1.4250892
32.68170766326619	2.051742	1.4323903
32.69997263476099	2.0527449	1.4327403
32.7182384603741	2.132496	1.4603069
32.7365051406895	2.1314886	1.4599619
32.75477267629144	2.0638692	1.4366173
32.77304106776434	2.0406184	1.4285022
32.79131031569289	2.0848322	1.4438947
32.809580420661966	2.0258527	1.4233245
32.827851383256714	2.0098407	1.4176885
32.84612320406245	2.0126615	1.418683
32.86439588366476	1.9856464	1.4091296
32.88266942264945	1.8900683	1.3747976
32.9009438216025	1.8742241	1.3690231
32.9192190811102	1.9345244	1.3908718
32.937495201758985	1.9449875	1.394628
32.95577218413556	1.9489398	1.3960444
32.974050028826866	1.9915836	1.4112347
32.992328736420035	2.1028948	1.4501362
33.010608307502444	2.136609	1.4617144
33.02888874266169	2.1410668	1.4632385
33.047170042485604	2.05244	1.4326339
33.06545220756225	2.015304	1.4196141
33.083735238479896	1.9581411	1.399336
33.10201913582707	1.9548208	1.398149
33.12030390019248	2.0023224	1.4150344
33.138589532165135	2.013103	1.4188386
33.15687603233419	2.0404344	1.4284377
33.17516340128909	2.037954	1.4275693
33.19345163961947	1.9782199	1.406492
33.211740747915215	1.9780271	1.4064236
33.23003072676643	2.051179	1.4321938
33.248321576763466	2.000314	1.4143245
33.266613298496885	1.9138814	1.3834311
33.28490589255747	1.9519249	1.3971131
33.30319935953626	1.9415112	1.3933812
33.32149370002451	1.8533235	1.3613682
33.339788914613706	1.8930951	1.3758979
33.358085003895575	1.9249907	1.3874403
33.376381968462034	1.927647	1.3883972
33.39467980890529	1.9367489	1.3916713
33.41297852581774	1.9061476	1.380633
33.43127811979204	1.8275946	1.3518856
33.44957859142105	1.9108119	1.3823212
33.467879941297866	1.9230059	1.386725
33.486182170015844	1.9618096	1.4006461
33.50448527816853	1.9866687	1.4094924
33.522789266349754	2.0728903	1.4397535
33.541094135153514	1.9752271	1.4054277
33.55939988517411	1.8941209	1.3762707
33.57770651700602	1.9552038	1.398286
33.59601403124398	1.9108888	1.382349
33.61432242848296	1.892502	1.3756824
33.632631709318154	1.9382215	1.3922002
33.650941874344994	1.9200531	1.3856598
33.66925292415916	1.8839025	1.3725533
33.68756485935654	1.8649639	1.3656368
33.70587768053328	2.016625	1.4200792
33.724191388285746	2.0181618	1.4206202
33.74250598321054	1.923941	1.387062
33.760821465904506	1.9350824	1.3910724
33.77913783696474	1.9336159	1.3905451
33.79745509698852	1.9749757	1.4053383
33.815773246573414	1.9754466	1.4055058
33.8340922863172	1.9291979	1.3889557
33.852412216817896	1.9730812	1.404664
33.87073303867377	1.9401652	1.3928981
33.889054752483304	1.9693482	1.4033346
33.907377358845245	2.0048912	1.4159418
33.92570085835853	1.9050461	1.3802341
33.94402525162239	1.898742	1.3779484
33.96235053923627	1.9803108	1.4072351
33.980676721799824	1.9728483	1.4045812
33.999003799912984	1.8715173	1.3680341
34.01733177417592	1.8404335	1.3566258
34.03566064518901	1.8488424	1.3597214
34.0539904135529	1.9015466	1.3789657
34.07232107986846	2.0287046	1.4243261
34.090652644736785	2.0165157	1.4200407
34.108985108759235	1.9583857	1.3994234
34.12731847253742	1.9474707	1.3955181
34.14565273667313	2.0385728	1.427786
34.16398790176847	1.9603487	1.4001245
34.18232396842574	1.9645437	1.4016218
34.20066093724749	2.1044846	1.4506842
34.21899880883651	2.119646	1.4559004
34.23733758379583	2.1097767	1.452507
34.25567726272874	2.073308	1.4398986
34.27401784623872	1.9492642	1.3961605
34.29235933492957	1.9165809	1.3844063
34.31070172940526	1.9277815	1.3884457
34.32904503027003	1.9730171	1.4046413
34.347389238128386	2.0273507	1.4238507
34.36573435358502	2.07754	1.4413674
34.38408037724492	2.1142228	1.4540367
34.402427309713296	2.0378687	1.4275393
34.42077515159559	1.8601192	1.3638619
34.43912390349752	1.8361971	1.3550636
34.45747356602499	2.0535545	1.4330229
34.47582413978423	2.1223745	1.4568372
34.49417562538163	2.156566	1.468525
34.51252802342388	1.9813818	1.4076157
34.53088133451789	1.8185371	1.3485315
34.54923555927084	1.7819221	1.3348866
34.567590698290104	1.8398911	1.3564259
34.58594675218336	1.9516555	1.3970166
34.6043037215585	2.003079	1.4153017
34.62266160702365	1.936404	1.3915473
34.641020409187234	1.9574773	1.3990988
34.65938012865785	2.0285828	1.4242833
34.677740766044394	1.9824134	1.407982
34.69610232195598	2.0336692	1.4260677
34.714464797002016	2.0421906	1.4290524
34.73282819179208	2.0892968	1.44544
34.751192506936064	2.1949747	1.4815447
34.76955774304408	2.097722	1.4483515
34.7879239007265	1.9753714	1.4054791
34.80629098059391	2.0301428	1.4248308
34.824658983257194	2.2336657	1.4945453
34.843027909327446	2.2545984	1.501532
34.86139775941603	2.3422456	1.5304396
34.879768534134534	2.254811	1.5016028
34.89814023409483	2.0777793	1.4414504
34.91651285990901	1.9077115	1.3811992
34.93488641218944	1.9101436	1.3820795
34.95326089154871	1.9279213	1.388496
34.97163629859967	2.166158	1.4717873
34.99001263395542	2.3212247	1.5235566
35.00838989822934	2.2168524	1.4889098
35.02676809203499	2.010849	1.4180441
35.04514721598624	2.0223782	1.4221034
35.063527270697215	1.9426041	1.3937733
35.081908256782256	1.9346275	1.3909088
35.10029017485597	1.8812203	1.3715758
35.11867302553321	2.008105	1.4170762
35.137056809429104	2.2175963	1.4891596
35.155441527159006	2.129726	1.4593581
35.173827179338524	1.9904045	1.4108169
35.19221376658354	2.070823	1.4390354
35.21060128951017	1.8271984	1.351739
35.2289897487348	1.9082388	1.3813902
35.24737914487405	2.3137183	1.5210911
35.26576947854479	2.4512072	1.5656332
35.28416075036418	2.36157	1.5367401
35.30255296094958	2.0534794	1.4329966
35.32094611091867	1.8462757	1.3587773
35.33934020088932	1.7420253	1.3198581
35.35773523147969	1.8265827	1.3515112
35.3761312033082	2.1978233	1.4825058
35.394528116993506	2.0988026	1.4487245
35.41292597315452	2.1538398	1.4675967
35.431324772410434	2.2985399	1.5160936
35.449724515380666	2.0733635	1.4399179
35.46812520268491	1.8295575	1.3526114
35.486526834943106	1.7345427	1.3170204
35.504929412775454	1.8177088	1.3482243
35.52333293680242	2.0142016	1.4192257
35.54173740764471	1.9543197	1.3979698
35.560142825923286	1.6553087	1.2865881
35.5785491922594	1.7862296	1.336499
35.59695650727454	2.0622156	1.4360416
35.61536477159042	1.9318032	1.3898933
