0.008763373481513119	0.0	0.0
0.026290120649546365	0.0	0.0
0.043816868432600686	0.19184087	0.43799642
0.06134361724069026	0.18210866	0.4267419
0.07887036748382949	0.1422594	0.37717292
0.0963971195720331	0.057171762	0.23910618
0.11392387391531617	0.077747196	0.27883184
0.1314506309236943	0.12700328	0.3563752
0.1489773910071836	0.2125856	0.46107006
0.16650415457580078	0.2305186	0.48012352
0.18403092203956356	0.3144398	0.56074935
0.20155769380849	0.2793102	0.52849805
0.2190844702925996	0.27775657	0.5270262
0.2366112519019124	0.23801923	0.48787215
0.2541380390464497	0.19526358	0.4418864
0.27166483213623416	0.18087138	0.42528975
0.28919163158128947	0.16947515	0.4116736
0.3067184377916406	0.14460881	0.38027465
0.324245251177314	0.118518725	0.3442655
0.34177207214833777	0.15074465	0.3882585
0.3592989011147415	0.1346995	0.3670143
0.37682573848655654	0.16973208	0.41198555
0.39435258467381573	0.18234894	0.42702335
0.41187944008655414	0.19071513	0.43670943
0.42940630513480854	0.18294027	0.42771518
0.446933180228618	0.15417385	0.39264977
0.4644600657780234	0.18492518	0.43002927
0.48198696219306775	0.17743024	0.42122468
0.49951386988379676	0.2033499	0.45094335
0.5170407892602581	0.1542163	0.39270383
0.5345677207325025	0.19203162	0.43821412
0.5520946647105822	0.20060445	0.44788888
0.5696216216045534	0.22602221	0.47541794
0.5871485918244737	0.25273013	0.50272274
0.6046755757804043	0.2094624	0.45767063
0.6222025738824094	0.15832226	0.3978973
0.6397295865405557	0.11715354	0.342277
0.6572566141649129	0.07708272	0.27763775
0.6747836571655547	0.12223765	0.34962502
0.6923107159525568	0.13417065	0.36629313
0.7098377909359992	0.15364657	0.39197776
0.7273648825259653	0.16045041	0.4005626
0.7448919911325411	0.14364657	0.37900734
0.762419117165817	0.120459706	0.34707305
0.7799462610358868	0.11766047	0.3430167
0.7974734231528482	0.1785894	0.4225984
0.8150006039268024	0.22194189	0.4711071
0.8325278037678551	0.2701972	0.51980495
0.8500550230861152	0.303623	0.55101997
0.8675822622916969	0.27307224	0.52256316
0.8851095217947171	0.2673327	0.5170423
0.9026368020052984	0.22981991	0.47939536
0.9201641033335665	0.23966135	0.4895522
0.9376914261896523	0.23056674	0.48017365
0.9552187709836915	0.20907253	0.4572445
0.9727461381258234	0.2107317	0.45905522
0.990273528026193	0.24747989	0.4974735
1.0078009410949496	0.28338414	0.5323384
1.0253283777422473	0.31949607	0.56523985
1.0428558383782454	0.32198486	0.5674371
1.0603833234131086	0.26853058	0.5181994
1.0779108332570058	0.24890774	0.49890655
1.0954383683201119	0.24922512	0.4992245
1.112965929012607	0.30274376	0.55022156
1.1304935157446763	0.42004648	0.6481099
1.1480211289265108	0.4876339	0.6983079
1.1655487689683062	1.2065532	1.0984322
1.1830764362802655	1.4841934	1.2182748
1.200604131272596	1.8705612	1.3676846
1.2181318543555117	2.1532443	1.4673936
1.235659605939232	2.2161176	1.4886631
1.253187386433982	3.9203706	1.9799926
1.270715196249994	6.414872	2.53276
1.2882430357975057	12.036702	3.4693952
1.3057709054867608	16.743397	4.0918694
1.3232988057280106	22.426065	4.7356167
1.3408267369315112	27.319115	5.226769
1.358354699507526	30.739635	5.5443335
1.3758826938663256	34.610962	5.883108
1.3934107204181858	36.442497	6.036762
1.410938779573391	37.057163	6.0874596
1.4284668717422309	38.15181	6.176715
1.4459949973350033	37.781727	6.146684
1.4635231567620117	37.52208	6.125527
1.4810513504335687	36.65215	6.054102
1.4985795787599925	35.970367	5.99753
1.5161078421516088	35.62646	5.9687905
1.5336361410187505	34.554867	5.878339
1.5511644757717598	34.724846	5.8927794
1.5686928468209842	35.341362	5.94486
1.58622125457678	36.151768	6.012634
1.6037496994495108	37.694836	6.139612
1.621278181849548	37.948395	6.160227
1.6388067021872719	38.746674	6.224683
1.6563352608730693	38.34805	6.19258
1.673863858317336	37.23755	6.1022577
1.6913924949304753	36.219803	6.018289
1.7089211711228998	34.85759	5.9040318
1.7264498873050296	33.7984	5.813639
1.7439786438872935	32.770622	5.724563
1.7615074412801288	31.636608	5.624643
1.779036279893981	31.167124	5.582752
1.796565160139305	30.175684	5.49324
1.814094082426564	29.841469	5.4627347
1.8316230471662298	29.432972	5.425216
1.849152054768784	28.602638	5.3481436
1.8666811056447168	27.905348	5.2825513
1.8842102002045273	26.924423	5.1888747
1.901739338858724	26.365213	5.134707
1.9192685220178245	25.928465	5.092
1.9367977500923557	25.245142	5.0244546
1.9543270234928547	24.996418	4.999642
1.971856342629867	24.146978	4.9139576
1.9893857079139496	23.670467	4.8652306
2.006915119755667	22.971355	4.7928443
2.0244445785655945	22.498968	4.7433076
2.0419740847543175	22.25104	4.7171006
2.0595036387324317	21.895939	4.67931
2.0770332409105414	21.444979	4.6308722
2.094562891699263	20.93056	4.5749927
2.1120925915092217	20.202457	4.4947143
2.129622340751053	19.686113	4.4369035
2.1471521398354043	187.78966	13.703637
2.1646819891729323	444.14124	21.07466
2.182211889174303	440.68384	20.992472
2.1997418402501974	453.1023	21.2862
2.2172718428113023	433.01038	20.8089
2.234801897268317	320.88312	17.91321
2.2523320040319548	17.184895	4.145467
2.269862163512935	16.923203	4.113782
2.287392376121992	16.710447	4.0878415
2.304922642269869	16.525417	4.0651464
2.322452962367322	16.377155	4.0468698
2.3399833368251164	15.909837	3.9887137
2.357513766054032	15.595317	3.9490907
2.3750442504648586	15.280749	3.90906
2.3925747904683963	14.9566145	3.8673782
2.410105386475459	14.637881	3.8259485
2.4276360388968707	14.167245	3.76394
2.445166748143469	13.958674	3.736131
2.4626975146261025	13.678911	3.698501
2.4802283387556323	13.400288	3.6606402
2.4977592209429305	13.164079	3.6282337
2.5152901615988825	12.863608	3.5865872
2.5328211611343865	12.717995	3.5662298
2.5503522199603523	12.497999	3.535251
2.5678833384877024	12.503678	3.5360541
2.5854145171273712	12.36025	3.515715
2.6029457562903064	12.2968025	3.5066798
2.620477056387469	11.997435	3.4637313
2.6380084178298326	11.720516	3.423524
2.655539841028383	11.371472	3.3721614
2.673071326394119	11.255554	3.35493
2.6906028743380523	11.193588	3.3456821
2.708134485271211	11.083031	3.3291185
2.7256661596046325	11.055443	3.3249726
2.743197897749369	10.862674	3.295857
2.760729700116486	10.781072	3.2834542
2.778261567117063	10.443909	3.2317038
2.795793499162193	10.1821785	3.1909525
2.8133254966629817	9.93422	3.1518598
2.830857560030551	9.789359	3.1287951
2.8483896896760337	9.774956	3.1264925
2.865921886010578	9.615714	3.1009214
2.883454149445347	9.642597	3.1052532
2.9009864803915177	9.488348	3.0803163
2.91851887926028	9.3575325	3.0590084
2.9360513464628384	9.107764	3.0179074
2.953583882410413	8.965396	2.9942272
2.9711164875142373	8.907737	2.9845831
2.9886491621855606	8.870533	2.978344
3.0061819068356455	8.818636	2.9696188
3.023714721875769	8.803236	2.9670248
3.041247607717225	8.696624	2.949004
3.0587805647713213	8.602069	2.9329283
3.0763135934493806	8.431472	2.9036996
3.0938466941627407	8.2168865	2.866511
3.1113798673227544	8.051647	2.8375425
3.1289131133407904	7.9281864	2.8157036
3.1464464326282315	7.9078174	2.8120842
3.1639798255964786	8.021911	2.8322978
3.1815132926569443	7.9247804	2.8150985
3.1990468342210603	7.790736	2.791189
3.216580450700272	7.5247717	2.7431316
3.2341141425060416	7.4406743	2.7277598
3.251647910049847	7.3218756	2.7058964
3.2691817537431813	7.260289	2.6944923
3.286715673997555	7.2384224	2.6904316
3.3042496712244938	7.200354	2.6833475
3.32178374583554	7.063863	2.6577928
3.339317898242251	6.9324384	2.6329525
3.3568521288562034	6.8188863	2.6112998
3.3743864380889876	6.7686963	2.601672
3.3919208263522127	6.7906647	2.6058903
3.4094552940575023	6.682894	2.5851295
3.4269898416164972	6.6893945	2.5863864
3.444524469440858	6.5398664	2.5573163
3.4620591779422587	6.392367	2.5283132
3.479593967532391	6.418371	2.5334504
3.4971288386229658	6.4203	2.5338311
3.5146637916257086	6.517633	2.5529656
3.5321988269523628	6.3784747	2.5255642
3.5497339450146903	6.3161097	2.5131872
3.5672691462244708	6.296017	2.5091865
3.5848044309934988	6.2198796	2.4939687
3.60233979973359	6.1766334	2.4852834
3.619875252856575	6.2171645	2.4934242
3.6374107907743034	6.243131	2.4986258
3.6549464138986427	6.3603396	2.5219715
3.6724821226414788	6.3786974	2.5256083
3.690017917414714	6.3501053	2.5199416
3.7075537986302702	6.3841634	2.5266902
3.7250897667000857	6.4192147	2.533617
3.7426258220361235	6.5604506	2.5613377
3.7601619650503553	6.9115524	2.6289833
3.777698196154779	7.578316	2.7528741
3.7952345157614067	8.666297	2.9438574
3.8127709242822716	9.394156	3.0649889
3.830307422129425	11.537545	3.3966963
3.847844009714936	30.26582	5.501438
3.8653806874508954	97.8169	9.890243
3.882917455749409	97.09618	9.85374
3.900454315022606	96.972984	9.8474865
3.917991265682631	41.51574	6.4432707
3.9355283081416506	11.18103	3.3438048
3.9530654428118495	8.860444	2.9766498
3.970602670105433	7.503562	2.739263
3.9881399904346244	6.5346117	2.5562887
4.005677404211669	6.559072	2.5610685
4.023214911848827	6.6109614	2.571179
4.0407525137583855	6.581346	2.5654135
4.058290210352644	6.5263586	2.554674
4.075828002043927	6.411276	2.5320497
4.0933658892445814	6.239157	2.4978304
4.110903872366966	6.2272615	2.495448
4.128441951823468	6.1229787	2.4744654
4.145980128026488	6.1463237	2.479178
4.163518401388452	6.1171036	2.4732778
4.181056772321807	6.098694	2.4695535
4.1985952412390155	6.083628	2.4665012
4.216133808552567	6.0590453	2.4615128
4.233672474674966	6.1119757	2.472241
4.251211240018741	6.3399596	2.5179276
4.268750104996445	6.64147	2.577105
4.286289070020643	7.66598	2.7687507
4.303828135503928	9.397216	3.0654879
4.3213673018589125	29.728472	5.452382
4.3389065694982305	90.978806	9.538281
4.356445938834537	166.083	12.887319
4.3739854102805085	171.55182	13.097779
4.391524984248844	172.45406	13.132176
4.409064661152262	136.50253	11.68343
4.426604441403504	96.77656	9.837507
4.444144325415337	75.76548	8.704337
4.461684313600543	21.927477	4.682678
4.47922440637193	22.21001	4.71275
4.496764604142329	20.501122	4.5278163
4.5143049073245916	18.538176	4.3055983
4.531845316331589	16.510498	4.063311
4.5493858315762195	13.590213	3.6864905
4.566926453471405	11.212977	3.3485785
4.584467182430081	9.131274	3.0217998
4.602008018865218	8.089242	2.8441594
4.619548963189798	7.4109735	2.7223103
4.637090015816834	7.015321	2.6486452
4.654631177159353	6.7221613	2.592713
4.672172447630417	6.4419637	2.5381024
4.689713827643102	6.2869673	2.5073826
4.7072553176105085	6.064762	2.4626737
4.724796917945764	5.8319106	2.4149349
4.742338629062015	5.6793137	2.383131
4.759880451372434	5.680175	2.3833117
4.777422385290215	5.6589537	2.3788555
4.794964431228581	5.5768	2.3615248
4.812506589600768	5.4867783	2.3423872
4.830048860820047	5.5135226	2.3480892
4.847591245299709	5.5296984	2.351531
4.8651337434530655	5.585966	2.3634648
4.882676355693457	5.5422435	2.354197
4.900219082434242	5.603978	2.3672724
4.917761924088813	5.5160823	2.3486342
4.935304881070575	5.5608096	2.358137
4.952847953792969	5.599089	2.3662395
4.970391142669449	5.635644	2.3739512
4.9879344481135055	5.5828333	2.362802
5.005477870538642	5.5031857	2.345887
5.023021410358394	5.3764954	2.318727
5.040565067986324	5.4062953	2.325144
5.05810884383601	5.3677745	2.316846
5.075652738321066	5.409485	2.32583
5.09319675185512	5.4477053	2.334032
5.110740884851836	5.4352098	2.3313537
5.128285137724894	5.349872	2.312979
5.145829510888007	5.2296095	2.286834
5.163374004754908	5.24766	2.2907772
5.1809186197393595	5.319454	2.306394
5.198463356255145	5.3306313	2.308816
5.216008214716077	5.3176746	2.3060083
5.233553195535998	5.257444	2.2929118
5.251098299128764	5.245928	2.290399
5.268643525908272	5.2113924	2.2828474
5.286188876288432	5.224647	2.2857487
5.3037343506831895	5.1890364	2.2779458
5.32127994950651	5.145573	2.2683856
5.3388256731723915	5.1909523	2.278366
5.356371522094851	5.128609	2.2646432
5.373917496687938	5.1792774	2.2758026
5.391463597365729	5.246349	2.2904909
5.40900982454232	5.2218475	2.2851362
5.426556178631843	5.1898136	2.2781162
5.444102660048449	5.1323347	2.2654657
5.4616492692063225	5.169785	2.2737162
5.479196006519669	5.1752915	2.2749267
5.496742872402727	5.198801	2.280088
5.514289867269756	5.195493	2.2793624
5.531836991535049	5.1422057	2.2676432
5.549384245612924	5.1113086	2.2608204
5.566931629917724	5.1563406	2.2707577
5.584479144863822	5.2442803	2.2900393
5.6020267908656205	5.269373	2.2955115
5.619574568337545	5.250472	2.291391
5.637122477694054	5.2322607	2.2874136
5.654670519349629	5.190325	2.2782285
5.672218693718784	5.132838	2.2655766
5.689767001216059	5.083536	2.25467
5.707315442256021	5.1118197	2.2609334
5.724864017253266	5.223179	2.2854276
5.7424127266224225	5.2439847	2.289975
5.75996157077814	5.207413	2.2819757
5.777510550135105	5.16229	2.2720673
5.795059665108022	5.1470838	2.2687185
5.812608916111639	5.1972294	2.2797432
5.830158303560715	5.350911	2.3132036
5.847707827870055	5.3573365	2.3145921
5.86525748945448	5.420917	2.3282862
5.8828072887288485	5.5197635	2.3494177
5.900357226108044	5.5677032	2.3595982
5.917907302006979	5.6169147	2.3700032
5.9354575168406	6.2340403	2.496806
5.9530078710238765	6.8465586	2.616593
5.970558364971812	7.4560213	2.7305715
5.988108999099438	7.8665357	2.8047345
6.005659773821818	8.405028	2.8991427
6.023210689554039	8.037716	2.8350866
6.040761746711227	8.341702	2.8882005
6.058312945708531	7.656741	2.7670817
6.075864286961132	7.282284	2.6985707
6.093415770884244	6.748488	2.5977852
6.1109673978931065	6.205717	2.4911277
6.128519168402993	5.603128	2.3670926
6.146071082829204	5.511532	2.347665
6.163623141587075	5.390061	2.3216505
6.181175345091969	5.280694	2.297976
6.198727693759281	5.194367	2.2791154
6.216280188004435	5.2132177	2.2832472
6.233832828242885	5.2230053	2.2853894
6.251385614890126	5.2243533	2.2856843
6.268938548361669	5.201404	2.2806587
6.286491629073067	5.153835	2.270206
6.304044857439898	5.2115192	2.2828753
6.321598233877777	5.135359	2.266133
6.339151758802344	5.057933	2.2489848
6.356705432629277	5.0249147	2.2416322
6.37425925577428	5.038832	2.2447343
6.391813228653095	5.041694	2.2453718
6.409367351681486	5.011666	2.238675
6.426921625275259	4.9279275	2.2198937
6.44447604985025	4.928323	2.2199826
6.46203062582232	4.962533	2.2276742
6.47958535360737	4.9527364	2.2254744
6.497140233621328	4.9481187	2.2244368
6.514695266280161	4.938926	2.2223694
6.532250451999859	4.9753175	2.230542
6.549805791196454	4.965306	2.2282965
6.567361284286002	4.9873743	2.233243
6.584916931684597	4.953615	2.2256718
6.602472733808367	4.987125	2.2331872
6.6200286910734665	5.0805945	2.2540174
6.637584803896092	5.1060987	2.2596679
6.655141072692462	5.094234	2.257041
6.672697497878842	5.010565	2.238429
6.690254079871514	4.980833	2.231778
6.707810819086808	4.9957366	2.2351143
6.725367715941078	5.0557494	2.2484994
6.742924770850719	5.029398	2.242632
6.760481984232151	5.015164	2.2394562
6.778039356501836	5.011697	2.238682
6.795596888076266	5.0225167	2.2410972
6.813154579371963	5.0435753	2.2457905
6.830712430805492	5.075773	2.2529476
6.84827044279344	5.0814977	2.2542179
6.865828615752445	5.08033	2.2539587
6.883386950099159	5.1184325	2.2623954
6.900945446250287	5.078673	2.253591
6.918504104622553	5.0396543	2.2449174
6.936062925632727	5.0808372	2.2540712
6.953621909697607	5.0784636	2.2535446
6.971181057234028	5.133344	2.2656884
6.988740368658859	5.2146206	2.2835543
7.006299844389007	5.2991242	2.3019826
7.023859484841407	5.3605804	2.3152928
7.041419290433036	5.416111	2.327254
7.058979261580902	5.527795	2.3511262
7.0765393987020495	5.777434	2.4036293
7.094099702213559	6.1060815	2.4710486
7.111660172532549	6.4155326	2.53289
7.129220810076164	6.747562	2.597607
7.146781615261595	7.330346	2.707461
7.16434258850606	7.6360965	2.7633488
7.181903730226821	8.065339	2.8399541
7.1994650408411704	8.260004	2.8740222
7.217026520766437	8.313284	2.8832767
7.234588170419983	8.5409155	2.9224844
7.252149990219215	8.407591	2.8995845
7.269711980581568	8.370455	2.893174
7.2872741419245175	8.164881	2.8574255
7.304836474665574	7.820243	2.7964697
7.322398979222286	7.4416995	2.727948
7.339961656012233	7.1763353	2.6788683
7.357524505453039	6.8493395	2.6171243
7.375087527962357	6.5439963	2.5581236
7.392650723957886	6.2400713	2.4980135
7.410214093857353	5.910417	2.431135
7.427777638078528	5.742961	2.3964477
7.445341357039213	5.530395	2.351679
7.4629052511572525	5.446693	2.333815
7.480469320850524	5.3494587	2.3128896
7.498033566536948	5.3028474	2.302791
7.5155979886344735	5.2666664	2.2949219
7.5331625875610975	5.248508	2.2909622
7.550727363734844	5.204876	2.2814198
7.568292317573788	5.1678915	2.2732997
7.585857449496025	5.147704	2.2688553
7.603422759919705	5.1300287	2.2649567
7.620988249263007	5.1489367	2.269127
7.638553917944147	5.201655	2.2807138
7.656119766381391	5.237719	2.2886064
7.673685794993023	5.2117677	2.2829297
7.691252004197388	5.202582	2.280917
7.70881839441285	5.2384243	2.2887604
7.726384966057826	5.306029	2.3034818
7.743951719550762	5.312459	2.3048773
7.761518655310149	5.2806234	2.2979608
7.779085773754511	5.238786	2.2888396
7.796653075302419	5.2442813	2.2900395
7.814220560372475	5.2863035	2.2991962
7.831788229383323	5.2407	2.2892575
7.8493560827536495	5.225522	2.2859402
7.866924120902174	5.210845	2.2827275
7.884492344247663	5.277297	2.297237
7.9020607532089135	5.3580046	2.3147364
7.919629348204771	5.41233	2.3264415
7.937198129654115	5.354067	2.3138857
7.954767097975865	5.3044443	2.303138
7.972336253588986	5.3394094	2.3107162
7.989905596912472	5.46207	2.3371072
8.007475128365371	5.500142	2.3452382
8.025044848366756	5.464863	2.3377047
8.042614757335754	5.605628	2.3676207
8.060184855691523	5.6782417	2.3829062
8.07775514385327	5.826455	2.413805
8.095325622240228	5.86813	2.4224224
8.112896291271687	5.8494005	2.4185534
8.130467151366968	5.9022307	2.4294508
8.148038202945436	6.0042267	2.4503524
8.165609446426497	6.019116	2.4533887
8.183180882229594	6.05387	2.4604614
8.200752510774217	5.969192	2.443193
8.218324332479893	5.9509096	2.4394486
8.235896347766193	6.0030746	2.4501173
8.253468557052724	6.0071025	2.4509392
8.27104096075914	6.0743585	2.4646213
8.288613559305137	6.0744276	2.4646354
8.306186353110448	6.0966544	2.4691405
8.32375934259485	6.1704545	2.48404
8.341332528178162	6.1900716	2.4879854
8.358905910280246	6.241374	2.4982743
8.376479489321003	6.2427783	2.4985552
8.394053265720377	6.2758517	2.505165
8.411627239898356	6.2749968	2.5049944
8.42920141227497	6.3175855	2.5134807
8.44677578327029	6.3130984	2.512588
8.464350353304427	6.283045	2.5066001
8.48192512279754	6.250065	2.5000129
8.499500092169827	6.176338	2.485224
8.51707526184153	6.200429	2.490066
8.534650632232934	6.249179	2.4998357
8.552226203764365	6.3086963	2.5117118
8.569801976856192	6.331892	2.516325
8.587377951928834	6.282822	2.5065558
8.60495412940274	6.291052	2.5081968
8.622530509698416	6.321248	2.5142093
8.6401070932364	6.4113913	2.5320725
8.657683880437283	6.5234466	2.5541039
8.675260871721695	6.6486974	2.5785067
8.692838067510303	6.7983027	2.6073556
8.710415468223834	6.935481	2.6335301
8.727993074283043	7.086544	2.6620564
8.745570886108737	7.130066	2.6702182
8.763148904121765	7.0993714	2.6644645
8.78072712874302	7.1451273	2.673037
8.798305560393441	7.39726	2.7197905
8.815884199494006	7.6306834	2.7623692
8.833463046465745	7.7683516	2.7871764
8.851042101729728	7.829358	2.798099
8.86862136570707	8.134401	2.8520873
8.886200838818924	8.356435	2.89075
8.903780521486505	8.411125	2.900194
8.921360414131055	8.472092	2.9106858
8.938940517173874	8.577354	2.9287121
8.956520831036297	8.763705	2.9603555
8.97410135613971	9.137137	3.02277
8.99168209290554	9.29539	3.0488343
9.009263041755265	9.590589	3.0968676
9.026844203110405	9.743748	3.1214976
9.044425577392525	9.907517	3.147621
9.062007165023239	10.0122795	3.1642187
9.079588966424197	10.280583	3.2063348
9.097170982017108	10.343568	3.2161417
9.11475321222372	11.447053	3.3833494
9.132335657465825	12.322602	3.5103564
9.149918318165264	12.465714	3.5306818
9.167501194743924	13.103031	3.6198108
9.18508428762374	12.824859	3.5811813
9.202667597226693	12.804885	3.5783913
9.220251123974803	12.414522	3.5234249
9.237834868290143	12.0748625	3.4748902
9.255418830594836	11.844144	3.4415321
9.273003011311046	11.302428	3.3619084
9.290587410860985	11.021181	3.3198164
9.308172029666911	10.442865	3.2315423
9.32575686815113	10.158654	3.1872644
9.343341926735997	8.866632	2.977689
9.360927205843916	8.55856	2.9255018
9.378512705897327	8.32847	2.8859088
9.396098427318728	8.162463	2.8570025
9.413684370530664	8.140906	2.8532274
9.431270535955722	8.018283	2.8316572
9.448856924016539	7.877995	2.8067765
9.466443535135806	7.6898975	2.7730665
9.484030369736251	7.7324214	2.780723
9.501617428240658	7.756398	2.785031
9.519204711071852	7.7811375	2.789469
9.536792218652714	7.754243	2.7846441
9.55437995140617	7.707735	2.7762809
9.571967909755191	7.796573	2.7922344
9.589556094122802	7.8506913	2.8019085
9.60714450493207	7.9427733	2.8182926
9.624733142606116	7.963161	2.8219073
9.642322007568108	7.9525995	2.8200355
9.659911100241267	7.962528	2.8217952
9.677500421048851	8.011916	2.8305328
9.695089970414175	7.9887915	2.826445
9.712679748760609	7.9829144	2.8254051
9.730269756511557	8.02869	2.8334944
9.747859994090492	8.124362	2.8503265
9.765450461920915	8.197014	2.8630428
9.78304116042639	8.264298	2.8747692
9.800632090030527	8.279847	2.8774724
9.81822325115699	8.334762	2.8869987
9.835814644229481	8.332965	2.8866875
9.853406269671762	8.252524	2.8727207
9.870998127907646	8.273231	2.8763225
9.888590219360985	8.316853	2.8838954
9.906182544455698	8.359139	2.8912177
9.923775103615734	8.316167	2.8837764
9.941367897265108	8.241185	2.8707464
9.958960925827878	8.266768	2.8751988
9.97655418972816	8.279372	2.87739
9.994147689390106	8.310305	2.8827598
10.011741425237934	8.220657	2.867169
10.029335397695904	8.245682	2.8715296
10.04692960718833	8.216586	2.866459
10.06452405413958	8.29517	2.8801336
10.082118738974064	8.361478	2.891622
10.099713662116246	8.321163	2.8846426
10.117308823990651	8.264306	2.8747706
10.134904225021844	8.28379	2.8781574
10.152499865634445	8.26646	2.8751452
10.170095746253125	8.2987	2.8807466
10.18769186730261	8.282798	2.877985
10.205288229207675	8.206113	2.8646314
10.222884832393145	8.192772	2.8623018
10.2404816772839	8.112685	2.8482776
10.258078764304868	8.095976	2.8453429
10.275676093881035	8.0773115	2.842061
10.293273666437438	8.079132	2.8423815
10.310871482399158	8.162074	2.8569343
10.32846954219134	8.107843	2.8474276
10.346067846239173	8.094055	2.8450053
10.363666394967908	8.149888	2.854801
10.38126518880283	8.157286	2.8560963
10.398864228169298	8.253533	2.8728964
10.416463513492713	8.316003	2.883748
10.434063045198531	8.30125	2.881189
10.451662823712262	8.358922	2.89118
10.469262849459467	8.32032	2.8844965
10.486863122865758	8.255579	2.8732524
10.504463644356806	8.114877	2.8486624
10.522064414358338	7.990869	2.8268125
10.539665433296118	7.9216256	2.8145382
10.557266701595987	7.872384	2.8057768
10.574868219683818	7.823789	2.7971036
10.592469987985552	7.692603	2.7735543
10.610072006927185	7.5559244	2.748804
10.627674276934751	7.492397	2.7372243
10.64527679843435	7.3078704	2.7033074
10.662879571852143	7.2086864	2.6848998
10.680482597614331	7.131751	2.670534
10.698085876147173	7.0702095	2.6589866
10.715689407876988	6.9833946	2.6426113
10.733293193230146	6.7989364	2.607477
10.750897232633072	6.6756153	2.5837212
10.76850152651225	6.6664867	2.581954
10.786106075294207	6.70171	2.588766
10.803710879405534	6.6862826	2.5857847
10.821315939272877	6.603406	2.5697093
10.83892125532294	6.4684725	2.5433192
10.856526827982472	6.3068614	2.5113466
10.874132657678285	6.2967873	2.50934
10.891738744837243	6.3128033	2.5125294
10.909345089886271	6.3105807	2.5120869
10.926951693252343	6.1978445	2.489547
10.944558555362494	6.133567	2.476604
10.96216567664381	6.0875964	2.4673054
10.979773057523436	5.9943905	2.4483445
10.997380698428573	5.8717046	2.42316
11.014988599786477	5.756643	2.3993006
11.032596762024461	5.731878	2.394134
11.050205185569892	5.6791825	2.3831036
11.067813870850198	5.607383	2.3679912
11.085422818292859	5.5187817	2.3492088
11.10303202832541	5.422923	2.328717
11.120641501375454	5.3901424	2.3216681
11.138251237870636	5.354983	2.3140836
11.155861238238671	5.3049746	2.303253
11.173471502907317	5.2067523	2.281831
11.191082032304402	5.090097	2.2561243
11.208692826857805	5.061729	2.2498286
11.226303886995465	5.005922	2.2373917
11.243915213145371	4.9639854	2.2280004
11.261526805735578	4.926566	2.2195868
11.279138665194196	4.845783	2.201314
11.296750791949393	4.806241	2.1923141
11.314363186429393	4.7642126	2.1827075
11.331975849062479	4.7319202	2.1752977
11.34958878027699	4.6961203	2.1670535
11.36720198050133	4.679296	2.163168
11.384815450163948	4.6331534	2.152476
11.402429189693366	4.5799093	2.1400723
11.420043199518153	4.447416	2.1088898
11.437657480066942	63.384823	7.9614587
11.455272031768422	85.10548	9.225263
11.472886855051353	107.50317	10.368373
11.490501950344528	99.19284	9.95956
11.508117318076819	84.52274	9.193625
11.52573295867715	45.868904	6.7726583
11.543348872574514	4.1231723	2.0305595
11.560965060197946	4.0991116	2.0246263
11.57858152197655	4.1136227	2.0282068
11.59619825833949	4.0802603	2.0199654
11.613815269715985	4.0217733	2.005436
11.631432556535323	38.51268	6.2058587
11.649050119226837	83.02188	9.111634
11.666667958219929	93.438866	9.666378
11.68428607394406	107.69841	10.377785
11.701904466828756	82.52379	9.084261
11.719523137303586	65.384254	8.086053
11.737142085798196	4.6350174	2.152909
11.754761312742286	3.7358065	1.9328234
11.772380818565619	3.660023	1.9131186
11.790000603698015	3.6128266	1.9007437
11.80762066856935	3.6161978	1.9016303
11.825241013609572	3.6341133	1.906335
11.842861639248683	3.6076818	1.8993899
11.860482545916748	3.5409243	1.8817344
11.878103734043883	3.4869785	1.8673453
11.895725204060282	3.4547188	1.8586874
11.91334695639619	3.4207225	1.8495195
11.930968991481919	3.427727	1.8514122
11.948591309747824	3.4179971	1.8487827
11.966213911624347	3.3614633	1.8334293
11.98383679754198	3.3018208	1.8170913
12.001459967931268	3.255103	1.8041904
12.019083423222835	3.2547705	1.8040982
12.036707163847352	3.2220752	1.795014
12.05433119023556	3.1941962	1.7872314
12.071955502818259	3.1769142	1.78239
12.089580102026313	3.1624482	1.7783273
12.107204988290643	3.1811304	1.7835723
12.12483016204224	3.1713724	1.7808348
12.142455623712152	3.1583416	1.7771723
12.16008137373149	3.097571	1.7599918
12.177707412531431	3.073797	1.7532247
12.19533374054321	3.0557606	1.7480735
12.212960358198126	3.0436049	1.744593
12.230587265927545	3.0391443	1.7433141
12.248214464162889	3.0661387	1.7510394
12.265841953335649	3.0754669	1.7537009
12.283469733877375	3.0711207	1.7524613
12.301097806219685	3.0137663	1.7360202
12.31872617079425	3.0035543	1.7330766
12.336354828032825	3.0252745	1.7393316
12.353983778367205	2.9903574	1.729265
12.371613022229262	2.9603007	1.7205524
12.389242560050928	2.9618254	1.7209954
12.406872392264201	2.939751	1.7145702
12.424502519301143	2.9013577	1.7033372
12.442132941593874	2.837025	1.684347
12.459763659574586	2.8305333	1.6824188
12.477394673675532	2.8281465	1.6817094
12.49502598432903	2.8173342	1.6784916
12.51265759196746	2.8268597	1.6813267
12.530289497023267	2.8041067	1.6745467
12.547921699928967	2.7783659	1.666843
12.565554201117134	2.76823	1.6637999
12.583187001020404	2.7788506	1.6669885
12.600820100071486	2.805541	1.6749749
12.618453498703152	2.7954009	1.6719452
12.636087197348235	2.7547178	1.6597342
12.65372119643964	2.738811	1.6549354
12.671355496410326	2.774774	1.6657653
12.68899009769333	2.7947323	1.6717453
12.706625000721749	2.7990873	1.6730473
12.724260205928752	2.8269794	1.6813624
12.741895713747551	2.8977757	1.7022854
12.759531524611454	3.0165575	1.7368239
12.777167638953818	3.068961	1.751845
12.794804057208072	3.0724273	1.7528341
12.812440779807702	3.0330274	1.7415589
12.830077807186271	3.1822715	1.7838923
12.847715139777405	3.2293255	1.7970325
12.865352778014795	3.467035	1.8619976
12.882990722332197	3.5492406	1.8839428
12.90062897316344	3.617816	1.9020557
12.918267530942412	3.6757143	1.9172152
12.935906396103071	3.5770993	1.8913221
12.953545569079449	3.8135612	1.9528341
12.971185050305628	3.6643972	1.9142616
12.988824840215775	3.6742826	1.9168419
13.006464939244115	3.6190417	1.9023778
13.024105347824943	3.4648283	1.8614049
13.041746066392617	3.5438979	1.8825244
13.05938709538157	3.3766358	1.8375624
13.077028435226296	3.4010384	1.8441905
13.094670086361363	3.334717	1.8261207
13.112312049221401	3.2600167	1.8055516
13.129954324241112	3.1599305	1.7776194
13.147596911855258	2.939961	1.7146314
13.165239812498685	2.8934977	1.7010285
13.182883026606293	2.8282452	1.6817387
13.200526554613058	2.7848277	1.6687803
13.218170396954017	2.7312715	1.6526558
13.235814554064284	2.7261155	1.6510953
13.253459026379034	2.7866278	1.6693195
13.271103814333523	2.8191667	1.6790375
13.288748918363058	2.786101	1.6691618
13.306394338903031	2.7125294	1.6469759
13.32404007638889	2.6855214	1.638756
13.341686131256164	2.6824682	1.6378242
13.359332503940449	2.656665	1.629928
13.376979194877402	2.6322157	1.6224104
13.394626204502751	2.6814003	1.6374981
13.412273533252307	2.7053077	1.644782
13.429921181561937	2.7069323	1.6452757
13.447569149867581	2.7321587	1.6529243
13.465217438605247	2.7693477	1.6641357
13.482866048211022	2.7504935	1.6584612
13.500514979121052	2.744021	1.6565087
13.518164231771568	2.6873403	1.639311
13.535813806598844	2.7085254	1.6457598
13.553463704039254	2.6905582	1.640292
13.571113924529229	2.6874611	1.6393478
13.588764468505275	2.6639721	1.6321679
13.606415336403956	2.6859324	1.6388814
13.624066528661917	2.709524	1.6460632
13.641718045715882	2.7651966	1.662888
13.659369888002635	2.8333216	1.6832473
13.67702205595903	2.9079866	1.705282
13.694674550021993	2.9847243	1.7276355
13.712327370628532	3.0553217	1.7479478
13.729980518215713	3.1369388	1.7711406
13.747633993220681	3.2301905	1.797273
13.765287796080647	3.2354085	1.7987242
13.7829419272329	3.2935236	1.8148067
13.800596387114801	3.2988331	1.816269
13.818251176163775	3.342552	1.8282647
13.835906294817324	3.389905	1.8411695
13.853561743513023	3.4551508	1.8588036
13.871217522688525	3.4992638	1.8706319
13.888873632781538	3.5363035	1.8805062
13.906530074229858	3.5775084	1.8914303
13.92418684747135	3.5567937	1.8859464
13.941843952943948	3.5298424	1.8787875
13.959501391085665	3.513923	1.874546
13.977159162334578	3.4520347	1.8579652
13.994817267128846	3.3697054	1.8356757
14.012475705906693	3.300743	1.8167948
14.030134479106424	3.2354665	1.7987403
14.047793587166414	3.1907651	1.7862713
14.065453030525108	3.1075222	1.7628165
14.083112809621026	2.999035	1.7317722
14.100772924892766	2.934898	1.7131543
14.118433376778997	2.9113066	1.7062552
14.136094165718458	2.8938224	1.7011238
14.153755292149969	2.846715	1.687221
14.171416756512416	2.7800019	1.6673337
14.189078559244768	2.738705	1.6549033
14.20674070078606	2.6582263	1.6304067
14.224403181575408	2.5946457	1.6107904
14.242066002051999	2.5055037	1.5828782
14.259729162655093	2.4543765	1.566645
14.277392663824022	2.4283104	1.5583037
14.295056505998208	2.4034622	1.5503104
14.312720689617128	2.3887491	1.5455579
14.330385215120348	2.4024968	1.549999
14.348050082947497	2.448278	1.5646974
14.3657152935383	2.4609284	1.5687346
14.383380847332528	2.4728465	1.5725287
14.401046744770051	2.4497569	1.5651699
14.418712986290798	2.4262362	1.557638
14.436379572334793	2.4043136	1.5505849
14.454046503342123	2.384189	1.5440819
14.471713779752946	2.3998523	1.5491457
14.489381402007504	2.3799717	1.5427157
14.507049370546113	2.3745027	1.5409422
14.524717685809168	2.3865063	1.5448321
14.542386348237134	2.4641979	1.5697764
14.560055358270553	2.4694788	1.5714575
14.577724716350051	2.4884608	1.5774856
14.595394422916325	2.4706275	1.571823
14.61306447841015	2.4782991	1.5742614
14.63073488327237	2.452238	1.5659623
14.648405637943917	2.438522	1.5615768
14.6660767428658	2.4450011	1.5636499
14.683748198479094	2.4791214	1.5745226
14.701420005224954	2.5088756	1.583943
14.719092163544628	2.5760293	1.6050013
14.73676467387942	2.637174	1.6239377
14.754437536670727	2.6816075	1.6375614
14.772110752360014	2.7011366	1.6435134
14.78978432138882	2.6997933	1.6431048
14.807458244198777	2.7200577	1.6492598
14.82513252123159	2.68715	1.6392529
14.842807152929028	2.7310088	1.6525764
14.860482139732962	2.7450387	1.6568159
14.87815748208531	2.7225752	1.6500227
14.8958331804281	2.6840003	1.6382918
14.91350923520342	2.612117	1.6162045
14.931185646853438	2.6103337	1.6156527
14.948862415820408	2.611784	1.6161015
14.966539542546656	2.635157	1.6233166
14.98421702747459	2.6538806	1.6290735
15.001894871046696	2.6864908	1.6390518
15.019573073705542	2.6805484	1.637238
15.037251635893766	2.6359854	1.6235718
15.054930558054092	2.62666	1.6206974
15.072609840629323	2.7420712	1.65592
15.090289484062351	2.9005046	1.7030867
15.107969488796124	3.2135563	1.7926395
15.125649855273691	3.643908	1.9089023
15.14333058393817	4.1762166	2.0435793
15.161011675232768	5.1205616	2.2628658
15.17869312960076	6.417622	2.5333025
15.196374947485506	8.148346	2.8545308
15.214057129330447	11.14811	3.3388786
15.231739675579114	15.877164	3.9846158
15.249422586675102	21.031895	4.5860543
15.267105863062092	24.39198	4.9388237
15.284789505183847	24.833738	4.983346
15.302473513484218	22.817019	4.776716
15.320157888407127	19.145023	4.3755026
15.337842630396578	14.961384	3.8679948
15.355527739896656	11.6209345	3.4089491
15.37321321735153	9.012498	3.0020823
15.39089906320545	6.5205965	2.553546
15.408585277902748	4.868164	2.2063916
15.42627186188783	3.7079577	1.9256058
15.443958815605198	3.1678529	1.7798463
15.461646139499424	2.8991237	1.7026813
15.479333834015168	2.7769387	1.666415
15.497021899597165	2.6980817	1.6425838
15.514710336690234	2.6459122	1.626626
15.53239914573928	2.6073325	1.6147237
15.550088327189297	2.5780537	1.6056318
15.567777881485336	2.5638108	1.6011904
15.58546780907256	2.5078285	1.5836124
15.6031581103962	2.4792309	1.5745573
15.620848785901568	2.4784696	1.5743155
15.638539836034063	2.4936469	1.5791285
15.656231261239173	2.5036576	1.5822951
15.673923061962451	2.4727588	1.5725008
15.691615238649552	2.4336472	1.5600151
15.709307791746202	2.399876	1.5491533
15.727000721698221	2.3979454	1.5485301
15.744694028951498	2.4194608	1.5554616
15.76238771395202	2.4412088	1.5624368
15.780081777145844	2.3858602	1.544623
15.797776218979125	2.3719852	1.540125
15.815471039898094	2.3728983	1.5404215
15.833166240349064	2.4120398	1.5530742
15.850861820778437	2.4244254	1.5570567
15.868557781632699	2.4148164	1.553968
15.886254123358412	2.4139795	1.5536987
15.903950846402232	2.4037657	1.5504082
15.921647951210897	2.3897636	1.545886
15.939345438231225	2.393742	1.5471723
15.957043307910133	2.4055378	1.5509796
15.974741560694602	2.4351718	1.5605037
15.992440197031714	2.4017255	1.5497502
16.01013921736862	2.3958406	1.5478504
16.02783862215259	2.3463593	1.531783
16.045538411830933	2.354912	1.5345722
16.06323858685107	2.362237	1.536957
16.080939147660512	2.3858342	1.5446146
16.09864009470684	2.3816504	1.5432597
16.11634142843774	2.3912122	1.5463545
16.134043149300954	2.39584	1.5478501
16.15174525774433	2.404381	1.5506066
16.169447754215817	2.3833838	1.5438211
16.18715063916342	2.3705149	1.5396477
16.204853913035244	2.4140017	1.5537058
16.222557576279478	2.431624	1.5593665
16.240261629344403	22.414923	4.73444
16.257966072678386	42.96235	6.554567
16.275670906729868	38.081604	6.1710296
16.293376131947387	2.5484295	1.5963801
16.31108174877957	2.5445337	1.5951594
16.328787757675133	2.560876	1.6002737
16.34649415908287	2.580144	1.6062826
16.364200953451657	2.6273985	1.6209252
16.38190814123048	2.6519597	1.6284839
16.39961572286839	2.6594362	1.6307778
16.41732369881455	2.684787	1.6385319
16.43503206951817	2.6950421	1.6416583
16.45274083542859	2.7417364	1.6558189
16.47044999699522	2.752103	1.6589464
16.488159554667558	2.7759466	1.6661172
16.505869508895184	2.8004363	1.6734504
16.523579860127786	2.8415742	1.685697
16.541290608815117	2.9153929	1.7074522
16.559001755407035	2.9767041	1.7253127
16.57671330035348	3.0785391	1.7545767
16.59442524410448	3.1158638	1.765181
16.61213758711015	3.166853	1.7795653
16.629850329820705	3.1904604	1.786186
16.647563472686436	3.2444413	1.8012333
16.665277016157724	3.2919216	1.8143654
16.682990960685053	3.3735678	1.8367275
16.70070530671898	3.4394007	1.8545622
16.718420054710155	3.5026915	1.8715479
16.736135205109335	3.5753279	1.8908538
16.753850758367335	3.6472356	1.9097737
16.771566714935087	3.7355306	1.9327521
16.789283075263597	3.78527	1.945577
16.80699983980398	3.8257978	1.9559647
16.82471700900741	3.8513978	1.9624978
16.84243458332518	3.9081411	1.9769019
16.860152563208665	3.9508295	1.9876693
16.87787094910932	4.047159	2.0117552
16.89558974147871	4.1188965	2.0295064
16.913308940768466	4.206626	2.051006
16.931028547430333	4.278031	2.06834
16.94874856191613	4.330736	2.081042
16.966468984677785	4.3344474	2.0819335
16.98418981616729	4.350022	2.0856707
17.00191105683676	4.387863	2.0947227
17.019632707138374	4.5090814	2.1234598
17.03735476752442	4.5456347	2.1320493
17.05507723844728	4.608904	2.1468358
17.072800120359403	4.613234	2.147844
17.090523413713353	4.633624	2.1525855
17.108247118961785	4.6229324	2.1501005
17.125971236557437	4.640773	2.1542454
17.143695766953133	4.681348	2.1636422
17.161420710601806	4.6605287	2.1588259
17.179146067956477	4.596985	2.144058
17.19687183947025	4.556584	2.1346157
17.21459802559634	4.6044536	2.1457992
17.232324626788028	4.6336975	2.1526024
17.25005164349871	4.6393666	2.153919
17.267779076181863	4.5942135	2.1434116
17.285506925291074	4.5282745	2.1279743
17.30323519127999	4.5304556	2.1284866
17.320963874602384	4.5377026	2.1301885
17.33869297571211	4.594834	2.1435564
17.356422495063114	4.5971203	2.1440897
17.37415243310944	4.5717044	2.1381545
17.391882790305218	4.5306973	2.1285434
17.40961356710468	4.5282564	2.12797
17.42734476396215	4.5577593	2.134891
17.445076381332044	4.610994	2.1473224
17.462808419668868	4.706627	2.1694763
17.48054087942723	4.80979	2.1931233
17.498273761061835	4.9834476	2.2323637
17.51600706502747	5.431858	2.3306346
17.533740791779024	6.1714983	2.48425
17.551474941771485	7.6350594	2.7631612
17.56920951545993	8.781793	2.963409
17.586944513299528	10.94403	3.3081763
17.60467993574556	12.624716	3.5531275
17.622415783253373	14.308598	3.7826707
17.64015205627843	15.7643585	3.9704356
17.657888755276293	16.838324	4.1034527
17.675625880702604	17.440737	4.176211
17.69336343301311	17.311356	4.1606917
17.71110141266366	16.469698	4.0582876
17.728839820110178	15.419933	3.9268222
17.746578655808705	14.414215	3.7966058
17.764317920215372	12.968113	3.6011267
17.7820576137864	11.511195	3.392815
17.79979773697811	9.526241	3.086461
17.81753829024692	7.612305	2.7590406
17.835279274049356	5.8658996	2.421962
17.85302068884201	4.763301	2.1824987
17.870762535081607	4.1114674	2.0276754
17.888504813224934	3.8638072	1.965657
17.90624752372891	3.732773	1.9320385
17.923990667050536	3.6333632	1.9061383
17.941734243646895	3.5380003	1.8809572
17.959478253975185	3.4866672	1.8672619
17.9772226984927	3.4630146	1.8609177
17.994967577656833	3.4376688	1.8540951
18.01271289192506	3.4212523	1.8496628
18.030458641754965	3.3773196	1.8377485
18.04820482760425	3.35802	1.8324901
18.06595144993067	3.326304	1.8238158
18.083698509192125	3.3128488	1.8201233
18.101446005846576	3.2835133	1.8120468
18.119193940352105	3.2829947	1.8119036
18.136942313166887	3.278472	1.8106551
18.1546911247492	3.256258	1.8045105
18.1724403755574	3.2373512	1.7992641
18.19019006604997	3.2198625	1.7943975
18.207940196685467	3.1857164	1.7848575
18.225690767922575	3.111058	1.7638191
18.243441780220046	3.0700488	1.7521554
18.261193234036764	3.0607228	1.7494922
18.278945129831676	3.0924952	1.7585492
18.29669746806386	3.089873	1.7578034
18.314450249192483	3.05756	1.748588
18.3322034736768	3.024115	1.7389983
18.349957141976184	3.0307972	1.7409185
18.3677112545501	3.0513752	1.7468185
18.385465811858108	3.073224	1.7530613
18.403220814359884	3.048735	1.7460626
18.420976262515172	3.0627708	1.7500774
18.43873215678387	3.1143966	1.7647653
18.456488497625923	3.1423125	1.7726569
18.474245285501407	3.2440372	1.8011211
18.492002520870486	3.3066387	1.8184166
18.50976020419343	3.3819914	1.8390192
18.527518335930615	3.6716459	1.9161539
18.545276916542516	4.2235265	2.055122
18.563035946489688	4.42156	2.1027505
18.580795426232832	4.8419003	2.2004318
18.598555356232698	4.712137	2.1707458
18.616315736950185	5.034374	2.243741
18.63407656884626	4.704281	2.1689355
18.65183785238201	4.893549	2.2121367
18.669599588018617	4.631099	2.151999
18.68736177621737	4.637182	2.1534119
18.705124417439652	4.6057143	2.146093
18.72288751214696	4.4348707	2.1059132
18.740651060800886	4.586828	2.141688
18.758415063863115	4.333774	2.0817719
18.77617952179546	4.4701934	2.114283
18.793944435059814	4.237839	2.0586014
18.811709804118184	4.2627416	2.0646408
18.829475629432675	4.1793947	2.0443568
18.8472419114655	3.9718974	1.992962
18.86500865067897	4.041347	2.0103102
18.88277584753551	3.727734	1.930734
18.90054350249763	3.7462428	1.9355214
18.918311616027957	3.4778187	1.864891
18.936080188589226	3.3891888	1.8409749
18.953849220644265	3.080868	1.7552402
18.971618712656007	2.93345	1.7127317
18.9893886650875	2.8530586	1.6890999
19.007159078401887	8.031029	2.833907
19.024929953062408	32.888763	5.7348723
19.042701289532435	32.84735	5.731261
19.060473088275405	25.395954	5.0394397
19.07824534975489	2.6756592	1.6357442
19.096018074434568	2.7021074	1.6438088
19.113791262778197	2.6925864	1.6409103
19.13156491524966	2.6498692	1.6278418
19.149339032312945	2.5839283	1.6074603
19.167113614432136	2.5608904	1.6002783
19.184888662071433	2.5606878	1.600215
19.202664175695123	2.5509472	1.5971684
19.220440155767623	2.5671043	1.6022185
19.238216602753447	2.5530143	1.5978155
19.2559935171172	2.5454512	1.5954471
19.27377089932361	2.578755	1.6058502
19.291548749837514	2.6134992	1.616632
19.309327069123835	2.5790074	1.6059288
19.32710585764763	2.5207345	1.5876821
19.344885115874032	2.5046039	1.582594
19.362664844268313	2.5152442	1.5859522
19.380445043295822	2.514236	1.5856342
19.39822571342203	2.563005	1.6009388
19.41600685511252	2.5681071	1.6025314
19.43378846883297	2.5387404	1.5933425
19.451570555049173	2.4836774	1.5759687
19.469353114227037	2.4837952	1.576006
19.48713614683254	2.4778461	1.5741175
19.50491965333182	2.5234313	1.5885311
19.52270363419109	2.5257075	1.5892475
19.540488089876686	2.5659838	1.6018689
19.55827302085503	2.5589006	1.5996563
19.576058427592674	2.5552378	1.5985111
19.593844310556282	2.515211	1.5859417
19.611630670212598	2.5165017	1.5863485
19.629417507028506	2.517442	1.5866449
19.64720482147098	2.4870307	1.5770322
19.6649926140071	2.506672	1.5832473
19.682780885104084	2.5097284	1.5842122
19.70056963522921	2.5217917	1.588015
19.718358864849908	2.5079622	1.5836548
19.7361485744337	2.5031855	1.5821458
19.753938764448215	2.4907267	1.5782037
19.771729435361202	2.5147533	1.5857974
19.789520587640506	2.522436	1.5882179
19.807312221754092	2.5385084	1.5932697
19.825104338170043	2.4877331	1.5772549
19.842896937356517	2.4856286	1.5765877
19.860690019781824	2.5249655	1.589014
19.87848358591436	2.5542681	1.5982078
19.896277636222635	2.5633037	1.601032
19.914072171175278	2.5414715	1.5941993
19.931867191241015	2.5126007	1.5851185
19.94966269688869	2.5164547	1.5863338
19.967458688587264	2.5087461	1.5839022
19.985255166805807	2.506611	1.5832281
20.00305213201348	2.5075276	1.5835174
20.020849584679578	2.513815	1.5855014
20.038647525273507	2.528963	1.5902714
20.05644595426477	2.4983594	1.5806199
20.07424487212299	2.5307584	1.5908357
20.092044279317903	2.5112212	1.5846833
20.109844176319353	2.5078242	1.5836111
20.127644563597304	2.471599	1.572132
20.145445441621817	2.4531786	1.5662626
20.16324681086307	2.4013612	1.5496327
20.181048671791373	2.3766003	1.5416226
20.198851024877122	2.3993945	1.5489979
20.216653870590836	2.4468722	1.5642481
20.234457209403146	2.482471	1.575586
20.252261041784802	2.4678297	1.5709327
20.270065368206662	2.4524953	1.5660444
20.287870189139685	2.4235349	1.5567707
20.305675505054968	2.4118829	1.5530238
20.323481316423702	2.3728871	1.5404178
20.341287623717207	2.3541238	1.5343155
20.359094427406884	2.3544092	1.5344085
20.376901727964288	2.3565445	1.535104
20.39470952586107	2.3710487	1.539821
20.41251782156899	2.38658	1.544856
20.430326615559935	2.4105418	1.5525919
20.448135908305886	2.401915	1.5498112
20.465945700278965	2.4154031	1.5541568
20.483755991951384	2.3758934	1.5413933
20.50156678379548	2.349637	1.5328525
20.519378076283708	2.3513663	1.5334165
20.537189869888635	2.332804	1.527352
20.55500216508294	2.3313825	1.5268866
20.572814962339415	2.335415	1.5282065
20.59062826213098	2.3700013	1.5394808
20.60844206493066	2.392849	1.5468836
20.626256371211593	2.4110358	1.5527511
20.644071181447032	2.3698947	1.5394462
20.66188649611036	2.3394053	1.5295115
20.67970231567506	2.2874837	1.512443
20.697518640614742	2.258065	1.5026859
20.715335471403122	2.2726188	1.5075208
20.73315280851404	2.3036888	1.5177908
20.750970652421447	2.333416	1.5275522
20.768789003599412	2.3338466	1.5276933
20.786607862522136	2.3321788	1.5271473
20.8044272296639	2.308996	1.519538
20.82224710549913	2.300576	1.516765
20.84006749050237	2.3046997	1.5181237
20.857888385148268	3.8320773	1.9575692
20.8757097899116	45.93349	6.7774253
20.893531705267254	64.764725	8.047653
20.911354131690224	83.79967	9.154216
20.92917706965566	69.037605	8.3088875
20.94700051963877	50.10207	7.0782814
20.96482448211493	29.378222	5.420168
20.982648957559622	4.1702337	2.042115
21.00047394644843	2.3154736	1.5216681
21.01829944925707	2.2858584	1.5119056
21.036125466461375	2.235226	1.4950672
21.053951998537297	2.229855	1.4932699
21.071779045960906	2.234504	1.4948257
21.089606609208378	2.2505744	1.5001915
21.10743468875603	2.2374775	1.49582
21.12526328508028	2.2324607	1.4941422
21.143092398657675	2.2090323	1.4862814
21.16092202996488	2.2252185	1.4917166
21.17875217947867	2.21319	1.4876795
21.19658284767596	2.2137587	1.4878706
21.21441403503377	2.1867888	1.4787796
21.232245742029225	2.1773493	1.4755844
21.2500779691396	2.173953	1.4744332
21.26791071684227	2.150676	1.4665183
21.28574398561475	2.1509652	1.4666169
21.30357777593465	2.1663141	1.4718404
21.321412088279704	2.1833727	1.477624
21.339246923127792	2.1825519	1.4773462
21.357082280956888	2.1740317	1.4744598
21.3749181622451	2.180872	1.4767776
21.392754567470647	2.1929543	1.4808627
21.41059149711187	2.1716404	1.4736487
21.42842895164726	2.1371562	1.4619015
21.446266931555378	2.106876	1.4515082
21.464105437314945	2.0982094	1.4485197
21.481944469404798	2.06863	1.4382733
21.49978402830388	2.0616984	1.4358616
21.51762411449127	2.0835996	1.4434679
21.53546472844617	2.1112	1.452997
21.553305870647876	2.0997589	1.4490545
21.571147541575865	2.0611534	1.4356718
21.58898974170967	2.0646029	1.4368726
21.60683247152899	2.0841787	1.4436685
21.62467573151363	2.0857043	1.4441968
21.642519522143523	2.0713248	1.4392098
21.660363843898722	2.078969	1.4418631
21.6782086972594	2.0951307	1.4474566
21.696054082705864	2.0940592	1.4470865
21.713900000718535	2.0736465	1.4400162
21.73174645177795	2.072991	1.4397885
21.749593436364794	2.064937	1.436989
21.767440954959845	2.066932	1.4376829
21.785289008044032	2.0655336	1.4371965
21.803137596098388	2.0705342	1.4389352
21.820986719604086	2.0371804	1.4272983
21.838836379042412	2.0053995	1.4161212
21.85668657489478	2.0161943	1.4199276
21.87453730764273	2.053305	1.4329357
21.892388577767914	2.0426834	1.4292247
21.91024038575213	2.0268574	1.4236774
21.928092732077285	2.0236857	1.4225631
21.945945617225426	1.9720535	1.4042982
21.963799041678694	1.9773821	1.4061942
21.981653005919398	31.314201	5.595909
21.999507510429943	78.17599	8.841719
22.01736255569286	73.10438	8.55011
22.035218142190818	4.149437	2.0370166
22.05307427040661	1.9532793	1.3975977
22.07093094082315	1.9868107	1.4095427
22.088788153923474	1.9896189	1.4105386
22.106645910190746	1.9669181	1.4024686
22.12450421010827	1.9456604	1.3948693
22.142363054159464	1.9548091	1.3981448
22.16022244282787	2.000926	1.4145409
22.178082376597164	1.9834505	1.4083502
22.195942855951145	1.9519671	1.3971282
22.213803881373742	1.9688028	1.4031403
22.231665453349002	2.0123105	1.4185593
22.24952757236111	2.034991	1.4265311
22.26739023889438	1.9827642	1.4081066
22.28525345343323	1.9626569	1.4009485
22.30311721646225	1.9378915	1.3920817
22.320981528466113	1.9370451	1.3917776
22.33884638992964	1.9403389	1.3929604
22.356711801337788	1.9434373	1.3940722
22.37457776317561	1.9651054	1.4018222
22.392444275928337	1.9691771	1.4032737
22.410311340081282	1.9481071	1.3957461
22.428178956119904	1.9199296	1.3856152
22.446047124529805	1.9204663	1.385809
22.46391584579669	1.9061465	1.3806326
22.481785120406414	1.8994151	1.3781927
22.49965494884496	1.9330165	1.3903296
22.51752533159841	1.974501	1.4051694
22.53539626915302	1.9956205	1.4126643
22.553267761995137	1.9336604	1.3905612
22.571139810611264	1.9470387	1.3953632
22.589012415488025	1.9718595	1.4042292
22.60688557711216	1.9819769	1.407827
22.624759295970566	1.9462291	1.3950732
22.642633572550263	1.8994578	1.3782082
22.660508407338362	1.9010056	1.3787696
22.67838380082217	1.9410803	1.3932266
22.696259753489077	1.960365	1.4001304
22.714136265826614	1.9640914	1.4014604
22.73201333832246	1.9451463	1.394685
22.74989097146439	1.9286022	1.3887413
22.76776916574035	1.9255918	1.3876569
22.785647921638393	1.9529855	1.3974925
22.803527239646712	1.9709822	1.4039167
22.82140712025363	1.9568114	1.3988608
22.839287563947593	1.949807	1.3963549
22.85716857121719	1.9389496	1.3924617
22.875050142551135	1.929733	1.3891484
22.892932278438277	1.9369079	1.3917284
22.910814979367604	1.9241457	1.3871357
22.928698245828222	1.8939155	1.376196
22.946582078309387	1.8745044	1.3691255
22.96446647730047	1.8801563	1.3711879
22.98235144329098	1.8970935	1.3773502
23.000236976770562	1.9100424	1.3820429
23.018123078229	1.9041166	1.3798974
23.03600974815619	1.8693769	1.3672516
23.053896987042194	1.8824768	1.3720338
23.071784795377173	1.9063592	1.3807096
23.08967317365145	1.9352236	1.3911232
23.10756212235546	1.9741137	1.4050316
23.125451641979787	1.9738071	1.4049225
23.143341733015134	1.9330931	1.3903571
23.161232395952357	1.9113405	1.3825123
23.179123631282426	1.8890958	1.3744438
23.197015439496468	1.8872029	1.373755
23.214907821085717	1.8798511	1.3710766
23.23280077654157	1.8916143	1.3753597
23.250694306355538	1.9061648	1.3806393
23.268588411019277	1.9319086	1.3899312
23.28648309102458	1.9378942	1.3920827
23.304378346863356	1.9299306	1.3892194
23.322274179027676	1.9159151	1.3841659
23.340170588009723	1.9132706	1.3832103
23.358067574301852	1.9210577	1.3860222
23.37596513839651	1.9545213	1.398042
23.39386328078629	1.9827076	1.4080865
23.411762001963947	1.9780436	1.4064294
23.429661302422353	1.9432698	1.3940121
23.4475611826545	1.888784	1.3743304
23.46546164315356	1.8839116	1.3725566
23.48336268441279	1.8819904	1.3718566
23.501264306925638	1.910845	1.3823332
23.51916651118564	1.9161114	1.3842367
23.537069297686497	1.9504782	1.3965952
23.554972666922037	1.9390577	1.3925005
23.57287661938623	1.9225382	1.3865563
23.59078115557318	1.8927498	1.3757725
23.608686275977128	1.897561	1.3775198
23.62659198109246	1.9291699	1.3889456
23.6444982714137	1.9521574	1.3971963
23.66240514743549	1.9435824	1.3941243
23.68031260965263	1.944292	1.3943787
23.698220658560068	1.9347563	1.3909552
23.716129294652845	1.9279857	1.3885193
23.7340385184262	1.9310952	1.3896385
23.75194833037546	1.9234742	1.3868937
23.769858730996123	1.9392351	1.3925642
23.78776972078382	1.9460034	1.3949922
23.80568130023431	1.9419689	1.3935455
23.823593469843495	1.8982817	1.3777814
23.841506230107424	1.8806843	1.3713804
23.859419581522275	1.8786095	1.3706238
23.87733352458438	1.8650299	1.365661
23.89524805979019	1.8287995	1.3523312
23.913163187636318	1.8454962	1.3584903
23.931078908619508	1.8784195	1.3705544
23.948995223236633	1.9069312	1.3809168
23.966912131984735	1.9365177	1.3915882
23.98482963536096	1.9925754	1.4115862
24.002747733862616	2.0056558	1.4162117
24.020666427987155	2.0080957	1.4170729
24.038585718232156	2.0051916	1.4160478
24.056505605095353	2.0400546	1.4283048
24.074426089074617	2.03328	1.4259312
24.092347170667946	2.0267477	1.4236389
24.110268850373515	2.0278077	1.4240111
24.128191128689586	2.0537088	1.4330767
24.146114006114626	2.0367527	1.4271485
24.164037483147187	2.0383751	1.4277167
24.181961560286005	2.0598812	1.4352286
24.199886238029926	2.0500875	1.4318126
24.21781151687797	2.0335534	1.4260272
24.235737397329274	2.0429533	1.4293191
24.253663879883135	2.0500357	1.4317945
24.271590965038975	2.0536969	1.4330726
24.289518653296376	2.0730486	1.4398085
24.30744694515505	2.0672274	1.4377856
24.32537584111486	2.0913208	1.4461399
24.34330534167581	2.0782075	1.4415989
24.361235447338046	2.0874064	1.444786
24.379166158601876	2.0669222	1.4376794
24.39709747596772	2.0407426	1.4285456
24.41502939993615	2.016277	1.4199567
24.432961931007917	1.9820694	1.4078598
24.450895069683856	1.9668132	1.4024311
24.468828816465	1.9199555	1.3856245
24.4867631718525	1.9356357	1.3912712
24.504698136347656	1.9522829	1.3972412
24.52263371045192	1.9426596	1.3937932
24.540569894666874	1.9501868	1.3964909
24.558506689494266	1.9742489	1.4050797
24.57644409543597	1.9773027	1.406166
24.594382112994012	1.9320626	1.3899865
24.61232074267057	1.8940456	1.3762432
24.630259984967953	1.8882382	1.3741318
24.64819984038863	1.9332354	1.3904084
24.66614030943522	1.9637933	1.4013541
24.684081392610462	1.9906955	1.41092
24.702023090417274	1.9295774	1.3890923
24.7199654033587	1.9391365	1.3925288
24.737908331937927	1.9891934	1.4103876
24.755851876658305	2.0129983	1.4188018
24.773796038023324	2.0209568	1.4216036
24.79174081653661	2.0541513	1.4332311
24.809686212701962	2.0714679	1.4392595
24.827632227023294	2.0534832	1.432998
24.8455788600047	2.0592403	1.4350053
24.8635261121504	2.1198955	1.455986
24.88147398396475	2.1164901	1.4548162
24.899422475952303	2.1309001	1.4597603
24.917371588617698	2.160696	1.4699306
24.935321322465768	2.1919854	1.4805355
24.953271678001478	2.265487	1.5051534
24.97122265572994	2.4591508	1.5681679
24.989174256156414	2.789198	1.6700892
25.00712647978632	3.1930687	1.786916
25.02507932712521	3.6726167	1.9164072
25.043032798678798	4.1626935	2.040268
25.060986894952933	4.881074	2.2093153
25.078941616453637	5.7182617	2.3912888
25.096896963687055	6.7366223	2.5955005
25.114852937159508	7.8433156	2.800592
25.132809537377444	8.310974	2.882876
25.150766764847468	8.339826	2.8878756
25.168724620076347	7.7702546	2.7875175
25.186683103570985	6.7791886	2.6036875
25.204642215838426	5.5833817	2.3629181
25.222601957385894	4.192236	2.0474951
25.24056232872074	3.2017422	1.7893412
25.25852333035048	2.6740344	1.6352475
25.276484962782778	2.3349776	1.5280634
25.294447226525435	2.1419673	1.4635462
25.312410122086423	2.0002983	1.414319
25.330373649973843	1.9665431	1.4023348
25.348337810695988	1.9346467	1.3909158
25.366302604761245	1.9259396	1.3877822
25.384268032678207	1.9073647	1.3810737
25.40223409495558	1.883615	1.3724486
25.420200792102257	1.8500707	1.360173
25.438168124627246	1.8439405	1.3579177
25.45613609303974	1.8459002	1.3586391
25.474104697849057	1.872834	1.3685153
25.492073939564698	1.876966	1.3700241
25.510043818696285	1.904014	1.3798602
25.528014335753614	1.8913463	1.3752623
25.54598549124664	1.9346813	1.3909283
25.56395728568544	1.9112517	1.3824803
25.58192971958028	1.8842584	1.3726829
25.59990279344156	1.9077971	1.3812302
25.617876507779833	1.9281032	1.3885616
25.635850863105826	1.9626646	1.4009513
25.653825859930386	1.992298	1.4114878
25.671801498764548	1.9909438	1.4110081
25.68977778011949	1.9419452	1.3935369
25.707754704506524	1.9050698	1.3802427
25.725732272437153	1.8964877	1.3771303
25.743710484423012	1.8617256	1.3644507
25.761689340975888	1.8283205	1.352154
25.77966884260774	1.8171849	1.34803
25.797648989830662	1.8191254	1.3487495
25.815629783156922	1.8390749	1.356125
25.83361122309895	1.8826809	1.3721082
25.85159331016929	1.9044232	1.3800085
25.869576044880695	1.9347541	1.3909544
25.887559427746034	1.9302636	1.3893393
25.90554345927836	1.9389846	1.3924743
25.92352813999086	1.891968	1.3754883
25.94151347039689	1.8372278	1.3554437
25.959499451009965	1.8008877	1.3419715
25.97748608234374	1.7805189	1.3343608
25.995473364912062	1.7857409	1.3363161
26.013461299228904	1.7842536	1.3357595
26.03144988580839	1.8319635	1.3535005
26.04943912516483	1.8285254	1.3522298
26.067429017812675	1.8450677	1.3583328
26.085419564266537	1.8357805	1.3549098
26.103410765041186	1.8039322	1.3431054
26.12140262065155	1.7917145	1.3385494
26.139395131612723	1.7986784	1.3411481
26.157388298439948	1.7921158	1.3386993
26.17538212164861	1.7958543	1.3400949
26.193376601754295	1.8231189	1.3502293
26.211371739272714	1.8777003	1.3702921
26.229367534719746	1.8485793	1.3596247
26.247363988611433	1.8146048	1.3470727
26.26536110146397	1.7821934	1.3349881
26.283358873793727	1.801165	1.3420749
26.301357306117204	1.8225294	1.3500109
26.319356398951104	1.8516992	1.3607715
26.33735615281224	1.804903	1.3434668
26.35535656821762	1.7955815	1.3399931
26.373357645684404	1.8309968	1.3531433
26.39135938572991	1.8123927	1.3462514
26.409361788871614	1.7958115	1.340079
26.427364855627165	1.8085842	1.3448361
26.445368586514352	1.8008721	1.3419658
26.46337298205115	1.7814274	1.3347012
26.48137804275568	1.8033117	1.3428744
26.499383769146217	1.8168861	1.3479191
26.517390161741215	1.8125463	1.3463084
26.53539722105928	1.8112589	1.3458302
26.553404947619182	1.8432275	1.3576552
26.571413341939856	1.8763303	1.3697921
26.589422404540397	1.8813874	1.3716367
26.60743213594006	1.8148599	1.3471674
26.62544253665827	1.8198293	1.3490105
26.64345360721459	1.8456755	1.3585564
26.66146534812879	1.8324057	1.3536638
26.679477759920758	1.7968864	1.34048
26.69749084311057	1.7909187	1.3382521
26.71550459821847	1.8380969	1.3557643
26.733519025764842	1.8313881	1.3532879
26.751534126270258	1.7943468	1.3395323
26.769549900255434	1.7815429	1.3347445
26.787566348241267	1.7950534	1.3397961
26.80558347074881	1.7801998	1.3342413
26.823601268299267	1.7502593	1.3229736
26.841619741414036	1.8290304	1.3524165
26.85963889061465	1.8463439	1.3588023
26.877658716422832	1.8582593	1.3631798
26.89567921936045	1.8026538	1.3426294
26.913700399949544	1.7469684	1.3217293
26.93172225871233	1.7428206	1.3201593
26.949744796171174	1.7886066	1.337388
26.967768012848605	1.8234683	1.3503586
26.98579190926733	1.8161774	1.3476562
27.003816485950225	1.8248655	1.3508759
27.021841743420318	1.823851	1.3505002
27.039867682200814	1.830845	1.3530872
27.057894302815072	1.7886975	1.3374219
27.07592160578664	1.7456869	1.3212445
27.0939495916392	1.7705652	1.3306259
27.111978260896635	1.8001442	1.3416945
27.13000761408296	1.8145429	1.3470497
27.148037651722397	1.8547418	1.361889
27.166068374339304	1.8690034	1.367115
27.184099782458215	1.8702714	1.3675786
27.20213187660384	1.8445764	1.3581518
27.22016465730105	1.8031121	1.3428001
27.23819812507487	1.8399714	1.3564554
27.256232280450533	1.847943	1.3593906
27.274267123953383	1.8331568	1.3539412
27.292302656108987	1.7963094	1.3402647
27.31033887744306	1.7769403	1.3330193
27.32837578848146	1.7936572	1.3392749
27.34641338975026	1.7920753	1.3386842
27.364451681775673	1.8238072	1.3504841
27.382490665084074	1.8209592	1.3494292
27.400530340202046	1.8344079	1.3544031
27.41857070765629	1.8910861	1.3751676
27.436611767973726	1.8639687	1.3652724
27.454653521681404	1.8301681	1.3528371
27.472695969306564	1.8217909	1.3497374
27.490739111376627	1.8212646	1.3495424
27.508782948419153	1.7844603	1.3358369
27.526827480961902	1.7773026	1.3331552
27.54487270953279	1.8270419	1.3516811
27.562918634659898	1.8315192	1.3533363
27.580965256871508	1.8470356	1.359057
27.599012576696026	1.8359919	1.3549877
27.617060594662068	1.8347056	1.354513
27.63510931129842	1.8229728	1.3501751
27.65315872713401	1.8453116	1.3584225
27.67120884269797	1.8259382	1.3512728
27.68925965851958	1.8381894	1.3557984
27.707311175128307	1.9115572	1.3825908
27.725363393053787	1.9323611	1.3900939
27.74341631282583	1.8831073	1.3722636
27.7614699349744	1.8490449	1.3597959
27.77952426002968	2.0372844	1.4273347
27.797579288521973	2.083308	1.4433669
27.815635020981784	2.4431887	1.5630703
27.83369145793979	2.5437279	1.5949068
27.85174859992682	2.4231036	1.5566322
27.869806447473923	2.361286	1.5366477
27.887865001112267	2.098908	1.4487609
27.905924261373233	1.9604034	1.4001441
27.92398422878836	1.9200914	1.3856736
27.94204490388936	1.909584	1.381877
27.96010628720813	1.8374535	1.355527
27.978168379276728	1.8283293	1.3521572
27.9962311806274	1.8257546	1.3512049
28.014294691792568	1.8217314	1.3497154
28.0323589133048	1.8387473	1.3560041
28.050423845696887	1.8303118	1.3528901
28.068489489501758	1.8283868	1.3521786
28.086555845252523	1.8517352	1.3607848
28.104622913482487	1.8689641	1.3671006
28.122690694725115	1.8800588	1.3711524
28.14075918951405	1.9343368	1.3908044
28.15882839838312	1.9967371	1.4130595
28.176898321866304	1.9601527	1.4000546
28.1949689604978	1.9392563	1.3925718
28.213040314811945	1.9110157	1.3823949
28.23111238534327	1.90457	1.3800616
28.249185172626493	1.8602425	1.3639071
28.267258677196473	1.8860269	1.3733269
28.285332899588294	1.9263747	1.387939
28.303407840337172	1.9574884	1.3991027
28.321483499978545	1.9789045	1.4067354
28.33955987904799	1.9416045	1.3934147
28.357636978081285	1.9251732	1.3875061
28.37571479761439	1.9241521	1.3871381
28.393793338183425	1.9503943	1.3965652
28.41187260032469	1.9286866	1.3887717
28.429952584574686	1.9554954	1.3983903
28.448033291470065	1.9910306	1.4110389
28.46611472154769	1.9628962	1.401034
28.484196875344566	1.9359134	1.391371
28.502279753397914	1.9515971	1.3969958
28.52036335624511	1.9595982	1.3998564
28.538447684423716	1.9815793	1.4076858
28.556532738471482	2.006035	1.4163457
28.574618518926325	1.9916252	1.4112495
28.59270502632635	1.983236	1.408274
28.61079226120985	2.0045807	1.4158322
28.628880224115274	1.9972217	1.4132309
28.646968915581287	1.9820662	1.4078587
28.66505833614671	2.0133884	1.4189392
28.68314848635055	2.0780835	1.441556
28.701239366732004	2.0745072	1.440315
28.71933097783044	2.057781	1.4344968
28.737423320185403	2.0930796	1.4467479
28.75551639433665	2.147363	1.4653883
28.773610200824074	2.1380627	1.4622116
28.791704740187793	2.1296928	1.4593467
28.80980001296809	2.125477	1.4579016
28.827896019705413	2.1459222	1.4648967
28.845992760940433	2.1484	1.4657421
28.86409023721397	2.1749165	1.4747598
28.88218844906704	2.1639752	1.4710456
28.900287397040845	2.2331817	1.4943833
28.918387081676755	2.2767286	1.5088832
28.936487503516343	2.3026257	1.5174404
28.954588663101365	2.325693	1.5250223
28.97269056097374	2.372806	1.5403916
28.990793197675597	2.4177577	1.5549141
29.00889657374923	2.3992565	1.5489533
29.027000689737125	2.3918548	1.5465622
29.04510554618196	2.439238	1.5618061
29.06321114362659	2.4628103	1.5693344
29.08131748261405	2.4738634	1.572852
29.099424563687567	2.550876	1.5971462
29.11753238739057	2.5930421	1.6102926
29.13564095426663	2.549633	1.596757
29.15375026485954	2.54752	1.5960952
29.171860319713275	2.667138	1.6331375
29.18997111937199	2.7598984	1.6612942
29.20808266438002	2.7776165	1.6666182
29.226194955281898	2.8178	1.6786304
29.244307992622335	2.7926116	1.6711109
29.26242177694624	2.7593827	1.661139
29.2805363087987	2.8005302	1.6734785
29.29865158872498	2.8061228	1.6751486
29.316767617270557	2.8465493	1.6871719
29.334884394981064	2.8873358	1.6992162
29.353001922402367	2.9910443	1.7294636
29.37112020008047	3.0435467	1.7445763
29.389239228561596	3.1129944	1.764368
29.407359008392152	3.264795	1.8068744
29.42547954011872	3.5997243	1.8972939
29.44360082428809	4.2383027	2.058714
29.46172286144722	5.3035984	2.3029542
29.479845652143283	6.9672227	2.6395497
29.497969196923606	9.067755	3.0112712
29.516093496335728	11.628952	3.410125
29.5342185509274	14.541903	3.8133848
29.55234436124651	16.976074	4.120203
29.570470927841175	18.514858	4.3028893
29.588598251259686	18.205812	4.266827
29.60672633205055	16.786547	4.097139
29.624855170762405	14.552872	3.8148227
29.642984767944146	11.871689	3.4455316
29.66111512414481	9.0632305	3.01052
29.67924623991366	6.6751733	2.5836356
29.697378115800138	5.0157075	2.2395775
29.71551075235387	4.082831	2.0206015
29.733644150124675	3.6886644	1.9205896
29.751778309662576	3.5243437	1.8773235
29.769913231517766	3.3877873	1.8405943
29.78804891624066	3.3613527	1.8333992
29.806185364381818	3.3251424	1.8234973
29.82432257649206	3.3190975	1.8218391
29.842460553122333	3.3402452	1.8276337
29.86059929482382	3.366601	1.8348299
29.878738802147872	3.3510756	1.8305943
29.896879075646048	3.2434144	1.8009481
29.915020115870114	3.246176	1.8017148
29.933161923371976	3.304202	1.8177464
29.951304498703777	3.370894	1.8359995
29.969447842417857	3.3662577	1.8347363
29.987591955066733	3.3653805	1.8344973
30.005736837203123	3.28969	1.8137503
30.023882489379943	3.2094877	1.7915043
30.04202891215028	3.1731396	1.7813308
30.060176106067455	3.1660104	1.7793286
30.078324071684946	3.144911	1.7733897
30.09647280955646	3.1393979	1.7718346
30.114622320235863	3.1508117	1.7750525
30.132772604277257	3.10481	1.762047
30.1509236622349	3.11548	1.7650722
30.16907549466328	3.177544	1.7825667
30.18722810211705	3.1526766	1.7755778
30.205381485151097	3.0968194	1.7597783
30.22353564432045	3.0538101	1.7475154
30.241690580180403	3.0132601	1.7358744
30.25984629328638	3.037096	1.7427266
30.278002784194037	3.0668693	1.7512479
30.296160053459246	3.0253162	1.7393436
30.314318101638033	2.975745	1.7250347
30.332476929286646	2.979498	1.7261223
30.35063653696153	2.948693	1.7171758
30.368796925219307	2.9005723	1.7031066
30.386958094616844	2.7789004	1.6670034
30.40512004571115	2.7668693	1.6633909
30.423282779059463	2.8196924	1.679194
30.441446295219233	2.895578	1.7016398
30.459610594748067	2.8830597	1.6979575
30.47777567820382	2.8670154	1.6932263
30.495941546144504	2.93634	1.7135752
30.51410819912835	2.9166088	1.7078081
30.532275637713795	2.8838959	1.6982037
30.55044386245946	2.85602	1.6899763
30.56861287392416	2.846762	1.687235
30.586782672666956	2.7687993	1.663971
30.604953259247047	2.7319412	1.6528585
30.623124634223885	2.719223	1.6490067
30.641296798157075	2.7187061	1.64885
30.659469751606462	2.7523205	1.659012
30.677643495132074	2.7880661	1.6697503
30.695818029294152	2.737654	1.6545857
30.713993354653116	2.7211497	1.6495907
30.73216947176962	2.760938	1.661607
30.75034638120448	2.7171876	1.6483895
30.768524083518756	2.6839511	1.6382769
30.786702579273673	2.7146406	1.6476166
30.80488186903069	2.8344471	1.6835816
30.82306195335144	2.9621277	1.7210833
30.841242832797782	3.162746	1.778411
30.85942450793176	3.3984694	1.8434938
30.877606979315637	3.7631123	1.9398743
30.895790247511883	4.183084	2.045259
30.913974313083134	4.575066	2.1389403
30.932159176592283	4.8025303	2.1914675
30.95034483860237	4.832475	2.1982892
30.968531299676698	4.69439	2.166654
30.98671856037873	4.3430653	2.0840023
31.00490662127215	4.019556	2.004883
31.023095482920848	3.6222668	1.9032253
31.04128514588892	3.1787403	1.7829022
31.059475610740662	2.8055584	1.6749802
31.07766687804056	2.650647	1.6280807
31.09585894835335	2.6226182	1.61945
31.11405182224393	2.5522134	1.5975648
31.132245500277417	2.5202851	1.5875406
31.15043998301914	2.4940648	1.5792608
31.168635271034628	2.4814477	1.5752611
31.18683136488964	2.5067189	1.5832621
31.20502826515008	2.5143213	1.5856612
31.223225972382135	2.460877	1.5687182
31.241424487152155	2.5039585	1.5823901
31.259623810026692	2.4539733	1.5665163
31.27782394157253	2.379121	1.5424399
31.296024882356644	2.3809092	1.5430195
31.314226632946237	2.3697338	1.539394
31.332429193908684	2.4358106	1.5607084
31.350632565811598	2.4726412	1.5724634
31.368836749222787	2.4522026	1.565951
31.387041744710295	2.5226789	1.5882943
31.40524755284232	2.6080859	1.614957
31.423454174187317	2.611842	1.6161194
31.441661609313922	2.5401309	1.5937788
31.459869858791002	2.5134418	1.5853838
31.478078923187628	2.4911022	1.5783226
31.496288803073064	2.420706	1.5558618
31.514499499016807	2.3507202	1.5332059
31.532711011588546	2.346602	1.5318623
31.550923341358178	2.3307183	1.526669
31.56913648889584	2.3713577	1.5399213
31.587350454771844	2.3095734	1.5197281
31.605565239556732	2.3142726	1.5212734
31.62378084382127	2.3447247	1.5312494
31.641997268136382	2.392479	1.546764
31.660214513073274	2.3402994	1.5298038
31.67843257920331	2.3694086	1.5392884
31.6966514670981	2.368059	1.5388498
31.71487117732944	2.3240085	1.5244699
31.733091710469346	2.2731113	1.5076841
31.751313067090052	2.2550237	1.5016737
31.769535247764008	2.239332	1.4964398
31.787758253063878	2.2906945	1.513504
31.805982083562526	2.30758	1.519072
31.824206739833024	2.2646568	1.5048777
31.84243222244869	2.267326	1.5057642
31.860658531983013	2.281822	1.51057
31.878885669009737	2.2692754	1.5064114
31.897113634102784	2.2354674	1.495148
31.91534242783632	2.2165937	1.4888229
31.933572050784694	2.2591622	1.5030509
31.951802503522508	2.2637763	1.5045851
31.970033786624548	2.2715375	1.5071621
31.988265900665834	2.3214061	1.5236161
32.006498846221575	2.3039308	1.5178704
32.02473262386724	2.285706	1.5118551
32.04296723417845	2.3191626	1.5228797
32.0612026777311	2.3236477	1.5243516
32.07943895510129	2.2253165	1.4917495
32.097676066865304	2.2246542	1.4915274
32.115914013599685	2.2123766	1.487406
32.13415279588115	2.1407053	1.463115
32.152392414286666	2.1071055	1.4515872
32.1706328693934	2.1410482	1.4632322
32.18887416177875	2.1701283	1.4731356
32.20711629202032	2.2294931	1.4931487
32.225359260695924	2.1960998	1.4819243
32.243603068383614	2.1203334	1.4561365
32.26184771566166	2.1207054	1.4562641
32.28009320310852	2.1531217	1.4673519
32.2983395313029	2.1695693	1.4729458
32.31658670082372	2.172222	1.473846
32.33483471225012	2.1642177	1.471128
32.35308356616143	2.1095986	1.4524457
32.371333263137245	2.078598	1.4417344
32.38958380375734	2.0289872	1.4244252
32.407835188601744	2.02918	1.424493
32.42608741825067	2.0624595	1.4361266
32.444340493284585	2.093907	1.4470339
32.46259441428416	2.0783024	1.4416318
32.48084918183028	2.0531278	1.432874
32.49910479650405	2.0894208	1.4454829
32.51736125888683	2.1048267	1.4508021
32.53561856956014	2.0781279	1.4415714
32.5538767291058	2.0560508	1.4338936
32.572135738105764	2.0621243	1.4360099
32.59039559714228	2.0703776	1.4388807
32.608656306797776	2.1458447	1.4648702
32.62691786765491	2.0706675	1.4389814
32.645180280296586	1.9635255	1.4012586
32.663443545305896	1.9655762	1.40199
32.68170766326619	2.0567868	1.4341502
32.69997263476099	2.0994794	1.448958
32.7182384603741	2.0546122	1.4333918
32.7365051406895	2.0271633	1.4237849
32.75477267629144	1.9334428	1.3904829
32.77304106776434	1.9915586	1.4112259
32.79131031569289	2.0355215	1.426717
32.809580420661966	2.0319355	1.4254597
32.827851383256714	2.0310376	1.4251448
32.84612320406245	2.0780735	1.4415525
32.86439588366476	2.0688512	1.4383502
32.88266942264945	2.0544546	1.4333369
32.9009438216025	2.0223358	1.4220885
32.9192190811102	1.9927202	1.4116374
32.937495201758985	2.076001	1.4408334
32.95577218413556	2.0884569	1.4451494
32.974050028826866	1.9926617	1.4116167
32.992328736420035	1.8927692	1.3757795
33.010608307502444	1.975112	1.4053868
33.02888874266169	1.9545587	1.3980553
33.047170042485604	1.9075022	1.3811235
33.06545220756225	1.8363575	1.3551227
33.083735238479896	1.9290997	1.3889203
33.10201913582707	1.9932232	1.4118155
33.12030390019248	2.022301	1.4220762
33.138589532165135	1.97031	1.4036773
33.15687603233419	1.8824838	1.3720363
33.17516340128909	1.8771864	1.3701046
33.19345163961947	1.9227395	1.3866289
33.211740747915215	2.0071468	1.4167382
33.23003072676643	1.9981235	1.41355
33.248321576763466	1.9472942	1.3954549
33.266613298496885	1.9507204	1.3966819
33.28490589255747	1.9262072	1.3878787
33.30319935953626	1.9873526	1.409735
33.32149370002451	2.0057988	1.4162623
33.339788914613706	1.9731206	1.4046781
33.358085003895575	1.9618036	1.400644
33.376381968462034	1.9381596	1.392178
33.39467980890529	1.9078734	1.3812579
33.41297852581774	1.9092457	1.3817546
33.43127811979204	2.0397487	1.4281977
33.44957859142105	2.1080651	1.4519178
33.467879941297866	2.0397196	1.4281875
33.486182170015844	1.9602926	1.4001045
33.50448527816853	1.8985736	1.3778874
33.522789266349754	1.928328	1.3886425
33.541094135153514	1.9433544	1.3940425
33.55939988517411	2.0673614	1.4378321
33.57770651700602	2.1435122	1.4640739
33.59601403124398	2.1217387	1.4566189
33.61432242848296	1.9527919	1.3974233
33.632631709318154	1.956554	1.3987688
33.650941874344994	2.0436523	1.4295636
33.66925292415916	2.0457006	1.4302799
33.68756485935654	1.8836793	1.3724719
33.70587768053328	1.8282641	1.3521332
33.724191388285746	1.9386662	1.39236
33.74250598321054	2.0228455	1.4222677
33.760821465904506	1.9288614	1.3888346
33.77913783696474	1.9490503	1.396084
33.79745509698852	1.9480214	1.3957154
33.815773246573414	1.8833897	1.3723664
33.8340922863172	1.8223153	1.3499316
33.852412216817896	1.8644514	1.3654492
33.87073303867377	1.9077753	1.3812224
33.889054752483304	1.9154412	1.3839946
33.907377358845245	1.9129348	1.3830888
33.92570085835853	1.8089827	1.3449843
33.94402525162239	1.8505636	1.3603542
33.96235053923627	1.9987732	1.4137797
33.980676721799824	2.0497196	1.4316841
33.999003799912984	1.9838858	1.4085048
34.01733177417592	1.9421849	1.393623
34.03566064518901	1.9749025	1.4053123
34.0539904135529	1.9663891	1.40228
34.07232107986846	2.0398629	1.4282377
34.090652644736785	2.0369823	1.4272289
34.108985108759235	1.8629714	1.3649071
34.12731847253742	1.8378165	1.3556609
34.14565273667313	1.8365631	1.3551985
34.16398790176847	1.8678154	1.3666804
34.18232396842574	1.9045944	1.3800704
34.20066093724749	2.024676	1.4229112
34.21899880883651	1.9745675	1.4051931
34.23733758379583	2.0093057	1.4174998
34.25567726272874	2.029478	1.4245975
34.27401784623872	1.9685342	1.4030446
34.29235933492957	1.982485	1.4080075
34.31070172940526	2.0587468	1.4348334
34.32904503027003	2.0566404	1.4340992
34.347389238128386	2.0743208	1.4402503
34.36573435358502	2.0437973	1.4296144
34.38408037724492	2.0029821	1.4152675
34.402427309713296	1.9734566	1.4047977
34.42077515159559	1.9142537	1.3835655
34.43912390349752	1.9063723	1.3807144
34.45747356602499	2.0429063	1.4293027
34.47582413978423	2.2036808	1.4844799
34.49417562538163	2.1781225	1.4758464
34.51252802342388	1.9762642	1.4057966
34.53088133451789	1.895192	1.3766598
34.54923555927084	1.9727973	1.4045631
34.567590698290104	1.9148865	1.3837942
34.58594675218336	1.8685921	1.3669646
34.6043037215585	1.9385767	1.3923278
34.62266160702365	2.1991265	1.4829452
34.641020409187234	2.2457933	1.4985971
34.65938012865785	2.1404476	1.4630269
34.677740766044394	2.02342	1.4224697
34.69610232195598	1.927911	1.3884923
34.714464797002016	1.826302	1.3514074
34.73282819179208	1.6693786	1.2920444
34.751192506936064	1.672058	1.2930808
34.76955774304408	1.8074415	1.3444113
34.7879239007265	1.812227	1.3461899
34.80629098059391	1.7795196	1.3339863
34.824658983257194	1.8109431	1.3457129
34.843027909327446	1.8691548	1.3671703
34.86139775941603	1.9457291	1.394894
34.879768534134534	2.1315453	1.4599813
34.89814023409483	2.2391262	1.496371
34.91651285990901	2.150073	1.4663128
34.93488641218944	2.0633926	1.4364514
34.95326089154871	1.9203194	1.3857559
34.97163629859967	1.7396307	1.3189507
34.99001263395542	1.7673662	1.3294232
35.00838989822934	1.7989194	1.341238
35.02676809203499	1.9486194	1.3959296
35.04514721598624	2.0724874	1.4396136
35.063527270697215	1.931603	1.3898212
35.081908256782256	1.7870436	1.3368034
35.10029017485597	1.9587462	1.3995521
35.11867302553321	2.1560218	1.4683398
35.137056809429104	2.108642	1.4521164
35.155441527159006	2.218216	1.4893676
35.173827179338524	2.287828	1.5125568
35.19221376658354	2.068046	1.4380703
35.21060128951017	1.7513075	1.3233697
35.2289897487348	1.5871949	1.2598393
35.24737914487405	1.7932814	1.3391346
35.26576947854479	1.7850729	1.3360662
35.28416075036418	1.6850615	1.2980992
35.30255296094958	1.753971	1.3243757
35.32094611091867	2.067495	1.4378787
35.33934020088932	2.1471584	1.4653186
35.35773523147969	2.1153283	1.4544169
35.3761312033082	2.0632694	1.4364085
35.394528116993506	2.2741761	1.5080372
35.41292597315452	2.4087777	1.5520238
35.431324772410434	2.4340177	1.5601338
35.449724515380666	2.484127	1.5761113
35.46812520268491	2.0963652	1.447883
35.486526834943106	1.8080109	1.344623
35.504929412775454	1.8097934	1.3452857
35.52333293680242	2.0641298	1.436708
35.54173740764471	2.0272686	1.4238218
35.560142825923286	1.6058165	1.2672081
35.5785491922594	1.2325919	1.1102215
35.59695650727454	1.1606016	1.0773122
35.61536477159042	2.228697	1.4928821
