0.008763373481513119	0.43391317	0.65872085
0.026290120649546365	0.55242383	0.7432522
0.043816868432600686	0.5673243	0.7532093
0.06134361724069026	0.5082466	0.71291417
0.07887036748382949	0.33908746	0.58231217
0.0963971195720331	0.22090706	0.4700075
0.11392387391531617	0.14728522	0.38377756
0.1314506309236943	0.21829818	0.4672239
0.1489773910071836	0.18536963	0.43054572
0.16650415457580078	0.21632104	0.46510324
0.18403092203956356	0.16045251	0.40056524
0.20155769380849	0.15648583	0.39558288
0.2190844702925996	0.19204025	0.43822396
0.2366112519019124	0.15992697	0.3999087
0.2541380390464497	0.16898437	0.41107708
0.27166483213623416	0.12875488	0.3588243
0.28919163158128947	0.12374404	0.35177273
0.3067184377916406	0.09426919	0.30703288
0.324245251177314	0.0884577	0.2974184
0.34177207214833777	0.08130764	0.28514495
0.3592989011147415	0.15697275	0.39619786
0.37682573848655654	0.159178	0.39897117
0.39435258467381573	0.14130566	0.37590644
0.41187944008655414	0.07758694	0.27854434
0.42940630513480854	0.117844895	0.34328544
0.446933180228618	0.16276473	0.4034411
0.4644600657780234	0.18621808	0.43152994
0.48198696219306775	0.18960646	0.43543825
0.49951386988379676	0.2129585	0.46147427
0.5170407892602581	0.2257624	0.4751446
0.5345677207325025	0.22093682	0.47003916
0.5520946647105822	0.20436947	0.4520724
0.5696216216045534	0.21152776	0.45992148
0.5871485918244737	0.22094795	0.47005102
0.6046755757804043	0.23236628	0.48204386
0.6222025738824094	0.20970973	0.45794076
0.6397295865405557	0.15947314	0.39934087
0.6572566141649129	0.15373611	0.39209196
0.6747836571655547	0.15268967	0.39075524
0.6923107159525568	0.18416008	0.42913878
0.7098377909359992	0.16026764	0.40033442
0.7273648825259653	0.15713245	0.39639935
0.7448919911325411	0.154151	0.39262068
0.762419117165817	0.17974035	0.42395797
0.7799462610358868	0.20725961	0.45525774
0.7974734231528482	0.24001087	0.48990905
0.8150006039268024	0.2137001	0.46227708
0.8325278037678551	0.20985559	0.45809996
0.8500550230861152	0.21670589	0.4655168
0.8675822622916969	0.1991168	0.44622505
0.8851095217947171	0.19017886	0.436095
0.9026368020052984	0.1813357	0.4258353
0.9201641033335665	0.17080556	0.4132863
0.9376914261896523	0.18781266	0.43337357
0.9552187709836915	0.23010843	0.47969618
0.9727461381258234	0.30020952	0.5479138
0.990273528026193	0.30039954	0.5480872
1.0078009410949496	0.2819928	0.53102994
1.0253283777422473	0.25677767	0.50673234
1.0428558383782454	0.25195742	0.5019536
1.0603833234131086	0.25969824	0.50960594
1.0779108332570058	0.34282428	0.585512
1.0954383683201119	0.41241857	0.64219826
1.112965929012607	0.4262838	0.65290415
1.1304935157446763	0.4817475	0.69408035
1.1480211289265108	0.5114065	0.7151269
1.1655487689683062	1.3527333	1.1630706
1.1830764362802655	1.7355013	1.3173842
1.200604131272596	2.1667886	1.4720016
1.2181318543555117	2.5766509	1.6051949
1.235659605939232	2.5191934	1.5871967
1.253187386433982	4.044078	2.0109892
1.270715196249994	6.232522	2.496502
1.2882430357975057	11.687242	3.4186609
1.3057709054867608	16.577852	4.071591
1.3232988057280106	22.59894	4.7538342
1.3408267369315112	27.692749	5.26239
1.358354699507526	31.443953	5.6074905
1.3758826938663256	35.374172	5.947619
1.3934107204181858	37.21629	6.1005154
1.410938779573391	37.406574	6.1160913
1.4284668717422309	38.051178	6.168564
1.4459949973350033	37.78883	6.147262
1.4635231567620117	38.09435	6.172062
1.4810513504335687	37.430813	6.1180725
1.4985795787599925	36.54403	6.0451655
1.5161078421516088	35.907883	5.9923186
1.5336361410187505	34.87177	5.9052324
1.5511644757717598	35.33818	5.9445925
1.5686928468209842	36.310093	6.0257854
1.58622125457678	37.016674	6.084133
1.6037496994495108	37.747383	6.14389
1.621278181849548	37.066795	6.0882506
1.6388067021872719	37.48038	6.1221223
1.6563352608730693	37.10727	6.0915737
1.673863858317336	36.59221	6.0491495
1.6913924949304753	36.088196	6.007345
1.7089211711228998	34.908962	5.9083805
1.7264498873050296	33.7529	5.8097243
1.7439786438872935	32.654438	5.714406
1.7615074412801288	31.637514	5.6247234
1.779036279893981	31.173998	5.583368
1.796565160139305	30.3569	5.5097094
1.814094082426564	29.89767	5.4678764
1.8316230471662298	29.05849	5.3905926
1.849152054768784	28.317299	5.3214
1.8666811056447168	27.703865	5.2634463
1.8842102002045273	26.938412	5.1902227
1.901739338858724	26.268032	5.1252346
1.9192685220178245	25.477758	5.0475497
1.9367977500923557	25.02865	5.0028644
1.9543270234928547	24.74374	4.974308
1.971856342629867	24.274046	4.92687
1.9893857079139496	23.631582	4.8612328
2.006915119755667	23.115553	4.8078637
2.0244445785655945	22.37604	4.730332
2.0419740847543175	21.881634	4.6777806
2.0595036387324317	21.527617	4.6397862
2.0770332409105414	20.967703	4.5790505
2.094562891699263	20.563028	4.5346475
2.1120925915092217	20.109758	4.4843907
2.129622340751053	19.747639	4.4438314
2.1471521398354043	187.86084	13.706234
2.1646819891729323	444.16296	21.075174
2.182211889174303	440.27194	20.982658
2.1997418402501974	452.69858	21.276714
2.2172718428113023	432.62857	20.799725
2.234801897268317	320.66647	17.907162
2.2523320040319548	17.051167	4.129306
2.269862163512935	16.88614	4.109275
2.287392376121992	16.727852	4.0899696
2.304922642269869	16.380503	4.047283
2.322452962367322	16.190163	4.0237
2.3399833368251164	15.904447	3.9880378
2.357513766054032	15.482032	3.9347212
2.3750442504648586	15.083911	3.883801
2.3925747904683963	14.603695	3.8214781
2.410105386475459	14.612207	3.8225918
2.4276360388968707	14.406206	3.7955508
2.445166748143469	14.149567	3.761591
2.4626975146261025	13.852388	3.7218797
2.4802283387556323	13.7443075	3.7073317
2.4977592209429305	13.532917	3.6787114
2.5152901615988825	13.249438	3.6399777
2.5328211611343865	12.974624	3.6020305
2.5503522199603523	12.62933	3.5537767
2.5678833384877024	12.593656	3.548754
2.5854145171273712	12.37801	3.5182395
2.6029457562903064	12.140044	3.4842565
2.620477056387469	11.917956	3.4522393
2.6380084178298326	11.732079	3.4252121
2.655539841028383	11.551084	3.3986886
2.673071326394119	11.429801	3.3807988
2.6906028743380523	11.109529	3.333096
2.708134485271211	10.90645	3.3024914
2.7256661596046325	10.74076	3.27731
2.743197897749369	10.660719	3.2650757
2.760729700116486	10.561092	3.2497835
2.778261567117063	10.386436	3.2227995
2.795793499162193	10.392032	3.2236674
2.8133254966629817	10.389788	3.2233193
2.830857560030551	10.178582	3.190389
2.8483896896760337	9.970744	3.1576486
2.865921886010578	9.759124	3.1239595
2.883454149445347	9.655546	3.1073375
2.9009864803915177	9.5431	3.089191
2.91851887926028	9.41806	3.0688858
2.9360513464628384	9.414085	3.0682383
2.953583882410413	9.333386	3.0550592
2.9711164875142373	9.22452	3.0371895
2.9886491621855606	9.057979	3.0096476
3.0061819068356455	8.806956	2.9676516
3.023714721875769	8.60997	2.9342752
3.041247607717225	8.475662	2.911299
3.0587805647713213	8.415038	2.9008684
3.0763135934493806	8.346912	2.8891025
3.0938466941627407	8.201875	2.8638916
3.1113798673227544	8.041013	2.8356678
3.1289131133407904	7.9879403	2.8262944
3.1464464326282315	7.9589095	2.8211539
3.1639798255964786	7.930741	2.816157
3.1815132926569443	7.7419615	2.782438
3.1990468342210603	7.4864717	2.7361417
3.216580450700272	7.392826	2.7189753
3.2341141425060416	7.39942	2.7201874
3.251647910049847	7.3835936	2.7172768
3.2691817537431813	7.2959275	2.7010975
3.286715673997555	7.2662954	2.6956067
3.3042496712244938	7.1458845	2.6731787
3.32178374583554	7.1427746	2.672597
3.339317898242251	7.0880623	2.6623416
3.3568521288562034	7.0107884	2.6477892
3.3743864380889876	6.9168973	2.6299994
3.3919208263522127	6.8698897	2.6210475
3.4094552940575023	6.700482	2.5885289
3.4269898416164972	6.6001863	2.5690827
3.444524469440858	6.4717846	2.5439703
3.4620591779422587	6.4476476	2.5392218
3.479593967532391	6.4199677	2.5337656
3.4971288386229658	6.3858767	2.5270293
3.5146637916257086	6.35459	2.520831
3.5321988269523628	6.4002147	2.5298645
3.5497339450146903	6.452446	2.5401666
3.5672691462244708	6.4304276	2.5358288
3.5848044309934988	6.3357825	2.517098
3.60233979973359	6.2626433	2.5025275
3.619875252856575	6.344924	2.5189133
3.6374107907743034	6.484518	2.5464716
3.6549464138986427	6.564237	2.5620768
3.6724821226414788	6.5751677	2.564209
3.690017917414714	6.5213547	2.5536942
3.7075537986302702	6.557565	2.5607743
3.7250897667000857	6.567632	2.5627391
3.7426258220361235	6.615164	2.571996
3.7601619650503553	6.846522	2.616586
3.777698196154779	7.3616977	2.713245
3.7952345157614067	8.5203705	2.9189672
3.8127709242822716	9.395054	3.0651352
3.830307422129425	11.507188	3.3922246
3.847844009714936	30.261673	5.501061
3.8653806874508954	97.712105	9.884943
3.882917455749409	97.00333	9.849027
3.900454315022606	96.940155	9.845819
3.917991265682631	41.44196	6.437543
3.9355283081416506	11.038498	3.3224235
3.9530654428118495	8.744607	2.957128
3.970602670105433	7.4372826	2.7271383
3.9881399904346244	6.5453973	2.5583973
4.005677404211669	6.4817023	2.5459187
4.023214911848827	6.551371	2.5595646
4.0407525137583855	6.599877	2.5690227
4.058290210352644	6.534344	2.5562363
4.075828002043927	6.460182	2.541689
4.0933658892445814	6.3601794	2.5219395
4.110903872366966	6.3230453	2.5145667
4.128441951823468	6.2501774	2.5000355
4.145980128026488	6.240452	2.4980896
4.163518401388452	6.1269517	2.475268
4.181056772321807	6.0764713	2.46505
4.1985952412390155	5.9520288	2.439678
4.216133808552567	6.0385804	2.4573524
4.233672474674966	6.159878	2.48191
4.251211240018741	6.56288	2.561812
4.268750104996445	6.8448615	2.6162686
4.286289070020643	7.7783713	2.788973
4.303828135503928	9.435794	3.0717738
4.3213673018589125	29.704487	5.4501824
4.3389065694982305	90.81276	9.5295725
4.356445938834537	165.9573	12.8824415
4.3739854102805085	171.48367	13.095178
4.391524984248844	172.38979	13.129729
4.409064661152262	136.48825	11.682818
4.426604441403504	96.69168	9.833193
4.444144325415337	75.61192	8.695512
4.461684313600543	21.5855	4.64602
4.47922440637193	21.791985	4.6681886
4.496764604142329	20.185728	4.492853
4.5143049073245916	18.406559	4.2902865
4.531845316331589	16.42421	4.0526795
4.5493858315762195	13.6004715	3.6878817
4.566926453471405	11.35501	3.3697195
4.584467182430081	9.3692465	3.0609224
4.602008018865218	8.177406	2.8596165
4.619548963189798	7.5099206	2.7404234
4.637090015816834	6.9703984	2.6401513
4.654631177159353	6.573333	2.563851
4.672172447630417	6.275065	2.505008
4.689713827643102	6.1556816	2.4810646
4.7072553176105085	6.0404425	2.4577312
4.724796917945764	5.936117	2.4364147
4.742338629062015	5.8499813	2.4186735
4.759880451372434	5.773795	2.4028723
4.777422385290215	5.8072133	2.409816
4.794964431228581	5.7440386	2.3966725
4.812506589600768	5.7479672	2.397492
4.830048860820047	5.726857	2.3930852
4.847591245299709	5.729566	2.3936512
4.8651337434530655	5.7026668	2.3880258
4.882676355693457	5.700835	2.3876421
4.900219082434242	5.6903677	2.3854492
4.917761924088813	5.6501365	2.3770015
4.935304881070575	5.5722866	2.3605692
4.952847953792969	5.5177746	2.3489945
4.970391142669449	5.477364	2.3403769
4.9879344481135055	5.623257	2.3713408
5.005477870538642	5.6324954	2.373288
5.023021410358394	5.614602	2.3695152
5.040565067986324	5.5119405	2.3477523
5.05810884383601	5.498496	2.3448873
5.075652738321066	5.477748	2.3404589
5.09319675185512	5.429701	2.3301718
5.110740884851836	5.4189157	2.3278565
5.128285137724894	5.3503356	2.3130794
5.145829510888007	5.367094	2.316699
5.163374004754908	5.356757	2.314467
5.1809186197393595	5.3488994	2.3127687
5.198463356255145	5.3027096	2.3027613
5.216008214716077	5.29657	2.3014278
5.233553195535998	5.2460957	2.2904358
5.251098299128764	5.332886	2.3093042
5.268643525908272	5.342504	2.3113856
5.286188876288432	5.407366	2.3253744
5.3037343506831895	5.4009986	2.324005
5.32127994950651	5.336653	2.3101196
5.3388256731723915	5.272246	2.296137
5.356371522094851	5.260325	2.2935398
5.373917496687938	5.256515	2.292709
5.391463597365729	5.216766	2.284024
5.40900982454232	5.257471	2.2929175
5.426556178631843	5.318017	2.3060827
5.444102660048449	5.33016	2.308714
5.4616492692063225	5.2358932	2.2882075
5.479196006519669	5.159933	2.2715485
5.496742872402727	5.1490555	2.269153
5.514289867269756	5.2880692	2.2995803
5.531836991535049	5.341567	2.311183
5.549384245612924	5.3338847	2.3095205
5.566931629917724	5.261879	2.2938786
5.584479144863822	5.118256	2.2623563
5.6020267908656205	5.05701	2.2487798
5.619574568337545	5.0372086	2.2443726
5.637122477694054	5.031867	2.2431824
5.654670519349629	4.987647	2.233304
5.672218693718784	4.9951267	2.234978
5.689767001216059	5.0767484	2.253164
5.707315442256021	5.172399	2.2742908
5.724864017253266	5.12741	2.2643785
5.7424127266224225	5.109829	2.260493
5.75996157077814	5.1344695	2.2659369
5.777510550135105	5.163474	2.272328
5.795059665108022	5.146473	2.268584
5.812608916111639	5.066271	2.2508378
5.830158303560715	5.197481	2.2797985
5.847707827870055	5.263637	2.2942617
5.86525748945448	5.3723826	2.31784
5.8828072887288485	5.4919763	2.3434966
5.900357226108044	5.628871	2.3725243
5.917907302006979	5.769703	2.4020207
5.9354575168406	6.3512015	2.520159
5.9530078710238765	6.8876085	2.6244254
5.970558364971812	7.377674	2.7161875
5.988108999099438	7.7563934	2.7850301
6.005659773821818	8.324216	2.8851717
6.023210689554039	8.078953	2.8423498
6.040761746711227	8.470113	2.9103458
6.058312945708531	7.7541895	2.7846346
6.075864286961132	7.2919393	2.700359
6.093415770884244	6.669701	2.5825765
6.1109673978931065	6.140007	2.4779038
6.128519168402993	5.5874853	2.3637862
6.146071082829204	5.4759283	2.3400702
6.163623141587075	5.3544407	2.3139665
6.181175345091969	5.273433	2.2963958
6.198727693759281	5.1779985	2.2755215
6.216280188004435	5.118667	2.262447
6.233832828242885	5.0908475	2.2562907
6.251385614890126	5.1523523	2.2698793
6.268938548361669	5.1430507	2.2678294
6.286491629073067	5.1140194	2.2614198
6.304044857439898	5.114663	2.261562
6.321598233877777	5.090661	2.2562494
6.339151758802344	5.0990143	2.2580998
6.356705432629277	5.047415	2.2466452
6.37425925577428	4.991764	2.2342255
6.391813228653095	5.0339274	2.2436416
6.409367351681486	5.015515	2.2395346
6.426921625275259	5.0041738	2.2370012
6.44447604985025	4.977444	2.2310185
6.46203062582232	4.908418	2.215495
6.47958535360737	4.8982325	2.213195
6.497140233621328	4.864503	2.2055619
6.514695266280161	4.9662175	2.228501
6.532250451999859	5.0753403	2.2528515
6.549805791196454	5.1124897	2.2610815
6.567361284286002	5.106919	2.2598493
6.584916931684597	5.0648503	2.2505221
6.602472733808367	5.0677166	2.251159
6.6200286910734665	5.097112	2.2576785
6.637584803896092	5.085288	2.2550583
6.655141072692462	5.109268	2.260369
6.672697497878842	5.1246266	2.263764
6.690254079871514	5.0569263	2.248761
6.707810819086808	5.0212245	2.240809
6.725367715941078	5.016425	2.2397377
6.742924770850719	5.0230966	2.2412267
6.760481984232151	5.0600057	2.2494457
6.778039356501836	5.006392	2.2374969
6.795596888076266	4.986609	2.2330716
6.813154579371963	4.986131	2.2329648
6.830712430805492	4.968299	2.2289681
6.84827044279344	4.947774	2.2243593
6.865828615752445	4.9294066	2.2202268
6.883386950099159	4.909717	2.2157881
6.900945446250287	5.023194	2.2412484
6.918504104622553	5.0143027	2.2392638
6.936062925632727	5.0232162	2.2412534
6.953621909697607	5.0010557	2.236304
6.971181057234028	5.0733604	2.252412
6.988740368658859	5.147814	2.2688794
7.006299844389007	5.267758	2.2951596
7.023859484841407	5.340424	2.3109357
7.041419290433036	5.400971	2.323999
7.058979261580902	5.481053	2.3411648
7.0765393987020495	5.7011123	2.3877003
7.094099702213559	6.053682	2.460423
7.111660172532549	6.403696	2.5305526
7.129220810076164	6.7634516	2.6006637
7.146781615261595	7.411721	2.7224476
7.16434258850606	7.6789727	2.771096
7.181903730226821	8.07057	2.840875
7.1994650408411704	8.100326	2.846107
7.217026520766437	8.252597	2.8727334
7.234588170419983	8.559705	2.9256973
7.252149990219215	8.552382	2.9244456
7.269711980581568	8.46515	2.909493
7.2872741419245175	8.254232	2.873018
7.304836474665574	7.8349094	2.7990909
7.322398979222286	7.5163937	2.7416043
7.339961656012233	7.2194448	2.6869025
7.357524505453039	6.8553867	2.6182795
7.375087527962357	6.623638	2.573643
7.392650723957886	6.2891474	2.5078173
7.410214093857353	5.9193482	2.432971
7.427777638078528	5.6684637	2.3808537
7.445341357039213	5.544013	2.3545728
7.4629052511572525	5.4542823	2.3354404
7.480469320850524	5.377487	2.3189409
7.498033566536948	5.26379	2.294295
7.5155979886344735	5.193626	2.2789528
7.5331625875610975	5.21521	2.2836835
7.550727363734844	5.239624	2.2890224
7.568292317573788	5.2010317	2.280577
7.585857449496025	5.151901	2.26978
7.603422759919705	5.1963687	2.2795546
7.620988249263007	5.2280993	2.2865038
7.638553917944147	5.3203874	2.3065965
7.656119766381391	5.3136687	2.3051395
7.673685794993023	5.2853065	2.2989795
7.691252004197388	5.2599783	2.2934642
7.70881839441285	5.2248974	2.2858036
7.726384966057826	5.2401524	2.2891378
7.743951719550762	5.2207365	2.284893
7.761518655310149	5.281725	2.2982004
7.779085773754511	5.3170323	2.305869
7.796653075302419	5.2690935	2.2954507
7.814220560372475	5.2793584	2.2976854
7.831788229383323	5.325992	2.307811
7.8493560827536495	5.4274306	2.3296847
7.866924120902174	5.4136376	2.3267226
7.884492344247663	5.3621716	2.3156364
7.9020607532089135	5.3346405	2.309684
7.919629348204771	5.372862	2.3179436
7.937198129654115	5.439889	2.332357
7.954767097975865	5.4854374	2.342101
7.972336253588986	5.436398	2.3316085
7.989905596912472	5.450422	2.3346138
8.007475128365371	5.46058	2.3367884
8.025044848366756	5.492586	2.3436267
8.042614757335754	5.5917935	2.3646975
8.060184855691523	5.66341	2.379792
8.07775514385327	5.773968	2.4029083
8.095325622240228	5.8168774	2.4118204
8.112896291271687	5.904205	2.429857
8.130467151366968	5.9912057	2.447694
8.148038202945436	6.057278	2.4611537
8.165609446426497	5.9687266	2.4430978
8.183180882229594	5.9231863	2.4337597
8.200752510774217	5.8502626	2.4187317
8.218324332479893	5.887725	2.4264634
8.235896347766193	5.9790664	2.4452128
8.253468557052724	6.0298214	2.4555695
8.27104096075914	5.9970193	2.4488811
8.288613559305137	6.0474	2.4591463
8.306186353110448	6.144112	2.4787319
8.32375934259485	6.2090607	2.4917986
8.341332528178162	6.2122293	2.4924345
8.358905910280246	6.2046356	2.4909105
8.376479489321003	6.220172	2.4940271
8.394053265720377	6.238052	2.4976091
8.411627239898356	6.3393445	2.5178056
8.42920141227497	6.307555	2.5114846
8.44677578327029	6.324845	2.5149245
8.464350353304427	6.227147	2.4954252
8.48192512279754	6.1888056	2.487731
8.499500092169827	6.1661124	2.4831657
8.51707526184153	6.233073	2.4966123
8.534650632232934	6.2302713	2.496051
8.552226203764365	6.2647967	2.5029576
8.569801976856192	6.244067	2.4988132
8.587377951928834	6.239101	2.4978192
8.60495412940274	6.2663937	2.5032766
8.622530509698416	6.3666325	2.5232186
8.6401070932364	6.4275017	2.5352519
8.657683880437283	6.5025706	2.5500138
8.675260871721695	6.5859847	2.5663173
8.692838067510303	6.7610784	2.6002073
8.710415468223834	7.010426	2.6477208
8.727993074283043	7.2662473	2.6955976
8.745570886108737	7.325714	2.7066057
8.763148904121765	7.3549128	2.7119942
8.78072712874302	7.292031	2.700376
8.798305560393441	7.518315	2.7419546
8.815884199494006	7.6338825	2.7629483
8.833463046465745	7.8386292	2.799755
8.851042101729728	7.943886	2.81849
8.86862136570707	8.236105	2.8698616
8.886200838818924	8.411025	2.9001768
8.903780521486505	8.462657	2.9090645
8.921360414131055	8.543691	2.9229593
8.938940517173874	8.61927	2.9358594
8.956520831036297	8.77633	2.9624872
8.97410135613971	9.034681	3.0057747
8.99168209290554	9.154203	3.0255914
9.009263041755265	9.446429	3.0735044
9.026844203110405	9.71902	3.1175342
9.044425577392525	10.013311	3.1643817
9.062007165023239	10.191476	3.192409
9.079588966424197	10.456589	3.233665
9.097170982017108	10.536166	3.2459462
9.11475321222372	11.477178	3.3877983
9.132335657465825	12.3456745	3.513641
9.149918318165264	12.446888	3.5280147
9.167501194743924	12.997849	3.605253
9.18508428762374	12.593716	3.5487626
9.202667597226693	12.4984	3.5353076
9.220251123974803	12.154099	3.486273
9.237834868290143	11.936948	3.4549887
9.255418830594836	11.84689	3.4419312
9.273003011311046	11.349563	3.3689113
9.290587410860985	11.005812	3.3175008
9.308172029666911	10.3376875	3.2152274
9.32575686815113	10.125807	3.1821072
9.343341926735997	8.974938	2.99582
9.360927205843916	8.719291	2.9528446
9.378512705897327	8.473939	2.911003
9.396098427318728	8.281398	2.8777418
9.413684370530664	8.137532	2.852636
9.431270535955722	8.030816	2.8338695
9.448856924016539	7.9453516	2.81875
9.466443535135806	7.8585935	2.8033183
9.484030369736251	7.884096	2.8078632
9.501617428240658	7.85116	2.8019922
9.519204711071852	7.840069	2.8000124
9.536792218652714	7.854236	2.802541
9.55437995140617	7.899841	2.8106656
9.571967909755191	7.8552127	2.8027153
9.589556094122802	7.920048	2.814258
9.60714450493207	7.921772	2.8145642
9.624733142606116	7.9414606	2.8180597
9.642322007568108	7.992222	2.8270519
9.659911100241267	8.104003	2.8467531
9.677500421048851	8.124047	2.8502715
9.695089970414175	8.122217	2.8499503
9.712679748760609	8.116587	2.8489623
9.730269756511557	8.199051	2.8633986
9.747859994090492	8.337575	2.887486
9.765450461920915	8.345923	2.8889313
9.78304116042639	8.376112	2.8941514
9.800632090030527	8.36293	2.8918731
9.81822325115699	8.393752	2.8971972
9.835814644229481	8.325902	2.885464
9.853406269671762	8.2416525	2.870828
9.870998127907646	8.212105	2.865677
9.888590219360985	8.217831	2.8666759
9.906182544455698	8.31213	2.8830764
9.923775103615734	8.3217535	2.884745
9.941367897265108	8.216852	2.8665051
9.958960925827878	8.239563	2.8704638
9.97655418972816	8.186352	2.86118
9.994147689390106	8.184261	2.8608148
10.011741425237934	8.238897	2.870348
10.029335397695904	8.323421	2.8850338
10.04692960718833	8.446064	2.9062114
10.06452405413958	8.429008	2.9032753
10.082118738974064	8.353968	2.8903232
10.099713662116246	8.276257	2.8768485
10.117308823990651	8.248459	2.872013
10.134904225021844	8.265294	2.8749425
10.152499865634445	8.238641	2.8703032
10.170095746253125	8.206307	2.8646653
10.18769186730261	8.184651	2.860883
10.205288229207675	8.191992	2.8621657
10.222884832393145	8.173774	2.8589811
10.2404816772839	8.173936	2.8590095
10.258078764304868	8.1634445	2.8571742
10.275676093881035	8.111217	2.8480198
10.293273666437438	8.1093645	2.8476946
10.310871482399158	8.156746	2.8560019
10.32846954219134	8.19957	2.8634892
10.346067846239173	8.187485	2.8613782
10.363666394967908	8.16766	2.8579118
10.38126518880283	8.239994	2.870539
10.398864228169298	8.281669	2.8777888
10.416463513492713	8.279683	2.8774438
10.434063045198531	8.24571	2.8715346
10.451662823712262	8.22132	2.8672845
10.469262849459467	8.310961	2.8828738
10.486863122865758	8.238821	2.8703346
10.504463644356806	8.177682	2.8596647
10.522064414358338	8.041699	2.835789
10.539665433296118	7.969373	2.8230078
10.557266701595987	7.8849354	2.8080127
10.574868219683818	7.765576	2.7866783
10.592469987985552	7.713811	2.7773747
10.610072006927185	7.57102	2.7515488
10.627674276934751	7.53697	2.7453542
10.64527679843435	7.4347687	2.7266772
10.662879571852143	7.355971	2.7121892
10.680482597614331	7.2340517	2.6896193
10.698085876147173	7.142217	2.6724927
10.715689407876988	7.000741	2.6458914
10.733293193230146	6.911335	2.6289418
10.750897232633072	6.7900443	2.6057713
10.76850152651225	6.7049203	2.589386
10.786106075294207	6.630131	2.574904
10.803710879405534	6.5767903	2.5645254
10.821315939272877	6.4730067	2.5442104
10.83892125532294	6.4094644	2.531692
10.856526827982472	6.300391	2.510058
10.874132657678285	6.3533144	2.5205781
10.891738744837243	6.309278	2.5118277
10.909345089886271	6.3108788	2.5121462
10.926951693252343	6.301085	2.5101962
10.944558555362494	6.216999	2.493391
10.96216567664381	6.103367	2.4704993
10.979773057523436	5.995773	2.4486268
10.997380698428573	5.9500256	2.4392674
11.014988599786477	5.841011	2.4168184
11.032596762024461	5.7821016	2.4046001
11.050205185569892	5.641584	2.375202
11.067813870850198	5.5888405	2.3640728
11.085422818292859	5.57602	2.3613598
11.10303202832541	5.559242	2.3578045
11.120641501375454	5.55939	2.3578358
11.138251237870636	5.4195933	2.328002
11.155861238238671	5.289076	2.2997992
11.173471502907317	5.180597	2.2760925
11.191082032304402	5.144891	2.2682352
11.208692826857805	5.1465964	2.2686112
11.226303886995465	5.0222125	2.2410293
11.243915213145371	4.976732	2.230859
11.261526805735578	4.8924236	2.2118824
11.279138665194196	4.951968	2.2253017
11.296750791949393	4.9321737	2.2208498
11.314363186429393	4.8749204	2.2079222
11.331975849062479	4.8269143	2.1970239
11.34958878027699	4.7487545	2.1791637
11.36720198050133	4.69835	2.1675677
11.384815450163948	4.6430373	2.1547709
11.402429189693366	4.60838	2.1467137
11.420043199518153	4.557554	2.1348429
11.437657480066942	63.504143	7.968949
11.455272031768422	85.209946	9.230924
11.472886855051353	107.60684	10.373372
11.490501950344528	99.18651	9.959243
11.508117318076819	84.5209	9.193524
11.52573295867715	45.85571	6.771684
11.543348872574514	4.177792	2.0439649
11.560965060197946	4.1301837	2.0322855
11.57858152197655	4.0976386	2.0242624
11.59619825833949	4.026807	2.0066905
11.613815269715985	3.9805002	1.9951191
11.631432556535323	38.5003	6.204861
11.649050119226837	83.085	9.115097
11.666667958219929	93.48174	9.668595
11.68428607394406	107.74353	10.379958
11.701904466828756	82.55365	9.085904
11.719523137303586	65.4161	8.088022
11.737142085798196	4.636316	2.1532106
11.754761312742286	3.703201	1.9243703
11.772380818565619	3.6365151	1.9069649
11.790000603698015	3.6105392	1.9001418
11.80762066856935	3.5714915	1.889839
11.825241013609572	3.5434792	1.8824131
11.842861639248683	3.5177286	1.8755609
11.860482545916748	3.5000868	1.8708519
11.878103734043883	3.5157776	1.8750407
11.895725204060282	3.462578	1.8608004
11.91334695639619	3.4338784	1.8530726
11.930968991481919	3.386728	1.8403065
11.948591309747824	3.385179	1.8398856
11.966213911624347	3.3675184	1.8350799
11.98383679754198	3.3648329	1.8343481
12.001459967931268	3.3541129	1.8314238
12.019083423222835	3.3626814	1.8337616
12.036707163847352	3.3359826	1.8264673
12.05433119023556	3.2802277	1.8111398
12.071955502818259	3.2626302	1.8062752
12.089580102026313	3.246907	1.8019176
12.107204988290643	3.226921	1.7963632
12.12483016204224	3.1986327	1.7884722
12.142455623712152	3.1227567	1.7671324
12.16008137373149	3.0913842	1.7582333
12.177707412531431	3.0528626	1.7472444
12.19533374054321	3.046633	1.7454606
12.212960358198126	3.033926	1.7418169
12.230587265927545	3.0460238	1.7452862
12.248214464162889	3.0220714	1.7384106
12.265841953335649	3.0263383	1.7396374
12.283469733877375	3.008548	1.7345166
12.301097806219685	3.0143518	1.7361889
12.31872617079425	2.993514	1.7301775
12.336354828032825	2.9745452	1.724687
12.353983778367205	2.9268348	1.7107995
12.371613022229262	2.9272134	1.7109101
12.389242560050928	2.948892	1.7172339
12.406872392264201	3.0017414	1.7325535
12.424502519301143	2.9375393	1.7139251
12.442132941593874	2.8766813	1.6960782
12.459763659574586	2.8415856	1.6857003
12.477394673675532	2.8210478	1.6795975
12.49502598432903	2.809074	1.6760292
12.51265759196746	2.8176513	1.6785861
12.530289497023267	2.849381	1.6880109
12.547921699928967	2.8708067	1.6943455
12.565554201117134	2.8972912	1.7021431
12.583187001020404	2.8829484	1.6979247
12.600820100071486	2.8338487	1.6834038
12.618453498703152	2.7963922	1.6722417
12.636087197348235	2.7842426	1.668605
12.65372119643964	2.7960968	1.6721534
12.671355496410326	2.8275528	1.6815329
12.68899009769333	2.8508651	1.6884505
12.706625000721749	2.908447	1.7054169
12.724260205928752	2.9553607	1.7191162
12.741895713747551	2.9899197	1.7291384
12.759531524611454	2.9931333	1.7300674
12.777167638953818	3.0023549	1.7327305
12.794804057208072	3.0008147	1.732286
12.812440779807702	3.0568278	1.7483786
12.830077807186271	3.2163873	1.7934289
12.847715139777405	3.2646217	1.8068265
12.865352778014795	3.4545078	1.8586307
12.882990722332197	3.608491	1.8996029
12.90062897316344	3.7281728	1.9308476
12.918267530942412	3.861495	1.9650687
12.935906396103071	3.7581077	1.938584
12.953545569079449	3.894479	1.9734434
12.971185050305628	3.6597488	1.913047
12.988824840215775	3.6539104	1.9115205
13.006464939244115	3.651662	1.9109323
13.024105347824943	3.4906583	1.8683304
13.041746066392617	3.5407786	1.8816956
13.05938709538157	3.3412867	1.8279186
13.077028435226296	3.311634	1.8197895
13.094670086361363	3.2227633	1.7952056
13.112312049221401	3.1472754	1.7740562
13.129954324241112	3.089849	1.7577966
13.147596911855258	2.9231064	1.7097094
13.165239812498685	2.9266653	1.71075
13.182883026606293	2.8450923	1.6867402
13.200526554613058	2.7652552	1.6629057
13.218170396954017	2.731097	1.6526031
13.235814554064284	2.7547574	1.6597462
13.253459026379034	2.7734623	1.6653715
13.271103814333523	2.7496326	1.6582016
13.288748918363058	2.7341876	1.6535379
13.306394338903031	2.696711	1.6421666
13.32404007638889	2.6533082	1.6288978
13.341686131256164	2.6704369	1.6341472
13.359332503940449	2.6552455	1.6294924
13.376979194877402	2.7160735	1.6480514
13.394626204502751	2.7490532	1.6580269
13.412273533252307	2.7872481	1.6695054
13.429921181561937	2.7813976	1.6677523
13.447569149867581	2.7641704	1.6625794
13.465217438605247	2.7452674	1.6568848
13.482866048211022	2.7244937	1.650604
13.500514979121052	2.6726782	1.6348327
13.518164231771568	2.637088	1.6239114
13.535813806598844	2.6354525	1.6234077
13.553463704039254	2.648185	1.6273245
13.571113924529229	2.665134	1.6325238
13.588764468505275	2.6872513	1.6392838
13.606415336403956	2.722807	1.650093
13.624066528661917	2.7200153	1.6492469
13.641718045715882	2.7784505	1.6668684
13.659369888002635	2.8377125	1.6845511
13.67702205595903	2.9257843	1.7104924
13.694674550021993	3.0151417	1.7364163
13.712327370628532	3.0944984	1.7591187
13.729980518215713	3.2011147	1.7891659
13.747633993220681	3.2618883	1.8060699
13.765287796080647	3.290796	1.8140551
13.7829419272329	3.3173614	1.8213625
13.800596387114801	3.3336794	1.8258367
13.818251176163775	3.3297515	1.8247607
13.835906294817324	3.3879464	1.8406374
13.853561743513023	3.4794507	1.8653286
13.871217522688525	3.4997165	1.8707529
13.888873632781538	3.451462	1.8578111
13.906530074229858	3.4617493	1.8605777
13.92418684747135	3.4953558	1.8695871
13.941843952943948	3.4777017	1.8648597
13.959501391085665	3.4451962	1.8561239
13.977159162334578	3.38249	1.8391547
13.994817267128846	3.3446145	1.8288287
14.012475705906693	3.289074	1.8135804
14.030134479106424	3.2682006	1.8078165
14.047793587166414	3.2116013	1.7920941
14.065453030525108	3.1440701	1.7731526
14.083112809621026	3.0579493	1.7486993
14.100772924892766	2.9582987	1.7199706
14.118433376778997	2.907535	1.7051495
14.136094165718458	2.8824086	1.6977658
14.153755292149969	2.871872	1.6946598
14.171416756512416	2.771742	1.664855
14.189078559244768	2.66965	1.6339064
14.20674070078606	2.584129	1.6075226
14.224403181575408	2.577486	1.605455
14.242066002051999	2.5515428	1.5973549
14.259729162655093	2.5258572	1.5892946
14.277392663824022	2.4844768	1.5762223
14.295056505998208	2.472163	1.5723114
14.312720689617128	2.442497	1.562849
14.330385215120348	2.436007	1.5607713
14.348050082947497	2.4141614	1.5537572
14.3657152935383	2.3967922	1.5481577
14.383380847332528	2.400435	1.5493337
14.401046744770051	2.4091923	1.5521573
14.418712986290798	2.4592016	1.5681841
14.436379572334793	2.491413	1.5784211
14.454046503342123	2.4584699	1.5679508
14.471713779752946	2.3893197	1.5457424
14.489381402007504	2.3584192	1.5357145
14.507049370546113	2.4141667	1.5537589
14.524717685809168	2.443271	1.5630965
14.542386348237134	2.4395964	1.5619208
14.560055358270553	2.411581	1.5529267
14.577724716350051	2.4277203	1.5581143
14.595394422916325	2.4257307	1.5574758
14.61306447841015	2.4895701	1.5778372
14.63073488327237	2.4869275	1.5769995
14.648405637943917	2.5404978	1.5938939
14.6660767428658	2.4992733	1.580909
14.683748198479094	2.5154073	1.5860035
14.701420005224954	2.5634975	1.6010926
14.719092163544628	2.6729207	1.6349069
14.73676467387942	2.7246776	1.6506597
14.754437536670727	2.7379024	1.6546608
14.772110752360014	2.7220812	1.6498731
14.78978432138882	2.730237	1.6523429
14.807458244198777	2.7683446	1.6638343
14.82513252123159	2.7277288	1.6515838
14.842807152929028	2.7287345	1.6518881
14.860482139732962	2.6793616	1.6368755
14.87815748208531	2.6701965	1.6340736
14.8958331804281	2.6706297	1.6342062
14.91350923520342	2.6419864	1.6254188
14.931185646853438	2.6651437	1.6325268
14.948862415820408	2.6501367	1.6279241
14.966539542546656	2.7017126	1.6436887
14.98421702747459	2.678877	1.6367276
15.001894871046696	2.691008	1.6404293
15.019573073705542	2.6665874	1.6329689
15.037251635893766	2.675075	1.6355656
15.054930558054092	2.714942	1.647708
15.072609840629323	2.7822034	1.6679938
15.090289484062351	2.9384534	1.7141918
15.107969488796124	3.218048	1.7938919
15.125649855273691	3.619761	1.9025669
15.14333058393817	4.1209183	2.0300045
15.161011675232768	5.0587125	2.2491581
15.17869312960076	6.380501	2.5259652
15.196374947485506	8.166632	2.8577318
15.214057129330447	11.278004	3.358274
15.231739675579114	15.923367	3.9904094
15.249422586675102	21.048273	4.5878396
15.267105863062092	24.176233	4.9169335
15.284789505183847	24.514166	4.951178
15.302473513484218	22.525496	4.7461033
15.320157888407127	18.948042	4.352935
15.337842630396578	14.868504	3.85597
15.355527739896656	11.51815	3.39384
15.37321321735153	8.986238	2.9977055
15.39089906320545	6.5466094	2.5586343
15.408585277902748	4.9117193	2.21624
15.42627186188783	3.7572658	1.9383668
15.443958815605198	3.2073548	1.7909089
15.461646139499424	2.9039736	1.7041049
15.479333834015168	2.7558327	1.6600701
15.497021899597165	2.68805	1.6395274
15.514710336690234	2.670352	1.6341212
15.53239914573928	2.6399946	1.624806
15.550088327189297	2.5556896	1.5986525
15.567777881485336	2.4742572	1.5729772
15.58546780907256	2.4548187	1.5667862
15.6031581103962	2.4552715	1.5669307
15.620848785901568	2.4410768	1.5623945
15.638539836034063	2.4672399	1.570745
15.656231261239173	2.4937506	1.5791614
15.673923061962451	2.5067456	1.5832705
15.691615238649552	2.4992218	1.5808927
15.709307791746202	2.490206	1.5780387
15.727000721698221	2.4646366	1.5699161
15.744694028951498	2.4015372	1.5496894
15.76238771395202	2.3771892	1.5418136
15.780081777145844	2.347464	1.5321436
15.797776218979125	2.3656979	1.5380825
15.815471039898094	2.347595	1.5321864
15.833166240349064	2.3867803	1.5449208
15.850861820778437	2.3462226	1.5317384
15.868557781632699	2.33104	1.5267743
15.886254123358412	2.3168283	1.5221131
15.903950846402232	2.343109	1.5307217
15.921647951210897	2.3806539	1.5429368
15.939345438231225	2.437135	1.5611326
15.957043307910133	2.4392004	1.5617939
15.974741560694602	2.4313617	1.5592824
15.992440197031714	2.395355	1.5476935
16.01013921736862	2.4175334	1.5548419
16.02783862215259	2.4185858	1.5551803
16.045538411830933	2.3901827	1.5460216
16.06323858685107	2.35514	1.5346465
16.080939147660512	2.3232398	1.5242177
16.09864009470684	2.36533	1.5379629
16.11634142843774	2.389893	1.5459279
16.134043149300954	2.4152076	1.5540938
16.15174525774433	2.4391284	1.5617709
16.169447754215817	2.4355762	1.5606333
16.18715063916342	2.435852	1.5607216
16.204853913035244	2.4413135	1.5624703
16.222557576279478	2.456187	1.5672227
16.240261629344403	22.44885	4.738022
16.257966072678386	42.94928	6.55357
16.275670906729868	38.072975	6.17033
16.293376131947387	2.4998946	1.5811055
16.31108174877957	2.5329075	1.591511
16.328787757675133	2.5525396	1.597667
16.34649415908287	2.5743928	1.6044915
16.364200953451657	2.602423	1.6132027
16.38190814123048	2.649967	1.6278719
16.39961572286839	2.6910112	1.6404302
16.41732369881455	2.7359703	1.6540768
16.43503206951817	2.7625978	1.6621064
16.45274083542859	2.7833185	1.668328
16.47044999699522	2.8250964	1.6808023
16.488159554667558	2.8505254	1.6883498
16.505869508895184	2.8822417	1.6977166
16.523579860127786	2.9207504	1.7090203
16.541290608815117	2.9302979	1.7118113
16.559001755407035	2.999475	1.7318993
16.57671330035348	3.103019	1.7615389
16.59442524410448	3.159312	1.7774453
16.61213758711015	3.1805954	1.7834224
16.629850329820705	3.242322	1.8006449
16.647563472686436	3.2905872	1.8139976
16.665277016157724	3.3471897	1.8295326
16.682990960685053	3.397291	1.8431741
16.70070530671898	3.4659894	1.8617167
16.718420054710155	3.5076313	1.8728671
16.736135205109335	3.5242112	1.8772882
16.753850758367335	3.5234628	1.8770889
16.771566714935087	3.6131542	1.9008299
16.789283075263597	3.725754	1.9302212
16.80699983980398	3.8323476	1.9576383
16.82471700900741	3.8828657	1.9704988
16.84243458332518	3.95912	1.9897537
16.860152563208665	4.017169	2.0042877
16.87787094910932	4.0424366	2.0105813
16.89558974147871	4.07185	2.0178826
16.913308940768466	4.1194134	2.0296338
16.931028547430333	4.2216535	2.0546663
16.94874856191613	4.3257413	2.0798416
16.966468984677785	4.4038067	2.0985248
16.98418981616729	4.451373	2.1098278
17.00191105683676	4.523368	2.126821
17.019632707138374	4.5279264	2.1278925
17.03735476752442	4.578785	2.1398096
17.05507723844728	4.589939	2.1424143
17.072800120359403	4.6416755	2.1544547
17.090523413713353	4.6800857	2.1633506
17.108247118961785	4.714967	2.1713974
17.125971236557437	4.7436237	2.1779861
17.143695766953133	4.6714773	2.16136
17.161420710601806	4.633869	2.1526425
17.179146067956477	4.6406865	2.1542253
17.19687183947025	4.6783185	2.1629422
17.21459802559634	4.710602	2.170392
17.232324626788028	4.732655	2.1754665
17.25005164349871	4.7319202	2.1752977
17.267779076181863	4.704256	2.1689298
17.285506925291074	4.622463	2.1499915
17.30323519127999	4.5493245	2.1329145
17.320963874602384	4.565431	2.136687
17.33869297571211	4.6200285	2.1494253
17.356422495063114	4.6235685	2.1502485
17.37415243310944	4.6134725	2.1478996
17.391882790305218	4.540175	2.1307685
17.40961356710468	4.5090475	2.1234517
17.42734476396215	4.508708	2.1233718
17.445076381332044	4.521385	2.126355
17.462808419668868	4.588131	2.1419923
17.48054087942723	4.686343	2.1647964
17.498273761061835	4.925056	2.2192466
17.51600706502747	5.411959	2.326362
17.533740791779024	6.1711483	2.4841795
17.551474941771485	7.614465	2.759432
17.56920951545993	8.743906	2.9570096
17.586944513299528	10.96653	3.3115752
17.60467993574556	12.663276	3.5585496
17.622415783253373	14.304777	3.7821658
17.64015205627843	15.676341	3.959336
17.657888755276293	16.807468	4.0996914
17.675625880702604	17.266518	4.1553
17.69336343301311	17.065697	4.131065
17.71110141266366	16.218811	4.0272584
17.728839820110178	15.195652	3.89816
17.746578655808705	14.212243	3.769913
17.764317920215372	12.743915	3.569862
17.7820576137864	11.335121	3.3667672
17.79979773697811	9.39029	3.064358
17.81753829024692	7.5406284	2.7460206
17.835279274049356	5.871677	2.4231544
17.85302068884201	4.885689	2.2103593
17.870762535081607	4.2872615	2.0705702
17.888504813224934	3.945342	1.9862885
17.90624752372891	3.7581966	1.9386069
17.923990667050536	3.6317153	1.9057059
17.941734243646895	3.5511773	1.8844568
17.959478253975185	3.5105648	1.8736501
17.9772226984927	3.488381	1.8677207
17.994967577656833	3.4589808	1.8598336
18.01271289192506	3.4109883	1.8468862
18.030458641754965	3.391042	1.8414782
18.04820482760425	3.3745143	1.8369851
18.06595144993067	3.3143613	1.8205388
18.083698509192125	3.2703016	1.8083975
18.101446005846576	3.2453842	1.801495
18.119193940352105	3.2644532	1.8067797
18.136942313166887	3.2629325	1.8063589
18.1546911247492	3.2625077	1.8062413
18.1724403755574	3.2285671	1.7968214
18.19019006604997	3.1863286	1.785029
18.207940196685467	3.1438882	1.7731013
18.225690767922575	3.1000402	1.7606931
18.243441780220046	3.0819156	1.7555386
18.261193234036764	3.078424	1.7545438
18.278945129831676	3.092319	1.758499
18.29669746806386	3.1228993	1.7671727
18.314450249192483	3.1058803	1.7623508
18.3322034736768	3.0653162	1.7508044
18.349957141976184	3.0224063	1.7385069
18.3677112545501	3.0472996	1.7456516
18.385465811858108	3.0596147	1.7491754
18.403220814359884	3.0767324	1.7540617
18.420976262515172	3.1157088	1.7651371
18.43873215678387	3.1851995	1.7847127
18.456488497625923	3.2093651	1.79147
18.474245285501407	3.2985406	1.8161885
18.492002520870486	3.365591	1.8345547
18.50976020419343	3.4477665	1.8568163
18.527518335930615	3.717805	1.928161
18.545276916542516	4.271513	2.0667639
18.563035946489688	4.4275765	2.1041808
18.580795426232832	4.8909345	2.2115457
18.598555356232698	4.784077	2.1872532
18.616315736950185	5.084254	2.254829
18.63407656884626	4.7569084	2.1810338
18.65183785238201	4.9992247	2.2358947
18.669599588018617	4.7838516	2.1872017
18.68736177621737	4.7448835	2.1782753
18.705124417439652	4.6753416	2.1622539
18.72288751214696	4.433578	2.1056063
18.740651060800886	4.5680203	2.1372929
18.758415063863115	4.3391175	2.0830548
18.77617952179546	4.530284	2.1284463
18.793944435059814	4.2890253	2.0709963
18.811709804118184	4.3018403	2.0740879
18.829475629432675	4.2889557	2.0709794
18.8472419114655	4.0528865	2.013178
18.86500865067897	4.1550536	2.038395
18.88277584753551	3.862355	1.9652876
18.90054350249763	3.911329	1.977708
18.918311616027957	3.5292184	1.8786215
18.936080188589226	3.3746078	1.8370105
18.953849220644265	3.0089307	1.734627
18.971618712656007	2.854342	1.6894798
18.9893886650875	2.8401558	1.6852762
19.007159078401887	8.030423	2.8338
19.024929953062408	32.9179	5.7374125
19.042701289532435	32.862797	5.7326083
19.060473088275405	25.412733	5.0411043
19.07824534975489	2.6623855	1.6316818
19.096018074434568	2.5891016	1.6090685
19.113791262778197	2.5614479	1.6004524
19.13156491524966	2.587162	1.6084658
19.149339032312945	2.6061895	1.6143696
19.167113614432136	2.573716	1.6042805
19.184888662071433	2.5466347	1.5958179
19.202664175695123	2.526581	1.5895222
19.220440155767623	2.527003	1.589655
19.238216602753447	2.5484219	1.5963777
19.2559935171172	2.5140572	1.5855778
19.27377089932361	2.5109808	1.5846075
19.291548749837514	2.5047443	1.5826384
19.309327069123835	2.5374234	1.5929291
19.32710585764763	2.5258775	1.589301
19.344885115874032	2.4859087	1.5766765
19.362664844268313	2.4537044	1.5664304
19.380445043295822	2.416206	1.554415
19.39822571342203	2.4371266	1.5611299
19.41600685511252	2.4874	1.5771494
19.43378846883297	2.4889724	1.5776478
19.451570555049173	2.4688342	1.5712525
19.469353114227037	2.4925976	1.5787963
19.48713614683254	2.5132146	1.5853121
19.50491965333182	2.496989	1.5801864
19.52270363419109	2.4833274	1.5758576
19.540488089876686	2.5206835	1.587666
19.55827302085503	2.5384521	1.5932521
19.576058427592674	2.5440114	1.5949957
19.593844310556282	2.5273473	1.5897633
19.611630670212598	2.498034	1.580517
19.629417507028506	2.4913228	1.5783925
19.64720482147098	2.439793	1.5619837
19.6649926140071	2.4358106	1.5607084
19.682780885104084	2.4827294	1.575668
19.70056963522921	2.5382576	1.593191
19.718358864849908	2.5179152	1.586794
19.7361485744337	2.4938898	1.5792054
19.753938764448215	2.5112007	1.5846769
19.771729435361202	2.5238028	1.5886481
19.789520587640506	2.5256526	1.5892302
19.807312221754092	2.5417132	1.5942751
19.825104338170043	2.5269127	1.5896266
19.842896937356517	2.5055482	1.5828924
19.860690019781824	2.5096445	1.5841857
19.87848358591436	2.527863	1.5899255
19.896277636222635	2.5137963	1.5854956
19.914072171175278	2.5111961	1.5846754
19.931867191241015	2.4800441	1.5748156
19.94966269688869	2.4626224	1.5692744
19.967458688587264	2.471048	1.5719568
19.985255166805807	2.4723594	1.5723739
20.00305213201348	2.459762	1.5683628
20.020849584679578	2.4598315	1.568385
20.038647525273507	2.4805784	1.5749853
20.05644595426477	2.4646685	1.5699263
20.07424487212299	2.4441364	1.5633734
20.092044279317903	2.3989725	1.5488617
20.109844176319353	2.389178	1.5456966
20.127644563597304	2.4009728	1.5495073
20.145445441621817	2.435954	1.5607543
20.16324681086307	2.4529524	1.5661904
20.181048671791373	2.4488711	1.5648869
20.198851024877122	2.4326298	1.559689
20.216653870590836	2.3885193	1.5454835
20.234457209403146	2.337753	1.5289712
20.252261041784802	2.351066	1.5333186
20.270065368206662	2.3839068	1.5439906
20.287870189139685	2.4208763	1.5559165
20.305675505054968	2.4011877	1.5495766
20.323481316423702	2.3716965	1.5400313
20.341287623717207	2.3220704	1.5238341
20.359094427406884	2.329717	1.5263411
20.376901727964288	2.3213904	1.523611
20.39470952586107	2.334743	1.5279866
20.41251782156899	2.3508875	1.5332605
20.430326615559935	2.3988342	1.548817
20.448135908305886	2.3844507	1.5441667
20.465945700278965	2.3714135	1.5399394
20.483755991951384	2.3730512	1.5404711
20.50156678379548	2.3696911	1.5393801
20.519378076283708	2.3424234	1.5304978
20.537189869888635	2.344186	1.5310735
20.55500216508294	2.3631783	1.5372633
20.572814962339415	2.3644626	1.5376809
20.59062826213098	2.336176	1.5284554
20.60844206493066	2.3155963	1.5217084
20.626256371211593	2.3188071	1.522763
20.644071181447032	2.328277	1.5258693
20.66188649611036	2.327563	1.5256352
20.67970231567506	2.333499	1.5275794
20.697518640614742	2.3417451	1.5302762
20.715335471403122	2.3622642	1.5369658
20.73315280851404	2.3323915	1.5272169
20.750970652421447	2.311696	1.5204263
20.768789003599412	2.3086505	1.5194244
20.786607862522136	2.3428621	1.5306411
20.8044272296639	2.3369336	1.5287032
20.82224710549913	2.3109741	1.5201888
20.84006749050237	2.2756302	1.5085192
20.857888385148268	3.840175	1.9596364
20.8757097899116	45.94524	6.7782917
20.893531705267254	64.79415	8.049481
20.911354131690224	83.83244	9.156006
20.92917706965566	69.10423	8.312896
20.94700051963877	50.16715	7.082877
20.96482448211493	29.41294	5.42337
20.982648957559622	4.1477785	2.0366096
21.00047394644843	2.2698789	1.5066117
21.01829944925707	2.2588818	1.5029577
21.036125466461375	2.2281258	1.4926908
21.053951998537297	2.2235157	1.4911457
21.071779045960906	2.2310255	1.4936618
21.089606609208378	2.2475529	1.499184
21.10743468875603	2.2357316	1.4952363
21.12526328508028	2.2195284	1.4898082
21.143092398657675	2.2178946	1.4892597
21.16092202996488	2.214843	1.4882349
21.17875217947867	2.2053971	1.485058
21.19658284767596	2.188291	1.4792874
21.21441403503377	2.180779	1.4767461
21.232245742029225	2.2181847	1.4893571
21.2500779691396	2.2172735	1.4890512
21.26791071684227	2.1988447	1.4828502
21.28574398561475	2.2102504	1.4866911
21.30357777593465	2.202986	1.4842459
21.321412088279704	2.1808324	1.4767642
21.339246923127792	2.1702697	1.4731835
21.357082280956888	2.1822145	1.4772321
21.3749181622451	2.136657	1.4617308
21.392754567470647	2.0877972	1.4449211
21.41059149711187	2.0696585	1.4386308
21.42842895164726	2.085805	1.4442316
21.446266931555378	2.1256578	1.4579636
21.464105437314945	2.1227942	1.4569812
21.481944469404798	2.125248	1.457823
21.49978402830388	2.1159735	1.4546386
21.51762411449127	2.0797293	1.4421266
21.53546472844617	2.077803	1.4414586
21.553305870647876	2.099941	1.4491173
21.571147541575865	2.101212	1.4495558
21.58898974170967	2.1007214	1.4493866
21.60683247152899	2.0816338	1.4427868
21.62467573151363	2.0830562	1.4432796
21.642519522143523	2.0721266	1.4394883
21.660363843898722	2.0498345	1.4317243
21.6782086972594	2.0259562	1.4233608
21.696054082705864	2.0412462	1.4287219
21.713900000718535	2.0295022	1.424606
21.73174645177795	1.9872302	1.4096916
21.749593436364794	1.9817798	1.407757
21.767440954959845	1.9844964	1.4087216
21.785289008044032	2.0190518	1.4209334
21.803137596098388	2.0379634	1.4275726
21.820986719604086	2.0508435	1.4320766
21.838836379042412	1.9996243	1.4140807
21.85668657489478	2.0054507	1.4161394
21.87453730764273	2.0155866	1.4197136
21.892388577767914	2.0287018	1.424325
21.91024038575213	2.0492642	1.4315251
21.928092732077285	2.0447996	1.4299649
21.945945617225426	2.0381856	1.4276503
21.963799041678694	2.0271366	1.4237754
21.981653005919398	31.359362	5.599943
21.999507510429943	78.169	8.841323
22.01736255569286	73.122185	8.551151
22.035218142190818	4.2439485	2.0600846
22.05307427040661	2.048966	1.4314209
22.07093094082315	2.035394	1.4266723
22.088788153923474	2.0406697	1.4285201
22.106645910190746	2.0658154	1.4372945
22.12450421010827	2.0480568	1.4311033
22.142363054159464	2.0208898	1.4215801
22.16022244282787	2.000367	1.4143432
22.178082376597164	2.0113096	1.4182065
22.195942855951145	1.996851	1.4130998
22.213803881373742	2.0335503	1.426026
22.231665453349002	1.9903995	1.4108152
22.24952757236111	1.9846681	1.4087825
22.26739023889438	1.9822203	1.4079134
22.28525345343323	2.0189924	1.4209125
22.30311721646225	2.0315835	1.4253362
22.320981528466113	2.026814	1.4236622
22.33884638992964	1.9892993	1.4104252
22.356711801337788	1.9584566	1.3994486
22.37457776317561	1.969207	1.4032844
22.392444275928337	1.9795277	1.4069569
22.410311340081282	2.002826	1.4152124
22.428178956119904	1.9820867	1.407866
22.446047124529805	1.9370356	1.3917743
22.46391584579669	1.9341904	1.3907517
22.481785120406414	1.9696312	1.4034355
22.49965494884496	1.9935653	1.4119368
22.51752533159841	1.9537686	1.3977728
22.53539626915302	1.9584498	1.3994462
22.553267761995137	1.9444323	1.394429
22.571139810611264	1.9239625	1.3870697
22.589012415488025	1.9074409	1.3811014
22.60688557711216	1.8955206	1.3767791
22.624759295970566	1.8891952	1.37448
22.642633572550263	1.9019498	1.379112
22.660508407338362	1.9333366	1.3904448
22.67838380082217	1.953743	1.3977636
22.696259753489077	1.9743156	1.4051034
22.714136265826614	1.99806	1.4135275
22.73201333832246	1.9605713	1.4002041
22.74989097146439	1.9483901	1.3958474
22.76776916574035	1.920032	1.3856522
22.785647921638393	1.9452955	1.3947384
22.803527239646712	1.9508367	1.3967235
22.82140712025363	1.9842961	1.4086504
22.839287563947593	1.9610028	1.4003581
22.85716857121719	1.9300511	1.3892628
22.875050142551135	1.9076053	1.3811609
22.892932278438277	1.884476	1.3727622
22.910814979367604	1.8909838	1.3751304
22.928698245828222	1.9376552	1.3919969
22.946582078309387	1.9521348	1.3971882
22.96446647730047	1.9460645	1.3950142
22.98235144329098	1.9419079	1.3935236
23.000236976770562	1.9490669	1.3960899
23.018123078229	1.9531708	1.3975588
23.03600974815619	1.9807866	1.4074042
23.053896987042194	2.0061965	1.4164027
23.071784795377173	1.941716	1.3934547
23.08967317365145	1.8752807	1.3694088
23.10756212235546	1.8725644	1.3684168
23.125451641979787	1.9239742	1.387074
23.143341733015134	1.9956964	1.4126912
23.161232395952357	1.9831465	1.4082423
23.179123631282426	1.9315534	1.3898034
23.197015439496468	1.9062968	1.3806871
23.214907821085717	1.9570215	1.3989358
23.23280077654157	1.9625901	1.4009247
23.250694306355538	1.9498005	1.3963525
23.268588411019277	1.9522139	1.3972164
23.28648309102458	1.9867481	1.4095205
23.304378346863356	1.9626527	1.4009471
23.322274179027676	1.9548087	1.3981447
23.340170588009723	1.9390758	1.3925071
23.358067574301852	1.939611	1.3926991
23.37596513839651	1.9085454	1.3815011
23.39386328078629	1.8934985	1.3760445
23.411762001963947	1.9203117	1.3857532
23.429661302422353	1.9563543	1.3986974
23.4475611826545	1.9865516	1.4094509
23.46546164315356	1.9701889	1.4036342
23.48336268441279	1.9821053	1.4078726
23.501264306925638	1.9463263	1.395108
23.51916651118564	1.9034142	1.3796428
23.537069297686497	1.8718935	1.3681716
23.554972666922037	1.8729445	1.3685557
23.57287661938623	1.8949629	1.3765765
23.59078115557318	1.9584894	1.3994604
23.608686275977128	1.9699032	1.4035324
23.62659198109246	1.9293497	1.3890103
23.6444982714137	1.9220891	1.3863943
23.66240514743549	1.9097308	1.3819301
23.68031260965263	1.85837	1.3632205
23.698220658560068	1.8315722	1.3533559
23.716129294652845	1.8448341	1.3582467
23.7340385184262	1.8945658	1.3764323
23.75194833037546	1.9234333	1.386879
23.769858730996123	1.9373026	1.3918701
23.78776972078382	1.9675552	1.4026957
23.80568130023431	1.968803	1.4031404
23.823593469843495	1.977005	1.4060601
23.841506230107424	1.9332608	1.3904175
23.859419581522275	1.9071968	1.3810129
23.87733352458438	1.8877101	1.3739396
23.89524805979019	1.8832556	1.3723176
23.913163187636318	1.8529468	1.3612299
23.931078908619508	1.8936826	1.3761114
23.948995223236633	1.9307008	1.3894966
23.966912131984735	1.9511266	1.3968273
23.98482963536096	1.9797971	1.4070526
24.002747733862616	1.994959	1.4124302
24.020666427987155	2.014796	1.4194351
24.038585718232156	2.020032	1.4212782
24.056505605095353	2.0464463	1.4305406
24.074426089074617	2.066765	1.4376248
24.092347170667946	2.0632007	1.4363846
24.110268850373515	2.1073713	1.4516788
24.128191128689586	2.1611063	1.4700702
24.146114006114626	2.1462927	1.4650232
24.164037483147187	2.1201453	1.4560719
24.181961560286005	2.0823655	1.4430404
24.199886238029926	2.0745802	1.4403403
24.21781151687797	2.0648978	1.4369752
24.235737397329274	2.080393	1.4423568
24.253663879883135	2.0863504	1.4444205
24.271590965038975	2.0586867	1.4348124
24.289518653296376	2.0206685	1.4215022
24.30744694515505	1.9954026	1.4125872
24.32537584111486	2.0219035	1.4219365
24.34330534167581	2.007007	1.4166887
24.361235447338046	2.0014634	1.4147309
24.379166158601876	1.9677395	1.4027613
24.39709747596772	2.0010886	1.4145983
24.41502939993615	2.0543184	1.4332894
24.432961931007917	2.063171	1.4363742
24.450895069683856	1.9980251	1.4135151
24.468828816465	1.9045262	1.3800458
24.4867631718525	1.8994787	1.3782158
24.504698136347656	1.9288296	1.388823
24.52263371045192	1.9330419	1.3903388
24.540569894666874	1.8932406	1.3759508
24.558506689494266	1.8642424	1.3653727
24.57644409543597	1.8749156	1.3692756
24.594382112994012	1.9373376	1.3918828
24.61232074267057	1.9616176	1.4005775
24.630259984967953	2.0239792	1.4226662
24.64819984038863	2.0179775	1.4205554
24.66614030943522	2.0457752	1.430306
24.684081392610462	2.041153	1.4286892
24.702023090417274	2.0314305	1.4252826
24.7199654033587	2.0154364	1.4196607
24.737908331937927	2.0351589	1.42659
24.755851876658305	2.0536106	1.4330424
24.773796038023324	2.0534782	1.4329963
24.79174081653661	2.0657723	1.4372795
24.809686212701962	2.0703645	1.4388762
24.827632227023294	2.0902855	1.445782
24.8455788600047	2.0951288	1.447456
24.8635261121504	2.0850694	1.443977
24.88147398396475	2.104473	1.4506803
24.899422475952303	2.1143343	1.4540751
24.917371588617698	2.1403992	1.4630103
24.935321322465768	2.2421284	1.4973738
24.953271678001478	2.2895334	1.5131204
24.97122265572994	2.4473002	1.5643849
24.989174256156414	2.7321565	1.6529236
25.00712647978632	3.2057447	1.7904594
25.02507932712521	3.6833634	1.9192091
25.043032798678798	4.187697	2.0463862
25.060986894952933	4.769128	2.1838334
25.078941616453637	5.5530534	2.3564918
25.096896963687055	6.5637484	2.5619814
25.114852937159508	7.856262	2.8029025
25.132809537377444	8.32554	2.885401
25.150766764847468	8.339482	2.8878162
25.168724620076347	7.7387	2.7818518
25.186683103570985	6.704501	2.5893052
25.204642215838426	5.538876	2.3534818
25.222601957385894	4.1931734	2.047724
25.24056232872074	3.1563232	1.7766044
25.25852333035048	2.5541754	1.5981787
25.276484962782778	2.229565	1.4931728
25.294447226525435	2.0658064	1.4372914
25.312410122086423	1.984886	1.4088598
25.330373649973843	1.9675504	1.402694
25.348337810695988	1.9503881	1.3965629
25.366302604761245	1.9227473	1.3866316
25.384268032678207	1.913082	1.3831421
25.40223409495558	1.9083215	1.3814201
25.420200792102257	1.9266543	1.3880397
25.438168124627246	1.9058859	1.3805382
25.45613609303974	1.8542612	1.3617126
25.474104697849057	1.8145347	1.3470466
25.492073939564698	1.8329989	1.3538829
25.510043818696285	1.8731863	1.368644
25.528014335753614	1.9246157	1.3873053
25.54598549124664	1.9273828	1.3883021
25.56395728568544	1.8901238	1.3748177
25.58192971958028	1.880963	1.371482
25.59990279344156	1.8971022	1.3773533
25.617876507779833	1.850255	1.3602408
25.635850863105826	1.8327736	1.3537997
25.653825859930386	1.8595101	1.3636385
25.671801498764548	1.8896953	1.3746619
25.68977778011949	1.9153447	1.3839598
25.707754704506524	1.9078097	1.3812349
25.725732272437153	1.9022616	1.379225
25.743710484423012	1.9103626	1.3821586
25.761689340975888	1.89419	1.3762957
25.77966884260774	1.8533925	1.3613936
25.797648989830662	1.8374437	1.3555235
25.815629783156922	1.8343539	1.3543832
25.83361122309895	1.8183653	1.3484678
25.85159331016929	1.8194076	1.3488542
25.869576044880695	1.8219985	1.3498143
25.887559427746034	1.8369855	1.3553544
25.90554345927836	1.840058	1.3564874
25.92352813999086	1.8468914	1.3590038
25.94151347039689	1.8150107	1.3472233
25.959499451009965	1.8303943	1.3529207
25.97748608234374	1.8021326	1.3424354
25.995473364912062	1.7988201	1.341201
26.013461299228904	1.7926732	1.3389075
26.03144988580839	1.8613619	1.3643174
26.04943912516483	1.9025768	1.3793392
26.067429017812675	1.8532649	1.3613467
26.085419564266537	1.789906	1.3378737
26.103410765041186	1.8126385	1.3463427
26.12140262065155	1.8479465	1.3593919
26.139395131612723	1.7914388	1.3384464
26.157388298439948	1.7647834	1.3284515
26.17538212164861	1.7759298	1.3326402
26.193376601754295	1.7761861	1.3327364
26.211371739272714	1.7505164	1.3230709
26.229367534719746	1.7306565	1.3155441
26.247363988611433	1.7758182	1.3325983
26.26536110146397	1.8482604	1.3595074
26.283358873793727	1.8803427	1.3712559
26.301357306117204	1.8761158	1.3697138
26.319356398951104	1.8610632	1.3642079
26.33735615281224	1.8402231	1.3565482
26.35535656821762	1.8370434	1.3553758
26.373357645684404	1.8023845	1.3425292
26.39135938572991	1.7627184	1.327674
26.409361788871614	1.7421522	1.3199061
26.427364855627165	1.7467682	1.3216536
26.445368586514352	1.8129708	1.3464661
26.46337298205115	1.855054	1.3620037
26.48137804275568	1.8485868	1.3596275
26.499383769146217	1.8244984	1.35074
26.517390161741215	1.7926003	1.3388802
26.53539722105928	1.7997328	1.3415412
26.553404947619182	1.8428862	1.3575294
26.571413341939856	1.8051523	1.3435595
26.589422404540397	1.78367	1.3355411
26.60743213594006	1.7844797	1.3358442
26.62544253665827	1.7990888	1.3413012
26.64345360721459	1.8357619	1.3549029
26.66146534812879	1.8392454	1.3561878
26.679477759920758	1.8069928	1.3442444
26.69749084311057	1.7911634	1.3383435
26.71550459821847	1.8045535	1.3433367
26.733519025764842	1.8037529	1.3430387
26.751534126270258	1.833991	1.3542492
26.769549900255434	1.815795	1.3475144
26.787566348241267	1.8056138	1.3437313
26.80558347074881	1.7979616	1.3408809
26.823601268299267	1.8079295	1.3445927
26.841619741414036	1.8330941	1.3539181
26.85963889061465	1.8546647	1.3618608
26.877658716422832	1.8530376	1.3612633
26.89567921936045	1.9156036	1.3840533
26.913700399949544	1.906567	1.3807849
26.93172225871233	1.8607333	1.364087
26.949744796171174	1.8117503	1.3460127
26.967768012848605	1.8572394	1.3628057
26.98579190926733	1.8524035	1.3610303
27.003816485950225	1.8572716	1.3628175
27.021841743420318	1.8701298	1.3675269
27.039867682200814	1.8219613	1.3498005
27.057894302815072	1.7614831	1.3272088
27.07592160578664	1.8099214	1.3453332
27.0939495916392	1.8354753	1.3547971
27.111978260896635	1.8369955	1.3553581
27.13000761408296	1.8077323	1.3445194
27.148037651722397	1.8006089	1.3418677
27.166068374339304	1.76296	1.327765
27.184099782458215	1.7661021	1.3289478
27.20213187660384	1.8396285	1.3563291
27.22016465730105	1.9127878	1.3830357
27.23819812507487	1.8982363	1.3777649
27.256232280450533	1.8107265	1.3456324
27.274267123953383	1.7845267	1.3358618
27.292302656108987	1.7640103	1.3281605
27.31033887744306	1.7656513	1.3287781
27.32837578848146	1.7957293	1.3400482
27.34641338975026	1.8321129	1.3535557
27.364451681775673	1.8458438	1.3586184
27.382490665084074	1.8379688	1.3557171
27.400530340202046	1.8297282	1.3526745
27.41857070765629	1.8368763	1.3553141
27.436611767973726	1.845786	1.358597
27.454653521681404	1.8296838	1.352658
27.472695969306564	1.8097372	1.3452648
27.490739111376627	1.806105	1.343914
27.508782948419153	1.8347903	1.3545443
27.526827480961902	1.8227555	1.3500946
27.54487270953279	1.8004893	1.3418231
27.562918634659898	1.8012307	1.3420993
27.580965256871508	1.7921239	1.3387023
27.599012576696026	1.7624274	1.3275645
27.617060594662068	1.7387775	1.3186271
27.63510931129842	1.7784867	1.3335992
27.65315872713401	1.828047	1.3520529
27.67120884269797	1.8738394	1.3688825
27.68925965851958	1.8617896	1.364474
27.707311175128307	1.8110886	1.3457669
27.725363393053787	1.8174917	1.3481438
27.74341631282583	1.87787	1.3703539
27.7614699349744	1.9285874	1.3887359
27.77952426002968	2.0887876	1.4452639
27.797579288521973	2.1418836	1.4635175
27.815635020981784	2.5331242	1.5915792
27.83369145793979	2.5987825	1.612074
27.85174859992682	2.496335	1.5799794
27.869806447473923	2.3137703	1.5211083
27.887865001112267	1.9765271	1.4058901
27.905924261373233	1.8888831	1.3743664
27.92398422878836	1.9093008	1.3817745
27.94204490388936	1.879468	1.3709369
27.96010628720813	1.8485054	1.3595976
27.978168379276728	1.8110502	1.3457526
27.9962311806274	1.809617	1.3452201
28.014294691792568	1.8219879	1.3498104
28.0323589133048	1.840468	1.3566386
28.050423845696887	1.8237953	1.3504796
28.068489489501758	1.8176173	1.3481904
28.086555845252523	1.8078115	1.3445488
28.104622913482487	1.8470975	1.3590796
28.122690694725115	1.8680335	1.3667603
28.14075918951405	1.8914913	1.375315
28.15882839838312	1.9126637	1.3829908
28.176898321866304	1.9396677	1.3927195
28.1949689604978	1.8845853	1.372802
28.213040314811945	1.8297548	1.3526843
28.23111238534327	1.8617086	1.3644445
28.249185172626493	1.8986745	1.377924
28.267258677196473	1.8824799	1.3720349
28.285332899588294	1.8535995	1.3614696
28.303407840337172	1.8837309	1.3724908
28.321483499978545	1.9270977	1.3881994
28.33955987904799	1.9391857	1.3925465
28.357636978081285	1.940194	1.3929085
28.37571479761439	1.9662024	1.4022133
28.393793338183425	1.9287113	1.3887805
28.41187260032469	1.9126365	1.3829811
28.429952584574686	1.960631	1.4002254
28.448033291470065	1.9791676	1.4068289
28.46611472154769	1.9535909	1.3977091
28.484196875344566	1.9555795	1.3984203
28.502279753397914	1.9315367	1.3897973
28.52036335624511	1.9419317	1.3935322
28.538447684423716	1.9808719	1.4074345
28.556532738471482	1.9880633	1.409987
28.574618518926325	1.988802	1.4102489
28.59270502632635	1.9590417	1.3996577
28.61079226120985	2.045482	1.4302034
28.628880224115274	2.0588539	1.4348707
28.646968915581287	2.0079079	1.4170066
28.66505833614671	1.973222	1.4047142
28.68314848635055	1.976233	1.4057856
28.701239366732004	1.9750694	1.4053717
28.71933097783044	2.07068	1.4389857
28.737423320185403	2.101892	1.4497904
28.75551639433665	2.1157272	1.454554
28.773610200824074	2.117683	1.4552261
28.791704740187793	2.135258	1.4612522
28.80980001296809	2.163707	1.4709544
28.827896019705413	2.1653585	1.4715158
28.845992760940433	2.1752467	1.4748718
28.86409023721397	2.1395416	1.4627172
28.88218844906704	2.1114051	1.4530675
28.900287397040845	2.1802897	1.4765804
28.918387081676755	2.2501817	1.5000606
28.936487503516343	2.336963	1.5287129
28.954588663101365	2.3374877	1.5288844
28.97269056097374	2.3191807	1.5228857
28.990793197675597	2.2819612	1.5106162
29.00889657374923	2.3123791	1.5206509
29.027000689737125	2.3798208	1.5426668
29.04510554618196	2.401913	1.5498106
29.06321114362659	2.396297	1.5479977
29.08131748261405	2.3833003	1.5437942
29.099424563687567	2.420607	1.55583
29.11753238739057	2.5326722	1.5914371
29.13564095426663	2.6078563	1.6148858
29.15375026485954	2.5963306	1.6113133
29.171860319713275	2.6731055	1.6349634
29.18997111937199	2.7355108	1.6539379
29.20808266438002	2.7735624	1.6654016
29.226194955281898	2.820132	1.6793249
29.244307992622335	2.9148898	1.7073048
29.26242177694624	2.9337173	1.7128098
29.2805363087987	2.88827	1.699491
29.29865158872498	2.9395223	1.7145035
29.316767617270557	2.9417078	1.7151408
29.334884394981064	2.903595	1.7039938
29.353001922402367	2.947313	1.716774
29.37112020008047	3.0395575	1.7434326
29.389239228561596	3.176879	1.7823801
29.407359008392152	3.3637264	1.8340465
29.42547954011872	3.7229595	1.9294972
29.44360082428809	4.369866	2.0904224
29.46172286144722	5.3901362	2.3216667
29.479845652143283	6.9483733	2.6359768
29.497969196923606	9.01795	3.0029902
29.516093496335728	11.495619	3.390519
29.5342185509274	14.195344	3.7676709
29.55234436124651	16.420446	4.052215
29.570470927841175	17.850283	4.2249594
29.588598251259686	17.765202	4.2148786
29.60672633205055	16.454924	4.056467
29.624855170762405	14.282052	3.7791603
29.642984767944146	11.548627	3.398327
29.66111512414481	8.903672	2.9839022
29.67924623991366	6.687164	2.5859551
29.697378115800138	5.2168097	2.2840338
29.71551075235387	4.2328415	2.057387
29.733644150124675	3.7097926	1.9260821
29.751778309662576	3.4512815	1.8577625
29.769913231517766	3.4336936	1.8530228
29.78804891624066	3.450594	1.8575774
29.806185364381818	3.3862817	1.8401853
29.82432257649206	3.3489242	1.8300066
29.842460553122333	3.3432574	1.8284577
29.86059929482382	3.3056479	1.8181441
29.878738802147872	3.2215545	1.794869
29.896879075646048	3.2245502	1.7957033
29.915020115870114	3.2049882	1.790248
29.933161923371976	3.1774445	1.7825388
29.951304498703777	3.2057343	1.7904564
29.969447842417857	3.2944212	1.815054
29.987591955066733	3.3255894	1.8236198
30.005736837203123	3.296653	1.8156687
30.023882489379943	3.2131763	1.7925335
30.04202891215028	3.0852633	1.7564918
30.060176106067455	3.1017547	1.7611799
30.078324071684946	3.1427438	1.7727785
30.09647280955646	3.0721002	1.7527407
30.114622320235863	3.0157294	1.7365856
30.132772604277257	3.0206149	1.7379916
30.1509236622349	3.0907228	1.7580452
30.16907549466328	3.080372	1.7550989
30.18722810211705	3.0732658	1.7530732
30.205381485151097	3.1342726	1.7703876
30.22353564432045	3.1037047	1.7617334
30.241690580180403	3.0486753	1.7460456
30.25984629328638	2.9966424	1.7310812
30.278002784194037	2.9844086	1.7275441
30.296160053459246	2.9731977	1.7242963
30.314318101638033	2.9624825	1.7211864
30.332476929286646	2.9746633	1.7247212
30.35063653696153	2.9927516	1.7299571
30.368796925219307	2.9384627	1.7141945
30.386958094616844	2.8660154	1.692931
30.40512004571115	2.9305563	1.7118868
30.423282779059463	2.9728947	1.7242085
30.441446295219233	2.8906143	1.7001806
30.459610594748067	2.8382394	1.6847075
30.47777567820382	2.8502526	1.6882691
30.495941546144504	2.8384962	1.6847837
30.51410819912835	2.8402603	1.6853071
30.532275637713795	2.8695984	1.6939889
30.55044386245946	2.8885272	1.6995667
30.56861287392416	2.8607674	1.6913803
30.586782672666956	2.810947	1.6765879
30.604953259247047	2.747851	1.6576643
30.623124634223885	2.7398303	1.6552433
30.641296798157075	2.7523692	1.6590266
30.659469751606462	2.838807	1.684876
30.677643495132074	2.8450828	1.6867373
30.695818029294152	2.7634146	1.6623521
30.713993354653116	2.6956432	1.6418414
30.73216947176962	2.670648	1.6342118
30.75034638120448	2.6571405	1.6300738
30.768524083518756	2.6792088	1.6368289
30.786702579273673	2.7105663	1.6463797
30.80488186903069	2.8553011	1.6897637
30.82306195335144	2.9963572	1.7309989
30.841242832797782	3.1782746	1.7827716
30.85942450793176	3.4171247	1.8485466
30.877606979315637	3.7467613	1.9356552
30.895790247511883	4.0629425	2.015674
30.913974313083134	4.4119515	2.1004646
30.932159176592283	4.643401	2.1548553
30.95034483860237	4.876391	2.2082553
30.968531299676698	4.8248267	2.196549
30.98671856037873	4.4527955	2.1101649
31.00490662127215	3.9639192	1.9909594
31.023095482920848	3.5223992	1.8768055
31.04128514588892	3.1045706	1.7619792
31.059475610740662	2.7679298	1.6637096
31.07766687804056	2.5147583	1.585799
31.09585894835335	2.434248	1.5602077
31.11405182224393	2.4461312	1.5640112
31.132245500277417	2.484883	1.5763512
31.15043998301914	2.4845023	1.5762304
31.168635271034628	2.4327354	1.5597229
31.18683136488964	2.39562	1.5477791
31.20502826515008	2.3991487	1.5489186
31.223225972382135	2.4476397	1.5644934
31.241424487152155	2.4543498	1.5666364
31.259623810026692	2.393873	1.5472146
31.27782394157253	2.400491	1.5493518
31.296024882356644	2.3900273	1.5459713
31.314226632946237	2.4185798	1.5551784
31.332429193908684	2.4338975	1.5600953
31.350632565811598	2.401871	1.549797
31.368836749222787	2.4565482	1.567338
31.387041744710295	2.6350758	1.6232916
31.40524755284232	2.654435	1.6292436
31.423454174187317	2.598847	1.6120939
31.441661609313922	2.5886996	1.6089436
31.459869858791002	2.5911853	1.6097159
31.478078923187628	2.44942	1.5650623
31.496288803073064	2.299057	1.5162642
31.514499499016807	2.3111637	1.5202512
31.532711011588546	2.3490784	1.5326704
31.550923341358178	2.37308	1.5404805
31.56913648889584	2.332594	1.5272832
31.587350454771844	2.3129652	1.5208436
31.605565239556732	2.2923484	1.5140504
31.62378084382127	2.2668912	1.5056199
31.641997268136382	2.2506812	1.5002271
31.660214513073274	2.2591772	1.5030559
31.67843257920331	2.2242563	1.491394
31.6966514670981	2.2722414	1.5073955
31.71487117732944	2.3073132	1.5189843
31.733091710469346	2.3302803	1.5265256
31.751313067090052	2.3515913	1.53349
31.769535247764008	2.3262181	1.5251944
31.787758253063878	2.2823584	1.5107477
31.805982083562526	2.2576208	1.5025381
31.824206739833024	2.2435932	1.4978629
31.84243222244869	2.2776117	1.5091759
31.860658531983013	2.3009965	1.5169036
31.878885669009737	2.221822	1.4905777
31.897113634102784	2.1658149	1.4716707
31.91534242783632	2.182567	1.4773513
31.933572050784694	2.254734	1.5015771
31.951802503522508	2.25894	1.502977
31.970033786624548	2.2275226	1.4924887
31.988265900665834	2.181457	1.4769757
32.006498846221575	2.1447382	1.4644924
32.02473262386724	2.1378753	1.4621475
32.04296723417845	2.1978085	1.4825008
32.0612026777311	2.2175407	1.489141
32.07943895510129	2.1835704	1.4776909
32.097676066865304	2.1237166	1.4572977
32.115914013599685	2.0297086	1.4246784
32.13415279588115	2.054761	1.4334438
32.152392414286666	2.1349688	1.4611533
32.1706328693934	2.1784196	1.475947
32.18887416177875	2.1098676	1.4525384
32.20711629202032	2.020689	1.4215094
32.225359260695924	2.0861728	1.444359
32.243603068383614	2.1127517	1.4535308
32.26184771566166	2.0430725	1.4293609
32.28009320310852	1.9981476	1.4135585
32.2983395313029	2.042493	1.4291582
32.31658670082372	2.115355	1.454426
32.33483471225012	2.165424	1.4715381
32.35308356616143	2.1135602	1.4538089
32.371333263137245	2.1137161	1.4538624
32.38958380375734	2.1330435	1.4604943
32.407835188601744	2.1217577	1.4566255
32.42608741825067	2.1385782	1.4623878
32.444340493284585	2.1709101	1.4734008
32.46259441428416	2.144548	1.4644275
32.48084918183028	2.1048903	1.450824
32.49910479650405	2.1263509	1.4582013
32.51736125888683	2.1805735	1.4766765
32.53561856956014	2.1906862	1.4800967
32.5538767291058	2.1227684	1.4569724
32.572135738105764	2.0773914	1.4413159
32.59039559714228	2.0137873	1.4190798
32.608656306797776	1.9187471	1.3851885
32.62691786765491	1.9787621	1.4066848
32.645180280296586	2.0127017	1.4186972
32.663443545305896	2.0447469	1.4299464
32.68170766326619	2.0410752	1.4286621
32.69997263476099	2.041907	1.4289532
32.7182384603741	2.0024655	1.415085
32.7365051406895	2.048137	1.4311314
32.75477267629144	2.020784	1.4215428
32.77304106776434	1.9874362	1.4097645
32.79131031569289	1.974826	1.405285
32.809580420661966	1.9708978	1.4038867
32.827851383256714	1.9468939	1.3953114
32.84612320406245	1.9060388	1.3805937
32.86439588366476	1.8879513	1.3740274
32.88266942264945	1.9734143	1.4047827
32.9009438216025	1.9829004	1.408155
32.9192190811102	1.9803121	1.4072356
32.937495201758985	1.9384152	1.3922698
32.95577218413556	2.0074515	1.4168457
32.974050028826866	2.011891	1.4184114
32.992328736420035	1.9181966	1.3849897
33.010608307502444	1.9578632	1.3992367
33.02888874266169	2.052551	1.4326727
33.047170042485604	2.064797	1.4369401
33.06545220756225	2.0111768	1.4181596
33.083735238479896	2.0402322	1.428367
33.10201913582707	2.1172981	1.4550939
33.12030390019248	2.0629945	1.4363128
33.138589532165135	1.9309466	1.389585
33.15687603233419	1.937871	1.3920743
33.17516340128909	1.9458761	1.3949467
33.19345163961947	2.009554	1.4175874
33.211740747915215	1.9991686	1.4139196
33.23003072676643	1.9151918	1.3839046
33.248321576763466	1.85883	1.3633891
33.266613298496885	1.8000395	1.3416555
33.28490589255747	1.8109181	1.3457036
33.30319935953626	1.8820361	1.3718733
33.32149370002451	1.887983	1.3740389
33.339788914613706	1.8707144	1.3677406
33.358085003895575	1.9115918	1.3826033
33.376381968462034	1.9471664	1.3954091
33.39467980890529	1.9644035	1.4015718
33.41297852581774	2.0133867	1.4189386
33.43127811979204	2.0640957	1.4366962
33.44957859142105	2.0686762	1.4382893
33.467879941297866	2.0114117	1.4182425
33.486182170015844	1.9542826	1.3979566
33.50448527816853	2.0009668	1.4145553
33.522789266349754	2.018081	1.4205917
33.541094135153514	1.9086722	1.3815471
33.55939988517411	1.8866953	1.3735702
33.57770651700602	2.0105245	1.4179296
33.59601403124398	2.0488987	1.4313974
33.61432242848296	1.9876717	1.4098481
33.632631709318154	1.911093	1.3824229
33.650941874344994	1.8915633	1.3753412
33.66925292415916	1.8136556	1.3467203
33.68756485935654	1.7816322	1.334778
33.70587768053328	1.8998863	1.3783636
33.724191388285746	2.0316339	1.4253539
33.74250598321054	2.0403922	1.4284229
33.760821465904506	1.9734923	1.4048104
33.77913783696474	1.868117	1.3667908
33.79745509698852	1.8808242	1.3714315
33.815773246573414	1.8202736	1.3491752
33.8340922863172	1.7961581	1.3402082
33.852412216817896	1.8485966	1.3596311
33.87073303867377	1.9643048	1.4015366
33.889054752483304	2.0994196	1.4489374
33.907377358845245	2.0476072	1.4309462
33.92570085835853	2.0214486	1.4217765
33.94402525162239	2.082299	1.4430174
33.96235053923627	2.103616	1.4503847
33.980676721799824	1.9789933	1.406767
33.999003799912984	1.8163534	1.3477216
34.01733177417592	1.771778	1.3310815
34.03566064518901	1.7680045	1.3296633
34.0539904135529	1.8345788	1.3544662
34.07232107986846	1.8244573	1.3507247
34.090652644736785	1.8262042	1.3513712
34.108985108759235	1.8262548	1.35139
34.12731847253742	1.8431145	1.3576136
34.14565273667313	1.9038849	1.3798133
34.16398790176847	1.9859891	1.4092512
34.18232396842574	1.972951	1.4046178
34.20066093724749	1.9000651	1.3784285
34.21899880883651	1.8953013	1.3766994
34.23733758379583	1.9182036	1.3849922
34.25567726272874	1.9850425	1.4089154
34.27401784623872	2.1062078	1.451278
34.29235933492957	2.146023	1.464931
34.31070172940526	2.031948	1.4254642
34.32904503027003	1.8925805	1.375711
34.347389238128386	1.8742976	1.3690499
34.36573435358502	2.0523012	1.4325855
34.38408037724492	2.0926187	1.4465886
34.402427309713296	2.0222237	1.4220492
34.42077515159559	2.042257	1.4290756
34.43912390349752	2.0679338	1.4380312
34.45747356602499	2.098177	1.4485085
34.47582413978423	2.0515409	1.4323201
34.49417562538163	1.8945631	1.3764312
34.51252802342388	1.8789986	1.3707657
34.53088133451789	1.9029272	1.3794663
34.54923555927084	1.8088545	1.3449366
34.567590698290104	1.8464948	1.3588579
34.58594675218336	2.0420642	1.4290081
34.6043037215585	2.0786734	1.4417605
34.62266160702365	1.9258987	1.3877676
34.641020409187234	2.0207953	1.4215468
34.65938012865785	2.054099	1.4332129
34.677740766044394	2.04914	1.4314817
34.69610232195598	2.0105512	1.4179391
34.714464797002016	1.9451957	1.3947027
34.73282819179208	1.9728348	1.4045764
34.751192506936064	1.885785	1.3732389
34.76955774304408	1.7232625	1.3127309
34.7879239007265	1.6333947	1.2780433
34.80629098059391	1.7583992	1.3260465
34.824658983257194	1.9327377	1.3902293
34.843027909327446	2.0314212	1.4252794
34.86139775941603	2.0261953	1.4234449
34.879768534134534	2.095227	1.4474899
34.89814023409483	1.9647068	1.40168
34.91651285990901	1.8623	1.3646611
34.93488641218944	1.9047394	1.3801229
34.95326089154871	2.025775	1.4232972
34.97163629859967	2.1045125	1.4506937
34.99001263395542	2.2312422	1.4937344
35.00838989822934	2.1494794	1.4661103
35.02676809203499	1.9930478	1.4117534
35.04514721598624	1.8671391	1.366433
35.063527270697215	1.7291557	1.3149736
35.081908256782256	1.6667032	1.2910086
35.10029017485597	1.7676347	1.3295243
35.11867302553321	1.8487905	1.3597023
35.137056809429104	1.9554634	1.3983788
35.155441527159006	2.049587	1.4316379
35.173827179338524	1.9471664	1.3954091
35.19221376658354	2.0166826	1.4200995
35.21060128951017	2.0737948	1.4400676
35.2289897487348	1.8104088	1.3455143
35.24737914487405	1.7700434	1.3304298
35.26576947854479	1.90984	1.3819696
35.28416075036418	2.037662	1.427467
35.30255296094958	1.9825417	1.4080275
35.32094611091867	2.0364802	1.427053
35.33934020088932	1.8149779	1.3472111
35.35773523147969	1.7661549	1.3289676
35.3761312033082	1.9571316	1.3989753
35.394528116993506	1.933142	1.3903748
35.41292597315452	1.8508681	1.3604661
35.431324772410434	1.9658097	1.4020734
35.449724515380666	1.9876907	1.4098549
35.46812520268491	1.750856	1.3231992
35.486526834943106	1.7011937	1.3042982
35.504929412775454	1.78932	1.3376547
35.52333293680242	1.8222253	1.3498982
35.54173740764471	1.7521151	1.3236749
35.560142825923286	1.5553663	1.2471433
35.5785491922594	1.559286	1.2487137
35.59695650727454	1.7367581	1.3178612
35.61536477159042	2.5998158	1.6123945
