0.008763373481513119	0.0	0.0
0.026290120649546365	0.17179282	0.414479
0.043816868432600686	0.12005361	0.34648752
0.06134361724069026	0.082868464	0.28786883
0.07887036748382949	0.09070374	0.30117062
0.0963971195720331	0.106550865	0.3264213
0.11392387391531617	0.087323844	0.2955061
0.1314506309236943	0.13716051	0.37035188
0.1489773910071836	0.11510736	0.33927476
0.16650415457580078	0.10391886	0.32236448
0.18403092203956356	0.16306113	0.40380827
0.20155769380849	0.20272578	0.4502508
0.2190844702925996	0.19157664	0.4376947
0.2366112519019124	0.2123249	0.46078727
0.2541380390464497	0.1537721	0.39213786
0.27166483213623416	0.15207806	0.38997188
0.28919163158128947	0.16560793	0.40694955
0.3067184377916406	0.118978284	0.3449323
0.324245251177314	0.1284809	0.3584423
0.34177207214833777	0.13288647	0.36453596
0.3592989011147415	0.1459218	0.3819971
0.37682573848655654	0.21594585	0.46469975
0.39435258467381573	0.24786398	0.4978594
0.41187944008655414	0.21507657	0.46376348
0.42940630513480854	0.16680579	0.40841866
0.446933180228618	0.17538717	0.41879252
0.4644600657780234	0.20960236	0.4578235
0.48198696219306775	0.22093074	0.4700327
0.49951386988379676	0.2243945	0.47370297
0.5170407892602581	0.20240296	0.44989216
0.5345677207325025	0.1415758	0.3762656
0.5520946647105822	0.07474962	0.27340376
0.5696216216045534	0.09098249	0.30163303
0.5871485918244737	0.1432667	0.37850586
0.6046755757804043	0.17461044	0.41786414
0.6222025738824094	0.15991832	0.3998979
0.6397295865405557	0.1799562	0.42421246
0.6572566141649129	0.17807452	0.4219888
0.6747836571655547	0.16677687	0.40838322
0.6923107159525568	0.1472205	0.38369325
0.7098377909359992	0.11013131	0.33186036
0.7273648825259653	0.114485234	0.33835667
0.7448919911325411	0.13317332	0.3649292
0.762419117165817	0.12959689	0.3599957
0.7799462610358868	0.118821405	0.3447048
0.7974734231528482	0.11883622	0.3447263
0.8150006039268024	0.15994518	0.39993146
0.8325278037678551	0.18531553	0.4304829
0.8500550230861152	0.21862444	0.46757293
0.8675822622916969	0.17658542	0.42022067
0.8851095217947171	0.19917291	0.44628793
0.9026368020052984	0.2486621	0.4986603
0.9201641033335665	0.2728301	0.5223314
0.9376914261896523	0.28762898	0.53631055
0.9552187709836915	0.24197596	0.49191052
0.9727461381258234	0.25656718	0.5065246
0.990273528026193	0.25232533	0.50231993
1.0078009410949496	0.2430628	0.49301398
1.0253283777422473	0.2689528	0.5186066
1.0428558383782454	0.26315498	0.51298636
1.0603833234131086	0.29010403	0.5386131
1.0779108332570058	0.31531104	0.56152564
1.0954383683201119	0.31850487	0.56436235
1.112965929012607	0.368441	0.6069934
1.1304935157446763	0.52379423	0.7237363
1.1480211289265108	0.56559324	0.75205934
1.1655487689683062	1.4570905	1.2071
1.1830764362802655	1.7571149	1.3255621
1.200604131272596	2.1121347	1.4533185
1.2181318543555117	2.3611562	1.5366055
1.235659605939232	2.3361712	1.5284538
1.253187386433982	3.834492	1.9581859
1.270715196249994	6.269456	2.5038881
1.2882430357975057	11.707605	3.4216378
1.3057709054867608	16.579758	4.071825
1.3232988057280106	22.148748	4.706246
1.3408267369315112	27.083595	5.2041903
1.358354699507526	30.923466	5.5608873
1.3758826938663256	35.38388	5.9484353
1.3934107204181858	37.610806	6.132765
1.410938779573391	38.042076	6.1678257
1.4284668717422309	38.874546	6.234946
1.4459949973350033	38.538094	6.207906
1.4635231567620117	38.573776	6.210779
1.4810513504335687	37.676987	6.1381583
1.4985795787599925	36.56677	6.047046
1.5161078421516088	35.71219	5.9759674
1.5336361410187505	34.623276	5.884155
1.5511644757717598	34.919605	5.9092813
1.5686928468209842	35.51604	5.9595337
1.58622125457678	36.49445	6.041064
1.6037496994495108	38.149242	6.1765075
1.621278181849548	37.935684	6.159195
1.6388067021872719	38.244118	6.1841826
1.6563352608730693	37.060535	6.0877366
1.673863858317336	36.25349	6.021087
1.6913924949304753	36.007187	6.000599
1.7089211711228998	35.384026	5.948447
1.7264498873050296	34.75846	5.895631
1.7439786438872935	33.9432	5.8260794
1.7615074412801288	32.763004	5.7238975
1.779036279893981	32.1112	5.666674
1.796565160139305	30.84227	5.5535817
1.814094082426564	30.127335	5.4888372
1.8316230471662298	29.117493	5.396063
1.849152054768784	28.540352	5.342317
1.8666811056447168	28.180847	5.3085637
1.8842102002045273	27.535212	5.2474003
1.901739338858724	26.776003	5.1745534
1.9192685220178245	25.650505	5.064633
1.9367977500923557	24.818094	4.981776
1.9543270234928547	24.331984	4.932746
1.971856342629867	23.847141	4.8833537
1.9893857079139496	23.213999	4.818091
2.006915119755667	22.662663	4.760532
2.0244445785655945	22.167694	4.708258
2.0419740847543175	22.05728	4.696518
2.0595036387324317	21.661518	4.6541934
2.0770332409105414	21.22575	4.607141
2.094562891699263	20.746147	4.554794
2.1120925915092217	20.09931	4.4832253
2.129622340751053	19.829565	4.45304
2.1471521398354043	188.10045	13.714972
2.1646819891729323	444.4584	21.082182
2.182211889174303	440.63177	20.99123
2.1997418402501974	452.90485	21.28156
2.2172718428113023	432.81738	20.804264
2.234801897268317	320.79074	17.910631
2.2523320040319548	17.37133	4.167893
2.269862163512935	17.002974	4.123466
2.287392376121992	16.504614	4.0625873
2.304922642269869	16.287832	4.0358186
2.322452962367322	16.061886	4.007728
2.3399833368251164	15.971697	3.9964604
2.357513766054032	15.724271	3.965384
2.3750442504648586	15.525156	3.9401975
2.3925747904683963	15.223596	3.9017427
2.410105386475459	15.043619	3.8786104
2.4276360388968707	14.5232115	3.810933
2.445166748143469	14.173974	3.764834
2.4626975146261025	13.721747	3.7042878
2.4802283387556323	13.506267	3.6750872
2.4977592209429305	13.464448	3.6693933
2.5152901615988825	13.552214	3.681333
2.5328211611343865	13.483829	3.6720333
2.5503522199603523	12.990435	3.6042244
2.5678833384877024	12.708942	3.5649605
2.5854145171273712	12.27437	3.5034797
2.6029457562903064	12.244403	3.4992003
2.620477056387469	12.017419	3.466615
2.6380084178298326	11.899873	3.4496193
2.655539841028383	11.539533	3.3969889
2.673071326394119	11.43179	3.381093
2.6906028743380523	11.302538	3.3619246
2.708134485271211	11.205478	3.3474584
2.7256661596046325	11.058889	3.325491
2.743197897749369	10.7282	3.275393
2.760729700116486	10.627225	3.2599425
2.778261567117063	10.570886	3.2512898
2.795793499162193	10.41549	3.2273037
2.8133254966629817	10.150909	3.1860492
2.830857560030551	10.004375	3.1629694
2.8483896896760337	9.886525	3.1442845
2.865921886010578	9.7843075	3.1279879
2.883454149445347	9.595898	3.0977247
2.9009864803915177	9.41636	3.0686088
2.91851887926028	9.195075	3.0323381
2.9360513464628384	9.104811	3.017418
2.953583882410413	8.9479475	2.991312
2.9711164875142373	8.950831	2.991794
2.9886491621855606	8.93495	2.9891386
3.0061819068356455	8.8506775	2.9750087
3.023714721875769	8.741311	2.9565709
3.041247607717225	8.588032	2.9305344
3.0587805647713213	8.583717	2.9297981
3.0763135934493806	8.504906	2.9163172
3.0938466941627407	8.356561	2.8907716
3.1113798673227544	8.325787	2.885444
3.1289131133407904	8.202273	2.8639612
3.1464464326282315	8.11507	2.8486962
3.1639798255964786	7.8898587	2.8088892
3.1815132926569443	7.7729554	2.788002
3.1990468342210603	7.6437716	2.7647371
3.216580450700272	7.687215	2.7725828
3.2341141425060416	7.6209836	2.760613
3.251647910049847	7.5759506	2.7524445
3.2691817537431813	7.3782067	2.7162855
3.286715673997555	7.2100663	2.6851566
3.3042496712244938	7.0352826	2.6524107
3.32178374583554	6.9986577	2.6454976
3.339317898242251	6.935392	2.6335132
3.3568521288562034	6.907786	2.6282668
3.3743864380889876	6.914914	2.6296225
3.3919208263522127	6.779437	2.6037352
3.4094552940575023	6.828218	2.613086
3.4269898416164972	6.8089314	2.609393
3.444524469440858	6.7788835	2.6036289
3.4620591779422587	6.676281	2.5838501
3.479593967532391	6.6330066	2.5754623
3.4971288386229658	6.525641	2.5545335
3.5146637916257086	6.5998616	2.5690196
3.5321988269523628	6.4964843	2.5488203
3.5497339450146903	6.5041018	2.550314
3.5672691462244708	6.4025836	2.5303328
3.5848044309934988	6.408138	2.53143
3.60233979973359	6.4172225	2.5332236
3.619875252856575	6.4523	2.5401378
3.6374107907743034	6.4279437	2.5353389
3.6549464138986427	6.3275313	2.5154586
3.6724821226414788	6.311301	2.5122304
3.690017917414714	6.3966737	2.5291646
3.7075537986302702	6.428325	2.5354142
3.7250897667000857	6.5450544	2.5583303
3.7426258220361235	6.7135854	2.5910587
3.7601619650503553	7.018135	2.6491764
3.777698196154779	7.583951	2.7538974
3.7952345157614067	8.5607605	2.9258778
3.8127709242822716	9.433143	3.0713422
3.830307422129425	11.665668	3.415504
3.847844009714936	30.497265	5.522433
3.8653806874508954	98.00263	9.899628
3.882917455749409	97.13794	9.855858
3.900454315022606	96.80803	9.8391075
3.917991265682631	41.218884	6.420193
3.9355283081416506	10.906545	3.3025057
3.9530654428118495	8.782233	2.9634833
3.970602670105433	7.654779	2.7667272
3.9881399904346244	6.7679076	2.6015203
4.005677404211669	6.670633	2.5827568
4.023214911848827	6.4919143	2.5479236
4.0407525137583855	6.43027	2.5357978
4.058290210352644	6.4300637	2.535757
4.075828002043927	6.432815	2.5362995
4.0933658892445814	6.461526	2.541953
4.110903872366966	6.3588247	2.521671
4.128441951823468	6.298676	2.5097163
4.145980128026488	6.2856035	2.5071106
4.163518401388452	6.2715983	2.5043159
4.181056772321807	6.2397003	2.497939
4.1985952412390155	6.1678333	2.4835124
4.216133808552567	6.169029	2.483753
4.233672474674966	6.299052	2.5097911
4.251211240018741	6.5297627	2.55534
4.268750104996445	6.848224	2.6169112
4.286289070020643	7.874565	2.8061655
4.303828135503928	9.48554	3.0798604
4.3213673018589125	29.799932	5.4589314
4.3389065694982305	90.90303	9.534308
4.356445938834537	166.27217	12.894657
4.3739854102805085	171.90591	13.11129
4.391524984248844	172.83157	13.146543
4.409064661152262	136.83586	11.697686
4.426604441403504	97.018585	9.849801
4.444144325415337	75.80842	8.706803
4.461684313600543	21.750671	4.6637616
4.47922440637193	22.234343	4.7153306
4.496764604142329	20.72318	4.552272
4.5143049073245916	19.060417	4.3658237
4.531845316331589	16.90884	4.112036
4.5493858315762195	13.945816	3.7344098
4.566926453471405	11.4271145	3.3804016
4.584467182430081	9.238928	3.0395606
4.602008018865218	8.070974	2.840946
4.619548963189798	7.3004055	2.7019262
4.637090015816834	6.9368453	2.633789
4.654631177159353	6.78116	2.6040661
4.672172447630417	6.5047264	2.5504365
4.689713827643102	6.2816806	2.506328
4.7072553176105085	6.092092	2.4682164
4.724796917945764	5.947869	2.4388254
4.742338629062015	5.894254	2.4278085
4.759880451372434	5.8408265	2.4167802
4.777422385290215	5.7606125	2.4001276
4.794964431228581	5.7272296	2.3931632
4.812506589600768	5.660828	2.3792496
4.830048860820047	5.6067486	2.3678575
4.847591245299709	5.5680447	2.3596704
4.8651337434530655	5.6140504	2.3693988
4.882676355693457	5.60713	2.367938
4.900219082434242	5.582982	2.3628335
4.917761924088813	5.5526767	2.356412
4.935304881070575	5.636078	2.3740425
4.952847953792969	5.661956	2.3794866
4.970391142669449	5.6270404	2.3721383
4.9879344481135055	5.582221	2.3626723
5.005477870538642	5.53171	2.3519588
5.023021410358394	5.4701385	2.3388326
5.040565067986324	5.495331	2.3442123
5.05810884383601	5.504124	2.346087
5.075652738321066	5.5543847	2.3567743
5.09319675185512	5.4816227	2.3412867
5.110740884851836	5.4598846	2.3366396
5.128285137724894	5.467442	2.3382561
5.145829510888007	5.485362	2.342085
5.163374004754908	5.428938	2.330008
5.1809186197393595	5.384044	2.3203542
5.198463356255145	5.338051	2.3104222
5.216008214716077	5.38056	2.3196034
5.233553195535998	5.40139	2.324089
5.251098299128764	5.3799787	2.319478
5.268643525908272	5.3192787	2.3063562
5.286188876288432	5.3198385	2.3064775
5.3037343506831895	5.346813	2.3123176
5.32127994950651	5.368038	2.3169026
5.3388256731723915	5.348388	2.3126583
5.356371522094851	5.315733	2.3055873
5.373917496687938	5.2776947	2.2973235
5.391463597365729	5.2420416	2.2895505
5.40900982454232	5.1712546	2.2740393
5.426556178631843	5.1650133	2.2726665
5.444102660048449	5.109885	2.2605054
5.4616492692063225	5.1670685	2.2731187
5.479196006519669	5.178764	2.2756898
5.496742872402727	5.178889	2.2757173
5.514289867269756	5.1948543	2.2792222
5.531836991535049	5.2261424	2.2860758
5.549384245612924	5.2500095	2.29129
5.566931629917724	5.19078	2.2783284
5.584479144863822	5.1946497	2.2791774
5.6020267908656205	5.18789	2.277694
5.619574568337545	5.2369676	2.2884421
5.637122477694054	5.2877936	2.2995203
5.654670519349629	5.2542815	2.292222
5.672218693718784	5.262875	2.2940958
5.689767001216059	5.280301	2.2978907
5.707315442256021	5.260981	2.2936828
5.724864017253266	5.2082424	2.2821574
5.7424127266224225	5.1332917	2.265677
5.75996157077814	5.1048303	2.2593873
5.777510550135105	5.17388	2.2746165
5.795059665108022	5.1978507	2.2798796
5.812608916111639	5.2310443	2.2871475
5.830158303560715	5.2644773	2.2944448
5.847707827870055	5.337958	2.3104022
5.86525748945448	5.4872384	2.3424854
5.8828072887288485	5.6492014	2.3768048
5.900357226108044	5.718316	2.3913
5.917907302006979	5.6894774	2.3852625
5.9354575168406	6.323351	2.5146275
5.9530078710238765	6.917525	2.6301188
5.970558364971812	7.4871798	2.7362711
5.988108999099438	7.80857	2.7943819
6.005659773821818	8.374801	2.8939247
6.023210689554039	8.196545	2.8629608
6.040761746711227	8.631919	2.9380128
6.058312945708531	7.9056034	2.8116906
6.075864286961132	7.422106	2.7243543
6.093415770884244	6.762425	2.6004663
6.1109673978931065	6.270805	2.5041575
6.128519168402993	5.7144637	2.3904943
6.146071082829204	5.6128793	2.3691516
6.163623141587075	5.4649096	2.3377147
6.181175345091969	5.3657007	2.3163981
6.198727693759281	5.2244563	2.285707
6.216280188004435	5.18174	2.2763436
6.233832828242885	5.087912	2.25564
6.251385614890126	5.1362724	2.2663345
6.268938548361669	5.1383967	2.2668033
6.286491629073067	5.110978	2.2607472
6.304044857439898	5.1095133	2.2604232
6.321598233877777	5.0311365	2.2430196
6.339151758802344	5.05752	2.248893
6.356705432629277	5.1062107	2.2596927
6.37425925577428	5.0892534	2.2559373
6.391813228653095	5.090415	2.2561948
6.409367351681486	5.076854	2.2531877
6.426921625275259	5.1197615	2.2626889
6.44447604985025	5.0910454	2.2563345
6.46203062582232	5.042451	2.2455401
6.47958535360737	5.0662966	2.2508435
6.497140233621328	5.165318	2.2727337
6.514695266280161	5.1458893	2.2684553
6.532250451999859	5.1115007	2.2608628
6.549805791196454	5.043929	2.2458694
6.567361284286002	5.0648246	2.2505164
6.584916931684597	5.1051025	2.2594473
6.602472733808367	5.1076903	2.26002
6.6200286910734665	5.0715904	2.2520192
6.637584803896092	4.96015	2.2271395
6.655141072692462	5.03966	2.2449186
6.672697497878842	5.060006	2.2494457
6.690254079871514	5.1404705	2.2672606
6.707810819086808	5.08721	2.2554846
6.725367715941078	5.0950694	2.257226
6.742924770850719	5.092543	2.2566664
6.760481984232151	5.1272926	2.2643526
6.778039356501836	5.080904	2.254086
6.795596888076266	5.042402	2.2455292
6.813154579371963	5.0637827	2.250285
6.830712430805492	5.1018124	2.2587192
6.84827044279344	5.1302905	2.2650144
6.865828615752445	5.0704713	2.2517707
6.883386950099159	5.015947	2.239631
6.900945446250287	5.0262985	2.2419407
6.918504104622553	5.0119295	2.238734
6.936062925632727	5.0646906	2.2504869
6.953621909697607	5.0827284	2.2544906
6.971181057234028	5.137924	2.266699
6.988740368658859	5.1862984	2.2773447
7.006299844389007	5.229804	2.2868764
7.023859484841407	5.3268347	2.3079937
7.041419290433036	5.457505	2.3361304
7.058979261580902	5.5704546	2.360181
7.0765393987020495	5.7917023	2.4065955
7.094099702213559	6.155105	2.4809484
7.111660172532549	6.527859	2.5549676
7.129220810076164	6.889962	2.6248736
7.146781615261595	7.433029	2.7263582
7.16434258850606	7.6881814	2.772757
7.181903730226821	8.105044	2.846936
7.1994650408411704	8.184786	2.8609064
7.217026520766437	8.307544	2.882281
7.234588170419983	8.523993	2.9195879
7.252149990219215	8.547086	2.9235399
7.269711980581568	8.476154	2.9113836
7.2872741419245175	8.314893	2.8835557
7.304836474665574	7.896333	2.8100414
7.322398979222286	7.5905514	2.7550955
7.339961656012233	7.3609324	2.7131038
7.357524505453039	6.958349	2.6378684
7.375087527962357	6.6889563	2.5863016
7.392650723957886	6.3270564	2.5153642
7.410214093857353	5.9421844	2.4376597
7.427777638078528	5.731355	2.3940248
7.445341357039213	5.515891	2.3485935
7.4629052511572525	5.414031	2.326807
7.480469320850524	5.3757463	2.3185656
7.498033566536948	5.3317676	2.309062
7.5155979886344735	5.258165	2.293069
7.5331625875610975	5.2031913	2.2810504
7.550727363734844	5.249245	2.2911232
7.568292317573788	5.299576	2.3020809
7.585857449496025	5.305516	2.3033705
7.603422759919705	5.317103	2.3058844
7.620988249263007	5.3455057	2.312035
7.638553917944147	5.311946	2.304766
7.656119766381391	5.276729	2.2971132
7.673685794993023	5.2892237	2.2998312
7.691252004197388	5.254301	2.2922263
7.70881839441285	5.289539	2.2998998
7.726384966057826	5.2727885	2.2962554
7.743951719550762	5.2467055	2.2905688
7.761518655310149	5.2540073	2.2921622
7.779085773754511	5.3280883	2.3082652
7.796653075302419	5.4166145	2.327362
7.814220560372475	5.3787823	2.3192203
7.831788229383323	5.2864985	2.2992387
7.8493560827536495	5.265039	2.2945673
7.866924120902174	5.2832203	2.2985256
7.884492344247663	5.3564186	2.3143938
7.9020607532089135	5.4063373	2.325153
7.919629348204771	5.4388576	2.332136
7.937198129654115	5.4895372	2.342976
7.954767097975865	5.498324	2.3448505
7.972336253588986	5.474739	2.339816
7.989905596912472	5.4868145	2.342395
8.007475128365371	5.4769115	2.3402803
8.025044848366756	5.598855	2.36619
8.042614757335754	5.729271	2.3935895
8.060184855691523	5.748818	2.3976693
8.07775514385327	5.7758055	2.4032905
8.095325622240228	5.7440753	2.39668
8.112896291271687	5.8142333	2.411272
8.130467151366968	5.930166	2.435193
8.148038202945436	5.957976	2.4408965
8.165609446426497	5.9907	2.4475906
8.183180882229594	5.988706	2.4471834
8.200752510774217	5.97089	2.4435406
8.218324332479893	5.9559336	2.440478
8.235896347766193	5.941228	2.4374635
8.253468557052724	5.9371443	2.4366255
8.27104096075914	5.9877396	2.4469857
8.288613559305137	6.047185	2.4591024
8.306186353110448	6.155064	2.48094
8.32375934259485	6.2863173	2.507253
8.341332528178162	6.3370547	2.5173507
8.358905910280246	6.338439	2.5176256
8.376479489321003	6.32603	2.51516
8.394053265720377	6.361444	2.5221903
8.411627239898356	6.4037	2.5305533
8.42920141227497	6.394137	2.5286632
8.44677578327029	6.350796	2.5200787
8.464350353304427	6.286642	2.5073178
8.48192512279754	6.227997	2.4955955
8.499500092169827	6.2417846	2.4983563
8.51707526184153	6.242823	2.4985642
8.534650632232934	6.28403	2.5067968
8.552226203764365	6.2623444	2.5024676
8.569801976856192	6.3498554	2.519892
8.587377951928834	6.421032	2.5339756
8.60495412940274	6.4425464	2.538217
8.622530509698416	6.430991	2.53594
8.6401070932364	6.5130024	2.5520585
8.657683880437283	6.685045	2.5855453
8.675260871721695	6.8317833	2.613768
8.692838067510303	6.990231	2.6439044
8.710415468223834	7.142009	2.6724536
8.727993074283043	7.2698865	2.6962726
8.745570886108737	7.2595377	2.6943529
8.763148904121765	7.234071	2.6896229
8.78072712874302	7.2070932	2.684603
8.798305560393441	7.4217157	2.7242825
8.815884199494006	7.5798855	2.7531593
8.833463046465745	7.8428235	2.8005042
8.851042101729728	8.025763	2.8329778
8.86862136570707	8.379418	2.8947225
8.886200838818924	8.447842	2.906517
8.903780521486505	8.437158	2.9046786
8.921360414131055	8.496701	2.91491
8.938940517173874	8.519984	2.9189012
8.956520831036297	8.682196	2.9465566
8.97410135613971	8.999139	2.9998565
8.99168209290554	9.315623	3.0521505
9.009263041755265	9.655336	3.1073036
9.026844203110405	9.877476	3.1428452
9.044425577392525	10.017439	3.1650338
9.062007165023239	10.079389	3.1748054
9.079588966424197	10.356389	3.2181344
9.097170982017108	10.49569	3.2397053
9.11475321222372	11.526109	3.3950124
9.132335657465825	12.4693985	3.5312035
9.149918318165264	12.603206	3.5500994
9.167501194743924	13.146203	3.6257694
9.18508428762374	12.821514	3.5807142
9.202667597226693	12.818106	3.580238
9.220251123974803	12.447175	3.5280554
9.237834868290143	12.095683	3.4778848
9.255418830594836	11.873618	3.4458117
9.273003011311046	11.309734	3.362995
9.290587410860985	11.027286	3.3207357
9.308172029666911	10.442952	3.2315557
9.32575686815113	10.205026	3.1945305
9.343341926735997	8.970474	2.995075
9.360927205843916	8.73401	2.9553359
9.378512705897327	8.481311	2.912269
9.396098427318728	8.257753	2.8736308
9.413684370530664	8.188475	2.861551
9.431270535955722	8.106109	2.847123
9.448856924016539	8.000253	2.828472
9.466443535135806	7.85393	2.8024864
9.484030369736251	7.812489	2.795083
9.501617428240658	7.813254	2.79522
9.519204711071852	7.8652277	2.8045013
9.536792218652714	7.8910556	2.8091023
9.55437995140617	7.9286075	2.8157783
9.571967909755191	7.9844074	2.8256693
9.589556094122802	8.017233	2.831472
9.60714450493207	8.043648	2.8361325
9.624733142606116	8.078755	2.8423152
9.642322007568108	8.063136	2.8395662
9.659911100241267	8.039241	2.8353555
9.677500421048851	8.048778	2.8370368
9.695089970414175	8.065434	2.8399708
9.712679748760609	8.099491	2.8459604
9.730269756511557	8.13437	2.8520818
9.747859994090492	8.182306	2.8604732
9.765450461920915	8.1928	2.8623066
9.78304116042639	8.203819	2.864231
9.800632090030527	8.261241	2.8742375
9.81822325115699	8.351697	2.8899302
9.835814644229481	8.435038	2.9043136
9.853406269671762	8.396895	2.8977396
9.870998127907646	8.4138365	2.9006615
9.888590219360985	8.392022	2.8968987
9.906182544455698	8.414673	2.9008055
9.923775103615734	8.43244	2.9038663
9.941367897265108	8.433089	2.903978
9.958960925827878	8.551364	2.9242716
9.97655418972816	8.5902	2.9309044
9.994147689390106	8.605114	2.9334474
10.011741425237934	8.542784	2.922804
10.029335397695904	8.481217	2.912253
10.04692960718833	8.441958	2.905505
10.06452405413958	8.37367	2.8937294
10.082118738974064	8.325993	2.8854797
10.099713662116246	8.287989	2.8788867
10.117308823990651	8.299565	2.8808966
10.134904225021844	8.350587	2.8897383
10.152499865634445	8.372487	2.8935251
10.170095746253125	8.401864	2.898597
10.18769186730261	8.390493	2.8966348
10.205288229207675	8.403297	2.8988442
10.222884832393145	8.451856	2.9072075
10.2404816772839	8.439763	2.905127
10.258078764304868	8.385042	2.8956938
10.275676093881035	8.264805	2.8748574
10.293273666437438	8.209536	2.8652287
10.310871482399158	8.29456	2.8800278
10.32846954219134	8.318514	2.8841834
10.346067846239173	8.317477	2.8840036
10.363666394967908	8.302615	2.8814259
10.38126518880283	8.31613	2.88377
10.398864228169298	8.389925	2.8965368
10.416463513492713	8.434632	2.904244
10.434063045198531	8.385622	2.895794
10.451662823712262	8.386994	2.896031
10.469262849459467	8.373927	2.8937738
10.486863122865758	8.281082	2.877687
10.504463644356806	8.212025	2.865663
10.522064414358338	8.1940155	2.862519
10.539665433296118	8.078191	2.8422158
10.557266701595987	7.9759316	2.8241692
10.574868219683818	7.786803	2.7904844
10.592469987985552	7.701962	2.775241
10.610072006927185	7.6486464	2.7656186
10.627674276934751	7.6206484	2.7605522
10.64527679843435	7.5186872	2.7420225
10.662879571852143	7.399593	2.7202194
10.680482597614331	7.2230186	2.6875675
10.698085876147173	7.1598153	2.6757832
10.715689407876988	7.0692954	2.6588147
10.733293193230146	7.005645	2.646818
10.750897232633072	6.8741884	2.6218674
10.76850152651225	6.7606707	2.600129
10.786106075294207	6.6839724	2.5853379
10.803710879405534	6.642087	2.5772247
10.821315939272877	6.5831437	2.5657637
10.83892125532294	6.471626	2.543939
10.856526827982472	6.3988504	2.529595
10.874132657678285	6.319173	2.5137966
10.891738744837243	6.275489	2.5050926
10.909345089886271	6.225089	2.4950128
10.926951693252343	6.171222	2.4841945
10.944558555362494	6.142916	2.4784908
10.96216567664381	6.0667233	2.4630718
10.979773057523436	6.0780287	2.465366
10.997380698428573	6.025457	2.4546807
11.014988599786477	5.9328713	2.4357486
11.032596762024461	5.8409657	2.416809
11.050205185569892	5.818808	2.4122205
11.067813870850198	5.6762633	2.382491
11.085422818292859	5.5625143	2.3584983
11.10303202832541	5.479236	2.340777
11.120641501375454	5.4727974	2.339401
11.138251237870636	5.4592867	2.3365116
11.155861238238671	5.4194965	2.3279812
11.173471502907317	5.2987065	2.301892
11.191082032304402	5.192084	2.2786145
11.208692826857805	5.1427927	2.2677727
11.226303886995465	5.140041	2.267166
11.243915213145371	5.070187	2.2517076
11.261526805735578	5.027034	2.2421048
11.279138665194196	4.972772	2.2299714
11.296750791949393	4.91933	2.2179563
11.314363186429393	4.84535	2.2012155
11.331975849062479	4.809013	2.1929462
11.34958878027699	4.754041	2.1803763
11.36720198050133	4.739494	2.177038
11.384815450163948	4.698941	2.167704
11.402429189693366	4.681657	2.1637137
11.420043199518153	4.595837	2.1437902
11.437657480066942	63.556904	7.9722586
11.455272031768422	85.21339	9.23111
11.472886855051353	107.5987	10.372979
11.490501950344528	99.178505	9.95884
11.508117318076819	84.533844	9.194229
11.52573295867715	45.949295	6.778591
11.543348872574514	4.2669897	2.0656693
11.560965060197946	4.1590586	2.039377
11.57858152197655	4.0786657	2.0195706
11.59619825833949	4.0251236	2.0062711
11.613815269715985	4.0194197	2.004849
11.631432556535323	38.556137	6.2093587
11.649050119226837	83.064735	9.113986
11.666667958219929	93.4382	9.666344
11.68428607394406	107.676926	10.376749
11.701904466828756	82.479195	9.081805
11.719523137303586	65.29614	8.080603
11.737142085798196	4.512789	2.1243327
11.754761312742286	3.6176183	1.9020038
11.772380818565619	3.6362553	1.9068967
11.790000603698015	3.6551163	1.9118359
11.80762066856935	3.6569345	1.9123113
11.825241013609572	3.6579313	1.9125719
11.842861639248683	3.6442878	1.9090018
11.860482545916748	3.57058	1.8895979
11.878103734043883	3.5312562	1.8791637
11.895725204060282	3.4812343	1.8658066
11.91334695639619	3.4865441	1.867229
11.930968991481919	3.458658	1.8597467
11.948591309747824	3.3903437	1.8412886
11.966213911624347	3.32598	1.8237269
11.98383679754198	3.3168538	1.8212231
12.001459967931268	3.342763	1.8283224
12.019083423222835	3.3424175	1.828228
12.036707163847352	3.2855926	1.8126204
12.05433119023556	3.271655	1.8087717
12.071955502818259	3.256071	1.8044586
12.089580102026313	3.2614884	1.8059591
12.107204988290643	3.2220535	1.795008
12.12483016204224	3.1963158	1.7878243
12.142455623712152	3.175457	1.7819812
12.16008137373149	3.152706	1.7755861
12.177707412531431	3.1118383	1.7640404
12.19533374054321	3.117713	1.7657046
12.212960358198126	3.111927	1.7640655
12.230587265927545	3.1192968	1.7661531
12.248214464162889	3.0794723	1.7548425
12.265841953335649	3.0237193	1.7388844
12.283469733877375	3.008431	1.7344829
12.301097806219685	3.0068874	1.7340379
12.31872617079425	3.0030594	1.7329338
12.336354828032825	2.964894	1.7218868
12.353983778367205	2.9272978	1.7109348
12.371613022229262	2.959533	1.7203293
12.389242560050928	2.9570632	1.7196114
12.406872392264201	2.9393303	1.7144475
12.424502519301143	2.9071078	1.7050242
12.442132941593874	2.8902996	1.7000881
12.459763659574586	2.9056208	1.7045882
12.477394673675532	2.9047499	1.7043327
12.49502598432903	2.9238086	1.7099148
12.51265759196746	2.9607387	1.7206798
12.530289497023267	2.9642763	1.7217073
12.547921699928967	2.9633293	1.7214323
12.565554201117134	2.9404354	1.7147698
12.583187001020404	2.8943796	1.7012876
12.600820100071486	2.8643987	1.6924535
12.618453498703152	2.8216698	1.6797826
12.636087197348235	2.7851593	1.6688796
12.65372119643964	2.7857075	1.6690439
12.671355496410326	2.7762518	1.6662089
12.68899009769333	2.7831252	1.6682701
12.706625000721749	2.80479	1.6747507
12.724260205928752	2.8739626	1.6952766
12.741895713747551	2.907913	1.7052604
12.759531524611454	2.968373	1.7228967
12.777167638953818	2.9700124	1.7233723
12.794804057208072	3.0110998	1.7352521
12.812440779807702	3.0381815	1.743038
12.830077807186271	3.2317708	1.7977127
12.847715139777405	3.3306973	1.8250198
12.865352778014795	3.517578	1.8755207
12.882990722332197	3.643451	1.9087826
12.90062897316344	3.7172759	1.9280238
12.918267530942412	3.8667467	1.9664046
12.935906396103071	3.7214284	1.9291004
12.953545569079449	3.829794	1.956986
12.971185050305628	3.5731974	1.8902903
12.988824840215775	3.570202	1.8894979
13.006464939244115	3.5599167	1.8867742
13.024105347824943	3.3507104	1.8304945
13.041746066392617	3.4228146	1.850085
13.05938709538157	3.3049734	1.8179586
13.077028435226296	3.401635	1.8443521
13.094670086361363	3.3520336	1.830856
13.112312049221401	3.2403576	1.8000994
13.129954324241112	3.1405013	1.772146
13.147596911855258	2.9586918	1.7200848
13.165239812498685	2.9502563	1.717631
13.182883026606293	2.8329847	1.6831473
13.200526554613058	2.7554274	1.659948
13.218170396954017	2.7612092	1.6616887
13.235814554064284	2.7983558	1.6728287
13.253459026379034	2.8191414	1.67903
13.271103814333523	2.742573	1.6560715
13.288748918363058	2.7076035	1.6454797
13.306394338903031	2.698174	1.642612
13.32404007638889	2.6887999	1.6397561
13.341686131256164	2.7300687	1.6522919
13.359332503940449	2.7181137	1.6486703
13.376979194877402	2.7118678	1.646775
13.394626204502751	2.7154334	1.6478572
13.412273533252307	2.7327905	1.6531154
13.429921181561937	2.736471	1.6542282
13.447569149867581	2.7513962	1.6587332
13.465217438605247	2.746663	1.657306
13.482866048211022	2.737716	1.6546044
13.500514979121052	2.7090466	1.6459181
13.518164231771568	2.6896079	1.6400024
13.535813806598844	2.6681466	1.6334462
13.553463704039254	2.7059855	1.6449881
13.571113924529229	2.7415123	1.6557512
13.588764468505275	2.72461	1.6506393
13.606415336403956	2.6958766	1.6419125
13.624066528661917	2.6824052	1.637805
13.641718045715882	2.7572498	1.6604968
13.659369888002635	2.8714664	1.6945401
13.67702205595903	2.9626172	1.7212255
13.694674550021993	3.0203762	1.7379229
13.712327370628532	3.0571456	1.7484695
13.729980518215713	3.1166058	1.7653911
13.747633993220681	3.1869702	1.7852087
13.765287796080647	3.1890018	1.7857777
13.7829419272329	3.2428467	1.8007905
13.800596387114801	3.277637	1.8104246
13.818251176163775	3.3659625	1.834656
13.835906294817324	3.442279	1.855338
13.853561743513023	3.4635503	1.8610616
13.871217522688525	3.4793603	1.8653044
13.888873632781538	3.4948645	1.8694557
13.906530074229858	3.542148	1.8820596
13.92418684747135	3.547982	1.8836088
13.941843952943948	3.5243826	1.8773339
13.959501391085665	3.4684167	1.8623686
13.977159162334578	3.4292638	1.8518271
13.994817267128846	3.3787816	1.8381462
14.012475705906693	3.2703707	1.8084166
14.030134479106424	3.2103972	1.7917582
14.047793587166414	3.1071281	1.7627047
14.065453030525108	3.0623755	1.7499645
14.083112809621026	3.0030932	1.7329435
14.100772924892766	2.9867811	1.7282306
14.118433376778997	2.9698086	1.7233132
14.136094165718458	2.8604546	1.6912879
14.153755292149969	2.7803953	1.6674517
14.171416756512416	2.7130868	1.647145
14.189078559244768	2.6769664	1.6361438
14.20674070078606	2.603778	1.6136225
14.224403181575408	2.5843763	1.6075996
14.242066002051999	2.5645463	1.60142
14.259729162655093	2.5586798	1.5995874
14.277392663824022	2.5469456	1.5959153
14.295056505998208	2.479804	1.5747393
14.312720689617128	2.442881	1.5629718
14.330385215120348	2.4113312	1.5528462
14.348050082947497	2.4250796	1.5572667
14.3657152935383	2.4380267	1.5614182
14.383380847332528	2.4242027	1.5569851
14.401046744770051	2.407651	1.5516607
14.418712986290798	2.3836281	1.5439003
14.436379572334793	2.367561	1.5386881
14.454046503342123	2.3535416	1.5341257
14.471713779752946	2.38805	1.5453317
14.489381402007504	2.423195	1.5566615
14.507049370546113	2.4413292	1.5624753
14.524717685809168	2.4081247	1.5518134
14.542386348237134	2.413335	1.5534912
14.560055358270553	2.4207714	1.5558828
14.577724716350051	2.4646218	1.5699114
14.595394422916325	2.458084	1.5678278
14.61306447841015	2.4620013	1.5690765
14.63073488327237	2.4794593	1.5746299
14.648405637943917	2.526633	1.5895386
14.6660767428658	2.520354	1.5875623
14.683748198479094	2.549387	1.59668
14.701420005224954	2.5952835	1.6109884
14.719092163544628	2.6754782	1.6356889
14.73676467387942	2.7163682	1.6481408
14.754437536670727	2.704519	1.6445422
14.772110752360014	2.685174	1.6386501
14.78978432138882	2.6866727	1.6391072
14.807458244198777	2.7082076	1.6456633
14.82513252123159	2.6919396	1.6407131
14.842807152929028	2.6786928	1.6366713
14.860482139732962	2.6428452	1.625683
14.87815748208531	2.6480005	1.6272678
14.8958331804281	2.646565	1.6268266
14.91350923520342	2.593345	1.6103866
14.931185646853438	2.614098	1.6168172
14.948862415820408	2.5976703	1.611729
14.966539542546656	2.6387534	1.624424
14.98421702747459	2.633087	1.6226789
15.001894871046696	2.649071	1.6275967
15.019573073705542	2.6560647	1.6297438
15.037251635893766	2.6360052	1.6235778
15.054930558054092	2.6362479	1.6236526
15.072609840629323	2.7216773	1.6497507
15.090289484062351	2.8723676	1.6948061
15.107969488796124	3.1580565	1.7770921
15.125649855273691	3.5514846	1.8845383
15.14333058393817	4.0995855	2.0247433
15.161011675232768	5.100037	2.258326
15.17869312960076	6.4847317	2.5465136
15.196374947485506	8.262961	2.8745368
15.214057129330447	11.3077965	3.3627067
15.231739675579114	15.950268	3.9937787
15.249422586675102	21.092527	4.59266
15.267105863062092	24.342056	4.933767
15.284789505183847	24.857498	4.985729
15.302473513484218	22.824413	4.77749
15.320157888407127	19.235968	4.385883
15.337842630396578	14.934363	3.8645003
15.355527739896656	11.623363	3.4093053
15.37321321735153	9.071373	3.011872
15.39089906320545	6.6440244	2.5776005
15.408585277902748	5.0051336	2.2372155
15.42627186188783	3.8258746	1.9559844
15.443958815605198	3.263785	1.8065948
15.461646139499424	2.9744864	1.7246699
15.479333834015168	2.852244	1.6888587
15.497021899597165	2.7780352	1.6667439
15.514710336690234	2.703954	1.6443704
15.53239914573928	2.6686249	1.6335926
15.550088327189297	2.6575644	1.6302038
15.567777881485336	2.6114726	1.6160052
15.58546780907256	2.567314	1.602284
15.6031581103962	2.5358746	1.592443
15.620848785901568	2.5228403	1.5883452
15.638539836034063	2.5066857	1.5832516
15.656231261239173	2.4828768	1.5757147
15.673923061962451	2.4927971	1.5788594
15.691615238649552	2.4980254	1.5805143
15.709307791746202	2.440451	1.5621942
15.727000721698221	2.408052	1.5517899
15.744694028951498	2.4174252	1.5548071
15.76238771395202	2.4198787	1.555596
15.780081777145844	2.408582	1.5519607
15.797776218979125	2.363298	1.5373021
15.815471039898094	2.3983457	1.5486593
15.833166240349064	2.430266	1.558931
15.850861820778437	2.4446244	1.5635295
15.868557781632699	2.4237268	1.5568323
15.886254123358412	2.4380631	1.5614299
15.903950846402232	2.4712684	1.5720268
15.921647951210897	2.4688358	1.571253
15.939345438231225	2.4592388	1.568196
15.957043307910133	2.4383407	1.5615187
15.974741560694602	2.458446	1.5679432
15.992440197031714	2.4364514	1.5609137
16.01013921736862	2.444109	1.5633646
16.02783862215259	2.4508986	1.5655346
16.045538411830933	2.4423103	1.5627893
16.06323858685107	2.4382415	1.561487
16.080939147660512	2.4393854	1.5618532
16.09864009470684	2.4105673	1.5526001
16.11634142843774	2.4014318	1.5496554
16.134043149300954	2.4231188	1.556637
16.15174525774433	2.4483645	1.564725
16.169447754215817	2.4769552	1.5738345
16.18715063916342	2.4611611	1.5688088
16.204853913035244	2.4479332	1.5645872
16.222557576279478	2.4354258	1.560585
16.240261629344403	22.431927	4.7362356
16.257966072678386	43.000282	6.55746
16.275670906729868	38.127213	6.1747236
16.293376131947387	2.5741851	1.6044267
16.31108174877957	2.5806224	1.6064316
16.328787757675133	2.6063917	1.6144323
16.34649415908287	2.606248	1.6143878
16.364200953451657	2.612152	1.6162153
16.38190814123048	2.631036	1.6220468
16.39961572286839	2.6699893	1.6340102
16.41732369881455	2.737613	1.6545733
16.43503206951817	2.7591047	1.6610553
16.45274083542859	2.747542	1.6575711
16.47044999699522	2.748843	1.6579635
16.488159554667558	2.7827575	1.66816
16.505869508895184	2.8766906	1.6960809
16.523579860127786	2.9507654	1.7177792
16.541290608815117	3.030881	1.7409426
16.559001755407035	3.0422196	1.7441959
16.57671330035348	3.121114	1.7666675
16.59442524410448	3.171853	1.7809697
16.61213758711015	3.2550323	1.8041708
16.629850329820705	3.3152568	1.8207847
16.647563472686436	3.3698235	1.8357079
16.665277016157724	3.4020739	1.8444712
16.682990960685053	3.4172254	1.8485739
16.70070530671898	3.4753368	1.8642255
16.718420054710155	3.524738	1.8774285
16.736135205109335	3.6029105	1.8981334
16.753850758367335	3.662135	1.9136705
16.771566714935087	3.7348485	1.9325756
16.789283075263597	3.7916796	1.9472235
16.80699983980398	3.8409047	1.9598227
16.82471700900741	3.9025939	1.9754984
16.84243458332518	3.9713275	1.992819
16.860152563208665	4.073837	2.0183747
16.87787094910932	4.146627	2.036327
16.89558974147871	4.2286916	2.0563784
16.913308940768466	4.2489243	2.061292
16.931028547430333	4.338259	2.0828488
16.94874856191613	4.383187	2.0936062
16.966468984677785	4.4291067	2.1045444
16.98418981616729	4.4410954	2.1073906
17.00191105683676	4.497967	2.120841
17.019632707138374	4.5060096	2.1227365
17.03735476752442	4.59898	2.1445231
17.05507723844728	4.650417	2.1564825
17.072800120359403	4.736507	2.1763518
17.090523413713353	4.7506256	2.179593
17.108247118961785	4.69592	2.1670072
17.125971236557437	4.682262	2.1638534
17.143695766953133	4.634736	2.1528437
17.161420710601806	4.635911	2.1531165
17.179146067956477	4.618407	2.1490479
17.19687183947025	4.647514	2.1558094
17.21459802559634	4.6847286	2.1644235
17.232324626788028	4.6966133	2.1671672
17.25005164349871	4.676883	2.1626103
17.267779076181863	4.674362	2.1620274
17.285506925291074	4.689521	2.1655302
17.30323519127999	4.6580462	2.1582508
17.320963874602384	4.6161637	2.148526
17.33869297571211	4.613403	2.1478834
17.356422495063114	4.617511	2.1488395
17.37415243310944	4.587621	2.1418734
17.391882790305218	4.51969	2.1259563
17.40961356710468	4.499123	2.1211135
17.42734476396215	4.526303	2.127511
17.445076381332044	4.5210114	2.126267
17.462808419668868	4.637534	2.1534934
17.48054087942723	4.7938104	2.1894772
17.498273761061835	5.1441426	2.2680702
17.51600706502747	5.5787745	2.361943
17.533740791779024	6.258175	2.5016344
17.551474941771485	7.618473	2.760158
17.56920951545993	8.706188	2.950625
17.586944513299528	10.900685	3.3016186
17.60467993574556	12.624079	3.553038
17.622415783253373	14.418608	3.7971842
17.64015205627843	15.887112	3.985864
17.657888755276293	17.063992	4.1308584
17.675625880702604	17.63663	4.199599
17.69336343301311	17.369267	4.167645
17.71110141266366	16.407238	4.050585
17.728839820110178	15.37505	3.921103
17.746578655808705	14.463754	3.8031242
17.764317920215372	13.056558	3.613386
17.7820576137864	11.568373	3.401231
17.79979773697811	9.562254	3.0922894
17.81753829024692	7.6902747	2.7731345
17.835279274049356	5.9582133	2.4409451
17.85302068884201	4.88531	2.2102737
17.870762535081607	4.209518	2.051711
17.888504813224934	3.9385254	1.9845718
17.90624752372891	3.8062685	1.950966
17.923990667050536	3.7038844	1.9245478
17.941734243646895	3.586433	1.893788
17.959478253975185	3.5369172	1.8806694
17.9772226984927	3.5009189	1.8710742
17.994967577656833	3.4931667	1.8690015
18.01271289192506	3.440915	1.8549703
18.030458641754965	3.3930283	1.8420174
18.04820482760425	3.377404	1.8377714
18.06595144993067	3.4162166	1.848301
18.083698509192125	3.3838625	1.8395278
18.101446005846576	3.3609467	1.8332884
18.119193940352105	3.2592719	1.8053454
18.136942313166887	3.233697	1.7982483
18.1546911247492	3.2164207	1.7934382
18.1724403755574	3.2320223	1.7977827
18.19019006604997	3.2305722	1.7973793
18.207940196685467	3.178565	1.782853
18.225690767922575	3.1535254	1.7758168
18.243441780220046	3.1132085	1.7644286
18.261193234036764	3.1025908	1.7614173
18.278945129831676	3.117186	1.7655555
18.29669746806386	3.1161013	1.7652482
18.314450249192483	3.110902	1.763775
18.3322034736768	3.0981216	1.7601482
18.349957141976184	3.1557732	1.7764496
18.3677112545501	3.1433477	1.7729489
18.385465811858108	3.1074755	1.7628033
18.403220814359884	3.0440364	1.7447168
18.420976262515172	3.0531914	1.7473384
18.43873215678387	3.0822747	1.7556409
18.456488497625923	3.191705	1.7865343
18.474245285501407	3.3232152	1.8229688
18.492002520870486	3.408349	1.8461715
18.50976020419343	3.47124	1.8631264
18.527518335930615	3.7568142	1.9382503
18.545276916542516	4.323773	2.0793684
18.563035946489688	4.4945564	2.1200368
18.580795426232832	4.8894825	2.2112174
18.598555356232698	4.785091	2.187485
18.616315736950185	5.0938716	2.2569606
18.63407656884626	4.786097	2.187715
18.65183785238201	4.9638696	2.2279744
18.669599588018617	4.811766	2.1935737
18.68736177621737	4.810205	2.193218
18.705124417439652	4.801069	2.1911342
18.72288751214696	4.582778	2.1407423
18.740651060800886	4.740791	2.1773357
18.758415063863115	4.437758	2.1065986
18.77617952179546	4.591116	2.142689
18.793944435059814	4.348404	2.0852828
18.811709804118184	4.3712673	2.0907576
18.829475629432675	4.33641	2.0824049
18.8472419114655	4.0909004	2.0225976
18.86500865067897	4.1419387	2.0351753
18.88277584753551	3.8093288	1.9517502
18.90054350249763	3.8269293	1.9562539
18.918311616027957	3.495534	1.8696347
18.936080188589226	3.373897	1.8368171
18.953849220644265	3.017026	1.7369589
18.971618712656007	2.8515947	1.6886666
18.9893886650875	2.8421946	1.6858809
19.007159078401887	8.089862	2.8442683
19.024929953062408	32.999645	5.7445316
19.042701289532435	32.914776	5.73714
19.060473088275405	25.449509	5.0447507
19.07824534975489	2.668117	1.6334372
19.096018074434568	2.6546435	1.6293076
19.113791262778197	2.656888	1.6299963
19.13156491524966	2.684914	1.6385708
19.149339032312945	2.6685412	1.633567
19.167113614432136	2.619441	1.6184688
19.184888662071433	2.5868902	1.6083813
19.202664175695123	2.5874612	1.6085588
19.220440155767623	2.6375568	1.6240556
19.238216602753447	2.636009	1.623579
19.2559935171172	2.6214726	1.6190963
19.27377089932361	2.6046667	1.613898
19.291548749837514	2.5899982	1.6093471
19.309327069123835	2.5682304	1.6025699
19.32710585764763	2.5723505	1.6038549
19.344885115874032	2.577287	1.605393
19.362664844268313	2.5739846	1.6043643
19.380445043295822	2.5327272	1.5914544
19.39822571342203	2.4885168	1.5775033
19.41600685511252	2.4938354	1.5791882
19.43378846883297	2.503906	1.5823735
19.451570555049173	2.5083466	1.583776
19.469353114227037	2.480537	1.574972
19.48713614683254	2.436653	1.5609782
19.50491965333182	2.4570732	1.5675054
19.52270363419109	2.4836357	1.5759555
19.540488089876686	2.5372653	1.5928795
19.55827302085503	2.5429628	1.594667
19.576058427592674	2.5401175	1.5937746
19.593844310556282	2.5521789	1.597554
19.611630670212598	2.5702357	1.6031954
19.629417507028506	2.5822825	1.6069483
19.64720482147098	2.5503666	1.5969868
19.6649926140071	2.5195317	1.5873033
19.682780885104084	2.5118008	1.5848662
19.70056963522921	2.5422564	1.5944455
19.718358864849908	2.5983658	1.6119447
19.7361485744337	2.5956876	1.6111138
19.753938764448215	2.545859	1.5955749
19.771729435361202	2.5221825	1.5881381
19.789520587640506	2.5340128	1.5918583
19.807312221754092	2.5340114	1.5918578
19.825104338170043	2.5622659	1.6007079
19.842896937356517	2.5845022	1.6076387
19.860690019781824	2.556117	1.5987861
19.87848358591436	2.5321422	1.5912706
19.896277636222635	2.5145772	1.5857419
19.914072171175278	2.534409	1.5919827
19.931867191241015	2.5488327	1.5965064
19.94966269688869	2.5588844	1.5996513
19.967458688587264	2.5258753	1.5893003
19.985255166805807	2.5406692	1.5939476
20.00305213201348	2.518984	1.5871308
20.020849584679578	2.5293968	1.5904077
20.038647525273507	2.5132415	1.5853206
20.05644595426477	2.5043836	1.5825244
20.07424487212299	2.5046377	1.5826048
20.092044279317903	2.5290217	1.5902898
20.109844176319353	2.547428	1.5960664
20.127644563597304	2.4891694	1.5777102
20.145445441621817	2.4648032	1.5699692
20.16324681086307	2.4702554	1.5717046
20.181048671791373	2.4915593	1.5784674
20.198851024877122	2.4470296	1.5642984
20.216653870590836	2.4213705	1.5560753
20.234457209403146	2.366095	1.5382117
20.252261041784802	2.3709462	1.5397877
20.270065368206662	2.362468	1.5370322
20.287870189139685	2.360239	1.536307
20.305675505054968	2.360182	1.5362884
20.323481316423702	2.3766594	1.5416418
20.341287623717207	2.3752856	1.5411961
20.359094427406884	2.3462856	1.531759
20.376901727964288	2.3509057	1.5332663
20.39470952586107	2.3724213	1.5402666
20.41251782156899	2.3878741	1.5452747
20.430326615559935	2.3807428	1.5429655
20.448135908305886	2.367759	1.5387524
20.465945700278965	2.345316	1.5314424
20.483755991951384	2.3690336	1.5391666
20.50156678379548	2.3653307	1.5379632
20.519378076283708	2.3760507	1.5414443
20.537189869888635	2.3387225	1.5292882
20.55500216508294	2.312185	1.5205871
20.572814962339415	2.2942104	1.5146651
20.59062826213098	2.3163276	1.5219486
20.60844206493066	2.33842	1.5291893
20.626256371211593	2.384475	1.5441746
20.644071181447032	2.398868	1.548828
20.66188649611036	2.3786495	1.5422871
20.67970231567506	2.3578668	1.5355347
20.697518640614742	2.344626	1.5312171
20.715335471403122	2.315758	1.5217614
20.73315280851404	2.3039384	1.5178729
20.750970652421447	2.334236	1.5278206
20.768789003599412	2.360421	1.5363661
20.786607862522136	2.362444	1.5370244
20.8044272296639	2.345662	1.5315554
20.82224710549913	2.3293774	1.5262299
20.84006749050237	2.3084826	1.5193691
20.857888385148268	3.8862777	1.9713644
20.8757097899116	46.013237	6.7833056
20.893531705267254	64.87424	8.054455
20.911354131690224	83.869484	9.158029
20.92917706965566	69.068115	8.310723
20.94700051963877	50.09966	7.078111
20.96482448211493	29.363165	5.418779
20.982648957559622	4.1427336	2.0353706
21.00047394644843	2.286	1.5119524
21.01829944925707	2.303609	1.5177644
21.036125466461375	2.308992	1.5195367
21.053951998537297	2.3080428	1.5192244
21.071779045960906	2.269719	1.5065587
21.089606609208378	2.2434673	1.4978209
21.10743468875603	2.2179282	1.489271
21.12526328508028	2.2394493	1.4964789
21.143092398657675	2.2545648	1.5015209
21.16092202996488	2.2574348	1.5024762
21.17875217947867	2.22258	1.490832
21.19658284767596	2.2351515	1.4950423
21.21441403503377	2.2610395	1.5036753
21.232245742029225	2.2478151	1.4992715
21.2500779691396	2.1973917	1.4823602
21.26791071684227	2.1980598	1.4825855
21.28574398561475	2.2078059	1.4858687
21.30357777593465	2.2019727	1.4839046
21.321412088279704	2.1765802	1.4753238
21.339246923127792	2.179899	1.476448
21.357082280956888	2.1798124	1.4764187
21.3749181622451	2.1806815	1.4767131
21.392754567470647	2.1864228	1.4786557
21.41059149711187	2.1894433	1.4796767
21.42842895164726	2.1731248	1.4741522
21.446266931555378	2.1718662	1.4737253
21.464105437314945	2.162633	1.4705893
21.481944469404798	2.1862628	1.4786017
21.49978402830388	2.1724072	1.4739088
21.51762411449127	2.1642473	1.4711381
21.53546472844617	2.1522472	1.4670539
21.553305870647876	2.143844	1.4641871
21.571147541575865	2.1228232	1.4569912
21.58898974170967	2.1307194	1.4596984
21.60683247152899	2.1292007	1.4591781
21.62467573151363	2.1037846	1.4504429
21.642519522143523	2.0806541	1.4424473
21.660363843898722	2.084746	1.443865
21.6782086972594	2.082321	1.4430249
21.696054082705864	2.0891352	1.4453841
21.713900000718535	2.10528	1.4509583
21.73174645177795	2.0960393	1.4477705
21.749593436364794	2.0495741	1.4316334
21.767440954959845	2.0342095	1.4262571
21.785289008044032	2.0364501	1.4270425
21.803137596098388	2.036499	1.4270595
21.820986719604086	2.0501287	1.4318271
21.838836379042412	2.0734568	1.4399502
21.85668657489478	2.0760605	1.4408541
21.87453730764273	2.0879025	1.4449576
21.892388577767914	2.1037085	1.4504167
21.91024038575213	2.0778737	1.4414831
21.928092732077285	2.0371902	1.4273018
21.945945617225426	1.997812	1.4134398
21.963799041678694	1.9964913	1.4129725
21.981653005919398	31.3367	5.5979195
21.999507510429943	78.16265	8.840964
22.01736255569286	73.10763	8.5503
22.035218142190818	4.2010508	2.0496464
22.05307427040661	1.9918342	1.4113235
22.07093094082315	1.985825	1.409193
22.088788153923474	1.9805952	1.4073362
22.106645910190746	1.996852	1.4131001
22.12450421010827	2.0149584	1.4194922
22.142363054159464	1.9954144	1.4125913
22.16022244282787	1.9824665	1.4080008
22.178082376597164	1.9577171	1.3991845
22.195942855951145	1.9793264	1.4068854
22.213803881373742	1.9841908	1.4086131
22.231665453349002	1.9721292	1.4043251
22.24952757236111	1.9585186	1.3994708
22.26739023889438	1.9649768	1.4017763
22.28525345343323	1.970446	1.4037257
22.30311721646225	1.9338287	1.3906217
22.320981528466113	1.9195834	1.3854903
22.33884638992964	1.93693	1.3917363
22.356711801337788	1.9799788	1.4071172
22.37457776317561	1.9965975	1.4130101
22.392444275928337	2.03328	1.4259312
22.410311340081282	2.019986	1.421262
22.428178956119904	1.9941095	1.4121294
22.446047124529805	1.9677246	1.4027561
22.46391584579669	1.945624	1.3948562
22.481785120406414	1.9444555	1.3944373
22.49965494884496	1.9684232	1.4030051
22.51752533159841	1.9736577	1.4048693
22.53539626915302	1.9586849	1.3995303
22.553267761995137	1.9194376	1.3854377
22.571139810611264	1.9019359	1.3791069
22.589012415488025	1.9704878	1.4037406
22.60688557711216	1.9677545	1.4027667
22.624759295970566	1.9883367	1.4100839
22.642633572550263	1.978047	1.4064306
22.660508407338362	1.9914649	1.4111927
22.67838380082217	1.9700052	1.4035687
22.696259753489077	1.9310311	1.3896154
22.714136265826614	1.9147489	1.3837445
22.73201333832246	1.9413575	1.393326
22.74989097146439	1.9939983	1.4120901
22.76776916574035	1.9707979	1.4038512
22.785647921638393	1.9213394	1.3861239
22.803527239646712	1.9329062	1.3902899
22.82140712025363	1.9582781	1.3993849
22.839287563947593	1.9995117	1.4140409
22.85716857121719	1.9603747	1.4001338
22.875050142551135	1.9357102	1.391298
22.892932278438277	1.9245816	1.3872929
22.910814979367604	1.9564483	1.398731
22.928698245828222	1.9567926	1.398854
22.946582078309387	1.9169103	1.3845253
22.96446647730047	1.880525	1.3713224
22.98235144329098	1.8887432	1.3743155
23.000236976770562	1.923012	1.3867271
23.018123078229	1.924557	1.387284
23.03600974815619	1.9294804	1.3890574
23.053896987042194	1.8928108	1.3757946
23.071784795377173	1.9000057	1.378407
23.08967317365145	1.9172535	1.3846493
23.10756212235546	1.9313936	1.3897458
23.125451641979787	1.9570755	1.3989551
23.143341733015134	1.9650935	1.4018179
23.161232395952357	1.9691157	1.4032519
23.179123631282426	1.9358433	1.3913459
23.197015439496468	1.9753857	1.4054841
23.214907821085717	1.9462758	1.3950899
23.23280077654157	1.9722478	1.4043674
23.250694306355538	1.943337	1.3940362
23.268588411019277	1.9699025	1.4035321
23.28648309102458	1.9683425	1.4029763
23.304378346863356	1.9827323	1.4080952
23.322274179027676	1.9478165	1.3956419
23.340170588009723	1.9315946	1.3898182
23.358067574301852	1.8945875	1.3764402
23.37596513839651	1.9059271	1.3805531
23.39386328078629	1.9347775	1.3909628
23.411762001963947	1.942712	1.3938121
23.429661302422353	1.9780655	1.4064372
23.4475611826545	1.9873157	1.4097219
23.46546164315356	1.9590099	1.3996464
23.48336268441279	1.934303	1.3907923
23.501264306925638	1.9442298	1.3943564
23.51916651118564	1.9817476	1.4077456
23.537069297686497	2.0025678	1.4151211
23.554972666922037	2.0315819	1.4253358
23.57287661938623	2.0022671	1.4150149
23.59078115557318	1.9689419	1.4031899
23.608686275977128	1.940408	1.3929852
23.62659198109246	1.9524716	1.3973087
23.6444982714137	1.9636042	1.4012866
23.66240514743549	1.9465575	1.3951908
23.68031260965263	1.9595354	1.399834
23.698220658560068	1.944635	1.3945017
23.716129294652845	1.9298011	1.3891728
23.7340385184262	1.9333292	1.3904421
23.75194833037546	1.9278175	1.3884586
23.769858730996123	1.9132245	1.3831936
23.78776972078382	1.8856938	1.3732057
23.80568130023431	1.8891557	1.3744656
23.823593469843495	1.9399695	1.3928279
23.841506230107424	1.9584337	1.3994405
23.859419581522275	1.95142	1.3969324
23.87733352458438	1.9244465	1.3872442
23.89524805979019	1.9290788	1.3889128
23.913163187636318	1.9214258	1.386155
23.931078908619508	1.9786434	1.4066426
23.948995223236633	2.025741	1.4232854
23.966912131984735	2.027062	1.4237492
23.98482963536096	2.0405045	1.4284623
24.002747733862616	2.0232978	1.4224267
24.020666427987155	2.026878	1.4236847
24.038585718232156	2.046747	1.4306457
24.056505605095353	2.041202	1.4287064
24.074426089074617	2.0488226	1.4313709
24.092347170667946	2.0646377	1.4368848
24.110268850373515	2.1068206	1.4514891
24.128191128689586	2.0942616	1.4471564
24.146114006114626	2.099695	1.4490324
24.164037483147187	2.1040633	1.450539
24.181961560286005	2.131927	1.460112
24.199886238029926	2.1437716	1.4641625
24.21781151687797	2.1025863	1.4500297
24.235737397329274	2.073821	1.4400767
24.253663879883135	2.037291	1.427337
24.271590965038975	2.038374	1.4277164
24.289518653296376	2.0177288	1.4204679
24.30744694515505	2.0228987	1.4222864
24.32537584111486	2.0004773	1.4143823
24.34330534167581	2.0098064	1.4176764
24.361235447338046	2.0081868	1.4171051
24.379166158601876	2.0288475	1.4243761
24.39709747596772	2.0744042	1.4402792
24.41502939993615	2.0663922	1.4374951
24.432961931007917	1.9842039	1.4086177
24.450895069683856	1.9770218	1.4060661
24.468828816465	1.9498131	1.396357
24.4867631718525	1.9393511	1.3926059
24.504698136347656	1.9127166	1.38301
24.52263371045192	1.9191904	1.3853484
24.540569894666874	1.9414766	1.3933688
24.558506689494266	1.9833275	1.4083066
24.57644409543597	1.990568	1.410875
24.594382112994012	1.9946195	1.41231
24.61232074267057	1.9528513	1.3974446
24.630259984967953	1.9185151	1.3851048
24.64819984038863	1.9454223	1.394784
24.66614030943522	1.9951481	1.412497
24.684081392610462	2.002042	1.4149354
24.702023090417274	1.9713237	1.4040383
24.7199654033587	1.9734087	1.4047806
24.737908331937927	2.053617	1.4330447
24.755851876658305	2.1150208	1.4543111
24.773796038023324	2.1277997	1.4586979
24.79174081653661	2.0987363	1.4487016
24.809686212701962	2.0686288	1.4382728
24.827632227023294	2.0585144	1.4347523
24.8455788600047	2.06052	1.4354511
24.8635261121504	2.0806584	1.4424487
24.88147398396475	2.1248236	1.4576775
24.899422475952303	2.1678293	1.472355
24.917371588617698	2.183983	1.4778305
24.935321322465768	2.1996918	1.4831358
24.953271678001478	2.3209958	1.5234815
24.97122265572994	2.4780312	1.5741763
24.989174256156414	2.7743123	1.6656266
25.00712647978632	3.2272666	1.7964594
25.02507932712521	3.8504024	1.9622443
25.043032798678798	4.3939595	2.0961773
25.060986894952933	5.0143766	2.2392805
25.078941616453637	5.74152	2.3961468
25.096896963687055	6.73231	2.5946696
25.114852937159508	7.893763	2.8095841
25.132809537377444	8.399626	2.8982108
25.150766764847468	8.489795	2.9137251
25.168724620076347	7.9455886	2.818792
25.186683103570985	6.919601	2.6305134
25.204642215838426	5.643049	2.3755102
25.222601957385894	4.238293	2.0587115
25.24056232872074	3.2461407	1.801705
25.25852333035048	2.638931	1.6244787
25.276484962782778	2.2371647	1.4957155
25.294447226525435	2.0991364	1.4488397
25.312410122086423	2.0827284	1.4431661
25.330373649973843	2.037929	1.4275606
25.348337810695988	1.9893156	1.410431
25.366302604761245	1.9500533	1.3964431
25.384268032678207	1.928869	1.3888373
25.40223409495558	1.9146241	1.3836994
25.420200792102257	1.8983908	1.377821
25.438168124627246	1.8966266	1.3771807
25.45613609303974	1.8759167	1.3696411
25.474104697849057	1.8807042	1.3713877
25.492073939564698	1.8413016	1.3569456
25.510043818696285	1.8382437	1.3558185
25.528014335753614	1.8767663	1.3699512
25.54598549124664	1.9106424	1.3822598
25.56395728568544	1.8750786	1.369335
25.58192971958028	1.827037	1.3516793
25.59990279344156	1.8329726	1.3538733
25.617876507779833	1.8855828	1.3731652
25.635850863105826	1.9179859	1.3849137
25.653825859930386	1.9007	1.3786588
25.671801498764548	1.869427	1.3672699
25.68977778011949	1.8597548	1.3637283
25.707754704506524	1.9078438	1.3812472
25.725732272437153	1.9087584	1.3815782
25.743710484423012	1.9021431	1.3791821
25.761689340975888	1.8771249	1.370082
25.77966884260774	1.8712369	1.3679316
25.797648989830662	1.8523486	1.3610101
25.815629783156922	1.8548633	1.3619337
25.83361122309895	1.8486485	1.3596501
25.85159331016929	1.803334	1.3428828
25.869576044880695	1.7657214	1.3288045
25.887559427746034	1.783044	1.3353066
25.90554345927836	1.8395052	1.3562835
25.92352813999086	1.8425002	1.3573873
25.94151347039689	1.8554944	1.3621653
25.959499451009965	1.8596904	1.3637047
25.97748608234374	1.8495905	1.3599966
25.995473364912062	1.8044995	1.3433166
26.013461299228904	1.8291111	1.3524463
26.03144988580839	1.860591	1.3640349
26.04943912516483	1.8816439	1.3717302
26.067429017812675	1.8505762	1.3603588
26.085419564266537	1.8404903	1.3566468
26.103410765041186	1.8411756	1.3568993
26.12140262065155	1.8437339	1.3578416
26.139395131612723	1.8357573	1.3549012
26.157388298439948	1.8415313	1.3570303
26.17538212164861	1.8383836	1.35587
26.193376601754295	1.8066516	1.3441174
26.211371739272714	1.8011646	1.3420748
26.229367534719746	1.8710389	1.3678592
26.247363988611433	1.8954003	1.3767353
26.26536110146397	1.8528255	1.3611853
26.283358873793727	1.8408287	1.3567713
26.301357306117204	1.8541197	1.3616606
26.319356398951104	1.8685533	1.3669504
26.33735615281224	1.8647648	1.3655639
26.35535656821762	1.8987825	1.3779632
26.373357645684404	1.8984395	1.3778387
26.39135938572991	1.8714036	1.3679925
26.409361788871614	1.8584535	1.3632511
26.427364855627165	1.8295892	1.3526231
26.445368586514352	1.8159952	1.3475887
26.46337298205115	1.8117359	1.3460073
26.48137804275568	1.8602695	1.363917
26.499383769146217	1.9017029	1.3790225
26.517390161741215	1.866316	1.3661318
26.53539722105928	1.842261	1.3572991
26.553404947619182	1.81665	1.3478316
26.571413341939856	1.838966	1.3560848
26.589422404540397	1.8385661	1.3559374
26.60743213594006	1.8278459	1.3519785
26.62544253665827	1.8295257	1.3525996
26.64345360721459	1.8255419	1.3511262
26.66146534812879	1.8326292	1.3537464
26.679477759920758	1.8410397	1.3568492
26.69749084311057	1.8316677	1.3533912
26.71550459821847	1.8173676	1.3480978
26.733519025764842	1.7980452	1.3409121
26.751534126270258	1.8024226	1.3425434
26.769549900255434	1.801988	1.3423815
26.787566348241267	1.8101678	1.3454248
26.80558347074881	1.8000782	1.3416699
26.823601268299267	1.8161058	1.3476297
26.841619741414036	1.7892748	1.3376378
26.85963889061465	1.7537946	1.3243091
26.877658716422832	1.787314	1.3369046
26.89567921936045	1.8486835	1.359663
26.913700399949544	1.8624218	1.3647057
26.93172225871233	1.8448809	1.358264
26.949744796171174	1.8161173	1.347634
26.967768012848605	1.8064014	1.3440243
26.98579190926733	1.8176906	1.3482176
27.003816485950225	1.8339653	1.3542397
27.021841743420318	1.8471814	1.3591105
27.039867682200814	1.8440924	1.3579736
27.057894302815072	1.8646814	1.3655334
27.07592160578664	1.8797536	1.371041
27.0939495916392	1.8403562	1.3565973
27.111978260896635	1.8334094	1.3540345
27.13000761408296	1.8397092	1.3563588
27.148037651722397	1.8701261	1.3675256
27.166068374339304	1.8395268	1.3562915
27.184099782458215	1.8237245	1.3504535
27.20213187660384	1.7665734	1.329125
27.22016465730105	1.7694509	1.3302071
27.23819812507487	1.845966	1.3586633
27.256232280450533	1.9087362	1.3815702
27.274267123953383	1.8818772	1.3718153
27.292302656108987	1.840705	1.3567258
27.31033887744306	1.821849	1.3497589
27.32837578848146	1.8469249	1.3590162
27.34641338975026	1.8627568	1.3648285
27.364451681775673	1.8548673	1.3619351
27.382490665084074	1.838466	1.3559004
27.400530340202046	1.8383169	1.3558455
27.41857070765629	1.8552824	1.3620875
27.436611767973726	1.8691238	1.367159
27.454653521681404	1.8727736	1.3684932
27.472695969306564	1.8540269	1.3616266
27.490739111376627	1.8392113	1.3561753
27.508782948419153	1.8442868	1.3580452
27.526827480961902	1.8484977	1.3595947
27.54487270953279	1.8991398	1.3780928
27.562918634659898	1.920262	1.3857352
27.580965256871508	1.8989649	1.3780293
27.599012576696026	1.8706055	1.3677008
27.617060594662068	1.894066	1.3762507
27.63510931129842	1.9038244	1.3797915
27.65315872713401	1.8855368	1.3731484
27.67120884269797	1.8505107	1.3603348
27.68925965851958	1.9030738	1.3795195
27.707311175128307	1.9490879	1.3960974
27.725363393053787	2.0072792	1.4167848
27.74341631282583	1.9910036	1.4110293
27.7614699349744	1.9432907	1.3940196
27.77952426002968	2.085603	1.4441617
27.797579288521973	2.1420276	1.4635668
27.815635020981784	2.5771194	1.6053408
27.83369145793979	2.6136842	1.6166892
27.85174859992682	2.4294608	1.5586728
27.869806447473923	2.267385	1.5057838
27.887865001112267	2.0066855	1.4165753
27.905924261373233	1.8961045	1.376991
27.92398422878836	1.8944552	1.3763921
27.94204490388936	1.8726442	1.3684459
27.96010628720813	1.8854724	1.3731251
27.978168379276728	1.9094523	1.3818294
27.9962311806274	1.8876045	1.3739011
28.014294691792568	1.8483655	1.3595461
28.0323589133048	1.7930226	1.3390379
28.050423845696887	1.7650632	1.3285568
28.068489489501758	1.8731896	1.3686452
28.086555845252523	1.9031782	1.3795573
28.104622913482487	1.9334166	1.3904735
28.122690694725115	1.9319441	1.389944
28.14075918951405	1.9417943	1.3934828
28.15882839838312	1.9825562	1.4080328
28.176898321866304	1.9480947	1.3957416
28.1949689604978	1.9339573	1.3906679
28.213040314811945	1.9024919	1.3793085
28.23111238534327	1.9147435	1.3837426
28.249185172626493	1.9271258	1.3882096
28.267258677196473	1.9331999	1.3903956
28.285332899588294	1.9457179	1.39489
28.303407840337172	1.9261904	1.3878726
28.321483499978545	1.8934171	1.376015
28.33955987904799	1.9178635	1.3848695
28.357636978081285	1.9264463	1.3879648
28.37571479761439	1.8700802	1.3675088
28.393793338183425	1.8849578	1.3729377
28.41187260032469	1.9282699	1.3886216
28.429952584574686	1.9597611	1.3999147
28.448033291470065	1.9534341	1.3976531
28.46611472154769	1.9493272	1.3961831
28.484196875344566	1.9661502	1.4021947
28.502279753397914	2.011912	1.4184189
28.52036335624511	1.9919647	1.4113698
28.538447684423716	1.965629	1.4020089
28.556532738471482	1.9693918	1.4033502
28.574618518926325	2.006302	1.4164399
28.59270502632635	2.043816	1.429621
28.61079226120985	2.0493803	1.4315656
28.628880224115274	2.0438833	1.4296445
28.646968915581287	2.0232885	1.4224235
28.66505833614671	2.0305572	1.4249762
28.68314848635055	2.0740373	1.4401518
28.701239366732004	2.119271	1.4557717
28.71933097783044	2.1701493	1.4731426
28.737423320185403	2.1706338	1.4733071
28.75551639433665	2.1359644	1.4614938
28.773610200824074	2.0953317	1.4475261
28.791704740187793	2.078262	1.4416178
28.80980001296809	2.1325812	1.460336
28.827896019705413	2.167683	1.4723053
28.845992760940433	2.1798356	1.4764266
28.86409023721397	2.1479867	1.4656011
28.88218844906704	2.173023	1.4741178
28.900287397040845	2.2015858	1.4837742
28.918387081676755	2.240447	1.4968123
28.936487503516343	2.3113217	1.5203031
28.954588663101365	2.3038516	1.5178444
28.97269056097374	2.2997186	1.5164824
28.990793197675597	2.3052862	1.5183169
29.00889657374923	2.3728125	1.5403936
29.027000689737125	2.434792	1.560382
29.04510554618196	2.4134176	1.5535178
29.06321114362659	2.4126792	1.5532801
29.08131748261405	2.464106	1.5697471
29.099424563687567	2.4793077	1.5745817
29.11753238739057	2.4687164	1.5712149
29.13564095426663	2.5449781	1.5952988
29.15375026485954	2.6256564	1.6203877
29.171860319713275	2.6495507	1.6277441
29.18997111937199	2.7076554	1.6454955
29.20808266438002	2.7433069	1.6562932
29.226194955281898	2.7627528	1.662153
29.244307992622335	2.8668878	1.6931887
29.26242177694624	2.9323359	1.7124064
29.2805363087987	2.9088452	1.7055337
29.29865158872498	2.9327786	1.7125357
29.316767617270557	2.9518433	1.7180929
29.334884394981064	2.9174125	1.7080435
29.353001922402367	2.9273899	1.7109617
29.37112020008047	3.0027158	1.7328346
29.389239228561596	3.2003436	1.7889504
29.407359008392152	3.4319994	1.8525656
29.42547954011872	3.7541218	1.9375557
29.44360082428809	4.309447	2.0759208
29.46172286144722	5.379113	2.3192916
29.479845652143283	6.9181366	2.6302352
29.497969196923606	9.032991	3.0054936
29.516093496335728	11.620635	3.4089053
29.5342185509274	14.45539	3.8020244
29.55234436124651	16.785877	4.0970573
29.570470927841175	18.261848	4.2733884
29.588598251259686	18.032475	4.246466
29.60672633205055	16.50072	4.0621076
29.624855170762405	14.322802	3.7845478
29.642984767944146	11.681154	3.4177704
29.66111512414481	9.02629	3.0043786
29.67924623991366	6.775772	2.6030314
29.697378115800138	5.2231545	2.285422
29.71551075235387	4.230819	2.0568955
29.733644150124675	3.7794585	1.944083
29.751778309662576	3.6026933	1.8980762
29.769913231517766	3.468872	1.8624908
29.78804891624066	3.4075875	1.8459651
29.806185364381818	3.3210578	1.822377
29.82432257649206	3.3178055	1.8214844
29.842460553122333	3.3713713	1.8361294
29.86059929482382	3.3360531	1.8264866
29.878738802147872	3.2975888	1.8159264
29.896879075646048	3.3266406	1.8239081
29.915020115870114	3.3690457	1.8354961
29.933161923371976	3.3949745	1.8425456
29.951304498703777	3.3863847	1.8402132
29.969447842417857	3.3229272	1.8228898
29.987591955066733	3.2270377	1.7963958
30.005736837203123	3.1949959	1.7874551
30.023882489379943	3.2286208	1.7968364
30.04202891215028	3.2272797	1.7964631
30.060176106067455	3.2488022	1.8024434
30.078324071684946	3.236085	1.7989122
30.09647280955646	3.133234	1.7700944
30.114622320235863	3.084123	1.756167
30.132772604277257	3.177289	1.7824951
30.1509236622349	3.216338	1.7934152
30.16907549466328	3.123174	1.7672504
30.18722810211705	3.1229374	1.7671834
30.205381485151097	3.1582694	1.7771521
30.22353564432045	3.1189816	1.7660639
30.241690580180403	3.0438719	1.7446696
30.25984629328638	3.0084126	1.7344776
30.278002784194037	2.9988825	1.7317282
30.296160053459246	3.0186598	1.7374291
30.314318101638033	3.0139062	1.7360605
30.332476929286646	2.9403417	1.7147424
30.35063653696153	2.9263809	1.7106668
30.368796925219307	2.9721067	1.72398
30.386958094616844	2.9547338	1.7189339
30.40512004571115	2.8987007	1.7025571
30.423282779059463	2.9591334	1.7202132
30.441446295219233	3.0141852	1.7361408
30.459610594748067	2.9588637	1.7201349
30.47777567820382	2.8685634	1.6936834
30.495941546144504	2.877441	1.6963022
30.51410819912835	2.8853967	1.6986456
30.532275637713795	2.927131	1.710886
30.55044386245946	2.8969095	1.702031
30.56861287392416	2.8839962	1.6982332
30.586782672666956	2.8560686	1.6899908
30.604953259247047	2.8308914	1.6825253
30.623124634223885	2.837388	1.6844548
30.641296798157075	2.7912343	1.6706988
30.659469751606462	2.7193036	1.6490312
30.677643495132074	2.7069442	1.6452794
30.695818029294152	2.7449293	1.6567829
30.713993354653116	2.7690735	1.6640533
30.73216947176962	2.7088675	1.6458638
30.75034638120448	2.697372	1.6423678
30.768524083518756	2.726149	1.6511054
30.786702579273673	2.8120265	1.6769098
30.80488186903069	2.957778	1.7198192
30.82306195335144	3.003882	1.7331711
30.841242832797782	3.0971298	1.7598665
30.85942450793176	3.3646986	1.8343115
30.877606979315637	3.7539296	1.9375061
30.895790247511883	4.109747	2.027251
30.913974313083134	4.4358087	2.1061358
30.932159176592283	4.755864	2.1807945
30.95034483860237	4.787017	2.1879253
30.968531299676698	4.5998673	2.14473
30.98671856037873	4.2959933	2.0726779
31.00490662127215	4.000107	2.0000267
31.023095482920848	3.5689714	1.8891722
31.04128514588892	3.1000519	1.7606964
31.059475610740662	2.7577934	1.6606605
31.07766687804056	2.607759	1.6148558
31.09585894835335	2.5721786	1.6038013
31.11405182224393	2.5513422	1.5972922
31.132245500277417	2.5150719	1.5858978
31.15043998301914	2.4378374	1.5613575
31.168635271034628	2.4479768	1.5646012
31.18683136488964	2.4782212	1.5742368
31.20502826515008	2.5111177	1.5846506
31.223225972382135	2.5151823	1.5859326
31.241424487152155	2.4372292	1.5611627
31.259623810026692	2.4318736	1.5594466
31.27782394157253	2.419241	1.555391
31.296024882356644	2.4564922	1.5673201
31.314226632946237	2.4127393	1.5532994
31.332429193908684	2.4488356	1.5648756
31.350632565811598	2.4498897	1.5652124
31.368836749222787	2.5159013	1.5861593
31.387041744710295	2.5561051	1.5987824
31.40524755284232	2.4922485	1.5786856
31.423454174187317	2.4024675	1.5499895
31.441661609313922	2.3794334	1.5425413
31.459869858791002	2.4347947	1.5603828
31.478078923187628	2.463706	1.5696197
31.496288803073064	2.3930504	1.5469488
31.514499499016807	2.3671823	1.538565
31.532711011588546	2.4469192	1.5642631
31.550923341358178	2.448058	1.564627
31.56913648889584	2.4199421	1.5556164
31.587350454771844	2.340072	1.5297294
31.605565239556732	2.2999003	1.5165422
31.62378084382127	2.2965217	1.5154278
31.641997268136382	2.3266873	1.5253483
31.660214513073274	2.360774	1.536481
31.67843257920331	2.3529868	1.5339448
31.6966514670981	2.3168364	1.5221157
31.71487117732944	2.2927787	1.5141925
31.733091710469346	2.2476306	1.49921
31.751313067090052	2.2401216	1.4967036
31.769535247764008	2.2904756	1.5134318
31.787758253063878	2.398283	1.548639
31.805982083562526	2.3977046	1.5484524
31.824206739833024	2.3626707	1.5370982
31.84243222244869	2.3673701	1.5386261
31.860658531983013	2.343812	1.5309514
31.878885669009737	2.2537363	1.5012449
31.897113634102784	2.2161586	1.4886768
31.91534242783632	2.258502	1.5028313
31.933572050784694	2.256081	1.5020257
31.951802503522508	2.2766137	1.5088452
31.970033786624548	2.343847	1.5309628
31.988265900665834	2.283367	1.5110813
32.006498846221575	2.1904483	1.4800164
32.02473262386724	2.0793304	1.4419883
32.04296723417845	2.0848148	1.4438888
32.0612026777311	2.1496265	1.4661604
32.07943895510129	2.1697962	1.4730228
32.097676066865304	2.1647651	1.4713141
32.115914013599685	2.1682875	1.4725106
32.13415279588115	2.1648157	1.4713312
32.152392414286666	2.2233891	1.4911033
32.1706328693934	2.2098184	1.4865458
32.18887416177875	2.1404707	1.4630347
32.20711629202032	2.0720313	1.4394552
32.225359260695924	2.1268535	1.4583735
32.243603068383614	2.1840727	1.4778608
32.26184771566166	2.1772964	1.4755665
32.28009320310852	2.066242	1.4374429
32.2983395313029	2.048767	1.4313515
32.31658670082372	2.1115797	1.4531275
32.33483471225012	2.130023	1.4594598
32.35308356616143	2.0600045	1.4352716
32.371333263137245	2.1033485	1.4502926
32.38958380375734	2.0703955	1.4388869
32.407835188601744	1.9815588	1.4076785
32.42608741825067	2.0267768	1.4236491
32.444340493284585	2.1342726	1.460915
32.46259441428416	2.0709112	1.439066
32.48084918183028	2.0161602	1.4199156
32.49910479650405	2.0243306	1.4227897
32.51736125888683	2.0754142	1.4406298
32.53561856956014	2.0444922	1.4298574
32.5538767291058	1.9855046	1.4090793
32.572135738105764	1.9423412	1.393679
32.59039559714228	2.0416849	1.4288753
32.608656306797776	2.0871582	1.4447
32.62691786765491	2.1042857	1.4506156
32.645180280296586	2.0315678	1.4253308
32.663443545305896	2.0507524	1.4320449
32.68170766326619	2.0545774	1.4333797
32.69997263476099	2.0623207	1.4360782
32.7182384603741	1.9833322	1.4083083
32.7365051406895	1.9921179	1.411424
32.75477267629144	1.9918157	1.411317
32.77304106776434	2.054925	1.433501
32.79131031569289	2.1312196	1.4598697
32.809580420661966	2.0215304	1.4218054
32.827851383256714	2.0027466	1.4151843
32.84612320406245	2.0115068	1.418276
32.86439588366476	2.0183768	1.4206959
32.88266942264945	1.9896399	1.410546
32.9009438216025	1.8970333	1.3773283
32.9192190811102	1.9548563	1.3981618
32.937495201758985	2.059144	1.4349718
32.95577218413556	2.1152823	1.454401
32.974050028826866	2.1040776	1.4505439
32.992328736420035	2.0722198	1.4395207
33.010608307502444	2.1128228	1.4535552
33.02888874266169	2.0863621	1.4444245
33.047170042485604	2.0416164	1.4288515
33.06545220756225	1.9998487	1.4141601
33.083735238479896	2.0071015	1.416722
33.10201913582707	2.0333683	1.4259622
33.12030390019248	2.0408645	1.4285883
33.138589532165135	2.0674329	1.437857
33.15687603233419	2.0498376	1.4317254
33.17516340128909	2.0435622	1.4295322
33.19345163961947	1.9800068	1.4071271
33.211740747915215	1.9417071	1.3934516
33.23003072676643	1.8786205	1.3706278
33.248321576763466	1.8550866	1.3620156
33.266613298496885	1.9537946	1.3977821
33.28490589255747	2.0069542	1.4166701
33.30319935953626	1.9576555	1.3991624
33.32149370002451	1.8677212	1.3666459
33.339788914613706	1.8902221	1.3748535
33.358085003895575	1.8711661	1.3679057
33.376381968462034	1.8818614	1.3718096
33.39467980890529	1.9524428	1.3972983
33.41297852581774	1.9121189	1.3827939
33.43127811979204	1.8876256	1.3739089
33.44957859142105	1.9071631	1.3810008
33.467879941297866	1.9570705	1.3989533
33.486182170015844	1.9840462	1.4085617
33.50448527816853	1.9298452	1.3891886
33.522789266349754	1.9071614	1.3810002
33.541094135153514	1.9284265	1.388678
33.55939988517411	1.9571012	1.3989643
33.57770651700602	1.9540317	1.3978668
33.59601403124398	1.9310561	1.3896245
33.61432242848296	1.9860717	1.4092805
33.632631709318154	2.0392914	1.4280376
33.650941874344994	2.0450027	1.430036
33.66925292415916	2.0344946	1.4263572
33.68756485935654	1.8897016	1.3746642
33.70587768053328	1.8619362	1.3645278
33.724191388285746	1.8490316	1.359791
33.74250598321054	1.8268207	1.3515993
33.760821465904506	1.8777481	1.3703095
33.77913783696474	1.8700498	1.3674977
33.79745509698852	1.8224188	1.34997
33.815773246573414	1.82571	1.3511884
33.8340922863172	1.8789669	1.3707541
33.852412216817896	1.9399067	1.3928053
33.87073303867377	1.9606471	1.4002311
33.889054752483304	1.9242657	1.387179
33.907377358845245	1.8157862	1.3475112
33.92570085835853	1.8439715	1.3579291
33.94402525162239	1.8772709	1.3701354
33.96235053923627	1.9443185	1.3943882
33.980676721799824	2.0010488	1.4145843
33.999003799912984	2.052679	1.4327173
34.01733177417592	2.1542	1.4677193
34.03566064518901	2.2201552	1.4900185
34.0539904135529	2.187008	1.4788536
34.07232107986846	2.137025	1.4618567
34.090652644736785	2.2773013	1.509073
34.108985108759235	2.2422688	1.4974207
34.12731847253742	2.0552163	1.4336026
34.14565273667313	2.036194	1.4269527
34.16398790176847	2.0375292	1.4274205
34.18232396842574	1.9301889	1.3893124
34.20066093724749	1.9535064	1.397679
34.21899880883651	2.1222892	1.4568079
34.23733758379583	2.2496293	1.4998764
34.25567726272874	2.1814985	1.4769896
34.27401784623872	2.1412637	1.4633057
34.29235933492957	2.203829	1.4845299
34.31070172940526	2.154344	1.4677684
34.32904503027003	2.1207738	1.4562876
34.347389238128386	1.99451	1.4122713
34.36573435358502	1.8066416	1.3441137
34.38408037724492	1.7472659	1.3218418
34.402427309713296	1.703632	1.3052325
34.42077515159559	1.7232958	1.3127437
34.43912390349752	1.8093718	1.3451289
34.45747356602499	2.1103995	1.4527214
34.47582413978423	2.237679	1.4958874
34.49417562538163	2.198865	1.482857
34.51252802342388	2.0794437	1.4420277
34.53088133451789	1.9854448	1.4090581
34.54923555927084	1.9758887	1.4056631
34.567590698290104	2.0347474	1.4264457
34.58594675218336	2.0698164	1.4386857
34.6043037215585	1.9974338	1.413306
34.62266160702365	1.9162179	1.3842752
34.641020409187234	1.8900615	1.3747951
34.65938012865785	1.8888454	1.3743527
34.677740766044394	1.9833828	1.4083263
34.69610232195598	2.0006208	1.414433
34.714464797002016	2.0036743	1.415512
34.73282819179208	1.9168588	1.3845067
34.751192506936064	1.9529097	1.3974655
34.76955774304408	2.116972	1.4549818
34.7879239007265	2.297439	1.5157305
34.80629098059391	2.3473942	1.5321208
34.824658983257194	2.3056157	1.5184253
34.843027909327446	1.9901648	1.410732
34.86139775941603	1.9014012	1.378913
34.879768534134534	1.9973402	1.4132729
34.89814023409483	1.9947058	1.4123405
34.91651285990901	2.035465	1.4266973
34.93488641218944	2.023768	1.4225919
34.95326089154871	2.042763	1.4292526
34.97163629859967	2.0636506	1.4365412
34.99001263395542	2.150865	1.4665828
35.00838989822934	2.1485138	1.465781
35.02676809203499	1.951457	1.3969456
35.04514721598624	1.8369642	1.3553466
35.063527270697215	1.8470857	1.3590753
35.081908256782256	2.0887897	1.4452646
35.10029017485597	2.2086582	1.4861555
35.11867302553321	2.188655	1.4794103
35.137056809429104	2.2776146	1.5091769
35.155441527159006	2.464364	1.5698293
35.173827179338524	2.3919315	1.5465871
35.19221376658354	2.1760204	1.475134
35.21060128951017	2.0014539	1.4147274
35.2289897487348	2.0329528	1.4258165
35.24737914487405	2.2538722	1.5012902
35.26576947854479	2.0849392	1.4439318
35.28416075036418	1.9979942	1.4135042
35.30255296094958	2.1645205	1.471231
35.32094611091867	2.1323507	1.460257
35.33934020088932	2.2229803	1.4909662
35.35773523147969	2.15139	1.4667617
35.3761312033082	1.9027554	1.379404
35.394528116993506	1.8526822	1.3611327
35.41292597315452	2.2645082	1.5048283
35.431324772410434	2.5939925	1.6105876
35.449724515380666	2.683283	1.638073
35.46812520268491	2.5861366	1.6081469
35.486526834943106	2.326417	1.5252596
35.504929412775454	2.2528005	1.5009332
35.52333293680242	2.0971022	1.4481375
35.54173740764471	1.743027	1.3202375
35.560142825923286	1.5388635	1.2405094
35.5785491922594	1.418421	1.1909748
35.59695650727454	1.7266492	1.3140203
35.61536477159042	2.7156413	1.6479203
