0.008763373481513119	0.43391317	0.65872085
0.026290120649546365	0.55242383	0.7432522
0.043816868432600686	0.3754834	0.612767
0.06134361724069026	0.2995969	0.54735446
0.07887036748382949	0.19332683	0.43968946
0.0963971195720331	0.111296274	0.33361095
0.11392387391531617	0.21841612	0.4673501
0.1314506309236943	0.16890147	0.41097623
0.1489773910071836	0.19273356	0.4390143
0.16650415457580078	0.14569168	0.3816958
0.18403092203956356	0.13398808	0.36604384
0.20155769380849	0.13459463	0.36687142
0.2190844702925996	0.11777712	0.3431867
0.2366112519019124	0.14092134	0.3753949
0.2541380390464497	0.15282667	0.3909305
0.27166483213623416	0.1652476	0.4065066
0.28919163158128947	0.1634602	0.40430212
0.3067184377916406	0.17173854	0.41441348
0.324245251177314	0.15845862	0.3980686
0.34177207214833777	0.14349309	0.3788048
0.3592989011147415	0.14365676	0.37902078
0.37682573848655654	0.15765435	0.39705712
0.39435258467381573	0.15641712	0.39549604
0.41187944008655414	0.12407918	0.35224876
0.42940630513480854	0.08059871	0.28389913
0.446933180228618	0.06830462	0.26135153
0.4644600657780234	0.10650421	0.32634982
0.48198696219306775	0.1422047	0.37710038
0.49951386988379676	0.14778166	0.3844238
0.5170407892602581	0.121016644	0.34787446
0.5345677207325025	0.1329536	0.36462802
0.5520946647105822	0.13278838	0.3644014
0.5696216216045534	0.13066047	0.3614699
0.5871485918244737	0.12642312	0.3555603
0.6046755757804043	0.12622371	0.35527977
0.6222025738824094	0.13524023	0.36775023
0.6397295865405557	0.14108397	0.37561145
0.6572566141649129	0.15936163	0.39920124
0.6747836571655547	0.15485318	0.3935139
0.6923107159525568	0.17268032	0.4155482
0.7098377909359992	0.16423808	0.40526298
0.7273648825259653	0.14264384	0.37768218
0.7448919911325411	0.16455801	0.4056575
0.762419117165817	0.21045154	0.45874998
0.7799462610358868	0.21447921	0.463119
0.7974734231528482	0.16882992	0.41088918
0.8150006039268024	0.13857946	0.37226263
0.8325278037678551	0.1368113	0.3698801
0.8500550230861152	0.15191428	0.38976184
0.8675822622916969	0.15112874	0.3887528
0.8851095217947171	0.1640152	0.4049879
0.9026368020052984	0.18785855	0.43342653
0.9201641033335665	0.18800767	0.43359852
0.9376914261896523	0.17170799	0.41437662
0.9552187709836915	0.15425916	0.3927584
0.9727461381258234	0.18192904	0.4265314
0.990273528026193	0.21808745	0.46699834
1.0078009410949496	0.26142362	0.51129603
1.0253283777422473	0.27003205	0.5196461
1.0428558383782454	0.26408023	0.51388735
1.0603833234131086	0.28785416	0.5365204
1.0779108332570058	0.3337633	0.5777225
1.0954383683201119	0.36118814	0.6009893
1.112965929012607	0.3886089	0.623385
1.1304935157446763	0.5198337	0.72099495
1.1480211289265108	0.5060477	0.7113703
1.1655487689683062	1.334303	1.1551204
1.1830764362802655	1.6510891	1.2849472
1.200604131272596	2.1506743	1.4665178
1.2181318543555117	2.7396007	1.6551739
1.235659605939232	2.77692	1.6664094
1.253187386433982	4.4510107	2.109742
1.270715196249994	6.8292465	2.6132827
1.2882430357975057	12.279246	3.5041757
1.3057709054867608	16.793402	4.0979753
1.3232988057280106	22.365828	4.7292523
1.3408267369315112	26.913916	5.1878624
1.358354699507526	30.68125	5.539066
1.3758826938663256	34.856724	5.9039583
1.3934107204181858	37.067772	6.0883307
1.410938779573391	37.699593	6.1399994
1.4284668717422309	38.10462	6.172894
1.4459949973350033	37.81668	6.149527
1.4635231567620117	37.550495	6.127846
1.4810513504335687	37.29675	6.107106
1.4985795787599925	36.797085	6.06606
1.5161078421516088	36.11433	6.00952
1.5336361410187505	34.95277	5.912087
1.5511644757717598	34.501987	5.8738394
1.5686928468209842	34.910908	5.9085455
1.58622125457678	35.720306	5.976647
1.6037496994495108	37.575863	6.129915
1.621278181849548	37.59145	6.1311865
1.6388067021872719	38.44832	6.2006707
1.6563352608730693	37.92592	6.1584024
1.673863858317336	37.26669	6.104645
1.6913924949304753	36.588726	6.0488615
1.7089211711228998	35.29367	5.940848
1.7264498873050296	34.16738	5.8452873
1.7439786438872935	32.941338	5.7394543
1.7615074412801288	32.121063	5.667545
1.779036279893981	31.482897	5.6109624
1.796565160139305	30.661154	5.5372515
1.814094082426564	30.220572	5.497324
1.8316230471662298	29.5152	5.4327893
1.849152054768784	28.677622	5.3551493
1.8666811056447168	27.92122	5.2840533
1.8842102002045273	26.806345	5.1774845
1.901739338858724	26.094088	5.1082373
1.9192685220178245	25.527935	5.052518
1.9367977500923557	24.85053	4.9850307
1.9543270234928547	24.549944	4.95479
1.971856342629867	24.071308	4.906252
1.9893857079139496	23.56788	4.8546762
2.006915119755667	23.265045	4.8233852
2.0244445785655945	22.56687	4.75046
2.0419740847543175	21.929806	4.682927
2.0595036387324317	21.252535	4.6100473
2.0770332409105414	20.732727	4.5533204
2.094562891699263	20.618364	4.540745
2.1120925915092217	20.009172	4.473161
2.129622340751053	19.729122	4.4417477
2.1471521398354043	188.27501	13.721334
2.1646819891729323	444.86218	21.091757
2.182211889174303	441.1491	21.00355
2.1997418402501974	453.35776	21.2922
2.2172718428113023	433.16898	20.812712
2.234801897268317	321.0559	17.918034
2.2523320040319548	17.502266	4.183571
2.269862163512935	17.002214	4.123374
2.287392376121992	16.689568	4.0852866
2.304922642269869	16.33591	4.041771
2.322452962367322	16.012644	4.00158
2.3399833368251164	15.551675	3.943561
2.357513766054032	15.194628	3.8980286
2.3750442504648586	14.890905	3.8588736
2.3925747904683963	14.784306	3.8450365
2.410105386475459	14.651707	3.8277547
2.4276360388968707	14.47562	3.804684
2.445166748143469	14.259811	3.7762165
2.4626975146261025	13.928079	3.7320342
2.4802283387556323	13.652633	3.694947
2.4977592209429305	13.336793	3.6519575
2.5152901615988825	13.072943	3.6156526
2.5328211611343865	12.876219	3.5883448
2.5503522199603523	12.711602	3.5653334
2.5678833384877024	12.665382	3.5588458
2.5854145171273712	12.41861	3.5240047
2.6029457562903064	12.067258	3.473796
2.620477056387469	11.825339	3.4387991
2.6380084178298326	11.712534	3.422358
2.655539841028383	11.676517	3.4170918
2.673071326394119	11.564304	3.4006329
2.6906028743380523	11.249609	3.3540437
2.708134485271211	11.025635	3.320487
2.7256661596046325	10.825063	3.2901464
2.743197897749369	10.716476	3.273603
2.760729700116486	10.54692	3.2476022
2.778261567117063	10.409834	3.2264273
2.795793499162193	10.212884	3.1957603
2.8133254966629817	10.114936	3.1803987
2.830857560030551	9.904972	3.1472166
2.8483896896760337	9.8385105	3.13664
2.865921886010578	9.630969	3.1033802
2.883454149445347	9.611083	3.1001747
2.9009864803915177	9.566977	3.0930529
2.91851887926028	9.477079	3.0784864
2.9360513464628384	9.326194	3.0538816
2.953583882410413	9.200653	3.0332577
2.9711164875142373	9.12274	3.0203874
2.9886491621855606	8.998257	2.9997094
3.0061819068356455	8.864718	2.9773676
3.023714721875769	8.711997	2.9516091
3.041247607717225	8.594883	2.931703
3.0587805647713213	8.484621	2.9128373
3.0763135934493806	8.41251	2.9004328
3.0938466941627407	8.249584	2.8722088
3.1113798673227544	8.1310215	2.8514946
3.1289131133407904	8.014679	2.8310208
3.1464464326282315	7.9058847	2.8117406
3.1639798255964786	7.7247243	2.7793388
3.1815132926569443	7.722531	2.7789443
3.1990468342210603	7.660128	2.7676938
3.216580450700272	7.4852	2.7359092
3.2341141425060416	7.3182125	2.7052195
3.251647910049847	7.2161174	2.686283
3.2691817537431813	7.0891085	2.662538
3.286715673997555	7.077687	2.6603923
3.3042496712244938	7.0483875	2.65488
3.32178374583554	7.0495925	2.6551068
3.339317898242251	7.040301	2.6533566
3.3568521288562034	6.909598	2.6286113
3.3743864380889876	6.866369	2.6203756
3.3919208263522127	6.8839993	2.6237376
3.4094552940575023	6.7745056	2.602788
3.4269898416164972	6.764146	2.6007972
3.444524469440858	6.603865	2.5697987
3.4620591779422587	6.447227	2.539139
3.479593967532391	6.3718963	2.5242615
3.4971288386229658	6.4030848	2.5304317
3.5146637916257086	6.5154686	2.5525415
3.5321988269523628	6.4264	2.5350347
3.5497339450146903	6.3014836	2.5102756
3.5672691462244708	6.308158	2.5116045
3.5848044309934988	6.2965302	2.5092888
3.60233979973359	6.3517876	2.5202754
3.619875252856575	6.387445	2.5273395
3.6374107907743034	6.43165	2.5360699
3.6549464138986427	6.5382	2.5569904
3.6724821226414788	6.4957485	2.5486758
3.690017917414714	6.489124	2.547376
3.7075537986302702	6.487225	2.5470033
3.7250897667000857	6.477585	2.54511
3.7426258220361235	6.633327	2.5755246
3.7601619650503553	6.9161563	2.6298585
3.777698196154779	7.3567214	2.7123277
3.7952345157614067	8.480707	2.9121654
3.8127709242822716	9.414547	3.0683134
3.830307422129425	11.734413	3.425553
3.847844009714936	30.556082	5.5277557
3.8653806874508954	97.92689	9.895802
3.882917455749409	97.09633	9.853747
3.900454315022606	97.02155	9.849952
3.917991265682631	41.626625	6.45187
3.9355283081416506	11.383972	3.3740141
3.9530654428118495	9.06352	3.0105681
3.970602670105433	7.67644	2.770639
3.9881399904346244	6.669078	2.5824559
4.005677404211669	6.551953	2.5596783
4.023214911848827	6.5836377	2.56586
4.0407525137583855	6.657197	2.5801544
4.058290210352644	6.6430573	2.5774128
4.075828002043927	6.5460863	2.558532
4.0933658892445814	6.4948425	2.5484982
4.110903872366966	6.4097104	2.5317407
4.128441951823468	6.3436623	2.5186627
4.145980128026488	6.2587566	2.5017507
4.163518401388452	6.2283697	2.49567
4.181056772321807	6.1097965	2.4718003
4.1985952412390155	6.0255694	2.4547036
4.216133808552567	6.05021	2.4597175
4.233672474674966	6.1779037	2.485539
4.251211240018741	6.4978023	2.5490787
4.268750104996445	6.761402	2.6002696
4.286289070020643	7.729175	2.7801394
4.303828135503928	9.418421	3.0689445
4.3213673018589125	29.73346	5.4528394
4.3389065694982305	90.94184	9.536344
4.356445938834537	166.10815	12.888295
4.3739854102805085	171.73135	13.104631
4.391524984248844	172.5759	13.136814
4.409064661152262	136.80614	11.696416
4.426604441403504	97.030914	9.850427
4.444144325415337	76.08457	8.722647
4.461684313600543	22.126879	4.703922
4.47922440637193	22.406633	4.7335644
4.496764604142329	20.669819	4.546407
4.5143049073245916	18.880478	4.345167
4.531845316331589	16.855156	4.105503
4.5493858315762195	14.061109	3.7498145
4.566926453471405	11.711204	3.4221635
4.584467182430081	9.534286	3.0877638
4.602008018865218	8.244451	2.8713152
4.619548963189798	7.4381304	2.7272935
4.637090015816834	6.894276	2.6256955
4.654631177159353	6.672497	2.5831177
4.672172447630417	6.50359	2.5502138
4.689713827643102	6.398176	2.5294616
4.7072553176105085	6.222914	2.494577
4.724796917945764	5.9356055	2.4363098
4.742338629062015	5.781909	2.40456
4.759880451372434	5.639545	2.3747725
4.777422385290215	5.615534	2.3697119
4.794964431228581	5.6234407	2.3713796
4.812506589600768	5.6138763	2.369362
4.830048860820047	5.6343	2.3736682
4.847591245299709	5.619723	2.3705955
4.8651337434530655	5.566173	2.359274
4.882676355693457	5.4978514	2.3447497
4.900219082434242	5.5031047	2.3458698
4.917761924088813	5.5293317	2.351453
4.935304881070575	5.504446	2.3461556
4.952847953792969	5.460445	2.3367596
4.970391142669449	5.401366	2.324084
4.9879344481135055	5.4439025	2.3332171
5.005477870538642	5.4669785	2.3381572
5.023021410358394	5.511359	2.3476284
5.040565067986324	5.558952	2.357743
5.05810884383601	5.543484	2.3544605
5.075652738321066	5.5236177	2.3502378
5.09319675185512	5.5324564	2.3521175
5.110740884851836	5.5269146	2.350939
5.128285137724894	5.458021	2.3362408
5.145829510888007	5.429404	2.3301082
5.163374004754908	5.4035964	2.3245637
5.1809186197393595	5.382906	2.3201091
5.198463356255145	5.323974	2.3073738
5.216008214716077	5.3224864	2.3070514
5.233553195535998	5.274298	2.2965841
5.251098299128764	5.2542987	2.2922256
5.268643525908272	5.288303	2.299631
5.286188876288432	5.3240447	2.3073893
5.3037343506831895	5.281799	2.2982163
5.32127994950651	5.279976	2.2978199
5.3388256731723915	5.234572	2.2879188
5.356371522094851	5.1968026	2.2796497
5.373917496687938	5.1636524	2.2723672
5.391463597365729	5.2002525	2.2804062
5.40900982454232	5.1909766	2.2783716
5.426556178631843	5.282802	2.2984347
5.444102660048449	5.3336525	2.3094702
5.4616492692063225	5.3906245	2.3217719
5.479196006519669	5.425195	2.3292048
5.496742872402727	5.3659744	2.3164573
5.514289867269756	5.275858	2.2969236
5.531836991535049	5.202643	2.2809303
5.549384245612924	5.1649265	2.2726474
5.566931629917724	5.2086062	2.282237
5.584479144863822	5.2390895	2.2889059
5.6020267908656205	5.282781	2.2984302
5.619574568337545	5.1913085	2.2784443
5.637122477694054	5.112041	2.2609823
5.654670519349629	5.0638065	2.2502904
5.672218693718784	5.0275936	2.2422297
5.689767001216059	5.0754776	2.252882
5.707315442256021	5.116672	2.2620063
5.724864017253266	5.250322	2.291358
5.7424127266224225	5.229522	2.286815
5.75996157077814	5.235292	2.288076
5.777510550135105	5.1995625	2.2802548
5.795059665108022	5.2147593	2.2835848
5.812608916111639	5.3022637	2.3026645
5.830158303560715	5.4036565	2.3245766
5.847707827870055	5.4174795	2.327548
5.86525748945448	5.3984756	2.323462
5.8828072887288485	5.458473	2.3363376
5.900357226108044	5.538803	2.3534663
5.917907302006979	5.5803547	2.3622775
5.9354575168406	6.196597	2.4892964
5.9530078710238765	6.7653537	2.6010294
5.970558364971812	7.3275394	2.7069428
5.988108999099438	7.6227055	2.7609248
6.005659773821818	8.16522	2.857485
6.023210689554039	7.9017477	2.8110046
6.040761746711227	8.219668	2.8669963
6.058312945708531	7.6536174	2.7665172
6.075864286961132	7.2350283	2.6898007
6.093415770884244	6.6034746	2.5697227
6.1109673978931065	6.0537744	2.4604418
6.128519168402993	5.4744096	2.3397455
6.146071082829204	5.425978	2.329373
6.163623141587075	5.3507752	2.3131742
6.181175345091969	5.2496576	2.291213
6.198727693759281	5.1297574	2.2648969
6.216280188004435	5.1164722	2.261962
6.233832828242885	5.1999817	2.2803469
6.251385614890126	5.247894	2.2908282
6.268938548361669	5.220047	2.284742
6.286491629073067	5.042208	2.2454863
6.304044857439898	4.996578	2.2353027
6.321598233877777	4.94768	2.224338
6.339151758802344	4.922077	2.2185755
6.356705432629277	4.9042187	2.2145472
6.37425925577428	4.9141026	2.2167776
6.391813228653095	4.962616	2.227693
6.409367351681486	5.0497284	2.24716
6.426921625275259	5.0825086	2.254442
6.44447604985025	5.0652866	2.2506192
6.46203062582232	5.092164	2.2565825
6.47958535360737	5.1529555	2.2700121
6.497140233621328	5.1333838	2.2656972
6.514695266280161	5.0568347	2.2487407
6.532250451999859	4.9941587	2.2347615
6.549805791196454	4.928235	2.2199628
6.567361284286002	4.9224806	2.2186663
6.584916931684597	4.957438	2.2265306
6.602472733808367	4.9969378	2.235383
6.6200286910734665	5.070639	2.251808
6.637584803896092	5.1083655	2.2601693
6.655141072692462	5.093958	2.2569797
6.672697497878842	5.113722	2.261354
6.690254079871514	5.055991	2.248553
6.707810819086808	5.0091257	2.2381077
6.725367715941078	4.9085007	2.2155137
6.742924770850719	4.9118285	2.2162645
6.760481984232151	4.9579115	2.226637
6.778039356501836	5.0183234	2.2401614
6.795596888076266	5.013797	2.239151
6.813154579371963	4.9634404	2.227878
6.830712430805492	4.9745665	2.2303736
6.84827044279344	5.018702	2.240246
6.865828615752445	5.070166	2.251703
6.883386950099159	5.071682	2.2520394
6.900945446250287	5.045819	2.24629
6.918504104622553	5.053616	2.248025
6.936062925632727	5.109238	2.2603624
6.953621909697607	5.1758795	2.275056
6.971181057234028	5.200912	2.2805507
6.988740368658859	5.13782	2.266676
7.006299844389007	5.1085615	2.2602127
7.023859484841407	5.2081532	2.2821379
7.041419290433036	5.3095546	2.3042471
7.058979261580902	5.5101194	2.3473644
7.0765393987020495	5.734283	2.3946364
7.094099702213559	6.1573043	2.4813917
7.111660172532549	6.4976315	2.5490453
7.129220810076164	6.834648	2.614316
7.146781615261595	7.4581633	2.7309637
7.16434258850606	7.690163	2.7731144
7.181903730226821	8.07384	2.8414505
7.1994650408411704	8.175671	2.859313
7.217026520766437	8.316674	2.8838644
7.234588170419983	8.609837	2.9342523
7.252149990219215	8.544643	2.9231222
7.269711980581568	8.384233	2.895554
7.2872741419245175	8.119608	2.8494925
7.304836474665574	7.7394605	2.7819886
7.322398979222286	7.460402	2.7313735
7.339961656012233	7.1992297	2.6831381
7.357524505453039	6.825918	2.6126459
7.375087527962357	6.560971	2.5614393
7.392650723957886	6.302605	2.510499
7.410214093857353	5.913907	2.4318526
7.427777638078528	5.6881475	2.3849838
7.445341357039213	5.4918747	2.3434749
7.4629052511572525	5.473369	2.3395233
7.480469320850524	5.4382524	2.3320062
7.498033566536948	5.3849063	2.3205402
7.5155979886344735	5.2624416	2.2940013
7.5331625875610975	5.1693873	2.2736287
7.550727363734844	5.1659713	2.2728772
7.568292317573788	5.139493	2.267045
7.585857449496025	5.205432	2.2815416
7.603422759919705	5.1593833	2.2714276
7.620988249263007	5.1604304	2.2716582
7.638553917944147	5.089095	2.2559023
7.656119766381391	5.118174	2.2623382
7.673685794993023	5.145738	2.268422
7.691252004197388	5.1886177	2.2778537
7.70881839441285	5.1987085	2.2800677
7.726384966057826	5.1851254	2.277087
7.743951719550762	5.2091494	2.282356
7.761518655310149	5.2030597	2.2810216
7.779085773754511	5.2612934	2.293751
7.796653075302419	5.27956	2.2977293
7.814220560372475	5.3041563	2.3030753
7.831788229383323	5.299874	2.3021455
7.8493560827536495	5.314491	2.3053179
7.866924120902174	5.31527	2.305487
7.884492344247663	5.3235173	2.3072748
7.9020607532089135	5.3851624	2.3205953
7.919629348204771	5.347271	2.3124168
7.937198129654115	5.350027	2.3130126
7.954767097975865	5.3302917	2.3087425
7.972336253588986	5.384808	2.320519
7.989905596912472	5.43333	2.3309505
8.007475128365371	5.4433947	2.3331084
8.025044848366756	5.4495983	2.3344374
8.042614757335754	5.564099	2.3588343
8.060184855691523	5.6585517	2.378771
8.07775514385327	5.7900968	2.406262
8.095325622240228	5.808247	2.4100306
8.112896291271687	5.878083	2.424476
8.130467151366968	5.9613395	2.4415855
8.148038202945436	6.009262	2.4513795
8.165609446426497	5.9755445	2.4444926
8.183180882229594	6.040052	2.4576516
8.200752510774217	5.979877	2.4453788
8.218324332479893	5.9904857	2.447547
8.235896347766193	5.9135447	2.4317782
8.253468557052724	5.992583	2.4479752
8.27104096075914	6.0622706	2.462168
8.288613559305137	6.1782627	2.4856112
8.306186353110448	6.2854486	2.5070796
8.32375934259485	6.334983	2.5169392
8.341332528178162	6.2682424	2.503646
8.358905910280246	6.3055563	2.5110867
8.376479489321003	6.321136	2.5141869
8.394053265720377	6.3332834	2.5166016
8.411627239898356	6.278242	2.505642
8.42920141227497	6.1972394	2.4894254
8.44677578327029	6.210548	2.4920971
8.464350353304427	6.250811	2.5001621
8.48192512279754	6.27557	2.5051088
8.499500092169827	6.256135	2.5012267
8.51707526184153	6.25051	2.500102
8.534650632232934	6.2021585	2.4904134
8.552226203764365	6.2267323	2.495342
8.569801976856192	6.2426925	2.498538
8.587377951928834	6.2861805	2.5072258
8.60495412940274	6.3059826	2.5111716
8.622530509698416	6.2840395	2.5067987
8.6401070932364	6.4277925	2.535309
8.657683880437283	6.559532	2.5611584
8.675260871721695	6.753681	2.5987844
8.692838067510303	6.8883343	2.6245637
8.710415468223834	7.091784	2.6630404
8.727993074283043	7.222547	2.6874797
8.745570886108737	7.2781715	2.6978087
8.763148904121765	7.3748713	2.7156713
8.78072712874302	7.4403725	2.7277045
8.798305560393441	7.665019	2.768577
8.815884199494006	7.800795	2.7929904
8.833463046465745	7.890025	2.808919
8.851042101729728	7.9516134	2.8198605
8.86862136570707	8.128684	2.8510847
8.886200838818924	8.303854	2.881641
8.903780521486505	8.403607	2.8988976
8.921360414131055	8.49543	2.9146922
8.938940517173874	8.633204	2.9382315
8.956520831036297	8.835653	2.9724827
8.97410135613971	9.15342	3.025462
8.99168209290554	9.365486	3.0603082
9.009263041755265	9.575806	3.0944798
9.026844203110405	9.768964	3.125534
9.044425577392525	9.945847	3.1537037
9.062007165023239	10.033045	3.167498
9.079588966424197	10.329721	3.2139883
9.097170982017108	10.339629	3.2155294
9.11475321222372	11.379133	3.373297
9.132335657465825	12.295885	3.506549
9.149918318165264	12.518599	3.5381632
9.167501194743924	13.156912	3.6272457
9.18508428762374	12.882083	3.5891619
9.202667597226693	12.821906	3.5807688
9.220251123974803	12.350706	3.514357
9.237834868290143	12.018579	3.466782
9.255418830594836	11.889853	3.4481666
9.273003011311046	11.383108	3.373886
9.290587410860985	11.150762	3.3392756
9.308172029666911	10.463314	3.2347047
9.32575686815113	10.237276	3.1995745
9.343341926735997	8.945052	2.990828
9.360927205843916	8.706452	2.9506698
9.378512705897327	8.504779	2.9162953
9.396098427318728	8.333272	2.8867407
9.413684370530664	8.262836	2.874515
9.431270535955722	8.198255	2.8632593
9.448856924016539	8.106446	2.8471823
9.466443535135806	7.853727	2.8024502
9.484030369736251	7.7725277	2.7879252
9.501617428240658	7.699681	2.7748299
9.519204711071852	7.8036194	2.793496
9.536792218652714	7.8752255	2.8062832
9.55437995140617	7.9105935	2.8125777
9.571967909755191	7.9777555	2.824492
9.589556094122802	8.050537	2.8373468
9.60714450493207	8.052662	2.8377213
9.624733142606116	7.9956245	2.8276536
9.642322007568108	7.999453	2.8283305
9.659911100241267	8.013643	2.830838
9.677500421048851	8.058462	2.838743
9.695089970414175	8.107644	2.8473926
9.712679748760609	8.107088	2.8472948
9.730269756511557	8.160077	2.8565848
9.747859994090492	8.202242	2.8639557
9.765450461920915	8.278297	2.877203
9.78304116042639	8.322404	2.8848577
9.800632090030527	8.34232	2.8883076
9.81822325115699	8.387399	2.8961005
9.835814644229481	8.455614	2.9078538
9.853406269671762	8.458906	2.9084198
9.870998127907646	8.401894	2.898602
9.888590219360985	8.449154	2.9067428
9.906182544455698	8.485882	2.9130538
9.923775103615734	8.493173	2.9143047
9.941367897265108	8.487681	2.9133625
9.958960925827878	8.49013	2.9137828
9.97655418972816	8.4686365	2.910092
9.994147689390106	8.494976	2.9146142
10.011741425237934	8.417985	2.9013765
10.029335397695904	8.3911	2.8967395
10.04692960718833	8.396245	2.8976276
10.06452405413958	8.31838	2.8841603
10.082118738974064	8.385693	2.895806
10.099713662116246	8.440191	2.9052007
10.117308823990651	8.443914	2.9058414
10.134904225021844	8.342232	2.888292
10.152499865634445	8.231431	2.8690472
10.170095746253125	8.197243	2.8630826
10.18769186730261	8.267445	2.8753164
10.205288229207675	8.268273	2.8754606
10.222884832393145	8.321998	2.8847873
10.2404816772839	8.267935	2.8754017
10.258078764304868	8.194796	2.8626554
10.275676093881035	8.143781	2.853731
10.293273666437438	8.1341715	2.852047
10.310871482399158	8.208789	2.8650985
10.32846954219134	8.242375	2.8709538
10.346067846239173	8.289232	2.8791027
10.363666394967908	8.2147875	2.8661451
10.38126518880283	8.109986	2.8478038
10.398864228169298	8.161823	2.8568904
10.416463513492713	8.204089	2.864278
10.434063045198531	8.272636	2.876219
10.451662823712262	8.329586	2.8861022
10.469262849459467	8.350844	2.8897827
10.486863122865758	8.247763	2.8718917
10.504463644356806	8.161151	2.856773
10.522064414358338	8.05762	2.8385947
10.539665433296118	8.020761	2.8320947
10.557266701595987	7.9498596	2.8195496
10.574868219683818	7.820291	2.7964783
10.592469987985552	7.7208056	2.7786338
10.610072006927185	7.674592	2.7703054
10.627674276934751	7.591208	2.7552147
10.64527679843435	7.4377737	2.7272282
10.662879571852143	7.3076663	2.7032695
10.680482597614331	7.162696	2.6763213
10.698085876147173	7.07124	2.6591804
10.715689407876988	7.0392065	2.6531503
10.733293193230146	6.964552	2.6390438
10.750897232633072	6.901311	2.6270347
10.76850152651225	6.7712197	2.6021566
10.786106075294207	6.678787	2.5843349
10.803710879405534	6.59084	2.5672631
10.821315939272877	6.5265546	2.5547123
10.83892125532294	6.432791	2.5362947
10.856526827982472	6.3219333	2.5143454
10.874132657678285	6.2520857	2.500417
10.891738744837243	6.1869392	2.487356
10.909345089886271	6.1566343	2.4812565
10.926951693252343	6.051568	2.4599936
10.944558555362494	6.072741	2.4642932
10.96216567664381	5.984042	2.4462302
10.979773057523436	5.9567566	2.4406466
10.997380698428573	5.8697624	2.4227593
11.014988599786477	5.838093	2.4162145
11.032596762024461	5.7544928	2.3988523
11.050205185569892	5.637319	2.3743038
11.067813870850198	5.536246	2.352923
11.085422818292859	5.543748	2.3545165
11.10303202832541	5.5403247	2.3537893
11.120641501375454	5.4634514	2.3374026
11.138251237870636	5.3944964	2.3226056
11.155861238238671	5.256957	2.2928054
11.173471502907317	5.1502113	2.2694077
11.191082032304402	5.1235337	2.2635224
11.208692826857805	5.1734023	2.2745113
11.226303886995465	5.169775	2.2737138
11.243915213145371	5.130582	2.2650788
11.261526805735578	5.089582	2.2560103
11.279138665194196	5.000017	2.2360718
11.296750791949393	4.9010015	2.2138205
11.314363186429393	4.777564	2.1857638
11.331975849062479	4.719901	2.1725333
11.34958878027699	4.6651945	2.1599061
11.36720198050133	4.637639	2.1535177
11.384815450163948	4.59196	2.142886
11.402429189693366	4.5698724	2.137726
11.420043199518153	4.4916186	2.119344
11.437657480066942	63.413837	7.9632807
11.455272031768422	85.10598	9.22529
11.472886855051353	107.53196	10.369761
11.490501950344528	99.174065	9.958617
11.508117318076819	84.51606	9.193262
11.52573295867715	45.904526	6.775288
11.543348872574514	4.1817102	2.044923
11.560965060197946	4.1082335	2.0268776
11.57858152197655	4.0394197	2.0098307
11.59619825833949	4.0069685	2.0017414
11.613815269715985	3.98944	1.9973582
11.631432556535323	38.524467	6.206808
11.649050119226837	83.05577	9.113494
11.666667958219929	93.44637	9.666766
11.68428607394406	107.671234	10.376475
11.701904466828756	82.490906	9.082451
11.719523137303586	65.34983	8.083924
11.737142085798196	4.624751	2.1505234
11.754761312742286	3.7555325	1.9379196
11.772380818565619	3.7079363	1.9256003
11.790000603698015	3.6547046	1.9117281
11.80762066856935	3.620892	1.9028642
11.825241013609572	3.5970874	1.8965989
11.842861639248683	3.5929935	1.8955194
11.860482545916748	3.5498745	1.884111
11.878103734043883	3.4855633	1.8669664
11.895725204060282	3.4521194	1.857988
11.91334695639619	3.475399	1.8642422
11.930968991481919	3.4942758	1.8692982
11.948591309747824	3.4315414	1.852442
11.966213911624347	3.3951058	1.8425813
11.98383679754198	3.34276	1.8283217
12.001459967931268	3.3263059	1.8238163
12.019083423222835	3.3105426	1.8194896
12.036707163847352	3.2697673	1.8082498
12.05433119023556	3.2614698	1.805954
12.071955502818259	3.2482808	1.8022988
12.089580102026313	3.29416	1.814982
12.107204988290643	3.2831128	1.8119361
12.12483016204224	3.2438078	1.8010575
12.142455623712152	3.156103	1.7765424
12.16008137373149	3.1260428	1.7680619
12.177707412531431	3.1031854	1.7615861
12.19533374054321	3.1128557	1.7643287
12.212960358198126	3.077913	1.7543982
12.230587265927545	3.081187	1.755331
12.248214464162889	3.0585794	1.7488794
12.265841953335649	3.0762963	1.7539374
12.283469733877375	3.0463352	1.7453754
12.301097806219685	3.0121145	1.7355444
12.31872617079425	2.9836276	1.727318
12.336354828032825	2.9449403	1.7160828
12.353983778367205	2.9353724	1.7132928
12.371613022229262	2.9208133	1.7090387
12.389242560050928	2.939471	1.7144885
12.406872392264201	2.9352403	1.7132543
12.424502519301143	2.9367628	1.7136986
12.442132941593874	2.892848	1.7008375
12.459763659574586	2.8658977	1.6928962
12.477394673675532	2.8416004	1.6857047
12.49502598432903	2.8540251	1.689386
12.51265759196746	2.8463151	1.6871026
12.530289497023267	2.8397207	1.685147
12.547921699928967	2.8496337	1.6880858
12.565554201117134	2.841083	1.6855513
12.583187001020404	2.8119197	1.676878
12.600820100071486	2.7699587	1.6643193
12.618453498703152	2.7575133	1.6605762
12.636087197348235	2.771873	1.6648943
12.65372119643964	2.7900157	1.670334
12.671355496410326	2.7862487	1.669206
12.68899009769333	2.8345442	1.6836104
12.706625000721749	2.8521016	1.6888167
12.724260205928752	2.9288294	1.7113823
12.741895713747551	2.9552505	1.7190843
12.759531524611454	3.0486016	1.7460245
12.777167638953818	3.0741055	1.7533127
12.794804057208072	3.1083803	1.76306
12.812440779807702	3.1192167	1.7661304
12.830077807186271	3.270515	1.8084565
12.847715139777405	3.278558	1.8106788
12.865352778014795	3.538048	1.88097
12.882990722332197	3.670195	1.9157753
12.90062897316344	3.7191858	1.9285191
12.918267530942412	3.7180452	1.9282234
12.935906396103071	3.584932	1.8933917
12.953545569079449	3.788205	1.9463311
12.971185050305628	3.667025	1.9149477
12.988824840215775	3.6697998	1.9156722
13.006464939244115	3.6711593	1.916027
13.024105347824943	3.5117807	1.8739746
13.041746066392617	3.5972404	1.8966392
13.05938709538157	3.396765	1.8430315
13.077028435226296	3.4099681	1.84661
13.094670086361363	3.2850761	1.812478
13.112312049221401	3.171732	1.7809356
13.129954324241112	3.0694227	1.7519768
13.147596911855258	2.910579	1.7060419
13.165239812498685	2.9050817	1.70443
13.182883026606293	2.8364317	1.684171
13.200526554613058	2.7842221	1.6685989
13.218170396954017	2.7573855	1.6605377
13.235814554064284	2.7480295	1.6577182
13.253459026379034	2.7453606	1.6569129
13.271103814333523	2.720587	1.6494203
13.288748918363058	2.7281404	1.6517084
13.306394338903031	2.705147	1.6447331
13.32404007638889	2.6660175	1.6327944
13.341686131256164	2.64299	1.6257275
13.359332503940449	2.6033528	1.6134908
13.376979194877402	2.620807	1.6188906
13.394626204502751	2.684373	1.6384056
13.412273533252307	2.7596552	1.661221
13.429921181561937	2.79782	1.6726686
13.447569149867581	2.7939494	1.671511
13.465217438605247	2.8009186	1.6735945
13.482866048211022	2.7744527	1.6656688
13.500514979121052	2.7342067	1.6535437
13.518164231771568	2.6673768	1.6332105
13.535813806598844	2.638228	1.6242623
13.553463704039254	2.6772583	1.636233
13.571113924529229	2.711616	1.6466985
13.588764468505275	2.7366872	1.6542935
13.606415336403956	2.7695408	1.6641937
13.624066528661917	2.7692857	1.6641171
13.641718045715882	2.8203468	1.6793889
13.659369888002635	2.8445525	1.6865802
13.67702205595903	2.9139776	1.7070377
13.694674550021993	3.007087	1.7340955
13.712327370628532	3.0426784	1.7443274
13.729980518215713	3.1225026	1.7670604
13.747633993220681	3.2204523	1.7945619
13.765287796080647	3.29034	1.8139294
13.7829419272329	3.3304217	1.8249443
13.800596387114801	3.2941906	1.8149905
13.818251176163775	3.300796	1.8168093
13.835906294817324	3.3525841	1.8310063
13.853561743513023	3.41096	1.8468784
13.871217522688525	3.5240884	1.8772556
13.888873632781538	3.5691361	1.8892157
13.906530074229858	3.6113105	1.9003448
13.92418684747135	3.588505	1.894335
13.941843952943948	3.5840683	1.8931636
13.959501391085665	3.5566292	1.8859028
13.977159162334578	3.481346	1.8658365
13.994817267128846	3.408618	1.8462443
14.012475705906693	3.3068771	1.818482
14.030134479106424	3.2284935	1.7968009
14.047793587166414	3.1445367	1.7732842
14.065453030525108	3.0858047	1.7566459
14.083112809621026	3.0153937	1.7364889
14.100772924892766	2.9630337	1.7213465
14.118433376778997	2.9213874	1.7092067
14.136094165718458	2.8598263	1.6911021
14.153755292149969	2.806365	1.6752208
14.171416756512416	2.7588558	1.6609803
14.189078559244768	2.7111335	1.646552
14.20674070078606	2.6512325	1.6282606
14.224403181575408	2.577986	1.6056107
14.242066002051999	2.506621	1.5832312
14.259729162655093	2.454347	1.5666355
14.277392663824022	2.4279575	1.5581905
14.295056505998208	2.4446518	1.5635382
14.312720689617128	2.444645	1.563536
14.330385215120348	2.4367774	1.5610181
14.348050082947497	2.4105077	1.552581
14.3657152935383	2.4069867	1.5514467
14.383380847332528	2.400072	1.5492166
14.401046744770051	2.4114194	1.5528746
14.418712986290798	2.394023	1.547263
14.436379572334793	2.397134	1.5482681
14.454046503342123	2.4086094	1.5519695
14.471713779752946	2.4186366	1.5551966
14.489381402007504	2.4132318	1.553458
14.507049370546113	2.3906324	1.546167
14.524717685809168	2.399751	1.5491129
14.542386348237134	2.373302	1.5405525
14.560055358270553	2.3676798	1.5387267
14.577724716350051	2.41819	1.555053
14.595394422916325	2.423159	1.5566499
14.61306447841015	2.4811132	1.575155
14.63073488327237	2.4864786	1.5768572
14.648405637943917	2.5302458	1.5906746
14.6660767428658	2.5417025	1.5942718
14.683748198479094	2.5765753	1.6051714
14.701420005224954	2.637209	1.6239486
14.719092163544628	2.717481	1.6484784
14.73676467387942	2.7078998	1.6455698
14.754437536670727	2.6767988	1.6360925
14.772110752360014	2.6379504	1.6241769
14.78978432138882	2.6183383	1.6181281
14.807458244198777	2.6323552	1.6224535
14.82513252123159	2.6056063	1.614189
14.842807152929028	2.643771	1.6259677
14.860482139732962	2.655149	1.6294628
14.87815748208531	2.657404	1.6301546
14.8958331804281	2.7058659	1.6449516
14.91350923520342	2.6609862	1.631253
14.931185646853438	2.7041044	1.6444161
14.948862415820408	2.6872692	1.6392893
14.966539542546656	2.720822	1.6494914
14.98421702747459	2.7025764	1.6439514
15.001894871046696	2.7130404	1.647131
15.019573073705542	2.7088606	1.6458616
15.037251635893766	2.714814	1.6476692
15.054930558054092	2.7050617	1.6447072
15.072609840629323	2.7695737	1.6642036
15.090289484062351	2.88785	1.6993675
15.107969488796124	3.1926904	1.7868102
15.125649855273691	3.5817568	1.892553
15.14333058393817	4.1061783	2.0263708
15.161011675232768	5.1297565	2.2648966
15.17869312960076	6.509627	2.551397
15.196374947485506	8.371876	2.8934195
15.214057129330447	11.462074	3.3855686
15.231739675579114	16.100712	4.0125694
15.249422586675102	21.228125	4.607399
15.267105863062092	24.378958	4.9375052
15.284789505183847	24.660542	4.965938
15.302473513484218	22.526573	4.746217
15.320157888407127	18.914585	4.34909
15.337842630396578	14.696643	3.83362
15.355527739896656	11.388957	3.374753
15.37321321735153	8.837986	2.972875
15.39089906320545	6.512779	2.5520148
15.408585277902748	4.936993	2.2219346
15.42627186188783	3.8573093	1.9640034
15.443958815605198	3.2753513	1.8097931
15.461646139499424	2.9410038	1.7149355
15.479333834015168	2.7792602	1.6671113
15.497021899597165	2.743506	1.6563532
15.514710336690234	2.6933815	1.6411525
15.53239914573928	2.6602592	1.6310301
15.550088327189297	2.6205773	1.6188197
15.567777881485336	2.5757468	1.6049134
15.58546780907256	2.5116768	1.5848271
15.6031581103962	2.5017903	1.5817049
15.620848785901568	2.4832795	1.5758425
15.638539836034063	2.4709609	1.571929
15.656231261239173	2.4548678	1.5668018
15.673923061962451	2.4476347	1.5644919
15.691615238649552	2.419667	1.5555279
15.709307791746202	2.421974	1.5562693
15.727000721698221	2.4314616	1.5593145
15.744694028951498	2.4303057	1.5589437
15.76238771395202	2.4450743	1.5636734
15.780081777145844	2.4274049	1.5580131
15.797776218979125	2.417061	1.55469
15.815471039898094	2.3892987	1.5457356
15.833166240349064	2.372951	1.5404385
15.850861820778437	2.3630524	1.5372223
15.868557781632699	2.3406854	1.5299299
15.886254123358412	2.354315	1.5343777
15.903950846402232	2.3591695	1.5359588
15.921647951210897	2.3735614	1.5406367
15.939345438231225	2.3897138	1.54587
15.957043307910133	2.4249883	1.5572374
15.974741560694602	2.423383	1.5567219
15.992440197031714	2.4324994	1.5596472
16.01013921736862	2.4209256	1.5559324
16.02783862215259	2.4278889	1.5581684
16.045538411830933	2.4230137	1.5566033
16.06323858685107	2.4188645	1.55527
16.080939147660512	2.431427	1.5593034
16.09864009470684	2.4301174	1.5588834
16.11634142843774	2.3917406	1.5465254
16.134043149300954	2.365809	1.5381186
16.15174525774433	2.424571	1.5571034
16.169447754215817	2.4634418	1.5695355
16.18715063916342	2.4856262	1.5765868
16.204853913035244	2.4484668	1.5647577
16.222557576279478	2.4383826	1.5615321
16.240261629344403	22.426525	4.7356653
16.257966072678386	42.98172	6.5560446
16.275670906729868	38.101192	6.1726165
16.293376131947387	2.5267396	1.5895722
16.31108174877957	2.543701	1.5948985
16.328787757675133	2.589065	1.6090572
16.34649415908287	2.5866778	1.6083152
16.364200953451657	2.598761	1.6120673
16.38190814123048	2.6036954	1.613597
16.39961572286839	2.6207812	1.6188827
16.41732369881455	2.7035801	1.6442567
16.43503206951817	2.7518024	1.6588558
16.45274083542859	2.7970467	1.6724373
16.47044999699522	2.7992878	1.6731073
16.488159554667558	2.8238947	1.6804448
16.505869508895184	2.8606274	1.6913389
16.523579860127786	2.9329977	1.7125996
16.541290608815117	3.0155244	1.7365265
16.559001755407035	3.0686605	1.7517593
16.57671330035348	3.0904791	1.7579758
16.59442524410448	3.1339557	1.7702982
16.61213758711015	3.139248	1.7717923
16.629850329820705	3.2036688	1.7898796
16.647563472686436	3.2930338	1.8146719
16.665277016157724	3.3817813	1.8389621
16.682990960685053	3.4638925	1.8611535
16.70070530671898	3.4654722	1.8615779
16.718420054710155	3.4784973	1.865073
16.736135205109335	3.5398064	1.8814373
16.753850758367335	3.6433308	1.9087511
16.771566714935087	3.704222	1.9246355
16.789283075263597	3.7447844	1.9351445
16.80699983980398	3.766387	1.9407182
16.82471700900741	3.8527277	1.9628366
16.84243458332518	3.918596	1.9795444
16.860152563208665	4.0119605	2.0029879
16.87787094910932	4.0775332	2.0192902
16.89558974147871	4.1149836	2.0285423
16.913308940768466	4.19495	2.0481577
16.931028547430333	4.275122	2.067637
16.94874856191613	4.344218	2.0842788
16.966468984677785	4.394635	2.0963385
16.98418981616729	4.428127	2.1043115
17.00191105683676	4.4507904	2.1096897
17.019632707138374	4.482894	2.1172845
17.03735476752442	4.5438843	2.1316388
17.05507723844728	4.621626	2.1497967
17.072800120359403	4.6379232	2.1535838
17.090523413713353	4.656665	2.1579306
17.108247118961785	4.6606283	2.1588488
17.125971236557437	4.6644735	2.1597393
17.143695766953133	4.690042	2.1656504
17.161420710601806	4.737034	2.176473
17.179146067956477	4.7840695	2.1872516
17.19687183947025	4.76462	2.182801
17.21459802559634	4.7207656	2.1727324
17.232324626788028	4.6827617	2.163969
17.25005164349871	4.6541867	2.1573565
17.267779076181863	4.631971	2.1522014
17.285506925291074	4.6337132	2.1526062
17.30323519127999	4.624116	2.1503758
17.320963874602384	4.609646	2.1470087
17.33869297571211	4.5999746	2.1447551
17.356422495063114	4.6164746	2.1485982
17.37415243310944	4.5698886	2.13773
17.391882790305218	4.5545135	2.1341307
17.40961356710468	4.5173903	2.1254153
17.42734476396215	4.5427394	2.1313703
17.445076381332044	4.5533442	2.1338568
17.462808419668868	4.614554	2.1481514
17.48054087942723	4.6753054	2.1622455
17.498273761061835	4.9684377	2.2289991
17.51600706502747	5.4256544	2.3293035
17.533740791779024	6.1906095	2.4880936
17.551474941771485	7.6573076	2.767184
17.56920951545993	8.829105	2.971381
17.586944513299528	10.941123	3.3077369
17.60467993574556	12.617573	3.5521224
17.622415783253373	14.350061	3.7881474
17.64015205627843	15.716481	3.9644017
17.657888755276293	16.684408	4.0846553
17.675625880702604	17.123146	4.1380124
17.69336343301311	16.93065	4.114687
17.71110141266366	16.198107	4.0246873
17.728839820110178	15.3041525	3.9120522
17.746578655808705	14.406324	3.7955663
17.764317920215372	13.028907	3.6095576
17.7820576137864	11.594471	3.4050655
17.79979773697811	9.607393	3.0995796
17.81753829024692	7.677866	2.7708962
17.835279274049356	5.964193	2.4421697
17.85302068884201	4.8764043	2.2082582
17.870762535081607	4.2827873	2.0694897
17.888504813224934	3.9854226	1.9963523
17.90624752372891	3.7894022	1.9466387
17.923990667050536	3.6464362	1.9095644
17.941734243646895	3.5443568	1.8826462
17.959478253975185	3.5162544	1.8751678
17.9772226984927	3.4809334	1.865726
17.994967577656833	3.416186	1.8482927
18.01271289192506	3.3921149	1.8417695
18.030458641754965	3.378588	1.8380935
18.04820482760425	3.379316	1.8382916
18.06595144993067	3.3621929	1.8336283
18.083698509192125	3.3411553	1.8278828
18.101446005846576	3.3185647	1.8216928
18.119193940352105	3.2686858	1.8079507
18.136942313166887	3.2527463	1.8035371
18.1546911247492	3.2459936	1.8016641
18.1724403755574	3.2487373	1.8024254
18.19019006604997	3.1877224	1.7854193
18.207940196685467	3.1541715	1.7759987
18.225690767922575	3.1517794	1.7753252
18.243441780220046	3.1308978	1.7694343
18.261193234036764	3.109138	1.7632748
18.278945129831676	3.0698488	1.7520984
18.29669746806386	3.0738244	1.7532326
18.314450249192483	3.068673	1.7517627
18.3322034736768	3.0621197	1.7498914
18.349957141976184	3.015441	1.7365025
18.3677112545501	3.0065458	1.7339394
18.385465811858108	3.0331872	1.7416048
18.403220814359884	3.0883179	1.757361
18.420976262515172	3.0834455	1.7559743
18.43873215678387	3.0985706	1.7602757
18.456488497625923	3.1471653	1.7740252
18.474245285501407	3.2477655	1.8021559
18.492002520870486	3.312401	1.8200003
18.50976020419343	3.369673	1.8356669
18.527518335930615	3.6649292	1.9144005
18.545276916542516	4.244515	2.0602221
18.563035946489688	4.4560957	2.1109467
18.580795426232832	4.8706098	2.206946
18.598555356232698	4.719273	2.1723888
18.616315736950185	4.9916744	2.2342055
18.63407656884626	4.632037	2.152217
18.65183785238201	4.88692	2.2106378
18.669599588018617	4.71363	2.1710896
18.68736177621737	4.735688	2.1761637
18.705124417439652	4.681426	2.1636603
18.72288751214696	4.52629	2.127508
18.740651060800886	4.620549	2.1495464
18.758415063863115	4.31782	2.0779364
18.77617952179546	4.466037	2.1133
18.793944435059814	4.2315497	2.057073
18.811709804118184	4.2561383	2.063041
18.829475629432675	4.1798444	2.0444667
18.8472419114655	3.975045	1.9937515
18.86500865067897	4.064144	2.0159721
18.88277584753551	3.7664828	1.9407429
18.90054350249763	3.7853584	1.9455998
18.918311616027957	3.4872067	1.8674064
18.936080188589226	3.3871286	1.8404154
18.953849220644265	3.0845582	1.756291
18.971618712656007	2.9239817	1.7099653
18.9893886650875	2.860074	1.6911753
19.007159078401887	8.026905	2.8331792
19.024929953062408	32.915367	5.7371917
19.042701289532435	32.84658	5.7311935
19.060473088275405	25.382702	5.038125
19.07824534975489	2.6495395	1.6277406
19.096018074434568	2.6607807	1.63119
19.113791262778197	2.6773226	1.6362526
19.13156491524966	2.651771	1.628426
19.149339032312945	2.6186378	1.6182206
19.167113614432136	2.6096718	1.6154479
19.184888662071433	2.5908976	1.6096265
19.202664175695123	2.6147168	1.6170086
19.220440155767623	2.581852	1.6068143
19.238216602753447	2.5724397	1.6038827
19.2559935171172	2.5499077	1.596843
19.27377089932361	2.563546	1.6011077
19.291548749837514	2.5439942	1.5949904
19.309327069123835	2.5351162	1.5922048
19.32710585764763	2.489913	1.5779458
19.344885115874032	2.5061724	1.5830895
19.362664844268313	2.4995904	1.5810093
19.380445043295822	2.5097988	1.5842345
19.39822571342203	2.4832125	1.5758212
19.41600685511252	2.4872718	1.5771086
19.43378846883297	2.500648	1.5813438
19.451570555049173	2.5052323	1.5827925
19.469353114227037	2.479273	1.5745708
19.48713614683254	2.4515486	1.5657421
19.50491965333182	2.4635556	1.5695717
19.52270363419109	2.4950857	1.579584
19.540488089876686	2.477402	1.5739765
19.55827302085503	2.4777677	1.5740926
19.576058427592674	2.5107195	1.584525
19.593844310556282	2.5694788	1.6029594
19.611630670212598	2.5372925	1.5928881
19.629417507028506	2.5052931	1.5828118
19.64720482147098	2.494257	1.5793216
19.6649926140071	2.4909256	1.5782666
19.682780885104084	2.4950886	1.579585
19.70056963522921	2.5033646	1.5822024
19.718358864849908	2.5074356	1.5834885
19.7361485744337	2.5056887	1.5829368
19.753938764448215	2.4947886	1.57949
19.771729435361202	2.4774365	1.5739875
19.789520587640506	2.4692905	1.5713977
19.807312221754092	2.4854167	1.5765204
19.825104338170043	2.509153	1.5840306
19.842896937356517	2.5305336	1.5907651
19.860690019781824	2.5275104	1.5898145
19.87848358591436	2.5284643	1.5901146
19.896277636222635	2.5129354	1.585224
19.914072171175278	2.47959	1.5746714
19.931867191241015	2.470079	1.5716485
19.94966269688869	2.4769392	1.5738294
19.967458688587264	2.517911	1.5867927
19.985255166805807	2.531628	1.591109
20.00305213201348	2.538126	1.5931497
20.020849584679578	2.4976568	1.5803977
20.038647525273507	2.4974546	1.5803337
20.05644595426477	2.4962604	1.5799558
20.07424487212299	2.5035903	1.5822738
20.092044279317903	2.4855185	1.5765527
20.109844176319353	2.4539871	1.5665207
20.127644563597304	2.4284604	1.5583518
20.145445441621817	2.4504519	1.5653919
20.16324681086307	2.4821732	1.5754914
20.181048671791373	2.4679997	1.5709869
20.198851024877122	2.4409754	1.5623621
20.216653870590836	2.3947814	1.5475081
20.234457209403146	2.3791137	1.5424376
20.252261041784802	2.3506343	1.5331779
20.270065368206662	2.3733177	1.5405576
20.287870189139685	2.372822	1.5403967
20.305675505054968	2.3930447	1.5469469
20.323481316423702	2.3933706	1.5470523
20.341287623717207	2.4231803	1.5566568
20.359094427406884	2.3824828	1.5435293
20.376901727964288	2.3252575	1.5248796
20.39470952586107	2.3094034	1.5196722
20.41251782156899	2.321279	1.5235745
20.430326615559935	2.3384166	1.5291882
20.448135908305886	2.3244967	1.5246301
20.465945700278965	2.339932	1.5296836
20.483755991951384	2.3530393	1.5339619
20.50156678379548	2.3635762	1.5373926
20.519378076283708	2.360161	1.5362816
20.537189869888635	2.3553116	1.5347024
20.55500216508294	2.3324666	1.5272415
20.572814962339415	2.3318913	1.5270531
20.59062826213098	2.3173556	1.5222863
20.60844206493066	2.350909	1.5332674
20.626256371211593	2.369703	1.539384
20.644071181447032	2.3897095	1.5458685
20.66188649611036	2.3427525	1.5306053
20.67970231567506	2.2983372	1.5160267
20.697518640614742	2.2656662	1.505213
20.715335471403122	2.2664027	1.5054576
20.73315280851404	2.2628634	1.5042816
20.750970652421447	2.2678132	1.505926
20.768789003599412	2.2758439	1.50859
20.786607862522136	2.2846463	1.5115047
20.8044272296639	2.2725246	1.5074894
20.82224710549913	2.2637653	1.5045815
20.84006749050237	2.280827	1.5102407
20.857888385148268	3.8568513	1.9638867
20.8757097899116	45.949284	6.77859
20.893531705267254	64.75397	8.046985
20.911354131690224	83.7605	9.152076
20.92917706965566	69.0151	8.307532
20.94700051963877	50.143856	7.0812325
20.96482448211493	29.429878	5.424931
20.982648957559622	4.195955	2.048403
21.00047394644843	2.2844064	1.5114253
21.01829944925707	2.253656	1.5012182
21.036125466461375	2.2424285	1.4974741
21.053951998537297	2.1974933	1.4823945
21.071779045960906	2.1815977	1.4770232
21.089606609208378	2.1726646	1.4739962
21.10743468875603	2.22308	1.4909996
21.12526328508028	2.2152212	1.488362
21.143092398657675	2.193518	1.481053
21.16092202996488	2.162862	1.4706672
21.17875217947867	2.1593564	1.4694749
21.19658284767596	2.157351	1.4687923
21.21441403503377	2.1707406	1.4733434
21.232245742029225	2.190059	1.4798847
21.2500779691396	2.2038078	1.4845228
21.26791071684227	2.22171	1.4905401
21.28574398561475	2.2216966	1.4905357
21.30357777593465	2.193269	1.480969
21.321412088279704	2.151308	1.4667338
21.339246923127792	2.1347609	1.4610821
21.357082280956888	2.1443944	1.4643751
21.3749181622451	2.1373801	1.4619782
21.392754567470647	2.127778	1.4586905
21.41059149711187	2.1085684	1.4520911
21.42842895164726	2.1203148	1.4561301
21.446266931555378	2.132672	1.4603671
21.464105437314945	2.154337	1.4677659
21.481944469404798	2.1623597	1.4704964
21.49978402830388	2.152508	1.4671428
21.51762411449127	2.137632	1.4620643
21.53546472844617	2.1097734	1.452506
21.553305870647876	2.1087518	1.4521542
21.571147541575865	2.0774338	1.4413306
21.58898974170967	2.0749576	1.4404713
21.60683247152899	2.047008	1.4307369
21.62467573151363	2.0484748	1.4312494
21.642519522143523	2.0384176	1.4277316
21.660363843898722	2.0359113	1.4268537
21.6782086972594	2.0391457	1.4279866
21.696054082705864	2.0523126	1.4325895
21.713900000718535	2.0347135	1.4264338
21.73174645177795	2.0072474	1.4167736
21.749593436364794	2.007104	1.4167229
21.767440954959845	2.0436382	1.4295588
21.785289008044032	2.0536466	1.4330549
21.803137596098388	2.0384555	1.4277449
21.820986719604086	2.0167198	1.4201126
21.838836379042412	2.0278172	1.4240144
21.85668657489478	2.0147097	1.4194047
21.87453730764273	2.0114925	1.418271
21.892388577767914	1.9760497	1.4057204
21.91024038575213	2.0088294	1.4173318
21.928092732077285	2.016564	1.4200577
21.945945617225426	2.027448	1.4238847
21.963799041678694	2.0067065	1.4165827
21.981653005919398	31.332022	5.5975013
21.999507510429943	78.14293	8.8398485
22.01736255569286	73.07908	8.54863
22.035218142190818	4.1432643	2.035501
22.05307427040661	1.951242	1.3968686
22.07093094082315	1.9617407	1.4006215
22.088788153923474	2.0146856	1.4193962
22.106645910190746	2.0050168	1.4159862
22.12450421010827	1.9813274	1.4075963
22.142363054159464	1.9792178	1.4068468
22.16022244282787	1.9968883	1.413113
22.178082376597164	2.0097027	1.4176399
22.195942855951145	1.9949759	1.4124361
22.213803881373742	1.9635363	1.4012624
22.231665453349002	1.9559814	1.398564
22.24952757236111	1.9508712	1.3967359
22.26739023889438	1.9745789	1.4051971
22.28525345343323	1.9543177	1.3979691
22.30311721646225	1.9921378	1.4114311
22.320981528466113	1.9867567	1.4095236
22.33884638992964	2.0038586	1.4155772
22.356711801337788	2.0067325	1.4165919
22.37457776317561	2.014153	1.4192085
22.392444275928337	1.9732573	1.4047267
22.410311340081282	1.9848844	1.4088593
22.428178956119904	1.9751484	1.4053998
22.446047124529805	1.9892449	1.410406
22.46391584579669	1.997092	1.413185
22.481785120406414	1.9862846	1.4093561
22.49965494884496	1.9462638	1.3950856
22.51752533159841	1.8953551	1.376719
22.53539626915302	1.9435751	1.3941216
22.553267761995137	1.9737141	1.4048893
22.571139810611264	1.9664303	1.4022946
22.589012415488025	1.9524567	1.3973033
22.60688557711216	1.9402684	1.3929352
22.624759295970566	1.9356282	1.3912685
22.642633572550263	1.972682	1.404522
22.660508407338362	1.9873903	1.4097483
22.67838380082217	1.9673487	1.4026221
22.696259753489077	1.9624915	1.4008895
22.714136265826614	1.9872806	1.4097095
22.73201333832246	1.9978615	1.4134573
22.74989097146439	1.9615637	1.4005584
22.76776916574035	1.9347057	1.390937
22.785647921638393	1.9041555	1.3799114
22.803527239646712	1.896889	1.377276
22.82140712025363	1.9064114	1.3807286
22.839287563947593	1.9374214	1.3919128
22.85716857121719	1.94331	1.3940265
22.875050142551135	1.9225314	1.3865538
22.892932278438277	1.8929154	1.3758326
22.910814979367604	1.9053186	1.3803328
22.928698245828222	1.923105	1.3867606
22.946582078309387	1.9421088	1.3935956
22.96446647730047	1.9327148	1.3902211
22.98235144329098	1.9187168	1.3851775
23.000236976770562	1.8976144	1.3775393
23.018123078229	1.8911916	1.375206
23.03600974815619	1.8887786	1.3743284
23.053896987042194	1.8828627	1.3721744
23.071784795377173	1.9176155	1.3847799
23.08967317365145	1.9246521	1.3873183
23.10756212235546	1.93183	1.389903
23.125451641979787	1.9545281	1.3980443
23.143341733015134	1.9438996	1.394238
23.161232395952357	1.9295524	1.3890833
23.179123631282426	1.9136875	1.383361
23.197015439496468	1.9480093	1.3957111
23.214907821085717	1.94541	1.3947796
23.23280077654157	1.9083742	1.3814392
23.250694306355538	1.8871615	1.37374
23.268588411019277	1.8890529	1.3744282
23.28648309102458	1.8903348	1.3748945
23.304378346863356	1.9131883	1.3831805
23.322274179027676	1.9187129	1.3851761
23.340170588009723	1.9395291	1.3926698
23.358067574301852	1.9792585	1.4068612
23.37596513839651	1.9984596	1.4136689
23.39386328078629	1.9608122	1.40029
23.411762001963947	1.9773215	1.4061726
23.429661302422353	1.9916852	1.4112707
23.4475611826545	2.0054955	1.4161552
23.46546164315356	1.9639721	1.4014179
23.48336268441279	1.9523008	1.3972476
23.501264306925638	1.9054903	1.3803949
23.51916651118564	1.8821207	1.371904
23.537069297686497	1.9632196	1.4011494
23.554972666922037	2.050103	1.431818
23.57287661938623	2.055116	1.4335675
23.59078115557318	1.9701239	1.4036111
23.608686275977128	1.9315543	1.3898036
23.62659198109246	1.9315386	1.389798
23.6444982714137	1.9245555	1.3872836
23.66240514743549	1.9281228	1.3885686
23.68031260965263	1.917023	1.384566
23.698220658560068	1.9090838	1.381696
23.716129294652845	1.9100202	1.3820348
23.7340385184262	1.9262571	1.3878967
23.75194833037546	1.944999	1.3946322
23.769858730996123	1.9032576	1.379586
23.78776972078382	1.8716673	1.368089
23.80568130023431	1.8718237	1.3681461
23.823593469843495	1.884278	1.3726901
23.841506230107424	1.8867164	1.373578
23.859419581522275	1.882168	1.3719213
23.87733352458438	1.919819	1.3855753
23.89524805979019	1.9278947	1.3884865
23.913163187636318	1.8971368	1.377366
23.931078908619508	1.9252869	1.3875471
23.948995223236633	1.9691443	1.403262
23.966912131984735	2.0070841	1.416716
23.98482963536096	2.0262668	1.42347
24.002747733862616	2.0376444	1.4274608
24.020666427987155	2.0114849	1.4182682
24.038585718232156	2.0242739	1.4227698
24.056505605095353	2.0579474	1.4345548
24.074426089074617	2.0872867	1.4447445
24.092347170667946	2.0826924	1.4431536
24.110268850373515	2.090592	1.4458879
24.128191128689586	2.0845022	1.4437805
24.146114006114626	2.0405595	1.4284816
24.164037483147187	2.068626	1.4382719
24.181961560286005	2.0634034	1.4364551
24.199886238029926	2.0487359	1.4313406
24.21781151687797	2.085992	1.4442964
24.235737397329274	2.1127954	1.4535458
24.253663879883135	2.0995073	1.4489677
24.271590965038975	2.0732958	1.4398944
24.289518653296376	2.0466328	1.4306058
24.30744694515505	2.025184	1.4230896
24.32537584111486	2.055083	1.4335561
24.34330534167581	2.0542538	1.4332669
24.361235447338046	2.0267982	1.4236567
24.379166158601876	1.9878074	1.4098963
24.39709747596772	1.9856727	1.409139
24.41502939993615	2.0044467	1.4157848
24.432961931007917	1.9916657	1.4112638
24.450895069683856	2.0031493	1.4153266
24.468828816465	1.9931227	1.41178
24.4867631718525	2.0076156	1.4169035
24.504698136347656	2.0159929	1.4198567
24.52263371045192	2.0186298	1.420785
24.540569894666874	1.9908355	1.4109697
24.558506689494266	1.9258233	1.3877404
24.57644409543597	1.9406049	1.3930559
24.594382112994012	1.9767212	1.4059591
24.61232074267057	1.9818343	1.4077764
24.630259984967953	1.9767824	1.405981
24.64819984038863	1.9747251	1.4052491
24.66614030943522	1.9743109	1.4051018
24.684081392610462	1.9653385	1.4019053
24.702023090417274	1.9657112	1.4020382
24.7199654033587	1.9726869	1.4045237
24.737908331937927	2.0340846	1.4262134
24.755851876658305	2.0370243	1.4272436
24.773796038023324	1.9909822	1.4110217
24.79174081653661	2.0052736	1.4160768
24.809686212701962	2.0701609	1.4388053
24.827632227023294	2.06722	1.437783
24.8455788600047	2.0974157	1.4482458
24.8635261121504	2.1067472	1.4514638
24.88147398396475	2.0812125	1.4426408
24.899422475952303	2.045403	1.4301759
24.917371588617698	2.0836692	1.443492
24.935321322465768	2.2152078	1.4883574
24.953271678001478	2.3147726	1.5214376
24.97122265572994	2.5239694	1.5887005
24.989174256156414	2.8410347	1.6855369
25.00712647978632	3.2944949	1.8150743
25.02507932712521	3.8246562	1.9556729
25.043032798678798	4.3529773	2.086379
25.060986894952933	4.990004	2.2338316
25.078941616453637	5.655467	2.3781226
25.096896963687055	6.560563	2.5613596
25.114852937159508	7.696906	2.77433
25.132809537377444	8.173402	2.8589163
25.150766764847468	8.235567	2.8697677
25.168724620076347	7.6962547	2.7742124
25.186683103570985	6.714686	2.5912712
25.204642215838426	5.5555725	2.357026
25.222601957385894	4.23768	2.0585625
25.24056232872074	3.2037418	1.7899
25.25852333035048	2.5774739	1.6054513
25.276484962782778	2.2203507	1.4900842
25.294447226525435	2.0901108	1.4457215
25.312410122086423	2.0028555	1.4152228
25.330373649973843	1.9462014	1.3950633
25.348337810695988	1.9486089	1.3959258
25.366302604761245	1.957795	1.3992122
25.384268032678207	1.933883	1.3906412
25.40223409495558	1.8802334	1.371216
25.420200792102257	1.8890011	1.3744093
25.438168124627246	1.9229791	1.3867152
25.45613609303974	1.9297371	1.3891498
25.474104697849057	1.9113626	1.3825204
25.492073939564698	1.8692176	1.3671933
25.510043818696285	1.896039	1.3769673
25.528014335753614	1.8995169	1.3782296
25.54598549124664	1.905606	1.3804369
25.56395728568544	1.8890924	1.3744426
25.58192971958028	1.9209899	1.3859978
25.59990279344156	1.9287095	1.3887799
25.617876507779833	1.9288869	1.3888438
25.635850863105826	1.9104325	1.3821839
25.653825859930386	1.8664267	1.3661723
25.671801498764548	1.8620796	1.3645804
25.68977778011949	1.8481332	1.3594606
25.707754704506524	1.8406416	1.3567024
25.725732272437153	1.84421	1.358017
25.743710484423012	1.8610206	1.3641922
25.761689340975888	1.854167	1.361678
25.77966884260774	1.8261956	1.3513681
25.797648989830662	1.8261715	1.3513591
25.815629783156922	1.8002477	1.3417331
25.83361122309895	1.8262497	1.3513881
25.85159331016929	1.8828397	1.372166
25.869576044880695	1.9001093	1.3784446
25.887559427746034	1.8370776	1.3553884
25.90554345927836	1.8198224	1.349008
25.92352813999086	1.8325329	1.3537108
25.94151347039689	1.8695071	1.3672992
25.959499451009965	1.8262889	1.3514026
25.97748608234374	1.8090146	1.3449961
25.995473364912062	1.8043867	1.3432746
26.013461299228904	1.8474728	1.3592178
26.03144988580839	1.8797487	1.3710393
26.04943912516483	1.838083	1.3557593
26.067429017812675	1.7839731	1.3356546
26.085419564266537	1.7968538	1.3404677
26.103410765041186	1.8551967	1.362056
26.12140262065155	1.9100593	1.382049
26.139395131612723	1.8572102	1.362795
26.157388298439948	1.7931192	1.339074
26.17538212164861	1.7549026	1.3247274
26.193376601754295	1.7842813	1.3357699
26.211371739272714	1.8326651	1.3537596
26.229367534719746	1.8708513	1.3677907
26.247363988611433	1.8510092	1.360518
26.26536110146397	1.8259572	1.3512799
26.283358873793727	1.8380533	1.3557483
26.301357306117204	1.8204664	1.3492466
26.319356398951104	1.7982193	1.340977
26.33735615281224	1.7867292	1.3366859
26.35535656821762	1.8058999	1.3438377
26.373357645684404	1.826438	1.3514577
26.39135938572991	1.805356	1.3436353
26.409361788871614	1.7845849	1.3358835
26.427364855627165	1.7816695	1.3347919
26.445368586514352	1.7902454	1.3380005
26.46337298205115	1.788405	1.3373126
26.48137804275568	1.7886742	1.3374133
26.499383769146217	1.8113914	1.3458794
26.517390161741215	1.8454762	1.3584831
26.53539722105928	1.890968	1.3751247
26.553404947619182	1.9198781	1.3855966
26.571413341939856	1.875441	1.3694674
26.589422404540397	1.8242658	1.3506539
26.60743213594006	1.8034027	1.3429083
26.62544253665827	1.8149943	1.3472172
26.64345360721459	1.8198286	1.3490102
26.66146534812879	1.828133	1.3520846
26.679477759920758	1.8246148	1.350783
26.69749084311057	1.8223482	1.3499438
26.71550459821847	1.8299055	1.35274
26.733519025764842	1.8403234	1.3565853
26.751534126270258	1.8108416	1.3456751
26.769549900255434	1.7698711	1.3303651
26.787566348241267	1.7598858	1.3266069
26.80558347074881	1.7602178	1.326732
26.823601268299267	1.8488194	1.359713
26.841619741414036	1.9118904	1.3827113
26.85963889061465	1.9027135	1.3793888
26.877658716422832	1.8618426	1.3644935
26.89567921936045	1.7945193	1.3395967
26.913700399949544	1.7508014	1.3231785
26.93172225871233	1.7732445	1.3316323
26.949744796171174	1.7913128	1.3383993
26.967768012848605	1.8118758	1.3460593
26.98579190926733	1.823279	1.3502885
27.003816485950225	1.8353268	1.3547423
27.021841743420318	1.841521	1.3570266
27.039867682200814	1.8122567	1.3462008
27.057894302815072	1.8439971	1.3579385
27.07592160578664	1.83422	1.3543338
27.0939495916392	1.8041745	1.3431957
27.111978260896635	1.7888476	1.337478
27.13000761408296	1.8054816	1.343682
27.148037651722397	1.7823125	1.3350328
27.166068374339304	1.7825786	1.3351325
27.184099782458215	1.7845316	1.3358636
27.20213187660384	1.7925651	1.3388671
27.22016465730105	1.7799702	1.3341552
27.23819812507487	1.824802	1.3508524
27.256232280450533	1.845863	1.3586254
27.274267123953383	1.7912794	1.3383869
27.292302656108987	1.8019257	1.3423582
27.31033887744306	1.8035245	1.3429537
27.32837578848146	1.8340341	1.3542651
27.34641338975026	1.854331	1.3617382
27.364451681775673	1.8419297	1.3571771
27.382490665084074	1.8028985	1.3427206
27.400530340202046	1.8024272	1.342545
27.41857070765629	1.7774148	1.3331972
27.436611767973726	1.7876632	1.3370352
27.454653521681404	1.8006444	1.3418809
27.472695969306564	1.8010538	1.3420334
27.490739111376627	1.769343	1.3301666
27.508782948419153	1.7739224	1.3318868
27.526827480961902	1.780777	1.3344575
27.54487270953279	1.7815069	1.334731
27.562918634659898	1.8390481	1.3561151
27.580965256871508	1.8660582	1.3660374
27.599012576696026	1.8513763	1.3606529
27.617060594662068	1.8600175	1.3638246
27.63510931129842	1.8657268	1.3659161
27.65315872713401	1.8922207	1.3755802
27.67120884269797	1.9281946	1.3885945
27.68925965851958	1.9248585	1.3873926
27.707311175128307	1.891228	1.3752192
27.725363393053787	1.8748977	1.369269
27.74341631282583	1.9099867	1.3820227
27.7614699349744	1.9165078	1.38438
27.77952426002968	2.095997	1.4477559
27.797579288521973	2.1279483	1.4587488
27.815635020981784	2.499353	1.5809342
27.83369145793979	2.6059446	1.6142938
27.85174859992682	2.4694145	1.5714371
27.869806447473923	2.3525298	1.5337958
27.887865001112267	2.040734	1.4285426
27.905924261373233	1.9032784	1.3795935
27.92398422878836	1.8696939	1.3673675
27.94204490388936	1.8865024	1.3735001
27.96010628720813	1.9286836	1.3887706
27.978168379276728	1.8994043	1.3781887
27.9962311806274	1.8529072	1.3612154
28.014294691792568	1.8209919	1.3494413
28.0323589133048	1.8361158	1.3550335
28.050423845696887	1.8588672	1.3634028
28.068489489501758	1.8592238	1.3635336
28.086555845252523	1.8493983	1.3599259
28.104622913482487	1.822832	1.3501229
28.122690694725115	1.833007	1.3538859
28.14075918951405	1.8266907	1.3515512
28.15882839838312	1.8249996	1.3509254
28.176898321866304	1.8714832	1.3680216
28.1949689604978	1.9356263	1.3912679
28.213040314811945	1.9174732	1.3847286
28.23111238534327	1.934722	1.3909428
28.249185172626493	1.9176775	1.3848023
28.267258677196473	1.9061493	1.3806336
28.285332899588294	1.8836479	1.3724605
28.303407840337172	1.8655406	1.365848
28.321483499978545	1.8406266	1.356697
28.33955987904799	1.8414448	1.3569984
28.357636978081285	1.8858957	1.3732792
28.37571479761439	1.9376916	1.3920099
28.393793338183425	1.9826765	1.4080755
28.41187260032469	1.9812679	1.4075752
28.429952584574686	1.9720659	1.4043026
28.448033291470065	1.9839029	1.4085109
28.46611472154769	2.008736	1.4172988
28.484196875344566	2.0172691	1.420306
28.502279753397914	2.0184999	1.4207392
28.52036335624511	2.0320206	1.4254895
28.538447684423716	2.030097	1.4248147
28.556532738471482	2.0556288	1.4337465
28.574618518926325	2.047418	1.4308802
28.59270502632635	1.9979817	1.4134998
28.61079226120985	1.9879985	1.409964
28.628880224115274	2.0112343	1.4181799
28.646968915581287	2.040491	1.4284576
28.66505833614671	2.00719	1.4167533
28.68314848635055	1.9998124	1.4141473
28.701239366732004	2.0124094	1.4185941
28.71933097783044	2.0194654	1.4210789
28.737423320185403	2.0255973	1.4232348
28.75551639433665	2.0646408	1.4368858
28.773610200824074	2.1210735	1.4563906
28.791704740187793	2.1837063	1.4777368
28.80980001296809	2.2205958	1.4901664
28.827896019705413	2.1878898	1.4791517
28.845992760940433	2.1398993	1.4628395
28.86409023721397	2.1578794	1.4689722
28.88218844906704	2.24584	1.4986128
28.900287397040845	2.259977	1.503322
28.918387081676755	2.1666367	1.4719499
28.936487503516343	2.187232	1.4789294
28.954588663101365	2.2450352	1.4983442
28.97269056097374	2.2991464	1.5162936
28.990793197675597	2.2993035	1.5163455
29.00889657374923	2.3255746	1.5249835
29.027000689737125	2.3824415	1.5435159
29.04510554618196	2.4372184	1.5611594
29.06321114362659	2.406933	1.5514294
29.08131748261405	2.4665232	1.5705168
29.099424563687567	2.5631456	1.6009827
29.11753238739057	2.5767689	1.6052318
29.13564095426663	2.5158923	1.5861565
29.15375026485954	2.5433035	1.5947738
29.171860319713275	2.572815	1.6039996
29.18997111937199	2.6431174	1.6257668
29.20808266438002	2.715471	1.6478686
29.226194955281898	2.7487426	1.6579332
29.244307992622335	2.7385125	1.6548451
29.26242177694624	2.8261218	1.6811073
29.2805363087987	2.8702967	1.694195
29.29865158872498	2.8221688	1.6799312
29.316767617270557	2.7887187	1.6699457
29.334884394981064	2.8449593	1.6867007
29.353001922402367	2.8848133	1.6984738
29.37112020008047	2.9897645	1.7290936
29.389239228561596	3.1660268	1.7793332
29.407359008392152	3.4016106	1.8443456
29.42547954011872	3.7183106	1.9282922
29.44360082428809	4.3503256	2.0857434
29.46172286144722	5.3769684	2.318829
29.479845652143283	6.939786	2.6343474
29.497969196923606	9.103491	3.0171993
29.516093496335728	11.643689	3.412285
29.5342185509274	14.463954	3.8031504
29.55234436124651	16.82547	4.1018863
29.570470927841175	18.05296	4.2488775
29.588598251259686	17.623991	4.198094
29.60672633205055	16.373377	4.046403
29.624855170762405	14.289968	3.7802074
29.642984767944146	11.524203	3.3947318
29.66111512414481	8.7622795	2.9601147
29.67924623991366	6.5313287	2.5556464
29.697378115800138	5.056426	2.2486498
29.71551075235387	4.1815333	2.0448797
29.733644150124675	3.7406876	1.9340857
29.751778309662576	3.5569298	1.8859825
29.769913231517766	3.5011716	1.8711418
29.78804891624066	3.4392166	1.8545125
29.806185364381818	3.2627444	1.8063068
29.82432257649206	3.2242815	1.7956284
29.842460553122333	3.2247317	1.7957538
29.86059929482382	3.2446034	1.8012782
29.878738802147872	3.2664917	1.8073438
29.896879075646048	3.3021553	1.8171834
29.915020115870114	3.2527235	1.8035308
29.933161923371976	3.2573233	1.8048056
29.951304498703777	3.2764165	1.8100874
29.969447842417857	3.3001897	1.8166424
29.987591955066733	3.2875533	1.8131611
30.005736837203123	3.3000505	1.8166041
30.023882489379943	3.263015	1.8063817
30.04202891215028	3.245482	1.8015221
30.060176106067455	3.1730735	1.7813123
30.078324071684946	3.1531603	1.775714
30.09647280955646	3.2062848	1.7906102
30.114622320235863	3.2362874	1.7989684
30.132772604277257	3.2770839	1.8102717
30.1509236622349	3.2199967	1.7944349
30.16907549466328	3.1253974	1.7678794
30.18722810211705	2.9902287	1.7292278
30.205381485151097	3.0201516	1.7378583
30.22353564432045	3.0903356	1.757935
30.241690580180403	3.0652728	1.750792
30.25984629328638	2.9949698	1.7305981
30.278002784194037	2.9553978	1.719127
30.296160053459246	3.000748	1.7322667
30.314318101638033	3.0444994	1.7448494
30.332476929286646	2.942625	1.7154081
30.35063653696153	2.8457465	1.6869341
30.368796925219307	2.835709	1.6839564
30.386958094616844	2.8358295	1.6839921
30.40512004571115	2.8435016	1.6862686
30.423282779059463	2.8812902	1.6974363
30.441446295219233	2.8812568	1.6974266
30.459610594748067	2.884855	1.6984861
30.47777567820382	2.9054978	1.704552
30.495941546144504	2.8324044	1.6829748
30.51410819912835	2.8070202	1.6754165
30.532275637713795	2.8582668	1.6906409
30.55044386245946	2.837924	1.684614
30.56861287392416	2.8098156	1.6762505
30.586782672666956	2.7706707	1.6645331
30.604953259247047	2.7453773	1.656918
30.623124634223885	2.7190013	1.6489395
30.641296798157075	2.6800978	1.6371005
30.659469751606462	2.7852435	1.6689049
30.677643495132074	2.8777738	1.6964003
30.695818029294152	2.838688	1.6848406
30.713993354653116	2.740015	1.6552991
30.73216947176962	2.6916497	1.6406248
30.75034638120448	2.6349227	1.6232445
30.768524083518756	2.606653	1.6145133
30.786702579273673	2.6706407	1.6342095
30.80488186903069	2.7936149	1.671411
30.82306195335144	2.9449642	1.7160898
30.841242832797782	3.1287663	1.7688318
30.85942450793176	3.385196	1.8398902
30.877606979315637	3.7067409	1.9252899
30.895790247511883	4.082195	2.0204442
30.913974313083134	4.456048	2.1109354
30.932159176592283	4.661277	2.158999
30.95034483860237	4.7320256	2.175322
30.968531299676698	4.5771084	2.1394176
30.98671856037873	4.370433	2.090558
31.00490662127215	4.095531	2.0237417
31.023095482920848	3.682239	1.9189161
31.04128514588892	3.153218	1.7757303
31.059475610740662	2.7476723	1.6576104
31.07766687804056	2.6076283	1.6148152
31.09585894835335	2.5737932	1.6043046
31.11405182224393	2.4956195	1.579753
31.132245500277417	2.4554458	1.5669862
31.15043998301914	2.4776077	1.5740418
31.168635271034628	2.5449944	1.5953039
31.18683136488964	2.4943542	1.5793525
31.20502826515008	2.4241033	1.5569532
31.223225972382135	2.3173313	1.5222783
31.241424487152155	2.3566132	1.5351264
31.259623810026692	2.4333358	1.5599153
31.27782394157253	2.4737191	1.5728061
31.296024882356644	2.4325805	1.5596732
31.314226632946237	2.423399	1.556727
31.332429193908684	2.428381	1.5583264
31.350632565811598	2.4899652	1.5779624
31.368836749222787	2.4723172	1.5723604
31.387041744710295	2.5278685	1.5899272
31.40524755284232	2.553773	1.5980529
31.423454174187317	2.558255	1.5994545
31.441661609313922	2.571885	1.6037098
31.459869858791002	2.5294054	1.5904105
31.478078923187628	2.429017	1.5585304
31.496288803073064	2.4155009	1.5541881
31.514499499016807	2.366796	1.5384395
31.532711011588546	2.3623078	1.53698
31.550923341358178	2.355437	1.5347433
31.56913648889584	2.3273757	1.5255738
31.587350454771844	2.3794155	1.5425354
31.605565239556732	2.3862078	1.5447356
31.62378084382127	2.3796191	1.5426015
31.641997268136382	2.3301315	1.5264769
31.660214513073274	2.2838032	1.5112257
31.67843257920331	2.260697	1.5035614
31.6966514670981	2.288365	1.5127343
31.71487117732944	2.3278174	1.5257187
31.733091710469346	2.266826	1.5055982
31.751313067090052	2.2440953	1.4980304
31.769535247764008	2.2758055	1.5085773
31.787758253063878	2.320795	1.5234156
31.805982083562526	2.370205	1.539547
31.824206739833024	2.3066099	1.5187527
31.84243222244869	2.238145	1.4960432
31.860658531983013	2.2550206	1.5016726
31.878885669009737	2.3036456	1.5177765
31.897113634102784	2.3161168	1.5218793
31.91534242783632	2.2106252	1.4868171
31.933572050784694	2.2396603	1.4965495
31.951802503522508	2.2837636	1.5112126
31.970033786624548	2.20028	1.4833341
31.988265900665834	2.15768	1.4689044
32.006498846221575	2.2646294	1.5048685
32.02473262386724	2.2970176	1.5155915
32.04296723417845	2.1745355	1.4746306
32.0612026777311	2.1488547	1.4658972
32.07943895510129	2.177112	1.475504
32.097676066865304	2.1546192	1.4678621
32.115914013599685	2.081722	1.4428174
32.13415279588115	2.182948	1.4774803
32.152392414286666	2.3189435	1.5228077
32.1706328693934	2.2704341	1.506796
32.18887416177875	2.1845317	1.4780161
32.20711629202032	2.2035878	1.4844487
32.225359260695924	2.2228749	1.4909309
32.243603068383614	2.210306	1.4867097
32.26184771566166	2.0740564	1.4401585
32.28009320310852	2.0236847	1.4225627
32.2983395313029	2.0089896	1.4173883
32.31658670082372	2.0771766	1.4412414
32.33483471225012	2.1283615	1.4588904
32.35308356616143	2.102714	1.4500738
32.371333263137245	2.064996	1.4370095
32.38958380375734	2.1076777	1.4517844
32.407835188601744	2.1076741	1.4517831
32.42608741825067	2.0991242	1.4488355
32.444340493284585	2.084234	1.4436877
32.46259441428416	2.0342543	1.4262729
32.48084918183028	2.063581	1.436517
32.49910479650405	2.1384275	1.4623363
32.51736125888683	2.0908406	1.4459739
32.53561856956014	2.054603	1.4333887
32.5538767291058	2.1191978	1.4557465
32.572135738105764	2.089233	1.4454179
32.59039559714228	2.037212	1.4273093
32.608656306797776	2.085722	1.4442029
32.62691786765491	2.119405	1.4558177
32.645180280296586	2.1111896	1.4529933
32.663443545305896	2.059337	1.435039
32.68170766326619	2.0301764	1.4248426
32.69997263476099	2.0282133	1.4241536
32.7182384603741	1.9785749	1.4066182
32.7365051406895	1.9435282	1.3941048
32.75477267629144	2.0386186	1.427802
32.77304106776434	2.0552201	1.4336039
32.79131031569289	2.0111084	1.4181355
32.809580420661966	1.9966989	1.413046
32.827851383256714	2.0147648	1.419424
32.84612320406245	1.9725295	1.4044677
32.86439588366476	1.9898951	1.4106364
32.88266942264945	1.979487	1.4069424
32.9009438216025	1.9663528	1.402267
32.9192190811102	2.010374	1.4178766
32.937495201758985	1.9907051	1.4109235
32.95577218413556	2.003765	1.4155442
32.974050028826866	2.0991313	1.4488379
32.992328736420035	2.0754461	1.4406409
33.010608307502444	1.9383167	1.3922344
33.02888874266169	1.9374967	1.3919399
33.047170042485604	2.0188315	1.4208559
33.06545220756225	2.013698	1.4190483
33.083735238479896	2.0197968	1.4211956
33.10201913582707	2.0446503	1.4299127
33.12030390019248	1.9931018	1.4117726
33.138589532165135	1.9720341	1.4042913
33.15687603233419	1.9924846	1.411554
33.17516340128909	2.06313	1.43636
33.19345163961947	2.014402	1.4192963
33.211740747915215	1.9309993	1.389604
33.23003072676643	2.0231469	1.4223737
33.248321576763466	2.0563922	1.4340127
33.266613298496885	1.9986933	1.4137515
33.28490589255747	1.9666629	1.4023776
33.30319935953626	1.9586502	1.3995179
33.32149370002451	2.02086	1.4215696
33.339788914613706	2.0519009	1.4324458
33.358085003895575	2.0036461	1.4155021
33.376381968462034	1.9866451	1.409484
33.39467980890529	1.9154701	1.3840051
33.41297852581774	1.8800213	1.3711387
33.43127811979204	1.879591	1.3709818
33.44957859142105	1.8710539	1.3678647
33.467879941297866	1.8739216	1.3689126
33.486182170015844	1.9748937	1.4053091
33.50448527816853	1.957884	1.3992441
33.522789266349754	1.9440956	1.3943083
33.541094135153514	2.0180967	1.4205973
33.55939988517411	1.948955	1.3960499
33.57770651700602	1.8498911	1.3601071
33.59601403124398	1.9081087	1.3813431
33.61432242848296	1.9633933	1.4012114
33.632631709318154	1.9658619	1.402092
33.650941874344994	2.008919	1.4173634
33.66925292415916	2.0052955	1.4160845
33.68756485935654	1.8906785	1.3750194
33.70587768053328	1.9210054	1.3860034
33.724191388285746	2.0190341	1.4209272
33.74250598321054	2.0405796	1.4284886
33.760821465904506	1.996871	1.4131069
33.77913783696474	2.013267	1.4188964
33.79745509698852	1.9262377	1.3878896
33.815773246573414	1.8252747	1.3510273
33.8340922863172	1.8495299	1.3599743
33.852412216817896	1.959524	1.39983
33.87073303867377	1.9818473	1.407781
33.889054752483304	1.9649597	1.4017702
33.907377358845245	1.849759	1.3600584
33.92570085835853	1.8076026	1.3444711
33.94402525162239	1.8083223	1.3447387
33.96235053923627	1.8160101	1.3475941
33.980676721799824	1.8426498	1.3574424
33.999003799912984	1.8657727	1.365933
34.01733177417592	1.8019067	1.3423512
34.03566064518901	1.8430893	1.3576043
34.0539904135529	1.9511169	1.3968239
34.07232107986846	1.8750632	1.3693295
34.090652644736785	1.867702	1.3666389
34.108985108759235	1.9525381	1.3973325
34.12731847253742	2.0213027	1.4217253
34.14565273667313	2.0337372	1.4260916
34.16398790176847	1.9751925	1.4054154
34.18232396842574	1.9770365	1.4060713
34.20066093724749	2.0087883	1.4173173
34.21899880883651	1.9405063	1.3930206
34.23733758379583	1.927156	1.3882204
34.25567726272874	1.9588459	1.3995878
34.27401784623872	1.9497862	1.3963474
34.29235933492957	2.0041218	1.41567
34.31070172940526	2.044375	1.4298164
34.32904503027003	2.0923395	1.4464922
34.347389238128386	2.0525177	1.432661
34.36573435358502	1.8720895	1.3682432
34.38408037724492	1.8922262	1.3755821
34.402427309713296	2.1461127	1.4649616
34.42077515159559	2.2851734	1.511679
34.43912390349752	2.1746163	1.474658
34.45747356602499	1.995075	1.4124712
34.47582413978423	1.9450371	1.3946459
34.49417562538163	1.9563525	1.3986967
34.51252802342388	1.9128977	1.3830755
34.53088133451789	1.9015453	1.3789653
34.54923555927084	1.9637886	1.4013524
34.567590698290104	2.0622962	1.4360697
34.58594675218336	2.0507681	1.4320503
34.6043037215585	2.0069954	1.4166846
34.62266160702365	1.9988923	1.4138219
34.641020409187234	2.1080487	1.451912
34.65938012865785	2.0157325	1.419765
34.677740766044394	1.7725106	1.3313566
34.69610232195598	1.7851325	1.3360885
34.714464797002016	1.9033641	1.3796246
34.73282819179208	1.8715464	1.3680447
34.751192506936064	1.9909351	1.411005
34.76955774304408	1.9702252	1.4036471
34.7879239007265	1.6659267	1.2907078
34.80629098059391	1.7114981	1.3082424
34.824658983257194	1.9239668	1.3870713
34.843027909327446	2.0271688	1.4237868
34.86139775941603	1.9231799	1.3867877
34.879768534134534	1.987789	1.4098897
34.89814023409483	2.0947452	1.4473234
34.91651285990901	2.0011637	1.4146249
34.93488641218944	1.9417208	1.3934565
34.95326089154871	2.0681567	1.4381087
34.97163629859967	2.2288504	1.4929335
34.99001263395542	2.162064	1.4703959
35.00838989822934	1.941127	1.3932433
35.02676809203499	1.9312718	1.3897021
35.04514721598624	1.991651	1.4112587
35.063527270697215	1.979675	1.4070092
35.081908256782256	2.3072994	1.5189797
35.10029017485597	2.1733341	1.4742233
35.11867302553321	1.9171418	1.3846089
35.137056809429104	2.0739539	1.4401228
35.155441527159006	2.1870124	1.4788551
35.173827179338524	1.9097657	1.3819427
35.19221376658354	1.8140445	1.3468647
35.21060128951017	1.9897699	1.4105921
35.2289897487348	1.9415365	1.3933903
35.24737914487405	1.783318	1.3354093
35.26576947854479	1.6355729	1.2788951
35.28416075036418	1.8052101	1.3435811
35.30255296094958	2.0577054	1.4344704
35.32094611091867	2.0177536	1.4204766
35.33934020088932	1.9354403	1.391201
35.35773523147969	1.7681148	1.3297048
35.3761312033082	1.8327748	1.3538
35.394528116993506	1.8360165	1.3549969
35.41292597315452	1.8680694	1.3667734
35.431324772410434	1.933437	1.3904809
35.449724515380666	1.8870113	1.3736852
35.46812520268491	2.142193	1.4636233
35.486526834943106	2.097094	1.4481347
35.504929412775454	2.064143	1.4367125
35.52333293680242	1.7018374	1.3045449
35.54173740764471	1.7319269	1.3160269
35.560142825923286	1.7731558	1.331599
35.5785491922594	1.4674152	1.2113692
35.59695650727454	0.82781225	0.9098419
35.61536477159042	0.6898081	0.83054686
