0.008763373481513119	0.0	0.0
0.026290120649546365	0.0	0.0
0.043816868432600686	0.060138714	0.24523196
0.06134361724069026	0.08291717	0.2879534
0.07887036748382949	0.09079817	0.30132735
0.0963971195720331	0.2292576	0.47880852
0.11392387391531617	0.23648202	0.48629418
0.1314506309236943	0.2387322	0.4886023
0.1489773910071836	0.2414815	0.49140766
0.16650415457580078	0.24473509	0.49470708
0.18403092203956356	0.23746148	0.4873002
0.20155769380849	0.13641866	0.36934897
0.2190844702925996	0.055970088	0.23657998
0.2366112519019124	0.042873744	0.20705976
0.2541380390464497	0.08366086	0.28924188
0.27166483213623416	0.09160935	0.30267036
0.28919163158128947	0.115979984	0.34055835
0.3067184377916406	0.139688	0.37374857
0.324245251177314	0.18607658	0.43136594
0.34177207214833777	0.20454271	0.45226398
0.3592989011147415	0.15111947	0.38874087
0.37682573848655654	0.12596609	0.35491702
0.39435258467381573	0.14063695	0.37501594
0.41187944008655414	0.16196115	0.40244398
0.42940630513480854	0.19957547	0.4467387
0.446933180228618	0.21011905	0.45838743
0.4644600657780234	0.1951712	0.44178185
0.48198696219306775	0.16390726	0.40485463
0.49951386988379676	0.14608659	0.38221276
0.5170407892602581	0.16392836	0.40488067
0.5345677207325025	0.158813	0.3985135
0.5520946647105822	0.18255225	0.42726132
0.5696216216045534	0.20291242	0.45045802
0.5871485918244737	0.21990398	0.46893921
0.6046755757804043	0.20177056	0.44918877
0.6222025738824094	0.20111807	0.4484619
0.6397295865405557	0.19809778	0.44508177
0.6572566141649129	0.20355903	0.45117515
0.6747836571655547	0.21087846	0.45921504
0.6923107159525568	0.16448864	0.405572
0.7098377909359992	0.16412441	0.40512273
0.7273648825259653	0.13743615	0.3707238
0.7448919911325411	0.11545115	0.33978105
0.762419117165817	0.15483196	0.39348692
0.7799462610358868	0.17810078	0.42201987
0.7974734231528482	0.21549267	0.46421188
0.8150006039268024	0.2374358	0.48727384
0.8325278037678551	0.2393697	0.48925424
0.8500550230861152	0.23774458	0.48759058
0.8675822622916969	0.22587672	0.4752649
0.8851095217947171	0.23114908	0.48077965
0.9026368020052984	0.21412742	0.46273905
0.9201641033335665	0.21076643	0.45909306
0.9376914261896523	0.19156733	0.43768406
0.9552187709836915	0.16160667	0.40200332
0.9727461381258234	0.17154501	0.41417992
0.990273528026193	0.2340683	0.48380607
1.0078009410949496	0.24334827	0.49330342
1.0253283777422473	0.2637377	0.513554
1.0428558383782454	0.25365826	0.503645
1.0603833234131086	0.3018256	0.54938656
1.0779108332570058	0.40720734	0.638128
1.0954383683201119	0.42577088	0.65251124
1.112965929012607	0.4807464	0.6933588
1.1304935157446763	0.54870343	0.7407452
1.1480211289265108	0.58623004	0.7656566
1.1655487689683062	1.3133544	1.1460167
1.1830764362802655	1.5471269	1.2438356
1.200604131272596	1.9827969	1.4081182
1.2181318543555117	2.4002504	1.5492742
1.235659605939232	2.4021344	1.549882
1.253187386433982	4.0111213	2.0027783
1.270715196249994	6.26827	2.5036514
1.2882430357975057	11.644623	3.412422
1.3057709054867608	16.44162	4.0548267
1.3232988057280106	22.400555	4.7329226
1.3408267369315112	27.376383	5.2322445
1.358354699507526	31.042019	5.5715365
1.3758826938663256	34.87621	5.905608
1.3934107204181858	36.891045	6.0738
1.410938779573391	37.566177	6.129125
1.4284668717422309	38.108704	6.173225
1.4459949973350033	37.550667	6.12786
1.4635231567620117	37.593685	6.131369
1.4810513504335687	36.775646	6.064293
1.4985795787599925	36.06652	6.005541
1.5161078421516088	35.627518	5.968879
1.5336361410187505	34.75238	5.895115
1.5511644757717598	34.68821	5.88967
1.5686928468209842	35.139973	5.927898
1.58622125457678	35.438362	5.953013
1.6037496994495108	36.516266	6.042869
1.621278181849548	36.423225	6.035166
1.6388067021872719	37.547188	6.127576
1.6563352608730693	37.2977	6.1071844
1.673863858317336	36.579876	6.04813
1.6913924949304753	35.60857	5.967292
1.7089211711228998	34.12518	5.841676
1.7264498873050296	33.230316	5.764574
1.7439786438872935	32.47383	5.6985817
1.7615074412801288	31.81535	5.6405096
1.779036279893981	31.286211	5.5934076
1.796565160139305	30.53088	5.5254755
1.814094082426564	29.935509	5.4713354
1.8316230471662298	29.316341	5.414457
1.849152054768784	28.378222	5.3271213
1.8666811056447168	27.581747	5.251833
1.8842102002045273	26.807865	5.1776314
1.901739338858724	26.084898	5.1073375
1.9192685220178245	25.59241	5.058894
1.9367977500923557	24.935505	4.9935465
1.9543270234928547	24.477716	4.947496
1.971856342629867	24.083448	4.907489
1.9893857079139496	23.664396	4.8646064
2.006915119755667	23.103935	4.8066554
2.0244445785655945	22.32726	4.725173
2.0419740847543175	21.73042	4.6615896
2.0595036387324317	21.099588	4.5934286
2.0770332409105414	20.789547	4.5595555
2.094562891699263	20.437729	4.5208106
2.1120925915092217	19.94407	4.4658785
2.129622340751053	19.537874	4.420167
2.1471521398354043	187.8311	13.705149
2.1646819891729323	444.15564	21.075
2.182211889174303	440.37146	20.98503
2.1997418402501974	452.59802	21.274351
2.2172718428113023	432.61758	20.799461
2.234801897268317	320.51	17.902794
2.2523320040319548	16.965862	4.1189637
2.269862163512935	16.493921	4.0612707
2.287392376121992	16.317326	4.039471
2.304922642269869	16.175852	4.0219216
2.322452962367322	16.087479	4.01092
2.3399833368251164	15.605862	3.9504254
2.357513766054032	15.132148	3.890006
2.3750442504648586	14.7746525	3.843781
2.3925747904683963	14.681096	3.8315918
2.410105386475459	14.606889	3.821896
2.4276360388968707	14.21111	3.7697625
2.445166748143469	14.047041	3.7479382
2.4626975146261025	13.5597105	3.682351
2.4802283387556323	13.284844	3.644838
2.4977592209429305	13.149761	3.62626
2.5152901615988825	12.910828	3.593164
2.5328211611343865	12.79879	3.5775397
2.5503522199603523	12.696262	3.5631814
2.5678833384877024	12.559515	3.5439405
2.5854145171273712	12.413465	3.5232747
2.6029457562903064	12.071923	3.4744673
2.620477056387469	11.860379	3.44389
2.6380084178298326	11.796753	3.4346402
2.655539841028383	11.727644	3.4245648
2.673071326394119	11.561913	3.4002812
2.6906028743380523	11.291886	3.36034
2.708134485271211	11.042639	3.3230467
2.7256661596046325	10.917129	3.304108
2.743197897749369	10.773903	3.2823625
2.760729700116486	10.682048	3.26834
2.778261567117063	10.37259	3.2206507
2.795793499162193	10.147393	3.1854973
2.8133254966629817	9.997311	3.1618524
2.830857560030551	9.926404	3.1506195
2.8483896896760337	9.902971	3.1468987
2.865921886010578	9.713226	3.116605
2.883454149445347	9.528925	3.0868957
2.9009864803915177	9.2811775	3.0465026
2.91851887926028	9.047367	3.0078843
2.9360513464628384	8.886246	2.9809806
2.953583882410413	8.853617	2.9755027
2.9711164875142373	8.840379	2.9732773
2.9886491621855606	8.687864	2.9475183
3.0061819068356455	8.533339	2.9211879
3.023714721875769	8.369639	2.8930328
3.041247607717225	8.319317	2.8843226
3.0587805647713213	8.312866	2.8832042
3.0763135934493806	8.336597	2.8873167
3.0938466941627407	8.292373	2.879648
3.1113798673227544	8.222604	2.8675082
3.1289131133407904	8.024247	2.8327103
3.1464464326282315	7.8494163	2.801681
3.1639798255964786	7.7322416	2.780691
3.1815132926569443	7.638365	2.7637591
3.1990468342210603	7.4734416	2.7337596
3.216580450700272	7.4639626	2.7320254
3.2341141425060416	7.4595404	2.731216
3.251647910049847	7.457173	2.7307825
3.2691817537431813	7.4241157	2.724723
3.286715673997555	7.292087	2.7003865
3.3042496712244938	7.214003	2.6858897
3.32178374583554	7.1188493	2.6681173
3.339317898242251	7.0352874	2.6524117
3.3568521288562034	7.07189	2.6593025
3.3743864380889876	6.986318	2.6431644
3.3919208263522127	6.978095	2.6416085
3.4094552940575023	6.8228316	2.612055
3.4269898416164972	6.7070675	2.5898006
3.444524469440858	6.594095	2.567897
3.4620591779422587	6.554191	2.5601153
3.479593967532391	6.6423573	2.5772772
3.4971288386229658	6.6204276	2.5730193
3.5146637916257086	6.628928	2.5746706
3.5321988269523628	6.577352	2.5646348
3.5497339450146903	6.562209	2.561681
3.5672691462244708	6.4469976	2.539094
3.5848044309934988	6.3776116	2.5253932
3.60233979973359	6.2233553	2.4946654
3.619875252856575	6.2145877	2.4929075
3.6374107907743034	6.2170167	2.4933946
3.6549464138986427	6.2604966	2.5020986
3.6724821226414788	6.3729453	2.5244694
3.690017917414714	6.3793426	2.525736
3.7075537986302702	6.3848333	2.5268228
3.7250897667000857	6.4614043	2.5419292
3.7426258220361235	6.667578	2.5821655
3.7601619650503553	7.03193	2.6517787
3.777698196154779	7.5374045	2.7454333
3.7952345157614067	8.633358	2.9382577
3.8127709242822716	9.4151945	3.068419
3.830307422129425	11.729238	3.4247975
3.847844009714936	30.463558	5.51938
3.8653806874508954	97.90631	9.894762
3.882917455749409	97.07215	9.85252
3.900454315022606	96.84245	9.840857
3.917991265682631	41.381374	6.4328356
3.9355283081416506	11.106744	3.332678
3.9530654428118495	8.87516	2.9791207
3.970602670105433	7.5038786	2.7393208
3.9881399904346244	6.4638357	2.5424075
4.005677404211669	6.394912	2.5288162
4.023214911848827	6.341322	2.5181983
4.0407525137583855	6.3845696	2.5267706
4.058290210352644	6.32897	2.5157444
4.075828002043927	6.300716	2.5101228
4.0933658892445814	6.286247	2.5072389
4.110903872366966	6.275397	2.5050743
4.128441951823468	6.2187204	2.4937363
4.145980128026488	6.195779	2.4891322
4.163518401388452	6.2756276	2.5051203
4.181056772321807	6.290168	2.5080206
4.1985952412390155	6.302609	2.5104997
4.216133808552567	6.226546	2.4953048
4.233672474674966	6.160051	2.481945
4.251211240018741	6.3303995	2.5160284
4.268750104996445	6.6008806	2.569218
4.286289070020643	7.507898	2.7400544
4.303828135503928	9.11599	3.0192697
4.3213673018589125	29.4922	5.430672
4.3389065694982305	90.7867	9.528205
4.356445938834537	166.04013	12.885656
4.3739854102805085	171.24959	13.086237
4.391524984248844	172.06125	13.117212
4.409064661152262	136.05457	11.664243
4.426604441403504	96.53983	9.825469
4.444144325415337	75.44186	8.685727
4.461684313600543	21.460073	4.632502
4.47922440637193	21.958126	4.68595
4.496764604142329	20.358364	4.5120244
4.5143049073245916	18.589798	4.311589
4.531845316331589	16.469786	4.0582986
4.5493858315762195	13.503222	3.674673
4.566926453471405	11.312538	3.3634117
4.584467182430081	9.052945	3.0088112
4.602008018865218	8.006141	2.8295124
4.619548963189798	7.409316	2.7220058
4.637090015816834	6.954051	2.6370535
4.654631177159353	6.753433	2.5987368
4.672172447630417	6.398055	2.5294378
4.689713827643102	6.307627	2.511499
4.7072553176105085	5.9818664	2.4457855
4.724796917945764	5.801939	2.4087214
4.742338629062015	5.7234607	2.3923755
4.759880451372434	5.682733	2.3838484
4.777422385290215	5.651661	2.3773222
4.794964431228581	5.613493	2.369281
4.812506589600768	5.6902647	2.3854275
4.830048860820047	5.6489787	2.376758
4.847591245299709	5.6190186	2.370447
4.8651337434530655	5.445041	2.3334613
4.882676355693457	5.475933	2.3400712
4.900219082434242	5.4983387	2.3448536
4.917761924088813	5.537035	2.3530905
4.935304881070575	5.449186	2.3343492
4.952847953792969	5.4921594	2.3435357
4.970391142669449	5.432185	2.330705
4.9879344481135055	5.473667	2.339587
5.005477870538642	5.521617	2.349812
5.023021410358394	5.5528994	2.3564591
5.040565067986324	5.5935483	2.3650684
5.05810884383601	5.5616193	2.3583086
5.075652738321066	5.53242	2.3521097
5.09319675185512	5.4649835	2.3377304
5.110740884851836	5.3969398	2.3231316
5.128285137724894	5.3373814	2.3102772
5.145829510888007	5.3050466	2.3032687
5.163374004754908	5.380373	2.3195632
5.1809186197393595	5.34105	2.3110712
5.198463356255145	5.322365	2.3070252
5.216008214716077	5.3337502	2.3094914
5.233553195535998	5.344944	2.3119135
5.251098299128764	5.408796	2.3256817
5.268643525908272	5.2919393	2.3004215
5.286188876288432	5.294955	2.301077
5.3037343506831895	5.2543263	2.2922318
5.32127994950651	5.269179	2.2954693
5.3388256731723915	5.259139	2.2932813
5.356371522094851	5.1986246	2.2800493
5.373917496687938	5.1870723	2.2775145
5.391463597365729	5.205469	2.2815497
5.40900982454232	5.2601924	2.293511
5.426556178631843	5.2581496	2.2930655
5.444102660048449	5.2377276	2.2886083
5.4616492692063225	5.218278	2.284355
5.479196006519669	5.1443944	2.2681258
5.496742872402727	5.104448	2.2593026
5.514289867269756	5.111521	2.2608674
5.531836991535049	5.089728	2.2560425
5.549384245612924	5.0975637	2.2577784
5.566931629917724	5.1313553	2.2652495
5.584479144863822	5.1150775	2.2616537
5.6020267908656205	5.070254	2.2517223
5.619574568337545	4.9699483	2.2293382
5.637122477694054	4.937327	2.2220097
5.654670519349629	5.021617	2.2408965
5.672218693718784	5.0682135	2.2512693
5.689767001216059	5.1565866	2.2708118
5.707315442256021	5.1323376	2.2654662
5.724864017253266	5.1292195	2.2647781
5.7424127266224225	5.0600786	2.249462
5.75996157077814	5.022763	2.241152
5.777510550135105	5.052271	2.2477257
5.795059665108022	5.121457	2.2630637
5.812608916111639	5.186425	2.2773724
5.830158303560715	5.317656	2.3060043
5.847707827870055	5.291165	2.3002532
5.86525748945448	5.40176	2.3241687
5.8828072887288485	5.525967	2.3507376
5.900357226108044	5.6298237	2.372725
5.917907302006979	5.6739473	2.382005
5.9354575168406	6.2691627	2.5038295
5.9530078710238765	6.903091	2.6273735
5.970558364971812	7.4470625	2.7289307
5.988108999099438	7.829226	2.7980754
6.005659773821818	8.330736	2.8863015
6.023210689554039	8.143834	2.8537405
6.040761746711227	8.603533	2.933178
6.058312945708531	7.957148	2.8208418
6.075864286961132	7.426056	2.725079
6.093415770884244	6.7046824	2.5893402
6.1109673978931065	6.133605	2.4766116
6.128519168402993	5.4976993	2.3447173
6.146071082829204	5.369364	2.3171887
6.163623141587075	5.253867	2.2921317
6.181175345091969	5.2175064	2.2841861
6.198727693759281	5.122715	2.2633417
6.216280188004435	5.0749087	2.2527559
6.233832828242885	5.1140285	2.2614217
6.251385614890126	5.13115	2.2652042
6.268938548361669	5.156656	2.270827
6.286491629073067	5.069388	2.2515302
6.304044857439898	5.037194	2.2443693
6.321598233877777	4.9303546	2.2204401
6.339151758802344	4.903134	2.214302
6.356705432629277	4.96311	2.227804
6.37425925577428	4.9355297	2.2216053
6.391813228653095	4.8648067	2.2056308
6.409367351681486	4.7967143	2.1901402
6.426921625275259	4.830379	2.1978123
6.44447604985025	4.915899	2.2171826
6.46203062582232	4.9323025	2.2208788
6.47958535360737	4.8829536	2.2097406
6.497140233621328	4.9485464	2.2245328
6.514695266280161	4.967996	2.2289002
6.532250451999859	5.0083814	2.2379413
6.549805791196454	4.99602	2.2351778
6.567361284286002	5.0293293	2.2426167
6.584916931684597	5.1168814	2.2620525
6.602472733808367	5.045069	2.246123
6.6200286910734665	4.966548	2.2285752
6.637584803896092	4.9041824	2.2145388
6.655141072692462	4.880233	2.2091248
6.672697497878842	4.9617825	2.227506
6.690254079871514	4.9229198	2.2187653
6.707810819086808	4.9831305	2.2322927
6.725367715941078	4.9668326	2.2286391
6.742924770850719	4.9623184	2.227626
6.760481984232151	4.882428	2.2096217
6.778039356501836	4.8461246	2.2013915
6.795596888076266	4.9554625	2.2260869
6.813154579371963	4.979772	2.2315402
6.830712430805492	4.9454184	2.2238297
6.84827044279344	4.875437	2.208039
6.865828615752445	4.920653	2.2182546
6.883386950099159	5.019382	2.2403977
6.900945446250287	5.04551	2.2462213
6.918504104622553	5.0247717	2.2416003
6.936062925632727	5.0288925	2.2425191
6.953621909697607	5.022377	2.241066
6.971181057234028	5.0681643	2.2512584
6.988740368658859	5.051757	2.2476113
7.006299844389007	5.147569	2.2688255
7.023859484841407	5.218465	2.284396
7.041419290433036	5.3673964	2.316764
7.058979261580902	5.451344	2.3348114
7.0765393987020495	5.6622534	2.379549
7.094099702213559	6.057119	2.4611216
7.111660172532549	6.3853164	2.5269184
7.129220810076164	6.673248	2.583263
7.146781615261595	7.194013	2.6821659
7.16434258850606	7.5033383	2.7392223
7.181903730226821	7.9120893	2.8128436
7.1994650408411704	8.075211	2.8416915
7.217026520766437	8.151236	2.855037
7.234588170419983	8.33465	2.8869793
7.252149990219215	8.395021	2.8974164
7.269711980581568	8.237069	2.8700294
7.2872741419245175	8.085481	2.843498
7.304836474665574	7.73841	2.7817998
7.322398979222286	7.4294915	2.7257094
7.339961656012233	7.1726007	2.6781712
7.357524505453039	6.8571706	2.61862
7.375087527962357	6.6185203	2.5726485
7.392650723957886	6.3672085	2.5233328
7.410214093857353	5.9914217	2.4477382
7.427777638078528	5.762287	2.4004765
7.445341357039213	5.5457325	2.3549378
7.4629052511572525	5.3861575	2.3208096
7.480469320850524	5.19933	2.2802038
7.498033566536948	5.113461	2.2612963
7.5155979886344735	5.1115823	2.260881
7.5331625875610975	5.1257677	2.264016
7.550727363734844	5.112036	2.2609813
7.568292317573788	5.130124	2.2649777
7.585857449496025	5.206625	2.281803
7.603422759919705	5.209161	2.2823586
7.620988249263007	5.2261024	2.286067
7.638553917944147	5.175915	2.2750638
7.656119766381391	5.2009788	2.2805655
7.673685794993023	5.183384	2.2767045
7.691252004197388	5.238683	2.288817
7.70881839441285	5.270623	2.2957838
7.726384966057826	5.28698	2.2993433
7.743951719550762	5.266867	2.2949655
7.761518655310149	5.1598015	2.2715197
7.779085773754511	5.17573	2.2750232
7.796653075302419	5.213736	2.2833607
7.814220560372475	5.2694855	2.295536
7.831788229383323	5.247513	2.290745
7.8493560827536495	5.281683	2.2981913
7.866924120902174	5.2722063	2.2961285
7.884492344247663	5.2888875	2.2997582
7.9020607532089135	5.3043504	2.3031175
7.919629348204771	5.315043	2.3054378
7.937198129654115	5.3666143	2.3165953
7.954767097975865	5.380947	2.319687
7.972336253588986	5.3727293	2.317915
7.989905596912472	5.3708653	2.3175128
8.007475128365371	5.3400173	2.3108478
8.025044848366756	5.364768	2.316197
8.042614757335754	5.495731	2.3442974
8.060184855691523	5.624085	2.3715153
8.07775514385327	5.7699475	2.4020715
8.095325622240228	5.809968	2.4103875
8.112896291271687	5.805146	2.409387
8.130467151366968	5.8400726	2.4166243
8.148038202945436	5.910873	2.4312286
8.165609446426497	5.9181805	2.4327312
8.183180882229594	5.929953	2.4351494
8.200752510774217	5.926441	2.4344282
8.218324332479893	5.8771787	2.4242892
8.235896347766193	5.895528	2.4280708
8.253468557052724	5.9437943	2.4379897
8.27104096075914	5.92115	2.4333413
8.288613559305137	6.0292134	2.4554458
8.306186353110448	6.063026	2.4623213
8.32375934259485	6.106569	2.4711473
8.341332528178162	6.1006846	2.4699564
8.358905910280246	6.1585507	2.4816427
8.376479489321003	6.2012744	2.4902358
8.394053265720377	6.275293	2.5050535
8.411627239898356	6.273352	2.504666
8.42920141227497	6.282659	2.5065234
8.44677578327029	6.318807	2.5137239
8.464350353304427	6.3547797	2.5208688
8.48192512279754	6.3247666	2.5149088
8.499500092169827	6.307145	2.511403
8.51707526184153	6.2557235	2.5011444
8.534650632232934	6.257919	2.5015833
8.552226203764365	6.1503434	2.4799886
8.569801976856192	6.1958303	2.4891424
8.587377951928834	6.2382116	2.4976413
8.60495412940274	6.318108	2.5135846
8.622530509698416	6.299884	2.5099568
8.6401070932364	6.356016	2.521114
8.657683880437283	6.465862	2.542806
8.675260871721695	6.670967	2.5828216
8.692838067510303	6.8516545	2.6175666
8.710415468223834	6.9740543	2.6408434
8.727993074283043	7.077384	2.6603353
8.745570886108737	7.0608683	2.6572294
8.763148904121765	7.181996	2.6799245
8.78072712874302	7.1463604	2.6732678
8.798305560393441	7.342409	2.709688
8.815884199494006	7.4269867	2.7252498
8.833463046465745	7.692462	2.7735288
8.851042101729728	7.8603873	2.8036382
8.86862136570707	8.115305	2.8487375
8.886200838818924	8.230328	2.8688548
8.903780521486505	8.30628	2.8820617
8.921360414131055	8.442607	2.9056165
8.938940517173874	8.574912	2.9282951
8.956520831036297	8.686766	2.947332
8.97410135613971	8.921521	2.9868915
8.99168209290554	9.096037	3.0159638
9.009263041755265	9.328789	3.0543065
9.026844203110405	9.524212	3.0861323
9.044425577392525	9.749628	3.1224394
9.062007165023239	9.945818	3.1536992
9.079588966424197	10.286341	3.2072325
9.097170982017108	10.400971	3.2250538
9.11475321222372	11.430994	3.3809752
9.132335657465825	12.369103	3.5169737
9.149918318165264	12.513104	3.5373867
9.167501194743924	13.289502	3.645477
9.18508428762374	12.871291	3.5876582
9.202667597226693	12.796305	3.5771923
9.220251123974803	12.396195	3.520823
9.237834868290143	12.095169	3.4778109
9.255418830594836	11.886471	3.4476762
9.273003011311046	11.376264	3.3728716
9.290587410860985	11.089477	3.3300865
9.308172029666911	10.4453745	3.2319305
9.32575686815113	10.074956	3.174107
9.343341926735997	8.710826	2.9514108
9.360927205843916	8.484594	2.9128327
9.378512705897327	8.239137	2.8703897
9.396098427318728	8.000785	2.8285658
9.413684370530664	7.9338913	2.8167164
9.431270535955722	7.907829	2.812086
9.448856924016539	7.8286963	2.7979808
9.466443535135806	7.715254	2.7776346
9.484030369736251	7.695687	2.77411
9.501617428240658	7.708081	2.776343
9.519204711071852	7.7196364	2.7784233
9.536792218652714	7.819695	2.7963717
9.55437995140617	7.8889265	2.8087232
9.571967909755191	7.952335	2.8199885
9.589556094122802	7.898983	2.810513
9.60714450493207	7.9085326	2.8122113
9.624733142606116	7.8760757	2.8064346
9.642322007568108	7.9096966	2.8124182
9.659911100241267	7.925693	2.8152606
9.677500421048851	8.025965	2.8330133
9.695089970414175	8.040669	2.8356075
9.712679748760609	8.016469	2.831337
9.730269756511557	8.045462	2.8364522
9.747859994090492	8.083198	2.8430965
9.765450461920915	8.148185	2.8545024
9.78304116042639	8.150772	2.8549557
9.800632090030527	8.150641	2.8549328
9.81822325115699	8.130317	2.851371
9.835814644229481	8.06977	2.840734
9.853406269671762	8.109551	2.8477273
9.870998127907646	8.156476	2.8559544
9.888590219360985	8.248811	2.8720744
9.906182544455698	8.249399	2.8721766
9.923775103615734	8.255478	2.8732347
9.941367897265108	8.27731	2.8770316
9.958960925827878	8.363664	2.892
9.97655418972816	8.354501	2.8904154
9.994147689390106	8.32335	2.8850217
10.011741425237934	8.204738	2.8643913
10.029335397695904	8.195866	2.8628423
10.04692960718833	8.213913	2.8659925
10.06452405413958	8.173683	2.8589654
10.082118738974064	8.110713	2.8479314
10.099713662116246	8.125401	2.850509
10.117308823990651	8.13907	2.8529055
10.134904225021844	8.174387	2.8590884
10.152499865634445	8.180996	2.860244
10.170095746253125	8.187902	2.8614511
10.18769186730261	8.242858	2.8710377
10.205288229207675	8.287605	2.8788202
10.222884832393145	8.259076	2.8738608
10.2404816772839	8.187654	2.8614075
10.258078764304868	8.117783	2.8491724
10.275676093881035	8.041669	2.8357837
10.293273666437438	8.013314	2.8307798
10.310871482399158	8.097393	2.8455918
10.32846954219134	8.087708	2.8438897
10.346067846239173	8.192126	2.862189
10.363666394967908	8.151429	2.8550708
10.38126518880283	8.123345	2.8501482
10.398864228169298	8.06627	2.840118
10.416463513492713	8.069253	2.8406432
10.434063045198531	8.122731	2.8500407
10.451662823712262	8.146931	2.8542829
10.469262849459467	8.24003	2.8705454
10.486863122865758	8.15467	2.8556383
10.504463644356806	8.066679	2.84019
10.522064414358338	7.9783497	2.8245974
10.539665433296118	7.954284	2.820334
10.557266701595987	7.995308	2.8275976
10.574868219683818	7.9003134	2.8107495
10.592469987985552	7.810353	2.7947009
10.610072006927185	7.650048	2.765872
10.627674276934751	7.5284996	2.7438111
10.64527679843435	7.379072	2.7164447
10.662879571852143	7.2000165	2.6832848
10.680482597614331	7.0840216	2.6615825
10.698085876147173	6.993302	2.6444852
10.715689407876988	6.914804	2.6296015
10.733293193230146	6.929373	2.6323702
10.750897232633072	6.832107	2.6138299
10.76850152651225	6.726302	2.5935116
10.786106075294207	6.578721	2.5649018
10.803710879405534	6.5171123	2.5528636
10.821315939272877	6.4699693	2.5436134
10.83892125532294	6.3708787	2.52406
10.856526827982472	6.272943	2.5045843
10.874132657678285	6.2341332	2.4968247
10.891738744837243	6.2055354	2.4910913
10.909345089886271	6.102943	2.4704134
10.926951693252343	6.0015798	2.4498122
10.944558555362494	6.0063834	2.4507923
10.96216567664381	6.0174885	2.453057
10.979773057523436	5.9734855	2.4440715
10.997380698428573	5.909578	2.4309623
11.014988599786477	5.770396	2.402165
11.032596762024461	5.7424765	2.3963466
11.050205185569892	5.674192	2.3820562
11.067813870850198	5.6495256	2.376873
11.085422818292859	5.578933	2.3619764
11.10303202832541	5.5477986	2.3553765
11.120641501375454	5.485283	2.3420682
11.138251237870636	5.439019	2.3321705
11.155861238238671	5.3462	2.312185
11.173471502907317	5.202087	2.2808084
11.191082032304402	5.1150684	2.2616518
11.208692826857805	5.028906	2.2425222
11.226303886995465	4.999904	2.2360466
11.243915213145371	4.9672	2.2287216
11.261526805735578	4.9363475	2.2217894
11.279138665194196	4.839415	2.199867
11.296750791949393	4.7233553	2.1733282
11.314363186429393	4.6538334	2.1572745
11.331975849062479	4.619488	2.1492994
11.34958878027699	4.6503344	2.1564634
11.36720198050133	4.6183734	2.1490402
11.384815450163948	4.579153	2.1398957
11.402429189693366	4.54734	2.1324494
11.420043199518153	4.5750422	2.1389349
11.437657480066942	63.507595	7.9691653
11.455272031768422	85.17943	9.22927
11.472886855051353	107.513565	10.368875
11.490501950344528	99.092186	9.954506
11.508117318076819	84.457535	9.190078
11.52573295867715	45.836803	6.7702885
11.543348872574514	4.157379	2.0389652
11.560965060197946	4.111252	2.0276222
11.57858152197655	4.0982704	2.0244186
11.59619825833949	4.084239	2.02095
11.613815269715985	4.0391407	2.0097613
11.631432556535323	38.49994	6.204832
11.649050119226837	82.97575	9.109103
11.666667958219929	93.39443	9.66408
11.68428607394406	107.673454	10.376582
11.701904466828756	82.49857	9.082872
11.719523137303586	65.330505	8.082728
11.737142085798196	4.5680795	2.1373067
11.754761312742286	3.7268798	1.9305128
11.772380818565619	3.673076	1.916527
11.790000603698015	3.6010005	1.8976302
11.80762066856935	3.5376022	1.8808515
11.825241013609572	3.5245492	1.8773783
11.842861639248683	3.5178766	1.8756003
11.860482545916748	3.511508	1.8739018
11.878103734043883	3.5021718	1.871409
11.895725204060282	3.4547372	1.8586923
11.91334695639619	3.3943849	1.8423856
11.930968991481919	3.3540862	1.8314165
11.948591309747824	3.2961328	1.8155255
11.966213911624347	3.3161817	1.8210386
11.98383679754198	3.3307543	1.8250355
12.001459967931268	3.3053548	1.8180635
12.019083423222835	3.24653	1.801813
12.036707163847352	3.2012892	1.7892147
12.05433119023556	3.2125285	1.7923528
12.071955502818259	3.209274	1.7914447
12.089580102026313	3.210382	1.7917539
12.107204988290643	3.2231216	1.7953055
12.12483016204224	3.2173963	1.7937102
12.142455623712152	3.1805778	1.7834175
12.16008137373149	3.1299481	1.769166
12.177707412531431	3.1421642	1.7726151
12.19533374054321	3.0895872	1.7577221
12.212960358198126	3.0314	1.7410916
12.230587265927545	2.9910078	1.7294531
12.248214464162889	2.976535	1.7252637
12.265841953335649	3.000692	1.7322506
12.283469733877375	3.0196135	1.7377036
12.301097806219685	3.0022576	1.7327024
12.31872617079425	2.997775	1.7314084
12.336354828032825	2.9444664	1.7159448
12.353983778367205	2.9269426	1.7108309
12.371613022229262	2.9035883	1.7039919
12.389242560050928	2.90281	1.7037635
12.406872392264201	2.9244723	1.7101089
12.424502519301143	2.9116263	1.7063488
12.442132941593874	2.8696284	1.6939977
12.459763659574586	2.8089058	1.675979
12.477394673675532	2.7805696	1.667504
12.49502598432903	2.807008	1.6754128
12.51265759196746	2.8359306	1.6840222
12.530289497023267	2.836835	1.6842906
12.547921699928967	2.82951	1.6821147
12.565554201117134	2.8198857	1.6792516
12.583187001020404	2.7821846	1.6679882
12.600820100071486	2.7425623	1.6560683
12.618453498703152	2.7309067	1.6525456
12.636087197348235	2.7639253	1.6625057
12.65372119643964	2.8123431	1.6770042
12.671355496410326	2.8652112	1.6926935
12.68899009769333	2.8841875	1.6982895
12.706625000721749	2.8945045	1.7013243
12.724260205928752	2.9359167	1.7134516
12.741895713747551	2.9786777	1.7258847
12.759531524611454	3.0134847	1.7359391
12.777167638953818	2.9949405	1.7305896
12.794804057208072	2.9792936	1.726063
12.812440779807702	3.0100334	1.7349448
12.830077807186271	3.1747017	1.7817693
12.847715139777405	3.1933632	1.7869984
12.865352778014795	3.4190352	1.8490633
12.882990722332197	3.5406866	1.8816712
12.90062897316344	3.623589	1.9035727
12.918267530942412	3.7086854	1.9257947
12.935906396103071	3.588418	1.894312
12.953545569079449	3.7481508	1.9360142
12.971185050305628	3.5672278	1.8887106
12.988824840215775	3.5800204	1.8920941
13.006464939244115	3.602342	1.8979837
13.024105347824943	3.4403176	1.8548093
13.041746066392617	3.5080867	1.8729887
13.05938709538157	3.3671083	1.8349682
13.077028435226296	3.4140718	1.8477207
13.094670086361363	3.342562	1.8282675
13.112312049221401	3.219876	1.7944013
13.129954324241112	3.0946763	1.7591692
13.147596911855258	2.848946	1.6878822
13.165239812498685	2.812339	1.677003
13.182883026606293	2.744197	1.6565617
13.200526554613058	2.7413769	1.6557103
13.218170396954017	2.695178	1.6416998
13.235814554064284	2.6746159	1.6354253
13.253459026379034	2.6856651	1.6387999
13.271103814333523	2.6753995	1.6356648
13.288748918363058	2.6945114	1.6414967
13.306394338903031	2.696779	1.6421872
13.32404007638889	2.6810484	1.6373907
13.341686131256164	2.6716273	1.6345114
13.359332503940449	2.6548686	1.6293768
13.376979194877402	2.6482904	1.6273569
13.394626204502751	2.680507	1.6372254
13.412273533252307	2.680379	1.6371863
13.429921181561937	2.679709	1.6369816
13.447569149867581	2.6700213	1.63402
13.465217438605247	2.6823647	1.6377926
13.482866048211022	2.6818166	1.6376253
13.500514979121052	2.6826034	1.6378655
13.518164231771568	2.6512303	1.6282599
13.535813806598844	2.642658	1.6256254
13.553463704039254	2.6346905	1.623173
13.571113924529229	2.6057026	1.614219
13.588764468505275	2.6076646	1.6148264
13.606415336403956	2.6423926	1.6255438
13.624066528661917	2.7245784	1.6506296
13.641718045715882	2.777026	1.6664411
13.659369888002635	2.8292677	1.6820427
13.67702205595903	2.8902597	1.7000763
13.694674550021993	2.9459374	1.7163733
13.712327370628532	3.0036678	1.7331094
13.729980518215713	3.1179833	1.7657813
13.747633993220681	3.1965268	1.7878833
13.765287796080647	3.245565	1.8015451
13.7829419272329	3.3190365	1.8218223
13.800596387114801	3.3423884	1.82822
13.818251176163775	3.3493605	1.8301258
13.835906294817324	3.3707035	1.8359475
13.853561743513023	3.3811893	1.838801
13.871217522688525	3.4179277	1.8487638
13.888873632781538	3.4808846	1.8657129
13.906530074229858	3.5554104	1.8855796
13.92418684747135	3.534349	1.8799864
13.941843952943948	3.4679103	1.8622326
13.959501391085665	3.4140887	1.8477253
13.977159162334578	3.3816884	1.8389368
13.994817267128846	3.3398128	1.8275155
14.012475705906693	3.2724092	1.8089801
14.030134479106424	3.2166286	1.7934961
14.047793587166414	3.1273901	1.7684429
14.065453030525108	3.0711737	1.7524765
14.083112809621026	3.0152109	1.7364362
14.100772924892766	2.9583387	1.7199821
14.118433376778997	2.9071536	1.7050377
14.136094165718458	2.7979662	1.6727122
14.153755292149969	2.7356884	1.6539917
14.171416756512416	2.67861	1.636646
14.189078559244768	2.6279604	1.6210985
14.20674070078606	2.5591779	1.599743
14.224403181575408	2.509862	1.5842544
14.242066002051999	2.474206	1.5729609
14.259729162655093	2.4391522	1.5617785
14.277392663824022	2.4348955	1.5604151
14.295056505998208	2.4462206	1.5640398
14.312720689617128	2.460023	1.568446
14.330385215120348	2.445345	1.5637599
14.348050082947497	2.400409	1.5493253
14.3657152935383	2.3767443	1.5416694
14.383380847332528	2.3966908	1.5481249
14.401046744770051	2.4113128	1.5528402
14.418712986290798	2.4194326	1.5554526
14.436379572334793	2.4039695	1.5504739
14.454046503342123	2.4073708	1.5515704
14.471713779752946	2.4154634	1.5541761
14.489381402007504	2.4293084	1.5586239
14.507049370546113	2.4326594	1.5596985
14.524717685809168	2.4478116	1.5645484
14.542386348237134	2.4160671	1.5543703
14.560055358270553	2.3940744	1.5472797
14.577724716350051	2.3684363	1.5389725
14.595394422916325	2.3739896	1.5407757
14.61306447841015	2.4186041	1.5551862
14.63073488327237	2.4608705	1.5687162
14.648405637943917	2.470351	1.571735
14.6660767428658	2.462141	1.5691211
14.683748198479094	2.4894202	1.5777897
14.701420005224954	2.5499516	1.5968568
14.719092163544628	2.6380906	1.62422
14.73676467387942	2.6872478	1.6392827
14.754437536670727	2.7083464	1.6457055
14.772110752360014	2.6761851	1.635905
14.78978432138882	2.6781344	1.6365007
14.807458244198777	2.6887202	1.6397318
14.82513252123159	2.6732357	1.6350032
14.842807152929028	2.6636183	1.6320596
14.860482139732962	2.6103165	1.6156474
14.87815748208531	2.6198494	1.6185949
14.8958331804281	2.6080225	1.6149373
14.91350923520342	2.5899734	1.6093395
14.931185646853438	2.5964284	1.6113436
14.948862415820408	2.6084604	1.6150728
14.966539542546656	2.6718602	1.6345826
14.98421702747459	2.692581	1.6409086
15.001894871046696	2.6854835	1.6387445
15.019573073705542	2.65677	1.6299601
15.037251635893766	2.61933	1.6184344
15.054930558054092	2.6159217	1.6173811
15.072609840629323	2.6894372	1.6399504
15.090289484062351	2.880799	1.6972917
15.107969488796124	3.1902564	1.7861289
15.125649855273691	3.5456614	1.8829926
15.14333058393817	4.0260634	2.0065053
15.161011675232768	4.9556136	2.2261207
15.17869312960076	6.33574	2.5170896
15.196374947485506	8.163483	2.8571808
15.214057129330447	11.1772785	3.3432436
15.231739675579114	15.849812	3.981182
15.249422586675102	21.023006	4.5850854
15.267105863062092	24.343132	4.933876
15.284789505183847	24.909628	4.9909544
15.302473513484218	23.095095	4.8057356
15.320157888407127	19.577442	4.42464
15.337842630396578	15.241231	3.904002
15.355527739896656	11.743925	3.4269412
15.37321321735153	9.052011	3.008656
15.39089906320545	6.5621758	2.5616744
15.408585277902748	4.870326	2.2068815
15.42627186188783	3.752706	1.9371903
15.443958815605198	3.2258213	1.7960571
15.461646139499424	2.9129562	1.7067385
15.479333834015168	2.7355921	1.6539626
15.497021899597165	2.652874	1.6287645
15.514710336690234	2.6193614	1.6184441
15.53239914573928	2.5899634	1.6093364
15.550088327189297	2.5496507	1.5967625
15.567777881485336	2.5397258	1.5936518
15.58546780907256	2.5155618	1.5860523
15.6031581103962	2.5342	1.591917
15.620848785901568	2.4879847	1.5773346
15.638539836034063	2.4744186	1.5730284
15.656231261239173	2.4440029	1.5633307
15.673923061962451	2.4441302	1.5633714
15.691615238649552	2.4461195	1.5640075
15.709307791746202	2.446171	1.564024
15.727000721698221	2.4562736	1.5672504
15.744694028951498	2.4247625	1.5571649
15.76238771395202	2.4007332	1.54943
15.780081777145844	2.3891675	1.5456933
15.797776218979125	2.3637404	1.537446
15.815471039898094	2.3386893	1.5292774
15.833166240349064	2.3143697	1.5213052
15.850861820778437	2.3052464	1.5183038
15.868557781632699	2.362088	1.5369086
15.886254123358412	2.3652892	1.5379497
15.903950846402232	2.3828936	1.5436624
15.921647951210897	2.4093523	1.5522089
15.939345438231225	2.442264	1.5627745
15.957043307910133	2.4240706	1.5569427
15.974741560694602	2.4083178	1.5518756
15.992440197031714	2.3647633	1.5377787
16.01013921736862	2.3368025	1.5286603
16.02783862215259	2.3318186	1.5270293
16.045538411830933	2.3393092	1.5294801
16.06323858685107	2.3342676	1.527831
16.080939147660512	2.3376982	1.5289533
16.09864009470684	2.3441	1.5310454
16.11634142843774	2.3619704	1.5368704
16.134043149300954	2.3795812	1.5425891
16.15174525774433	2.405429	1.5509446
16.169447754215817	2.4146504	1.5539145
16.18715063916342	2.4602733	1.5685258
16.204853913035244	2.4536092	1.5664
16.222557576279478	2.4442754	1.5634178
16.240261629344403	22.417492	4.734711
16.257966072678386	42.96137	6.5544925
16.275670906729868	38.087193	6.171482
16.293376131947387	2.4698548	1.5715772
16.31108174877957	2.4929867	1.5789194
16.328787757675133	2.5525193	1.5976605
16.34649415908287	2.6221392	1.619302
16.364200953451657	2.6508598	1.6281462
16.38190814123048	2.6324713	1.6224892
16.39961572286839	2.6360288	1.6235851
16.41732369881455	2.6632283	1.63194
16.43503206951817	2.7047348	1.6446078
16.45274083542859	2.780136	1.667374
16.47044999699522	2.8081858	1.6757642
16.488159554667558	2.8075209	1.6755658
16.505869508895184	2.8215623	1.6797507
16.523579860127786	2.8640404	1.6923476
16.541290608815117	2.9313123	1.7121075
16.559001755407035	2.996108	1.730927
16.57671330035348	3.0492706	1.746216
16.59442524410448	3.089125	1.7575907
16.61213758711015	3.1197228	1.7662737
16.629850329820705	3.2070272	1.7908175
16.647563472686436	3.2644632	1.8067826
16.665277016157724	3.332132	1.8254129
16.682990960685053	3.4018688	1.8444155
16.70070530671898	3.4437819	1.8557429
16.718420054710155	3.472216	1.8633883
16.736135205109335	3.5447292	1.8827451
16.753850758367335	3.6286898	1.904912
16.771566714935087	3.7189486	1.9284576
16.789283075263597	3.7476494	1.9358847
16.80699983980398	3.7677786	1.9410766
16.82471700900741	3.8180778	1.9539902
16.84243458332518	3.9181106	1.9794217
16.860152563208665	4.0223174	2.0055716
16.87787094910932	4.0364957	2.0091033
16.89558974147871	4.0922165	2.0229228
16.913308940768466	4.1488905	2.0368826
16.931028547430333	4.2730994	2.0671477
16.94874856191613	4.2941537	2.072234
16.966468984677785	4.3358335	2.0822663
16.98418981616729	4.323597	2.0793262
17.00191105683676	4.3781037	2.092392
17.019632707138374	4.4670644	2.113543
17.03735476752442	4.5352592	2.1296148
17.05507723844728	4.590418	2.1425261
17.072800120359403	4.631373	2.1520624
17.090523413713353	4.6930313	2.1663406
17.108247118961785	4.683167	2.1640625
17.125971236557437	4.6754365	2.1622758
17.143695766953133	4.6586604	2.158393
17.161420710601806	4.6408677	2.1542673
17.179146067956477	4.6476345	2.1558373
17.19687183947025	4.6498404	2.156349
17.21459802559634	4.667913	2.1605353
17.232324626788028	4.62737	2.1511323
17.25005164349871	4.6025367	2.1453524
17.267779076181863	4.567318	2.1371284
17.285506925291074	4.5485187	2.1327257
17.30323519127999	4.569859	2.137723
17.320963874602384	4.606434	2.1462605
17.33869297571211	4.6005206	2.1448824
17.356422495063114	4.564702	2.1365163
17.37415243310944	4.5117073	2.124078
17.391882790305218	4.4386535	2.1068113
17.40961356710468	4.3900595	2.0952468
17.42734476396215	4.425208	2.103618
17.445076381332044	4.457278	2.1112266
17.462808419668868	4.589606	2.1423366
17.48054087942723	4.6586323	2.1583865
17.498273761061835	4.908181	2.2154415
17.51600706502747	5.3117933	2.3047328
17.533740791779024	6.0211816	2.4538095
17.551474941771485	7.4699445	2.73312
17.56920951545993	8.59822	2.9322722
17.586944513299528	10.941884	3.3078518
17.60467993574556	12.664781	3.5587611
17.622415783253373	14.501761	3.8081179
17.64015205627843	16.081425	4.010165
17.657888755276293	17.292534	4.158429
17.675625880702604	17.844952	4.2243285
17.69336343301311	17.638357	4.1998043
17.71110141266366	16.745733	4.092155
17.728839820110178	15.679472	3.9597313
17.746578655808705	14.651029	3.8276663
17.764317920215372	13.079715	3.6165888
17.7820576137864	11.471509	3.3869617
17.79979773697811	9.378963	3.0625093
17.81753829024692	7.4286714	2.725559
17.835279274049356	5.769941	2.40207
17.85302068884201	4.7669697	2.183339
17.870762535081607	4.144823	2.035884
17.888504813224934	3.8180141	1.9539739
17.90624752372891	3.6302392	1.9053186
17.923990667050536	3.576064	1.8910484
17.941734243646895	3.5422916	1.8820977
17.959478253975185	3.5370939	1.8807163
17.9772226984927	3.5011966	1.8711485
17.994967577656833	3.467973	1.8622495
18.01271289192506	3.3996077	1.8438025
18.030458641754965	3.347894	1.8297251
18.04820482760425	3.3432157	1.8284463
18.06595144993067	3.3640277	1.8341286
18.083698509192125	3.3468666	1.8294443
18.101446005846576	3.277402	1.8103596
18.119193940352105	3.2119486	1.792191
18.136942313166887	3.206406	1.790644
18.1546911247492	3.1835923	1.7842624
18.1724403755574	3.1738985	1.7815439
18.19019006604997	3.1656258	1.7792206
18.207940196685467	3.1845553	1.7845322
18.225690767922575	3.1777077	1.7826126
18.243441780220046	3.1750705	1.7818727
18.261193234036764	3.1451185	1.7734482
18.278945129831676	3.0888662	1.7575171
18.29669746806386	3.059785	1.7492241
18.314450249192483	3.031817	1.7412113
18.3322034736768	3.0588365	1.748953
18.349957141976184	3.091101	1.7581527
18.3677112545501	3.1161516	1.7652625
18.385465811858108	3.118878	1.7660345
18.403220814359884	3.083563	1.7560077
18.420976262515172	3.0856493	1.7566016
18.43873215678387	3.1277022	1.7685311
18.456488497625923	3.154986	1.776228
18.474245285501407	3.2373433	1.7992619
18.492002520870486	3.2756484	1.8098752
18.50976020419343	3.3581429	1.8325236
18.527518335930615	3.6655896	1.914573
18.545276916542516	4.2767415	2.0680285
18.563035946489688	4.4472995	2.1088622
18.580795426232832	4.85616	2.2036698
18.598555356232698	4.744359	2.178155
18.616315736950185	5.018581	2.2402189
18.63407656884626	4.7173734	2.1719515
18.65183785238201	4.9030056	2.2142732
18.669599588018617	4.715147	2.171439
18.68736177621737	4.6681	2.1605785
18.705124417439652	4.6461115	2.155484
18.72288751214696	4.424215	2.1033819
18.740651060800886	4.6108284	2.147284
18.758415063863115	4.3946004	2.0963302
18.77617952179546	4.554818	2.134202
18.793944435059814	4.2522273	2.062093
18.811709804118184	4.246884	2.060797
18.829475629432675	4.1885643	2.0465982
18.8472419114655	3.9400036	1.9849442
18.86500865067897	4.0289197	2.007217
18.88277584753551	3.7235396	1.9296476
18.90054350249763	3.760943	1.9393151
18.918311616027957	3.4384358	1.8543019
18.936080188589226	3.3426151	1.828282
18.953849220644265	3.039238	1.7433411
18.971618712656007	2.8483748	1.6877129
18.9893886650875	2.7929118	1.6712008
19.007159078401887	7.995516	2.8276343
19.024929953062408	32.938072	5.73917
19.042701289532435	32.942783	5.7395806
19.060473088275405	25.519835	5.051716
19.07824534975489	2.737137	1.6544296
19.096018074434568	2.6773784	1.6362697
19.113791262778197	2.6357923	1.6235123
19.13156491524966	2.621312	1.6190466
19.149339032312945	2.5794864	1.6060779
19.167113614432136	2.569124	1.6028488
19.184888662071433	2.5454645	1.5954512
19.202664175695123	2.5457423	1.5955383
19.220440155767623	2.5450437	1.5953193
19.238216602753447	2.5406709	1.5939482
19.2559935171172	2.5259564	1.5893258
19.27377089932361	2.4895205	1.5778215
19.291548749837514	2.47552	1.5733784
19.309327069123835	2.4527447	1.5661241
19.32710585764763	2.4570758	1.5675062
19.344885115874032	2.474702	1.5731186
19.362664844268313	2.4826245	1.5756346
19.380445043295822	2.4578817	1.5677633
19.39822571342203	2.461004	1.5687587
19.41600685511252	2.4843352	1.5761774
19.43378846883297	2.4655776	1.5702158
19.451570555049173	2.4624958	1.5692341
19.469353114227037	2.4917502	1.5785279
19.48713614683254	2.5526903	1.5977141
19.50491965333182	2.570802	1.6033721
19.52270363419109	2.5035412	1.5822582
19.540488089876686	2.4593284	1.5682245
19.55827302085503	2.486441	1.5768453
19.576058427592674	2.5171654	1.5865577
19.593844310556282	2.517048	1.5865207
19.611630670212598	2.5194252	1.5872697
19.629417507028506	2.5476482	1.5961354
19.64720482147098	2.5472143	1.5959995
19.6649926140071	2.5515864	1.5973686
19.682780885104084	2.5519917	1.5974954
19.70056963522921	2.525154	1.5890733
19.718358864849908	2.5331483	1.5915867
19.7361485744337	2.5280461	1.5899831
19.753938764448215	2.5058243	1.5829796
19.771729435361202	2.508894	1.5839489
19.789520587640506	2.5054128	1.5828496
19.807312221754092	2.5346956	1.5920727
19.825104338170043	2.5147097	1.5857836
19.842896937356517	2.5327883	1.5914736
19.860690019781824	2.4866576	1.576914
19.87848358591436	2.5011454	1.581501
19.896277636222635	2.4868772	1.5769836
19.914072171175278	2.501733	1.5816867
19.931867191241015	2.4793308	1.5745891
19.94966269688869	2.4418352	1.5626372
19.967458688587264	2.4517534	1.5658076
19.985255166805807	2.4497294	1.5651611
20.00305213201348	2.4454572	1.5637958
20.020849584679578	2.4073687	1.5515697
20.038647525273507	2.418448	1.555136
20.05644595426477	2.4114869	1.5528963
20.07424487212299	2.4316752	1.5593829
20.092044279317903	2.4521995	1.56595
20.109844176319353	2.485934	1.5766845
20.127644563597304	2.4250157	1.5572462
20.145445441621817	2.3680644	1.5388516
20.16324681086307	2.353766	1.5341988
20.181048671791373	2.387565	1.5451747
20.198851024877122	2.4037714	1.55041
20.216653870590836	2.4329398	1.5597883
20.234457209403146	2.4572632	1.567566
20.252261041784802	2.4439127	1.5633019
20.270065368206662	2.3853838	1.5444688
20.287870189139685	2.33595	1.5283815
20.305675505054968	2.3299136	1.5264055
20.323481316423702	2.3367777	1.5286522
20.341287623717207	2.341292	1.5301281
20.359094427406884	2.3382018	1.529118
20.376901727964288	2.30955	1.5197204
20.39470952586107	2.306677	1.5187749
20.41251782156899	2.3162177	1.5219125
20.430326615559935	2.3327484	1.5273337
20.448135908305886	2.3971531	1.5482743
20.465945700278965	2.3990316	1.5488808
20.483755991951384	2.3817022	1.5432764
20.50156678379548	2.3689547	1.5391409
20.519378076283708	2.3571253	1.5352932
20.537189869888635	2.3212893	1.5235778
20.55500216508294	2.2900996	1.5133075
20.572814962339415	2.2789128	1.5096068
20.59062826213098	2.2507002	1.5002334
20.60844206493066	2.2593107	1.5031004
20.626256371211593	2.3032548	1.5176477
20.644071181447032	2.2950616	1.5149461
20.66188649611036	2.268154	1.5060391
20.67970231567506	2.2488577	1.4996192
20.697518640614742	2.2307076	1.4935554
20.715335471403122	2.2402604	1.4967499
20.73315280851404	2.2352388	1.4950715
20.750970652421447	2.2623925	1.5041251
20.768789003599412	2.2937415	1.5145103
20.786607862522136	2.350469	1.533124
20.8044272296639	2.3548446	1.5345503
20.82224710549913	2.3232224	1.524212
20.84006749050237	2.3061242	1.5185928
20.857888385148268	3.8448904	1.9608392
20.8757097899116	45.93789	6.7777495
20.893531705267254	64.783104	8.048795
20.911354131690224	83.81496	9.155051
20.92917706965566	69.05248	8.309782
20.94700051963877	50.110783	7.078897
20.96482448211493	29.368534	5.4192743
20.982648957559622	4.121862	2.030237
21.00047394644843	2.2298148	1.4932564
21.01829944925707	2.2374516	1.4958113
21.036125466461375	2.2063923	1.4853929
21.053951998537297	2.2074013	1.4857326
21.071779045960906	2.2004304	1.4833847
21.089606609208378	2.2101827	1.4866683
21.10743468875603	2.2214203	1.490443
21.12526328508028	2.2288	1.4929166
21.143092398657675	2.228995	1.4929819
21.16092202996488	2.2248266	1.4915853
21.17875217947867	2.234894	1.4949563
21.19658284767596	2.2234125	1.4911112
21.21441403503377	2.1751926	1.4748534
21.232245742029225	2.1368356	1.4617919
21.2500779691396	2.150313	1.4663945
21.26791071684227	2.1694853	1.4729173
21.28574398561475	2.1558027	1.4682652
21.30357777593465	2.1480548	1.4656243
21.321412088279704	2.1734643	1.4742674
21.339246923127792	2.1883757	1.479316
21.357082280956888	2.161632	1.4702489
21.3749181622451	2.125259	1.4578267
21.392754567470647	2.1177447	1.4552473
21.41059149711187	2.128039	1.4587799
21.42842895164726	2.1394978	1.4627022
21.446266931555378	2.1511066	1.4666651
21.464105437314945	2.1510196	1.4666355
21.481944469404798	2.140985	1.4632105
21.49978402830388	2.125178	1.4577991
21.51762411449127	2.1082466	1.4519802
21.53546472844617	2.0774739	1.4413445
21.553305870647876	2.077726	1.4414319
21.571147541575865	2.0934129	1.4468632
21.58898974170967	2.1343958	1.4609572
21.60683247152899	2.1060495	1.4512235
21.62467573151363	2.06651	1.4375361
21.642519522143523	2.022114	1.4220105
21.660363843898722	2.001333	1.4146848
21.6782086972594	2.0419223	1.4289585
21.696054082705864	2.0484304	1.4312339
21.713900000718535	2.0428958	1.4292991
21.73174645177795	2.0277472	1.4239899
21.749593436364794	2.0468774	1.4306912
21.767440954959845	2.0508852	1.4320912
21.785289008044032	2.037169	1.4272943
21.803137596098388	2.0216038	1.4218311
21.820986719604086	1.9649376	1.4017624
21.838836379042412	1.9804969	1.4073013
21.85668657489478	1.9915483	1.4112222
21.87453730764273	2.0071507	1.4167395
21.892388577767914	1.9646821	1.4016712
21.91024038575213	1.9580593	1.3993068
21.928092732077285	1.9702789	1.4036663
21.945945617225426	1.9833968	1.4083312
21.963799041678694	1.9962175	1.4128757
21.981653005919398	31.32185	5.596593
21.999507510429943	78.158516	8.840731
22.01736255569286	73.11555	8.550763
22.035218142190818	4.1939254	2.0479076
22.05307427040661	1.978165	1.4064726
22.07093094082315	1.975304	1.4054551
22.088788153923474	1.9653805	1.4019203
22.106645910190746	1.9610775	1.4003848
22.12450421010827	1.9409088	1.393165
22.142363054159464	1.9496017	1.3962814
22.16022244282787	1.9712038	1.4039956
22.178082376597164	1.9793597	1.4068972
22.195942855951145	1.9819342	1.4078119
22.213803881373742	1.9652555	1.4018757
22.231665453349002	1.9773108	1.4061688
22.24952757236111	1.9835203	1.408375
22.26739023889438	1.9980773	1.4135336
22.28525345343323	1.9937985	1.4120193
22.30311721646225	1.9895713	1.4105216
22.320981528466113	1.9597164	1.3998988
22.33884638992964	1.96957	1.4034137
22.356711801337788	1.9663671	1.4022721
22.37457776317561	1.964632	1.4016533
22.392444275928337	1.923055	1.3867426
22.410311340081282	1.8899729	1.3747629
22.428178956119904	1.8805463	1.3713301
22.446047124529805	1.919086	1.3853108
22.46391584579669	1.9224242	1.3865151
22.481785120406414	1.915852	1.384143
22.49965494884496	1.9158177	1.3841307
22.51752533159841	1.9321934	1.3900336
22.53539626915302	1.919276	1.3853793
22.553267761995137	1.8933358	1.3759854
22.571139810611264	1.8839523	1.3725713
22.589012415488025	1.8838931	1.3725499
22.60688557711216	1.9210129	1.3860061
22.624759295970566	1.9489609	1.3960519
22.642633572550263	1.9514389	1.3969392
22.660508407338362	1.9432629	1.3940097
22.67838380082217	1.9010422	1.3787829
22.696259753489077	1.8798327	1.3710699
22.714136265826614	1.8669798	1.3663747
22.73201333832246	1.8578571	1.3630323
22.74989097146439	1.8760519	1.3696904
22.76776916574035	1.8941429	1.3762786
22.785647921638393	1.883455	1.3723903
22.803527239646712	1.8810163	1.3715014
22.82140712025363	1.8817496	1.3717688
22.839287563947593	1.8659983	1.3660154
22.85716857121719	1.8992944	1.3781489
22.875050142551135	1.9245552	1.3872833
22.892932278438277	1.929965	1.3892318
22.910814979367604	1.9012486	1.3788577
22.928698245828222	1.9327583	1.3902367
22.946582078309387	1.9470654	1.3953729
22.96446647730047	1.9168128	1.3844901
22.98235144329098	1.8833084	1.3723369
23.000236976770562	1.891968	1.3754883
23.018123078229	1.9126248	1.3829768
23.03600974815619	1.8900942	1.374807
23.053896987042194	1.9034333	1.3796498
23.071784795377173	1.9281652	1.3885839
23.08967317365145	1.9434354	1.3940716
23.10756212235546	1.9420217	1.3935643
23.125451641979787	1.9386427	1.3923515
23.143341733015134	1.9488399	1.3960086
23.161232395952357	1.920867	1.3859534
23.179123631282426	1.8978133	1.3776114
23.197015439496468	1.8891168	1.3744514
23.214907821085717	1.9000373	1.3784184
23.23280077654157	1.9362063	1.3914763
23.250694306355538	1.9413265	1.393315
23.268588411019277	1.9172356	1.3846427
23.28648309102458	1.8761729	1.3697346
23.304378346863356	1.8853657	1.3730862
23.322274179027676	1.928483	1.3886983
23.340170588009723	1.9692222	1.4032898
23.358067574301852	1.9611787	1.4004209
23.37596513839651	1.9393752	1.3926145
23.39386328078629	1.9020387	1.3791442
23.411762001963947	1.8722949	1.3683183
23.429661302422353	1.884375	1.3727254
23.4475611826545	1.8980957	1.3777139
23.46546164315356	1.9077525	1.3812141
23.48336268441279	1.9015659	1.3789728
23.501264306925638	1.8897101	1.3746673
23.51916651118564	1.9042448	1.3799437
23.537069297686497	1.8976152	1.3775395
23.554972666922037	1.8610332	1.3641969
23.57287661938623	1.8210598	1.3494664
23.59078115557318	1.8508677	1.360466
23.608686275977128	1.9029977	1.3794918
23.62659198109246	1.8973641	1.3774484
23.6444982714137	1.9289829	1.3888782
23.66240514743549	1.9276117	1.3883846
23.68031260965263	1.9169903	1.3845541
23.698220658560068	1.8974853	1.3774924
23.716129294652845	1.9165798	1.384406
23.7340385184262	1.9262805	1.3879051
23.75194833037546	1.9232403	1.3868093
23.769858730996123	1.8994658	1.3782111
23.78776972078382	1.9068884	1.3809013
23.80568130023431	1.8911049	1.3751745
23.823593469843495	1.8832229	1.3723058
23.841506230107424	1.8629751	1.3649085
23.859419581522275	1.8988491	1.3779874
23.87733352458438	1.9407107	1.393094
23.89524805979019	1.9417715	1.3934746
23.913163187636318	1.9152528	1.3839266
23.931078908619508	1.9109832	1.3823831
23.948995223236633	1.9092958	1.3817728
23.966912131984735	1.9534693	1.3976656
23.98482963536096	1.9949368	1.4124223
24.002747733862616	2.027168	1.4237865
24.020666427987155	2.030684	1.4250207
24.038585718232156	2.057821	1.4345107
24.056505605095353	2.0714445	1.4392514
24.074426089074617	2.087806	1.4449242
24.092347170667946	2.0961947	1.4478241
24.110268850373515	2.0803463	1.4423406
24.128191128689586	2.049728	1.4316871
24.146114006114626	2.0285404	1.4242684
24.164037483147187	2.023633	1.4225446
24.181961560286005	2.0007272	1.4144707
24.199886238029926	1.9980159	1.4135119
24.21781151687797	2.0444136	1.42983
24.235737397329274	2.0323071	1.4255902
24.253663879883135	2.00651	1.4165133
24.271590965038975	1.9872395	1.4096948
24.289518653296376	2.0259347	1.4233533
24.30744694515505	2.0268056	1.4236592
24.32537584111486	2.0034144	1.4154202
24.34330534167581	2.006966	1.4166743
24.361235447338046	2.0118494	1.4183968
24.379166158601876	2.008626	1.41726
24.39709747596772	2.0579002	1.4345384
24.41502939993615	2.079461	1.4420336
24.432961931007917	2.0008774	1.4145237
24.450895069683856	1.977035	1.4060708
24.468828816465	2.003636	1.4154985
24.4867631718525	2.03101	1.425135
24.504698136347656	2.01214	1.4184992
24.52263371045192	2.0346606	1.4264153
24.540569894666874	2.0085697	1.4172401
24.558506689494266	1.9911038	1.4110647
24.57644409543597	1.9971993	1.413223
24.594382112994012	2.020874	1.4215745
24.61232074267057	1.9910991	1.4110631
24.630259984967953	1.9932324	1.4118189
24.64819984038863	1.9985828	1.4137124
24.66614030943522	1.9779471	1.4063951
24.684081392610462	1.9700314	1.403578
24.702023090417274	1.9863163	1.4093673
24.7199654033587	2.0268447	1.423673
24.737908331937927	2.0076323	1.4169095
24.755851876658305	2.043704	1.4295818
24.773796038023324	2.0417383	1.428894
24.79174081653661	2.011342	1.4182179
24.809686212701962	2.0165873	1.4200659
24.827632227023294	2.0939946	1.4470642
24.8455788600047	2.1402683	1.4629656
24.8635261121504	2.1562362	1.4684128
24.88147398396475	2.1265624	1.4582738
24.899422475952303	2.1056182	1.4510748
24.917371588617698	2.0922456	1.4464597
24.935321322465768	2.149418	1.4660894
24.953271678001478	2.2595456	1.5031785
24.97122265572994	2.448277	1.5646971
24.989174256156414	2.7248156	1.6507015
25.00712647978632	3.1951995	1.7875121
25.02507932712521	3.8264377	1.9561282
25.043032798678798	4.422649	2.1030095
25.060986894952933	5.0497675	2.2471688
25.078941616453637	5.7763176	2.403397
25.096896963687055	6.7613387	2.6002574
25.114852937159508	7.9978237	2.8280423
25.132809537377444	8.551824	2.92435
25.150766764847468	8.637485	2.9389598
25.168724620076347	7.982968	2.8254147
25.186683103570985	6.8391104	2.6151693
25.204642215838426	5.6050467	2.367498
25.222601957385894	4.195951	2.048402
25.24056232872074	3.1644814	1.778899
25.25852333035048	2.5467727	1.5958611
25.276484962782778	2.2352033	1.4950596
25.294447226525435	2.068342	1.4381732
25.312410122086423	1.9667155	1.4023963
25.330373649973843	1.8859153	1.3732862
25.348337810695988	1.8908527	1.3750829
25.366302604761245	1.9362458	1.3914905
25.384268032678207	1.9440769	1.3943015
25.40223409495558	1.9406495	1.393072
25.420200792102257	1.9368478	1.3917068
25.438168124627246	1.9336321	1.390551
25.45613609303974	1.9544001	1.3979986
25.474104697849057	1.972959	1.4046206
25.492073939564698	1.9819434	1.4078151
25.510043818696285	1.9452071	1.3947068
25.528014335753614	1.9323492	1.3900896
25.54598549124664	1.8858294	1.373255
25.56395728568544	1.8840101	1.3725924
25.58192971958028	1.8955411	1.3767865
25.59990279344156	1.9338063	1.3906137
25.617876507779833	1.906408	1.3807273
25.635850863105826	1.8342992	1.3543631
25.653825859930386	1.8034117	1.3429116
25.671801498764548	1.7892576	1.3376313
25.68977778011949	1.81984	1.3490144
25.707754704506524	1.8709081	1.3678114
25.725732272437153	1.9063162	1.380694
25.743710484423012	1.8849361	1.3729297
25.761689340975888	1.8788671	1.3707178
25.77966884260774	1.8911471	1.3751899
25.797648989830662	1.904586	1.3800673
25.815629783156922	1.8897974	1.374699
25.83361122309895	1.8998092	1.3783357
25.85159331016929	1.8753982	1.3694518
25.869576044880695	1.8699238	1.3674515
25.887559427746034	1.8061087	1.3439155
25.90554345927836	1.7894742	1.3377123
25.92352813999086	1.833394	1.3540288
25.94151347039689	1.8713591	1.3679763
25.959499451009965	1.8571733	1.3627815
25.97748608234374	1.8491219	1.3598242
25.995473364912062	1.8390355	1.3561105
26.013461299228904	1.8278719	1.3519881
26.03144988580839	1.8241178	1.350599
26.04943912516483	1.8286575	1.3522786
26.067429017812675	1.8172944	1.3480706
26.085419564266537	1.8206866	1.3493282
26.103410765041186	1.838359	1.355861
26.12140262065155	1.8430938	1.3576059
26.139395131612723	1.8653185	1.3657666
26.157388298439948	1.8763586	1.3698024
26.17538212164861	1.8460159	1.3586817
26.193376601754295	1.798312	1.3410115
26.211371739272714	1.7840124	1.3356693
26.229367534719746	1.7850727	1.3360661
26.247363988611433	1.7812722	1.3346431
26.26536110146397	1.8566564	1.3625919
26.283358873793727	1.8794788	1.3709408
26.301357306117204	1.8607031	1.3640759
26.319356398951104	1.8747091	1.3692002
26.33735615281224	1.8813403	1.3716196
26.35535656821762	1.8700062	1.3674817
26.373357645684404	1.8593367	1.363575
26.39135938572991	1.844371	1.3580762
26.409361788871614	1.8276112	1.3518918
26.427364855627165	1.7920054	1.3386581
26.445368586514352	1.8230823	1.3502157
26.46337298205115	1.8611891	1.364254
26.48137804275568	1.8648986	1.3656129
26.499383769146217	1.808527	1.3448149
26.517390161741215	1.8067856	1.3441672
26.53539722105928	1.8479816	1.3594048
26.553404947619182	1.8890156	1.3744147
26.571413341939856	1.8626497	1.3647892
26.589422404540397	1.8158422	1.3475319
26.60743213594006	1.8082753	1.3447213
26.62544253665827	1.7907593	1.3381926
26.64345360721459	1.7663709	1.3290489
26.66146534812879	1.8068944	1.3442078
26.679477759920758	1.8452263	1.358391
26.69749084311057	1.8728335	1.368515
26.71550459821847	1.8089148	1.344959
26.733519025764842	1.8115622	1.3459429
26.751534126270258	1.8122244	1.3461888
26.769549900255434	1.8280841	1.3520666
26.787566348241267	1.7911131	1.3383248
26.80558347074881	1.7903894	1.3380543
26.823601268299267	1.81104	1.3457489
26.841619741414036	1.766833	1.3292227
26.85963889061465	1.763385	1.3279251
26.877658716422832	1.76646	1.3290824
26.89567921936045	1.8194996	1.3488883
26.913700399949544	1.8297509	1.3526828
26.93172225871233	1.8290933	1.3524398
26.949744796171174	1.8294553	1.3525735
26.967768012848605	1.8170304	1.3479728
26.98579190926733	1.7992368	1.3413563
27.003816485950225	1.8145427	1.3470496
27.021841743420318	1.8162066	1.3476671
27.039867682200814	1.7931329	1.3390791
27.057894302815072	1.7864437	1.3365791
27.07592160578664	1.8102713	1.3454632
27.0939495916392	1.8475298	1.3592386
27.111978260896635	1.8167251	1.3478595
27.13000761408296	1.7915487	1.3384875
27.148037651722397	1.7980901	1.3409288
27.166068374339304	1.7692139	1.3301181
27.184099782458215	1.7995826	1.3414853
27.20213187660384	1.8121225	1.346151
27.22016465730105	1.8612801	1.3642874
27.23819812507487	1.8195268	1.3488984
27.256232280450533	1.765778	1.3288258
27.274267123953383	1.7801307	1.3342154
27.292302656108987	1.800089	1.341674
27.31033887744306	1.7940744	1.3394307
27.32837578848146	1.7876332	1.337024
27.34641338975026	1.8114305	1.345894
27.364451681775673	1.8325912	1.3537323
27.382490665084074	1.8066161	1.3441042
27.400530340202046	1.7554628	1.3249388
27.41857070765629	1.7167466	1.3102467
27.436611767973726	1.7874365	1.3369504
27.454653521681404	1.8132732	1.3465784
27.472695969306564	1.8469682	1.359032
27.490739111376627	1.8122836	1.3462108
27.508782948419153	1.8074297	1.3444068
27.526827480961902	1.792653	1.3388999
27.54487270953279	1.8364755	1.3551662
27.562918634659898	1.8332784	1.3539861
27.580965256871508	1.8666315	1.3662472
27.599012576696026	1.8352457	1.3547124
27.617060594662068	1.831824	1.3534489
27.63510931129842	1.8062298	1.3439605
27.65315872713401	1.8184934	1.3485153
27.67120884269797	1.8391777	1.3561629
27.68925965851958	1.8434618	1.3577415
27.707311175128307	1.8604164	1.3639709
27.725363393053787	1.864366	1.365418
27.74341631282583	1.8576901	1.3629711
27.7614699349744	1.8356843	1.3548743
27.77952426002968	1.9513893	1.3969214
27.797579288521973	2.0481396	1.4311323
27.815635020981784	2.452312	1.5659859
27.83369145793979	2.4933307	1.5790284
27.85174859992682	2.3230689	1.5241617
27.869806447473923	2.202572	1.4841065
27.887865001112267	1.9526901	1.3973869
27.905924261373233	1.8840202	1.3725961
27.92398422878836	1.8753622	1.3694386
27.94204490388936	1.8908482	1.3750812
27.96010628720813	1.8865912	1.3735324
27.978168379276728	1.8728852	1.368534
27.9962311806274	1.8639054	1.3652493
28.014294691792568	1.8586785	1.3633336
28.0323589133048	1.7941153	1.339446
28.050423845696887	1.8381854	1.3557969
28.068489489501758	1.8830336	1.3722367
28.086555845252523	1.9146363	1.3837038
28.104622913482487	1.9273417	1.3882873
28.122690694725115	1.906113	1.3806205
28.14075918951405	1.8494282	1.3599368
28.15882839838312	1.8354901	1.3548026
28.176898321866304	1.8096222	1.345222
28.1949689604978	1.8484662	1.3595831
28.213040314811945	1.895876	1.3769082
28.23111238534327	2.0003252	1.4143286
28.249185172626493	2.0183702	1.4206935
28.267258677196473	1.961669	1.4005959
28.285332899588294	1.9685631	1.403055
28.303407840337172	1.9917252	1.4112849
28.321483499978545	1.9393868	1.3926187
28.33955987904799	1.9613637	1.400487
28.357636978081285	2.0261772	1.4234385
28.37571479761439	2.022387	1.4221065
28.393793338183425	1.988708	1.4102156
28.41187260032469	1.9869753	1.4096011
28.429952584574686	1.9914926	1.4112025
28.448033291470065	1.9884796	1.4101346
28.46611472154769	1.9882344	1.4100477
28.484196875344566	1.9876293	1.4098331
28.502279753397914	1.9549137	1.3981823
28.52036335624511	1.9293374	1.3890059
28.538447684423716	1.9399084	1.3928059
28.556532738471482	1.9324367	1.3901211
28.574618518926325	1.9519076	1.3971069
28.59270502632635	1.9731299	1.4046814
28.61079226120985	2.0046747	1.4158653
28.628880224115274	2.037316	1.4273459
28.646968915581287	2.0236838	1.4225624
28.66505833614671	2.0230238	1.4223304
28.68314848635055	2.042389	1.4291217
28.701239366732004	2.0642338	1.4367442
28.71933097783044	2.0767047	1.4410776
28.737423320185403	2.0740166	1.4401447
28.75551639433665	2.0355172	1.4267155
28.773610200824074	2.0797071	1.442119
28.791704740187793	2.1194696	1.4558399
28.80980001296809	2.189096	1.4795594
28.827896019705413	2.183728	1.4777442
28.845992760940433	2.2305007	1.493486
28.86409023721397	2.1928709	1.4808345
28.88218844906704	2.1137388	1.4538703
28.900287397040845	2.1743364	1.4745631
28.918387081676755	2.2478325	1.4992774
28.936487503516343	2.234638	1.4948705
28.954588663101365	2.2326388	1.4942018
28.97269056097374	2.3158062	1.5217773
28.990793197675597	2.334126	1.5277847
29.00889657374923	2.2928839	1.5142272
29.027000689737125	2.3057327	1.518464
29.04510554618196	2.3475018	1.5321559
29.06321114362659	2.3532443	1.5340288
29.08131748261405	2.417179	1.554728
29.099424563687567	2.5226312	1.5882794
29.11753238739057	2.6003091	1.6125474
29.13564095426663	2.5284753	1.590118
29.15375026485954	2.4765844	1.5737168
29.171860319713275	2.5134509	1.5853866
29.18997111937199	2.687065	1.6392269
29.20808266438002	2.8029075	1.6741886
29.226194955281898	2.8439584	1.686404
29.244307992622335	2.828533	1.6818243
29.26242177694624	2.8601763	1.6912056
29.2805363087987	2.9371896	1.7138231
29.29865158872498	2.9756315	1.7250019
29.316767617270557	2.9358938	1.713445
29.334884394981064	2.951857	1.718097
29.353001922402367	3.0065808	1.7339495
29.37112020008047	3.1177022	1.7657017
29.389239228561596	3.129825	1.7691312
29.407359008392152	3.2574449	1.8048393
29.42547954011872	3.5918388	1.8952147
29.44360082428809	4.2333307	2.0575058
29.46172286144722	5.32244	2.3070414
29.479845652143283	7.000726	2.6458886
29.497969196923606	9.232803	3.0385528
29.516093496335728	11.804656	3.4357905
29.5342185509274	14.6955385	3.833476
29.55234436124651	17.184423	4.14541
29.570470927841175	18.787083	4.334407
29.588598251259686	18.530357	4.3046904
29.60672633205055	17.043962	4.128433
29.624855170762405	14.746319	3.8400936
29.642984767944146	11.9745655	3.4604285
29.66111512414481	9.104732	3.0174048
29.67924623991366	6.711365	2.5906303
29.697378115800138	5.061099	2.2496886
29.71551075235387	4.068127	2.01696
29.733644150124675	3.6749327	1.9170114
29.751778309662576	3.4551547	1.8588046
29.769913231517766	3.2832808	1.8119826
29.78804891624066	3.264327	1.8067449
29.806185364381818	3.3083863	1.818897
29.82432257649206	3.3044634	1.8178183
29.842460553122333	3.2851806	1.8125067
29.86059929482382	3.2675006	1.8076229
29.878738802147872	3.335814	1.8264211
29.896879075646048	3.3177092	1.821458
29.915020115870114	3.233861	1.798294
29.933161923371976	3.1255822	1.7679316
29.951304498703777	3.116823	1.7654526
29.969447842417857	3.1659737	1.7793183
29.987591955066733	3.2546413	1.8040625
30.005736837203123	3.336587	1.8266327
30.023882489379943	3.2595348	1.8054181
30.04202891215028	3.267159	1.8075284
30.060176106067455	3.2445352	1.8012594
30.078324071684946	3.207696	1.7910042
30.09647280955646	3.180889	1.7835047
30.114622320235863	3.1575646	1.7769537
30.132772604277257	3.1454778	1.7735494
30.1509236622349	3.0906105	1.7580132
30.16907549466328	3.0240517	1.73898
30.18722810211705	2.9902143	1.7292236
30.205381485151097	3.0584347	1.7488381
30.22353564432045	3.1181185	1.7658195
30.241690580180403	3.077918	1.7543997
30.25984629328638	3.0355911	1.7422948
30.278002784194037	3.0141034	1.7361174
30.296160053459246	2.9746609	1.7247205
30.314318101638033	2.9578593	1.7198428
30.332476929286646	2.9635627	1.7215002
30.35063653696153	2.984885	1.727682
30.368796925219307	2.9556818	1.7192097
30.386958094616844	2.8962064	1.7018244
30.40512004571115	2.8396251	1.6851187
30.423282779059463	2.8979301	1.7023308
30.441446295219233	2.898846	1.7025998
30.459610594748067	2.8898485	1.6999555
30.47777567820382	2.874117	1.695322
30.495941546144504	2.8081076	1.675741
30.51410819912835	2.8054535	1.6749488
30.532275637713795	2.8551016	1.6897045
30.55044386245946	2.8427024	1.6860316
30.56861287392416	2.7834387	1.668364
30.586782672666956	2.7780478	1.6667477
30.604953259247047	2.781464	1.6677722
30.623124634223885	2.780501	1.6674834
30.641296798157075	2.7926137	1.6711116
30.659469751606462	2.8040042	1.6745161
30.677643495132074	2.75153	1.6587737
30.695818029294152	2.7188458	1.6488923
30.713993354653116	2.7321227	1.6529133
30.73216947176962	2.766528	1.6632882
30.75034638120448	2.7536962	1.6594265
30.768524083518756	2.7411306	1.655636
30.786702579273673	2.824603	1.6806556
30.80488186903069	2.85501	1.6896775
30.82306195335144	2.887637	1.6993048
30.841242832797782	3.1277144	1.7685345
30.85942450793176	3.5658245	1.888339
30.877606979315637	3.9632075	1.9907806
30.895790247511883	4.3093	2.0758853
30.913974313083134	4.6802444	2.1633873
30.932159176592283	4.8836393	2.2098958
30.95034483860237	4.877388	2.2084808
30.968531299676698	4.669935	2.1610034
30.98671856037873	4.4006987	2.0977843
31.00490662127215	4.0638313	2.0158947
31.023095482920848	3.6029575	1.8981458
31.04128514588892	3.1386967	1.7716367
31.059475610740662	2.7825403	1.6680949
31.07766687804056	2.541856	1.5943199
31.09585894835335	2.474412	1.5730264
31.11405182224393	2.4760773	1.5735556
31.132245500277417	2.5348494	1.592121
31.15043998301914	2.511256	1.5846943
31.168635271034628	2.4917667	1.578533
31.18683136488964	2.5319529	1.5912111
31.20502826515008	2.5020492	1.5817868
31.223225972382135	2.4257534	1.5574831
31.241424487152155	2.388118	1.5453537
31.259623810026692	2.3892012	1.5457041
31.27782394157253	2.414831	1.5539726
31.296024882356644	2.513244	1.5853214
31.314226632946237	2.562705	1.6008451
31.332429193908684	2.5522263	1.5975689
31.350632565811598	2.4609895	1.5687541
31.368836749222787	2.4391484	1.5617774
31.387041744710295	2.5064812	1.583187
31.40524755284232	2.51563	1.5860738
31.423454174187317	2.4869974	1.5770217
31.441661609313922	2.4587367	1.568036
31.459869858791002	2.4204571	1.5557818
31.478078923187628	2.3226917	1.524038
31.496288803073064	2.3298252	1.5263765
31.514499499016807	2.3552706	1.5346891
31.532711011588546	2.278134	1.5093489
31.550923341358178	2.240104	1.4966977
31.56913648889584	2.282375	1.5107532
31.587350454771844	2.3219259	1.5237867
31.605565239556732	2.3399918	1.5297031
31.62378084382127	2.3652964	1.537952
31.641997268136382	2.3567472	1.5351701
31.660214513073274	2.345575	1.531527
31.67843257920331	2.2786212	1.5095103
31.6966514670981	2.2359846	1.4953209
31.71487117732944	2.282025	1.5106373
31.733091710469346	2.381471	1.5432016
31.751313067090052	2.3401256	1.5297469
31.769535247764008	2.3092566	1.5196239
31.787758253063878	2.2617877	1.5039241
31.805982083562526	2.2547302	1.501576
31.824206739833024	2.3227146	1.5240455
31.84243222244869	2.309863	1.5198234
31.860658531983013	2.2954879	1.5150868
31.878885669009737	2.3043468	1.5180075
31.897113634102784	2.3256018	1.5249923
31.91534242783632	2.3208938	1.523448
31.933572050784694	2.2665703	1.5055133
31.951802503522508	2.2385106	1.4961653
31.970033786624548	2.2307174	1.4935586
31.988265900665834	2.1755536	1.4749758
32.006498846221575	2.1489768	1.4659389
32.02473262386724	2.2511976	1.5003991
32.04296723417845	2.2753038	1.508411
32.0612026777311	2.2279005	1.4926153
32.07943895510129	2.2040732	1.4846121
32.097676066865304	2.2266703	1.4922031
32.115914013599685	2.151649	1.46685
32.13415279588115	2.0975378	1.4482878
32.152392414286666	2.1044953	1.4506879
32.1706328693934	2.167082	1.4721012
32.18887416177875	2.2008684	1.4835324
32.20711629202032	2.1811306	1.4768652
32.225359260695924	2.133192	1.4605452
32.243603068383614	2.1478028	1.4655384
32.26184771566166	2.2521448	1.5007148
32.28009320310852	2.2015347	1.483757
32.2983395313029	2.094842	1.4473569
32.31658670082372	2.1052656	1.4509534
32.33483471225012	2.1853514	1.4782934
32.35308356616143	2.218257	1.4893814
32.371333263137245	2.1828022	1.4774309
32.38958380375734	2.1255805	1.4579371
32.407835188601744	2.057194	1.4342922
32.42608741825067	2.0329347	1.4258102
32.444340493284585	2.044601	1.4298954
32.46259441428416	1.9745018	1.4051697
32.48084918183028	1.9718121	1.4042122
32.49910479650405	1.9880424	1.4099796
32.51736125888683	2.0565565	1.4340699
32.53561856956014	2.0016587	1.4147999
32.5538767291058	1.9299371	1.3892218
32.572135738105764	1.9789637	1.4067564
32.59039559714228	2.0546696	1.4334118
32.608656306797776	2.0197537	1.4211804
32.62691786765491	2.0310066	1.4251338
32.645180280296586	2.087537	1.4448311
32.663443545305896	2.139116	1.4625717
32.68170766326619	2.1898274	1.4798065
32.69997263476099	2.1599655	1.4696821
32.7182384603741	2.0967295	1.4480088
32.7365051406895	2.0242827	1.4227729
32.75477267629144	1.9192175	1.3853582
32.77304106776434	1.9157243	1.3840969
32.79131031569289	1.9652551	1.4018756
32.809580420661966	1.9260921	1.3878372
32.827851383256714	1.9682186	1.4029322
32.84612320406245	2.0070305	1.416697
32.86439588366476	1.9121505	1.3828053
32.88266942264945	1.8714801	1.3680205
32.9009438216025	1.9962269	1.412879
32.9192190811102	2.021071	1.4216437
32.937495201758985	1.96752	1.4026831
32.95577218413556	1.9401015	1.3928753
32.974050028826866	1.9843073	1.4086545
32.992328736420035	1.9820384	1.4078488
33.010608307502444	1.942779	1.393836
33.02888874266169	1.8765283	1.3698643
33.047170042485604	1.8893418	1.3745333
33.06545220756225	1.8662579	1.3661104
33.083735238479896	1.8613952	1.3643296
33.10201913582707	1.8838794	1.3725449
33.12030390019248	1.8963323	1.3770738
33.138589532165135	1.9923896	1.4115202
33.15687603233419	2.108271	1.4519886
33.17516340128909	2.1654396	1.4715433
33.19345163961947	2.122497	1.4568793
33.211740747915215	2.0879588	1.444977
33.23003072676643	1.9646622	1.4016641
33.248321576763466	1.9371086	1.3918005
33.266613298496885	1.9406214	1.3930619
33.28490589255747	1.9854819	1.4090713
33.30319935953626	1.9819028	1.4078007
33.32149370002451	1.9489379	1.3960437
33.339788914613706	1.9474672	1.3955169
33.358085003895575	2.0573785	1.4343565
33.376381968462034	2.0241537	1.4227276
33.39467980890529	1.9464926	1.3951676
33.41297852581774	1.9035089	1.379677
33.43127811979204	1.9098932	1.3819889
33.44957859142105	1.811255	1.3458288
33.467879941297866	1.8700553	1.3674997
33.486182170015844	1.9553266	1.39833
33.50448527816853	1.9554068	1.3983586
33.522789266349754	1.9962339	1.4128814
33.541094135153514	2.0138493	1.4191016
33.55939988517411	1.9223397	1.3864846
33.57770651700602	1.8625317	1.364746
33.59601403124398	1.8225137	1.350005
33.61432242848296	1.8110353	1.3457471
33.632631709318154	1.8441057	1.3579786
33.650941874344994	1.8600065	1.3638206
33.66925292415916	1.9023855	1.37927
33.68756485935654	1.8499743	1.3601376
33.70587768053328	1.7955573	1.339984
33.724191388285746	1.7671189	1.3293302
33.74250598321054	1.8380461	1.3557456
33.760821465904506	1.9089082	1.3816324
33.77913783696474	1.8637843	1.3652048
33.79745509698852	1.8719461	1.3681908
33.815773246573414	1.8849256	1.3729259
33.8340922863172	1.8530625	1.3612723
33.852412216817896	1.8765452	1.3698705
33.87073303867377	1.9047687	1.3801336
33.889054752483304	1.940769	1.3931148
33.907377358845245	2.0629	1.4362799
33.92570085835853	2.0758097	1.440767
33.94402525162239	1.9600531	1.4000189
33.96235053923627	1.9305551	1.3894441
33.980676721799824	1.8956249	1.376817
33.999003799912984	1.8429805	1.3575642
34.01733177417592	1.9010576	1.3787885
34.03566064518901	1.9391811	1.3925449
34.0539904135529	1.906935	1.3809181
34.07232107986846	1.9687529	1.4031225
34.090652644736785	1.9711763	1.4039859
34.108985108759235	1.9882637	1.410058
34.12731847253742	1.8804463	1.3712937
34.14565273667313	1.752847	1.3239512
34.16398790176847	1.7889853	1.3375295
34.18232396842574	1.903283	1.3795953
34.20066093724749	1.9899112	1.4106421
34.21899880883651	2.0557342	1.4337832
34.23733758379583	1.9800526	1.4071435
34.25567726272874	2.074058	1.4401591
34.27401784623872	2.1312158	1.4598684
34.29235933492957	1.9718623	1.4042301
34.31070172940526	1.9062477	1.3806694
34.32904503027003	1.9080273	1.3813136
34.347389238128386	1.9520755	1.397167
34.36573435358502	2.0292404	1.424514
34.38408037724492	2.00566	1.4162133
34.402427309713296	1.9653167	1.4018975
34.42077515159559	1.9682052	1.4029274
34.43912390349752	1.9360884	1.391434
34.45747356602499	1.9422323	1.3936399
34.47582413978423	2.002984	1.4152682
34.49417562538163	2.1163554	1.4547698
34.51252802342388	2.0873308	1.4447597
34.53088133451789	1.9596177	1.3998635
34.54923555927084	1.8703631	1.3676122
34.567590698290104	2.0158508	1.4198066
34.58594675218336	2.0885642	1.4451865
34.6043037215585	2.05557	1.4337258
34.62266160702365	2.0790093	1.441877
34.641020409187234	2.017292	1.4203141
34.65938012865785	2.0109682	1.418086
34.677740766044394	2.0894415	1.4454901
34.69610232195598	2.0003655	1.4143428
34.714464797002016	1.8469669	1.3590316
34.73282819179208	1.8412467	1.3569255
34.751192506936064	1.8638314	1.3652221
34.76955774304408	1.8919107	1.3754674
34.7879239007265	1.9918481	1.4113284
34.80629098059391	1.917931	1.3848939
34.824658983257194	1.8297373	1.3526778
34.843027909327446	1.9146353	1.3837035
34.86139775941603	2.120197	1.4560896
34.879768534134534	2.2318006	1.4939212
34.89814023409483	2.05421	1.4332515
34.91651285990901	2.0723746	1.4395745
34.93488641218944	2.162187	1.4704378
34.95326089154871	2.1077352	1.4518042
34.97163629859967	2.031511	1.4253109
34.99001263395542	1.9309535	1.3895875
35.00838989822934	2.056618	1.4340913
35.02676809203499	2.1802397	1.4765635
35.04514721598624	2.1278613	1.458719
35.063527270697215	1.951174	1.3968443
35.081908256782256	1.9926257	1.4116039
35.10029017485597	2.0477757	1.4310051
35.11867302553321	2.0117915	1.4183763
35.137056809429104	1.8852696	1.3730512
35.155441527159006	1.8151977	1.3472928
35.173827179338524	1.9553233	1.3983288
35.19221376658354	1.945928	1.3949652
35.21060128951017	1.8270707	1.3516918
35.2289897487348	2.1587758	1.4692773
35.24737914487405	2.5023766	1.5818902
35.26576947854479	2.3103154	1.5199722
35.28416075036418	2.0377052	1.4274821
35.30255296094958	1.829716	1.35267
35.32094611091867	2.0817294	1.44282
35.33934020088932	2.4463751	1.5640892
35.35773523147969	2.4654398	1.570172
35.3761312033082	2.131198	1.4598624
35.394528116993506	2.0346603	1.4264152
35.41292597315452	2.0059717	1.4163233
35.431324772410434	1.9947377	1.4123518
35.449724515380666	2.40469	1.5507063
35.46812520268491	2.7498806	1.6582764
35.486526834943106	2.521654	1.5879717
35.504929412775454	2.0118103	1.418383
35.52333293680242	1.2871332	1.134519
35.54173740764471	1.2944708	1.1377481
35.560142825923286	1.5402085	1.2410513
35.5785491922594	1.6179726	1.2719955
35.59695650727454	1.2249867	1.1067911
35.61536477159042	0.6898081	0.83054686
