0.008763373481513119	0.0	0.0
0.026290120649546365	0.0	0.0
0.043816868432600686	0.0	0.0
0.06134361724069026	0.07129023	0.2670023
0.07887036748382949	0.07334102	0.27081546
0.0963971195720331	0.14557569	0.38154382
0.11392387391531617	0.13434523	0.36653134
0.1314506309236943	0.12471374	0.35314834
0.1489773910071836	0.12006746	0.34650752
0.16650415457580078	0.12842871	0.35836953
0.18403092203956356	0.10481019	0.32374403
0.20155769380849	0.14454831	0.3801951
0.2190844702925996	0.16692589	0.40856564
0.2366112519019124	0.21488945	0.4635617
0.2541380390464497	0.2607458	0.51063275
0.27166483213623416	0.21425752	0.4628796
0.28919163158128947	0.20133097	0.4486992
0.3067184377916406	0.19118904	0.4372517
0.324245251177314	0.16179758	0.4022407
0.34177207214833777	0.10446243	0.32320648
0.3592989011147415	0.07736705	0.27814934
0.37682573848655654	0.119851485	0.34619573
0.39435258467381573	0.15886843	0.39858302
0.41187944008655414	0.1898522	0.43572032
0.42940630513480854	0.15966035	0.3995752
0.446933180228618	0.123460755	0.35136983
0.4644600657780234	0.124950394	0.35348323
0.48198696219306775	0.13766944	0.37103832
0.49951386988379676	0.21328603	0.461829
0.5170407892602581	0.2232488	0.4724921
0.5345677207325025	0.2280481	0.47754383
0.5520946647105822	0.19434582	0.4408467
0.5696216216045534	0.17441995	0.41763616
0.5871485918244737	0.15045746	0.38788846
0.6046755757804043	0.13793242	0.37139255
0.6222025738824094	0.1637655	0.4046795
0.6397295865405557	0.18435444	0.42936516
0.6572566141649129	0.19425203	0.44074032
0.6747836571655547	0.2067963	0.4547486
0.6923107159525568	0.23098591	0.48060992
0.7098377909359992	0.2537927	0.5037784
0.7273648825259653	0.22084703	0.46994364
0.7448919911325411	0.21722187	0.46607068
0.762419117165817	0.20826724	0.45636305
0.7799462610358868	0.19952069	0.4466774
0.7974734231528482	0.18577583	0.43101722
0.8150006039268024	0.17850856	0.42250273
0.8325278037678551	0.17299661	0.4159286
0.8500550230861152	0.19996522	0.4471747
0.8675822622916969	0.19724467	0.44412237
0.8851095217947171	0.21128692	0.45965958
0.9026368020052984	0.17796348	0.42185718
0.9201641033335665	0.17845675	0.42244142
0.9376914261896523	0.17672144	0.4203825
0.9552187709836915	0.22156091	0.47070256
0.9727461381258234	0.25097904	0.50097805
0.990273528026193	0.2557876	0.5057545
1.0078009410949496	0.2287754	0.4783047
1.0253283777422473	0.21545236	0.46416846
1.0428558383782454	0.25768295	0.5076248
1.0603833234131086	0.2864094	0.53517234
1.0779108332570058	0.3903363	0.624769
1.0954383683201119	0.38500383	0.6204868
1.112965929012607	0.40268552	0.63457507
1.1304935157446763	0.5078561	0.7126402
1.1480211289265108	0.5113026	0.7150543
1.1655487689683062	1.3683605	1.1697694
1.1830764362802655	1.692416	1.3009288
1.200604131272596	2.1768742	1.4754233
1.2181318543555117	2.5782259	1.6056855
1.235659605939232	2.635257	1.6233475
1.253187386433982	4.3815584	2.0932171
1.270715196249994	6.9922338	2.6442833
1.2882430357975057	12.449875	3.528438
1.3057709054867608	16.93725	4.115489
1.3232988057280106	22.564573	4.7502184
1.3408267369315112	27.088144	5.204627
1.358354699507526	31.131239	5.5795374
1.3758826938663256	35.260483	5.9380536
1.3934107204181858	37.291733	6.1066957
1.410938779573391	37.69673	6.139766
1.4284668717422309	38.41345	6.1978583
1.4459949973350033	38.37168	6.194488
1.4635231567620117	38.34435	6.1922812
1.4810513504335687	37.534092	6.1265073
1.4985795787599925	36.881313	6.0729985
1.5161078421516088	36.29092	6.0241947
1.5336361410187505	35.501205	5.9582887
1.5511644757717598	35.4338	5.9526296
1.5686928468209842	36.074303	6.006189
1.58622125457678	36.88817	6.073563
1.6037496994495108	38.137493	6.175556
1.621278181849548	38.037586	6.167462
1.6388067021872719	38.392815	6.1961937
1.6563352608730693	37.72011	6.14167
1.673863858317336	36.81621	6.0676365
1.6913924949304753	36.338745	6.0281625
1.7089211711228998	35.34324	5.945018
1.7264498873050296	34.1558	5.8442965
1.7439786438872935	32.922955	5.7378526
1.7615074412801288	31.904089	5.6483703
1.779036279893981	31.400759	5.603638
1.796565160139305	30.552319	5.5274153
1.814094082426564	29.878696	5.4661407
1.8316230471662298	28.734648	5.360471
1.849152054768784	27.981316	5.2897367
1.8666811056447168	27.565601	5.250295
1.8842102002045273	26.866106	5.1832523
1.901739338858724	26.38037	5.1361823
1.9192685220178245	25.695194	5.0690427
1.9367977500923557	24.712801	4.971197
1.9543270234928547	24.17904	4.9172187
1.971856342629867	23.667902	4.864967
1.9893857079139496	23.748169	4.8732095
2.006915119755667	23.730936	4.871441
2.0244445785655945	23.04326	4.8003397
2.0419740847543175	22.427578	4.7357764
2.0595036387324317	21.79202	4.6681924
2.0770332409105414	21.50476	4.6373224
2.094562891699263	21.138178	4.5976276
2.1120925915092217	20.445066	4.521622
2.129622340751053	20.061876	4.4790487
2.1471521398354043	188.3816	13.725218
2.1646819891729323	444.81946	21.090744
2.182211889174303	440.94263	20.998634
2.1997418402501974	453.0997	21.286139
2.2172718428113023	433.0162	20.809042
2.234801897268317	320.88034	17.913134
2.2523320040319548	17.242847	4.1524506
2.269862163512935	16.862986	4.1064568
2.287392376121992	16.474346	4.0588603
2.304922642269869	16.275509	4.0342917
2.322452962367322	16.040407	4.005048
2.3399833368251164	15.642476	3.9550571
2.357513766054032	15.193521	3.8978868
2.3750442504648586	14.949148	3.8664129
2.3925747904683963	14.6735735	3.83061
2.410105386475459	14.588664	3.819511
2.4276360388968707	14.444453	3.800586
2.445166748143469	14.33229	3.7858012
2.4626975146261025	14.136168	3.7598095
2.4802283387556323	13.931387	3.7324774
2.4977592209429305	13.734046	3.7059474
2.5152901615988825	13.315597	3.6490543
2.5328211611343865	13.091437	3.6182091
2.5503522199603523	12.870516	3.5875502
2.5678833384877024	12.598911	3.5494945
2.5854145171273712	12.391451	3.5201492
2.6029457562903064	11.99402	3.4632385
2.620477056387469	11.770619	3.4308336
2.6380084178298326	11.662325	3.4150147
2.655539841028383	11.580328	3.4029882
2.673071326394119	11.570574	3.4015546
2.6906028743380523	11.443269	3.38279
2.708134485271211	11.317559	3.364158
2.7256661596046325	11.11831	3.334413
2.743197897749369	10.814063	3.2884743
2.760729700116486	10.550057	3.2480853
2.778261567117063	10.425603	3.2288702
2.795793499162193	10.303574	3.209918
2.8133254966629817	10.240428	3.2000668
2.830857560030551	9.985803	3.160032
2.8483896896760337	9.762312	3.1244698
2.865921886010578	9.608261	3.0997195
2.883454149445347	9.595164	3.0976062
2.9009864803915177	9.54729	3.089869
2.91851887926028	9.514491	3.0845568
2.9360513464628384	9.317994	3.0525389
2.953583882410413	9.177985	3.029519
2.9711164875142373	9.048159	3.0080156
2.9886491621855606	9.08404	3.013974
3.0061819068356455	8.907707	2.9845781
3.023714721875769	8.804509	2.9672394
3.041247607717225	8.53044	2.9206917
3.0587805647713213	8.445244	2.9060702
3.0763135934493806	8.234196	2.8695288
3.0938466941627407	7.9719644	2.8234668
3.1113798673227544	7.8699284	2.8053393
3.1289131133407904	7.8608494	2.8037207
3.1464464326282315	7.890439	2.8089926
3.1639798255964786	7.8561826	2.8028882
3.1815132926569443	7.8267627	2.797635
3.1990468342210603	7.794706	2.7919002
3.216580450700272	7.6949873	2.773984
3.2341141425060416	7.5902023	2.7550323
3.251647910049847	7.5551777	2.7486684
3.2691817537431813	7.477863	2.734568
3.286715673997555	7.2557096	2.6936424
3.3042496712244938	7.077524	2.6603618
3.32178374583554	6.9955077	2.6449022
3.339317898242251	6.9417872	2.6347272
3.3568521288562034	6.852242	2.6176786
3.3743864380889876	6.7065926	2.589709
3.3919208263522127	6.7415137	2.5964425
3.4094552940575023	6.708565	2.5900898
3.4269898416164972	6.8133216	2.610234
3.444524469440858	6.7613325	2.6002562
3.4620591779422587	6.6127496	2.5715268
3.479593967532391	6.610233	2.5710373
3.4971288386229658	6.619133	2.5727675
3.5146637916257086	6.4952564	2.5485792
3.5321988269523628	6.443333	2.538372
3.5497339450146903	6.289492	2.507886
3.5672691462244708	6.2252135	2.4950378
3.5848044309934988	6.221579	2.4943094
3.60233979973359	6.30549	2.5110736
3.619875252856575	6.458672	2.5413918
3.6374107907743034	6.4922385	2.5479872
3.6549464138986427	6.388948	2.5276368
3.6724821226414788	6.387297	2.5273104
3.690017917414714	6.397962	2.5294194
3.7075537986302702	6.3942285	2.5286813
3.7250897667000857	6.3068833	2.5113509
3.7426258220361235	6.497188	2.5489583
3.7601619650503553	6.922372	2.63104
3.777698196154779	7.4059753	2.7213922
3.7952345157614067	8.413333	2.9005747
3.8127709242822716	9.227815	3.037732
3.830307422129425	11.55986	3.3999794
3.847844009714936	30.37699	5.5115323
3.8653806874508954	97.97969	9.898469
3.882917455749409	97.32456	9.865321
3.900454315022606	97.21323	9.859676
3.917991265682631	41.58798	6.448874
3.9355283081416506	11.1077175	3.3328242
3.9530654428118495	8.839667	2.973158
3.970602670105433	7.5268154	2.7435043
3.9881399904346244	6.623793	2.573673
4.005677404211669	6.5117188	2.551807
4.023214911848827	6.5879498	2.5667002
4.0407525137583855	6.655055	2.5797393
4.058290210352644	6.546025	2.55852
4.075828002043927	6.3745923	2.5247955
4.0933658892445814	6.2475357	2.4995072
4.110903872366966	6.3214574	2.5142508
4.128441951823468	6.2715006	2.5042965
4.145980128026488	6.2407312	2.4981456
4.163518401388452	6.1947513	2.4889257
4.181056772321807	6.1324325	2.4763749
4.1985952412390155	6.1819077	2.4863443
4.216133808552567	6.2506337	2.5001268
4.233672474674966	6.4407425	2.5378618
4.251211240018741	6.7049513	2.5893922
4.268750104996445	6.924559	2.6314557
4.286289070020643	7.831202	2.7984285
4.303828135503928	9.427661	3.0704496
4.3213673018589125	29.621504	5.442564
4.3389065694982305	90.72143	9.524779
4.356445938834537	165.98956	12.883694
4.3739854102805085	171.5296	13.096931
4.391524984248844	172.44202	13.131718
4.409064661152262	136.42424	11.6800785
4.426604441403504	96.76638	9.83699
4.444144325415337	75.91496	8.712919
4.461684313600543	21.932693	4.683235
4.47922440637193	22.259594	4.7180076
4.496764604142329	20.537766	4.5318613
4.5143049073245916	18.678976	4.321918
4.531845316331589	16.60943	4.075467
4.5493858315762195	13.724912	3.7047148
4.566926453471405	11.372653	3.3723364
4.584467182430081	9.402833	3.0664039
4.602008018865218	8.181558	2.8603423
4.619548963189798	7.530936	2.744255
4.637090015816834	6.9998426	2.6457217
4.654631177159353	6.864097	2.6199422
4.672172447630417	6.6364803	2.5761366
4.689713827643102	6.509784	2.5514278
4.7072553176105085	6.282958	2.506583
4.724796917945764	6.0813804	2.4660454
4.742338629062015	5.895898	2.428147
4.759880451372434	5.76094	2.4001958
4.777422385290215	5.7797084	2.4041023
4.794964431228581	5.740407	2.3959146
4.812506589600768	5.722474	2.3921692
4.830048860820047	5.714605	2.390524
4.847591245299709	5.7564144	2.399253
4.8651337434530655	5.6315784	2.3730948
4.882676355693457	5.658501	2.3787603
4.900219082434242	5.6317835	2.373138
4.917761924088813	5.619926	2.3706384
4.935304881070575	5.5412602	2.3539882
4.952847953792969	5.563177	2.3586388
4.970391142669449	5.599093	2.3662403
4.9879344481135055	5.5426598	2.3542855
5.005477870538642	5.509396	2.3472102
5.023021410358394	5.5101285	2.3473663
5.040565067986324	5.5863743	2.3635511
5.05810884383601	5.586986	2.3636806
5.075652738321066	5.5383945	2.3533792
5.09319675185512	5.48699	2.3424325
5.110740884851836	5.46556	2.3378537
5.128285137724894	5.459712	2.3366027
5.145829510888007	5.373239	2.3180249
5.163374004754908	5.379555	2.3193867
5.1809186197393595	5.347572	2.3124816
5.198463356255145	5.385978	2.320771
5.216008214716077	5.348882	2.3127651
5.233553195535998	5.369635	2.3172474
5.251098299128764	5.385867	2.3207471
5.268643525908272	5.4236345	2.3288698
5.286188876288432	5.3894186	2.3215122
5.3037343506831895	5.3085594	2.3040311
5.32127994950651	5.220548	2.2848518
5.3388256731723915	5.1521034	2.2698245
5.356371522094851	5.1625724	2.2721295
5.373917496687938	5.2266726	2.2861917
5.391463597365729	5.233561	2.2876978
5.40900982454232	5.2496448	2.2912104
5.426556178631843	5.241753	2.2894876
5.444102660048449	5.225952	2.286034
5.4616492692063225	5.2025743	2.2809153
5.479196006519669	5.2572474	2.2928689
5.496742872402727	5.2689886	2.2954278
5.514289867269756	5.2940063	2.300871
5.531836991535049	5.2535334	2.2920587
5.549384245612924	5.214209	2.2834642
5.566931629917724	5.249621	2.2912052
5.584479144863822	5.2775335	2.2972884
5.6020267908656205	5.280559	2.2979467
5.619574568337545	5.2620664	2.2939193
5.637122477694054	5.248242	2.2909043
5.654670519349629	5.225681	2.2859747
5.672218693718784	5.158769	2.2712924
5.689767001216059	5.108188	2.2601302
5.707315442256021	5.0455956	2.2462404
5.724864017253266	5.073437	2.2524292
5.7424127266224225	5.164858	2.2726324
5.75996157077814	5.241911	2.289522
5.777510550135105	5.2904916	2.3001068
5.795059665108022	5.3596754	2.3150973
5.812608916111639	5.3982816	2.3234203
5.830158303560715	5.5249567	2.3505228
5.847707827870055	5.4959803	2.3443508
5.86525748945448	5.5197573	2.3494163
5.8828072887288485	5.5573406	2.3574011
5.900357226108044	5.6185837	2.3703551
5.917907302006979	5.7207828	2.391816
5.9354575168406	6.311647	2.512299
5.9530078710238765	6.910528	2.6287882
5.970558364971812	7.4219074	2.7243178
5.988108999099438	7.7732115	2.788048
6.005659773821818	8.379576	2.8947496
6.023210689554039	8.200963	2.8637323
6.040761746711227	8.626338	2.9370627
6.058312945708531	7.952967	2.8201005
6.075864286961132	7.426474	2.7251558
6.093415770884244	6.7115703	2.5906699
6.1109673978931065	6.1446733	2.4788451
6.128519168402993	5.521696	2.349829
6.146071082829204	5.364304	2.3160968
6.163623141587075	5.2710614	2.2958791
6.181175345091969	5.2019506	2.2807784
6.198727693759281	5.1176605	2.2622247
6.216280188004435	5.117421	2.2621717
6.233832828242885	5.1725307	2.27432
6.251385614890126	5.2771235	2.297199
6.268938548361669	5.262377	2.293987
6.286491629073067	5.1538906	2.2702181
6.304044857439898	5.0731106	2.2523568
6.321598233877777	5.000844	2.2362566
6.339151758802344	5.0309668	2.2429817
6.356705432629277	5.0114226	2.2386208
6.37425925577428	5.0215273	2.2408764
6.391813228653095	5.0332007	2.2434795
6.409367351681486	5.071777	2.2520607
6.426921625275259	5.0848875	2.2549696
6.44447604985025	5.0703897	2.2517526
6.46203062582232	5.0648828	2.2505295
6.47958535360737	5.074406	2.2526443
6.497140233621328	5.0996313	2.2582364
6.514695266280161	5.1301217	2.2649772
6.532250451999859	5.1752043	2.2749076
6.549805791196454	5.115368	2.2617178
6.567361284286002	5.066196	2.250821
6.584916931684597	5.07279	2.2522855
6.602472733808367	5.1400423	2.2671661
6.6200286910734665	5.238089	2.2886872
6.637584803896092	5.2338986	2.2877715
6.655141072692462	5.1860685	2.2772942
6.672697497878842	5.1258583	2.264036
6.690254079871514	5.027168	2.2421346
6.707810819086808	4.983362	2.2323446
6.725367715941078	4.9348	2.221441
6.742924770850719	4.92325	2.21884
6.760481984232151	4.91909	2.2179022
6.778039356501836	4.899786	2.213546
6.795596888076266	4.9225974	2.2186928
6.813154579371963	5.007626	2.2377725
6.830712430805492	5.0074944	2.2377431
6.84827044279344	5.059513	2.2493362
6.865828615752445	5.074597	2.2526865
6.883386950099159	5.0845366	2.2548916
6.900945446250287	5.088024	2.2556648
6.918504104622553	5.1067004	2.259801
6.936062925632727	5.155783	2.270635
6.953621909697607	5.202068	2.2808042
6.971181057234028	5.2022038	2.280834
6.988740368658859	5.185765	2.2772274
7.006299844389007	5.213129	2.2832277
7.023859484841407	5.3022327	2.3026578
7.041419290433036	5.4423685	2.3328884
7.058979261580902	5.6314096	2.373059
7.0765393987020495	5.8087697	2.4101388
7.094099702213559	6.169265	2.4838004
7.111660172532549	6.4441714	2.5385373
7.129220810076164	6.7943025	2.6065884
7.146781615261595	7.3545938	2.7119355
7.16434258850606	7.623147	2.7610047
7.181903730226821	8.016249	2.831298
7.1994650408411704	8.0914755	2.8445518
7.217026520766437	8.262279	2.874418
7.234588170419983	8.520839	2.9190476
7.252149990219215	8.531891	2.9209402
7.269711980581568	8.45602	2.9079237
7.2872741419245175	8.303382	2.881559
7.304836474665574	7.9600773	2.8213608
7.322398979222286	7.56547	2.75054
7.339961656012233	7.273595	2.6969602
7.357524505453039	6.8528233	2.6177897
7.375087527962357	6.591435	2.567379
7.392650723957886	6.3645606	2.522808
7.410214093857353	6.0428743	2.458226
7.427777638078528	5.897632	2.428504
7.445341357039213	5.707753	2.3890905
7.4629052511572525	5.5585914	2.3576665
7.480469320850524	5.4138207	2.326762
7.498033566536948	5.287383	2.299431
7.5155979886344735	5.2006164	2.280486
7.5331625875610975	5.137895	2.2666926
7.550727363734844	5.1463265	2.2685516
7.568292317573788	5.2370477	2.2884598
7.585857449496025	5.2906976	2.3001516
7.603422759919705	5.298832	2.3019192
7.620988249263007	5.260737	2.2936296
7.638553917944147	5.204217	2.2812753
7.656119766381391	5.180185	2.276002
7.673685794993023	5.2567086	2.2927513
7.691252004197388	5.2801256	2.2978523
7.70881839441285	5.246017	2.2904186
7.726384966057826	5.2588778	2.2932243
7.743951719550762	5.2643824	2.2944243
7.761518655310149	5.367987	2.3168917
7.779085773754511	5.3487763	2.3127422
7.796653075302419	5.293222	2.3007004
7.814220560372475	5.2433343	2.2898328
7.831788229383323	5.277499	2.2972808
7.8493560827536495	5.330859	2.3088653
7.866924120902174	5.4129963	2.3265846
7.884492344247663	5.426889	2.3295684
7.9020607532089135	5.422636	2.3286555
7.919629348204771	5.4577684	2.3361866
7.937198129654115	5.411523	2.326268
7.954767097975865	5.4596972	2.3365996
7.972336253588986	5.532767	2.3521833
7.989905596912472	5.5547943	2.356861
8.007475128365371	5.4845467	2.3419108
8.025044848366756	5.4520826	2.3349695
8.042614757335754	5.652671	2.3775346
8.060184855691523	5.7452645	2.396928
8.07775514385327	5.848815	2.4184322
8.095325622240228	5.820533	2.412578
8.112896291271687	5.8533792	2.419376
8.130467151366968	5.9740543	2.4441879
8.148038202945436	6.020907	2.4537537
8.165609446426497	6.0436974	2.4583933
8.183180882229594	6.0814214	2.4660537
8.200752510774217	6.0187335	2.4533107
8.218324332479893	6.0591073	2.4615254
8.235896347766193	6.055601	2.460813
8.253468557052724	5.9938993	2.448244
8.27104096075914	5.9641166	2.4421542
8.288613559305137	5.9981756	2.4491174
8.306186353110448	6.165834	2.4831097
8.32375934259485	6.325437	2.515042
8.341332528178162	6.386086	2.5270705
8.358905910280246	6.416979	2.5331757
8.376479489321003	6.324183	2.514793
8.394053265720377	6.3143115	2.5128293
8.411627239898356	6.3172016	2.5134044
8.42920141227497	6.3588886	2.5216837
8.44677578327029	6.406709	2.5311477
8.464350353304427	6.33091	2.51613
8.48192512279754	6.3133507	2.512638
8.499500092169827	6.2693944	2.503876
8.51707526184153	6.2928267	2.5085506
8.534650632232934	6.338834	2.517704
8.552226203764365	6.320418	2.514044
8.569801976856192	6.3034086	2.510659
8.587377951928834	6.2303824	2.4960735
8.60495412940274	6.2613945	2.5022779
8.622530509698416	6.3557305	2.5210574
8.6401070932364	6.553985	2.5600753
8.657683880437283	6.720826	2.5924556
8.675260871721695	6.859449	2.619055
8.692838067510303	6.934631	2.6333687
8.710415468223834	7.0183578	2.6492183
8.727993074283043	7.1909924	2.6816025
8.745570886108737	7.2270927	2.6883252
8.763148904121765	7.316527	2.704908
8.78072712874302	7.350274	2.711139
8.798305560393441	7.5672593	2.7508652
8.815884199494006	7.679319	2.7711585
8.833463046465745	7.885438	2.8081021
8.851042101729728	8.093248	2.8448634
8.86862136570707	8.407803	2.899621
8.886200838818924	8.510703	2.917311
8.903780521486505	8.453875	2.9075546
8.921360414131055	8.477241	2.91157
8.938940517173874	8.590449	2.9309468
8.956520831036297	8.782505	2.963529
8.97410135613971	9.039424	3.0065634
8.99168209290554	9.254327	3.0420926
9.009263041755265	9.54936	3.090204
9.026844203110405	9.766879	3.1252007
9.044425577392525	9.924268	3.1502805
9.062007165023239	9.985771	3.160027
9.079588966424197	10.235223	3.1992536
9.097170982017108	10.420599	3.2280953
9.11475321222372	11.470007	3.38674
9.132335657465825	12.380251	3.518558
9.149918318165264	12.46716	3.5308867
9.167501194743924	13.096586	3.6189206
9.18508428762374	12.793197	3.576758
9.202667597226693	12.809632	3.5790546
9.220251123974803	12.466901	3.53085
9.237834868290143	12.124395	3.4820104
9.255418830594836	11.938337	3.45519
9.273003011311046	11.399093	3.3762543
9.290587410860985	11.154844	3.339887
9.308172029666911	10.50476	3.2411046
9.32575686815113	10.212565	3.1957104
9.343341926735997	8.933122	2.9888327
9.360927205843916	8.619822	2.9359534
9.378512705897327	8.426421	2.90283
9.396098427318728	8.235772	2.8698034
9.413684370530664	8.139998	2.8530684
9.431270535955722	8.014187	2.8309338
9.448856924016539	7.909003	2.812295
9.466443535135806	7.7840376	2.7899888
9.484030369736251	7.7780952	2.7889237
9.501617428240658	7.7770224	2.7887313
9.519204711071852	7.86416	2.804311
9.536792218652714	7.958145	2.8210185
9.55437995140617	7.950076	2.819588
9.571967909755191	7.933051	2.8165672
9.589556094122802	7.9016156	2.8109813
9.60714450493207	8.009018	2.830021
9.624733142606116	8.081088	2.8427255
9.642322007568108	8.084946	2.8434038
9.659911100241267	8.073601	2.8414083
9.677500421048851	8.087894	2.8439224
9.695089970414175	8.117259	2.8490803
9.712679748760609	8.128452	2.8510442
9.730269756511557	8.096471	2.84543
9.747859994090492	8.112839	2.8483045
9.765450461920915	8.236114	2.869863
9.78304116042639	8.324598	2.885238
9.800632090030527	8.304102	2.8816838
9.81822325115699	8.3025875	2.881421
9.835814644229481	8.270026	2.8757653
9.853406269671762	8.361062	2.89155
9.870998127907646	8.369428	2.8929963
9.888590219360985	8.387857	2.89618
9.906182544455698	8.401322	2.8985035
9.923775103615734	8.481023	2.9122195
9.941367897265108	8.519531	2.9188237
9.958960925827878	8.530383	2.920682
9.97655418972816	8.4213915	2.9019635
9.994147689390106	8.416241	2.9010758
10.011741425237934	8.418604	2.901483
10.029335397695904	8.407459	2.899562
10.04692960718833	8.430484	2.9035296
10.06452405413958	8.387695	2.8961518
10.082118738974064	8.344048	2.8886065
10.099713662116246	8.317762	2.8840532
10.117308823990651	8.286591	2.878644
10.134904225021844	8.303981	2.8816628
10.152499865634445	8.351084	2.8898242
10.170095746253125	8.356742	2.890803
10.18769186730261	8.400078	2.8982887
10.205288229207675	8.272559	2.8762057
10.222884832393145	8.188496	2.8615549
10.2404816772839	8.131352	2.8515527
10.258078764304868	8.108779	2.8475919
10.275676093881035	8.115482	2.8487685
10.293273666437438	8.123464	2.850169
10.310871482399158	8.130812	2.8514578
10.32846954219134	8.118761	2.849344
10.346067846239173	8.154497	2.855608
10.363666394967908	8.161181	2.8567781
10.38126518880283	8.184763	2.8609025
10.398864228169298	8.250428	2.872356
10.416463513492713	8.28298	2.8780167
10.434063045198531	8.294265	2.8799765
10.451662823712262	8.22511	2.8679452
10.469262849459467	8.213691	2.8659537
10.486863122865758	8.17643	2.8594458
10.504463644356806	8.126942	2.850779
10.522064414358338	8.045744	2.836502
10.539665433296118	7.9547744	2.820421
10.557266701595987	7.880572	2.8072357
10.574868219683818	7.7909546	2.791228
10.592469987985552	7.726199	2.7796042
10.610072006927185	7.621606	2.7607255
10.627674276934751	7.5483027	2.7474174
10.64527679843435	7.3784633	2.7163327
10.662879571852143	7.24266	2.691219
10.680482597614331	7.1035566	2.6652498
10.698085876147173	7.0216856	2.6498463
10.715689407876988	6.971457	2.6403518
10.733293193230146	6.9013906	2.6270497
10.750897232633072	6.822917	2.6120715
10.76850152651225	6.6827073	2.5850933
10.786106075294207	6.662256	2.5811346
10.803710879405534	6.6010356	2.569248
10.821315939272877	6.6021094	2.569457
10.83892125532294	6.537594	2.556872
10.856526827982472	6.428001	2.5353503
10.874132657678285	6.351436	2.5202055
10.891738744837243	6.290493	2.5080855
10.909345089886271	6.247521	2.499504
10.926951693252343	6.225517	2.4950986
10.944558555362494	6.1433725	2.4785829
10.96216567664381	6.086412	2.4670656
10.979773057523436	5.963595	2.4420474
10.997380698428573	5.934751	2.4361343
11.014988599786477	5.8707657	2.4229662
11.032596762024461	5.778342	2.4038181
11.050205185569892	5.704451	2.3883994
11.067813870850198	5.631848	2.3731515
11.085422818292859	5.609493	2.3684368
11.10303202832541	5.534215	2.3524911
11.120641501375454	5.4513793	2.3348188
11.138251237870636	5.401345	2.3240793
11.155861238238671	5.3297677	2.308629
11.173471502907317	5.256374	2.2926784
11.191082032304402	5.144876	2.2682319
11.208692826857805	5.0743427	2.2526302
11.226303886995465	5.014981	2.2394152
11.243915213145371	5.004379	2.237047
11.261526805735578	4.964294	2.2280695
11.279138665194196	4.9263244	2.2195325
11.296750791949393	4.792668	2.1892164
11.314363186429393	4.7064705	2.16944
11.331975849062479	4.707969	2.1697855
11.34958878027699	4.7524166	2.180004
11.36720198050133	4.7502813	2.179514
11.384815450163948	4.703177	2.168681
11.402429189693366	4.582264	2.1406224
11.420043199518153	4.561831	2.1358442
11.437657480066942	63.514412	7.969593
11.455272031768422	85.242775	9.232701
11.472886855051353	107.64637	10.375277
11.490501950344528	99.21941	9.960895
11.508117318076819	84.530075	9.194024
11.52573295867715	45.89586	6.774648
11.543348872574514	4.179936	2.0444891
11.560965060197946	4.1162434	2.0288527
11.57858152197655	4.1466794	2.0363398
11.59619825833949	4.1085844	2.0269644
11.613815269715985	4.116792	2.028988
11.631432556535323	38.567455	6.21027
11.649050119226837	83.10125	9.115989
11.666667958219929	93.47233	9.668109
11.68428607394406	107.78557	10.381983
11.701904466828756	82.65406	9.091428
11.719523137303586	65.45438	8.090388
11.737142085798196	4.6112356	2.1473787
11.754761312742286	3.6881535	1.9204565
11.772380818565619	3.6632714	1.9139675
11.790000603698015	3.6779046	1.9177864
11.80762066856935	3.6458151	1.9094018
11.825241013609572	3.597301	1.8966552
11.842861639248683	3.560648	1.8869679
11.860482545916748	3.5842967	1.8932239
11.878103734043883	3.5643287	1.887943
11.895725204060282	3.5103533	1.8735937
11.91334695639619	3.4203274	1.8494127
11.930968991481919	3.4006803	1.8440933
11.948591309747824	3.3702438	1.8358223
11.966213911624347	3.3752472	1.8371845
11.98383679754198	3.3276587	1.8241872
12.001459967931268	3.2729907	1.8091409
12.019083423222835	3.2367535	1.799098
12.036707163847352	3.2268963	1.7963564
12.05433119023556	3.2416573	1.8004603
12.071955502818259	3.2218347	1.794947
12.089580102026313	3.2102108	1.7917061
12.107204988290643	3.1991093	1.7886055
12.12483016204224	3.1869838	1.7852125
12.142455623712152	3.1693983	1.7802804
12.16008137373149	3.157948	1.7770616
12.177707412531431	3.1547513	1.7761619
12.19533374054321	3.156743	1.7767226
12.212960358198126	3.124775	1.7677033
12.230587265927545	3.0961618	1.7595913
12.248214464162889	3.0707247	1.7523483
12.265841953335649	3.0306513	1.7408766
12.283469733877375	2.987458	1.7284265
12.301097806219685	2.9203355	1.7088989
12.31872617079425	2.9265323	1.710711
12.336354828032825	2.950677	1.7177534
12.353983778367205	2.9772632	1.7254748
12.371613022229262	2.935731	1.7133975
12.389242560050928	2.9297788	1.7116597
12.406872392264201	2.9315047	1.7121638
12.424502519301143	2.9373813	1.713879
12.442132941593874	2.933287	1.7126842
12.459763659574586	2.9083338	1.7053838
12.477394673675532	2.8702755	1.6941887
12.49502598432903	2.8651948	1.6926886
12.51265759196746	2.877468	1.6963102
12.530289497023267	2.8687613	1.6937418
12.547921699928967	2.8523147	1.6888797
12.565554201117134	2.855941	1.689953
12.583187001020404	2.8478746	1.6875647
12.600820100071486	2.881656	1.6975441
12.618453498703152	2.8503966	1.6883118
12.636087197348235	2.8590205	1.6908638
12.65372119643964	2.858444	1.6906934
12.671355496410326	2.837016	1.6843444
12.68899009769333	2.830907	1.6825299
12.706625000721749	2.8229551	1.6801652
12.724260205928752	2.90401	1.7041156
12.741895713747551	2.9247172	1.7101804
12.759531524611454	2.9557896	1.719241
12.777167638953818	2.9604797	1.7206044
12.794804057208072	2.974436	1.7246554
12.812440779807702	3.0378997	1.7429572
12.830077807186271	3.2270677	1.7964041
12.847715139777405	3.2796032	1.8109674
12.865352778014795	3.489594	1.8680454
12.882990722332197	3.5815926	1.8925096
12.90062897316344	3.6531477	1.9113209
12.918267530942412	3.7371318	1.9331663
12.935906396103071	3.6172552	1.9019083
12.953545569079449	3.83505	1.9583284
12.971185050305628	3.69962	1.9234396
12.988824840215775	3.7044344	1.9246907
13.006464939244115	3.6316836	1.9056977
13.024105347824943	3.440488	1.8548553
13.041746066392617	3.5653605	1.8882163
13.05938709538157	3.3751493	1.837158
13.077028435226296	3.3770554	1.8376766
13.094670086361363	3.2785866	1.8106868
13.112312049221401	3.1968634	1.7879775
13.129954324241112	3.1237688	1.7674187
13.147596911855258	2.9620154	1.7210506
13.165239812498685	2.9326437	1.7124963
13.182883026606293	2.8492885	1.6879835
13.200526554613058	2.7978437	1.6726756
13.218170396954017	2.7728546	1.665189
13.235814554064284	2.76976	1.6642596
13.253459026379034	2.754487	1.6596648
13.271103814333523	2.7362475	1.6541606
13.288748918363058	2.7449512	1.6567894
13.306394338903031	2.7379148	1.6546645
13.32404007638889	2.731708	1.6527879
13.341686131256164	2.7495923	1.6581894
13.359332503940449	2.7305126	1.6524262
13.376979194877402	2.7394664	1.6551334
13.394626204502751	2.763004	1.6622286
13.412273533252307	2.77998	1.6673272
13.429921181561937	2.7655978	1.6630087
13.447569149867581	2.7612512	1.6617013
13.465217438605247	2.7438066	1.656444
13.482866048211022	2.7069178	1.6452713
13.500514979121052	2.6917934	1.6406686
13.518164231771568	2.6822422	1.6377553
13.535813806598844	2.6721501	1.6346712
13.553463704039254	2.680592	1.6372514
13.571113924529229	2.6803834	1.6371877
13.588764468505275	2.7357342	1.6540055
13.606415336403956	2.7277617	1.6515937
13.624066528661917	2.7316961	1.6527843
13.641718045715882	2.7740371	1.665544
13.659369888002635	2.853017	1.6890876
13.67702205595903	2.9103208	1.7059662
13.694674550021993	2.9906406	1.7293469
13.712327370628532	3.0577664	1.748647
13.729980518215713	3.1451895	1.7734683
13.747633993220681	3.225784	1.7960467
13.765287796080647	3.2701607	1.8083586
13.7829419272329	3.3297327	1.8247555
13.800596387114801	3.3598275	1.8329833
13.818251176163775	3.3707535	1.8359612
13.835906294817324	3.3968916	1.8430659
13.853561743513023	3.4162567	1.8483119
13.871217522688525	3.478289	1.8650172
13.888873632781538	3.5345874	1.8800498
13.906530074229858	3.5744803	1.8906296
13.92418684747135	3.6083915	1.8995767
13.941843952943948	3.5922391	1.8953203
13.959501391085665	3.5547557	1.885406
13.977159162334578	3.4428864	1.8555017
13.994817267128846	3.3953876	1.8426578
14.012475705906693	3.320808	1.8223084
14.030134479106424	3.2822092	1.8116869
14.047793587166414	3.1908786	1.786303
14.065453030525108	3.1456275	1.7735916
14.083112809621026	3.0814764	1.7554134
14.100772924892766	2.9774811	1.7255379
14.118433376778997	2.8929155	1.7008573
14.136094165718458	2.810395	1.6764233
14.153755292149969	2.8251388	1.680815
14.171416756512416	2.772415	1.6650571
14.189078559244768	2.6897426	1.6400435
14.20674070078606	2.6006587	1.6126558
14.224403181575408	2.527887	1.589933
14.242066002051999	2.5560312	1.5987593
14.259729162655093	2.5271773	1.5897099
14.277392663824022	2.4893796	1.5777768
14.295056505998208	2.4288445	1.558475
14.312720689617128	2.390473	1.5461154
14.330385215120348	2.3729029	1.5404229
14.348050082947497	2.3672194	1.5385771
14.3657152935383	2.3911283	1.5463274
14.383380847332528	2.428559	1.5583835
14.401046744770051	2.451549	1.5657424
14.418712986290798	2.4501708	1.5653021
14.436379572334793	2.4099548	1.5524029
14.454046503342123	2.3800566	1.5427432
14.471713779752946	2.378984	1.5423955
14.489381402007504	2.425507	1.5574039
14.507049370546113	2.4151251	1.5540673
14.524717685809168	2.4029882	1.5501574
14.542386348237134	2.4163406	1.5544583
14.560055358270553	2.417381	1.5547929
14.577724716350051	2.4755557	1.5733899
14.595394422916325	2.4698243	1.5715674
14.61306447841015	2.5175335	1.5866737
14.63073488327237	2.5169263	1.5864824
14.648405637943917	2.5561595	1.5987993
14.6660767428658	2.589664	1.6092433
14.683748198479094	2.6080048	1.6149318
14.701420005224954	2.579297	1.606019
14.719092163544628	2.5940263	1.6105981
14.73676467387942	2.6348417	1.6232195
14.754437536670727	2.6984103	1.6426839
14.772110752360014	2.7396917	1.6552014
14.78978432138882	2.7549114	1.6597925
14.807458244198777	2.7381647	1.6547401
14.82513252123159	2.726235	1.6511314
14.842807152929028	2.7482905	1.6577969
14.860482139732962	2.7267897	1.6512994
14.87815748208531	2.6987565	1.6427892
14.8958331804281	2.7036784	1.6442866
14.91350923520342	2.6650958	1.6325121
14.931185646853438	2.6661906	1.6328474
14.948862415820408	2.629428	1.621551
14.966539542546656	2.6615627	1.6314297
14.98421702747459	2.6718142	1.6345685
15.001894871046696	2.6834683	1.6381295
15.019573073705542	2.7031443	1.6441242
15.037251635893766	2.6926987	1.6409445
15.054930558054092	2.7241814	1.6505095
15.072609840629323	2.7480452	1.657723
15.090289484062351	2.9055524	1.7045681
15.107969488796124	3.2371256	1.7992014
15.125649855273691	3.6316533	1.9056897
15.14333058393817	4.08962	2.022281
15.161011675232768	5.004713	2.2371216
15.17869312960076	6.418788	2.5335326
15.196374947485506	8.359455	2.8912723
15.214057129330447	11.473093	3.3871953
15.231739675579114	16.046156	4.0057654
15.249422586675102	21.070555	4.590267
15.267105863062092	24.366241	4.9362173
15.284789505183847	24.742668	4.9742002
15.302473513484218	22.750282	4.769726
15.320157888407127	19.05588	4.365304
15.337842630396578	14.900871	3.8601646
15.355527739896656	11.575434	3.402269
15.37321321735153	8.943871	2.9906304
15.39089906320545	6.506885	2.5508597
15.408585277902748	4.916271	2.2172666
15.42627186188783	3.8033502	1.950218
15.443958815605198	3.2550182	1.8041669
15.461646139499424	2.9333205	1.7126939
15.479333834015168	2.8011706	1.6736698
15.497021899597165	2.742447	1.6560335
15.514710336690234	2.690992	1.6404244
15.53239914573928	2.6317785	1.6222757
15.550088327189297	2.6098635	1.6155072
15.567777881485336	2.5401857	1.593796
15.58546780907256	2.5364807	1.5926332
15.6031581103962	2.5610678	1.6003337
15.620848785901568	2.5650966	1.601592
15.638539836034063	2.5502455	1.5969489
15.656231261239173	2.4927275	1.5788374
15.673923061962451	2.4678695	1.5709454
15.691615238649552	2.4406729	1.5622653
15.709307791746202	2.426511	1.5577263
15.727000721698221	2.457807	1.5677395
15.744694028951498	2.4445264	1.5634981
15.76238771395202	2.4270403	1.5578961
15.780081777145844	2.4003496	1.5493062
15.797776218979125	2.4113894	1.5528649
15.815471039898094	2.4585636	1.5679808
15.833166240349064	2.454845	1.5667945
15.850861820778437	2.4204323	1.5557739
15.868557781632699	2.4220169	1.556283
15.886254123358412	2.4403248	1.5621539
15.903950846402232	2.4372616	1.5611732
15.921647951210897	2.4049015	1.5507745
15.939345438231225	2.3836782	1.5439165
15.957043307910133	2.3795342	1.5425739
15.974741560694602	2.4313796	1.5592881
15.992440197031714	2.4297082	1.5587522
16.01013921736862	2.4171557	1.5547205
16.02783862215259	2.3878334	1.5452616
16.045538411830933	2.381893	1.5433382
16.06323858685107	2.3849154	1.5443171
16.080939147660512	2.4009762	1.5495083
16.09864009470684	2.4163742	1.5544691
16.11634142843774	2.405743	1.5510458
16.134043149300954	2.419293	1.5554076
16.15174525774433	2.449321	1.5650307
16.169447754215817	2.472827	1.5725225
16.18715063916342	2.4497583	1.5651704
16.204853913035244	2.3936605	1.547146
16.222557576279478	2.3969722	1.5482157
16.240261629344403	22.415955	4.734549
16.257966072678386	43.001446	6.557549
16.275670906729868	38.109554	6.1732936
16.293376131947387	2.535358	1.5922807
16.31108174877957	2.5173688	1.5866218
16.328787757675133	2.5678833	1.6024616
16.34649415908287	2.5964377	1.6113466
16.364200953451657	2.639273	1.624584
16.38190814123048	2.665	1.6324828
16.39961572286839	2.684579	1.6384685
16.41732369881455	2.700002	1.6431682
16.43503206951817	2.734497	1.6536314
16.45274083542859	2.7745037	1.6656841
16.47044999699522	2.8286393	1.6818559
16.488159554667558	2.856884	1.6902319
16.505869508895184	2.8839777	1.6982278
16.523579860127786	2.9298663	1.7116852
16.541290608815117	2.985696	1.7279167
16.559001755407035	3.0480769	1.7458743
16.57671330035348	3.0744882	1.7534219
16.59442524410448	3.1095366	1.7633878
16.61213758711015	3.2165477	1.7934736
16.629850329820705	3.3152444	1.8207812
16.647563472686436	3.3930273	1.8420172
16.665277016157724	3.4160845	1.8482653
16.682990960685053	3.4694707	1.8626516
16.70070530671898	3.4666822	1.8619028
16.718420054710155	3.533463	1.8797507
16.736135205109335	3.6221669	1.9031991
16.753850758367335	3.6886969	1.920598
16.771566714935087	3.7357852	1.9328179
16.789283075263597	3.783575	1.9451414
16.80699983980398	3.848258	1.9616977
16.82471700900741	3.9217374	1.9803377
16.84243458332518	3.9892802	1.9973183
16.860152563208665	3.993536	1.9983834
16.87787094910932	4.045238	2.0112777
16.89558974147871	4.138485	2.0343266
16.913308940768466	4.230454	2.0568068
16.931028547430333	4.28301	2.0695434
16.94874856191613	4.334312	2.081901
16.966468984677785	4.390659	2.0953898
16.98418981616729	4.475317	2.1154945
17.00191105683676	4.539498	2.1306098
17.019632707138374	4.666395	2.1601841
17.03735476752442	4.6991925	2.167762
17.05507723844728	4.66865	2.160706
17.072800120359403	4.5984406	2.1443975
17.090523413713353	4.5902505	2.142487
17.108247118961785	4.6192384	2.1492414
17.125971236557437	4.6368127	2.153326
17.143695766953133	4.6382904	2.153669
17.161420710601806	4.667917	2.1605363
17.179146067956477	4.715335	2.171482
17.19687183947025	4.7956786	2.1899037
17.21459802559634	4.834633	2.1987798
17.232324626788028	4.831555	2.1980798
17.25005164349871	4.751023	2.1796842
17.267779076181863	4.6476116	2.155832
17.285506925291074	4.6199017	2.1493957
17.30323519127999	4.5951686	2.1436343
17.320963874602384	4.573184	2.1385005
17.33869297571211	4.5092416	2.1234975
17.356422495063114	4.5297084	2.1283112
17.37415243310944	4.511936	2.124132
17.391882790305218	4.5460324	2.1321428
17.40961356710468	4.523079	2.126753
17.42734476396215	4.5521727	2.133582
17.445076381332044	4.5338893	2.1292932
17.462808419668868	4.5984874	2.1444085
17.48054087942723	4.743598	2.1779802
17.498273761061835	5.065465	2.2506588
17.51600706502747	5.5352488	2.352711
17.533740791779024	6.201112	2.4902031
17.551474941771485	7.6002955	2.7568634
17.56920951545993	8.7388525	2.956155
17.586944513299528	10.992302	3.315464
17.60467993574556	12.7248335	3.5671885
17.622415783253373	14.511406	3.8093839
17.64015205627843	16.034554	4.004317
17.657888755276293	17.158916	4.142332
17.675625880702604	17.57118	4.191799
17.69336343301311	17.325224	4.162358
17.71110141266366	16.500807	4.0621185
17.728839820110178	15.584579	3.947731
17.746578655808705	14.59505	3.8203468
17.764317920215372	13.08741	3.6176527
17.7820576137864	11.444272	3.3829384
17.79979773697811	9.447642	3.0737016
17.81753829024692	7.5308046	2.7442312
17.835279274049356	5.8921094	2.4273667
17.85302068884201	4.8359103	2.1990702
17.870762535081607	4.2521563	2.0620756
17.888504813224934	3.97992	1.9949737
17.90624752372891	3.7844212	1.9453589
17.923990667050536	3.6488423	1.9101943
17.941734243646895	3.5317175	1.8792864
17.959478253975185	3.4625125	1.8607827
17.9772226984927	3.445679	1.856254
17.994967577656833	3.4477355	1.856808
18.01271289192506	3.45322	1.8582841
18.030458641754965	3.4197617	1.8492597
18.04820482760425	3.3710136	1.836032
18.06595144993067	3.3741848	1.8368955
18.083698509192125	3.3625803	1.833734
18.101446005846576	3.324012	1.8231874
18.119193940352105	3.2764246	1.8100897
18.136942313166887	3.2251928	1.7958822
18.1546911247492	3.2136834	1.7926749
18.1724403755574	3.2144608	1.7928917
18.19019006604997	3.2180297	1.7938868
18.207940196685467	3.1972504	1.7880857
18.225690767922575	3.164102	1.7787923
18.243441780220046	3.149098	1.7745697
18.261193234036764	3.1548297	1.7761841
18.278945129831676	3.149231	1.7746073
18.29669746806386	3.1567128	1.7767141
18.314450249192483	3.1035285	1.7616835
18.3322034736768	3.0844426	1.7562581
18.349957141976184	3.0697682	1.7520754
18.3677112545501	3.069117	1.7518896
18.385465811858108	3.0662303	1.7510655
18.403220814359884	3.0873892	1.7570968
18.420976262515172	3.1205425	1.7665057
18.43873215678387	3.1397953	1.7719468
18.456488497625923	3.1352642	1.7706677
18.474245285501407	3.235021	1.7986164
18.492002520870486	3.3414817	1.827972
18.50976020419343	3.4349375	1.8533584
18.527518335930615	3.733886	1.9323266
18.545276916542516	4.3101683	2.0760944
18.563035946489688	4.443904	2.108057
18.580795426232832	4.927121	2.219712
18.598555356232698	4.816684	2.1946945
18.616315736950185	5.155118	2.2704885
18.63407656884626	4.804145	2.1918359
18.65183785238201	5.043301	2.2457294
18.669599588018617	4.8303423	2.197804
18.68736177621737	4.7933693	2.1893764
18.705124417439652	4.748691	2.1791492
18.72288751214696	4.5503345	2.1331513
18.740651060800886	4.7416334	2.177529
18.758415063863115	4.48643	2.1181195
18.77617952179546	4.644951	2.1552148
18.793944435059814	4.314974	2.0772514
18.811709804118184	4.2537856	2.0624707
18.829475629432675	4.1797833	2.044452
18.8472419114655	3.9934444	1.9983604
18.86500865067897	4.1008945	2.0250666
18.88277584753551	3.8138933	1.9529191
18.90054350249763	3.8001764	1.9494041
18.918311616027957	3.474666	1.8640456
18.936080188589226	3.3165495	1.8211396
18.953849220644265	3.028893	1.7403715
18.971618712656007	2.885096	1.698557
18.9893886650875	2.9038818	1.704078
19.007159078401887	8.08603	2.8435946
19.024929953062408	32.929855	5.738454
19.042701289532435	32.870193	5.7332535
19.060473088275405	25.451288	5.044927
19.07824534975489	2.7078106	1.6455426
19.096018074434568	2.6410294	1.6251245
19.113791262778197	2.5701084	1.6031557
19.13156491524966	2.5676432	1.6023867
19.149339032312945	2.561362	1.6004256
19.167113614432136	2.546726	1.5958465
19.184888662071433	2.5421658	1.5944171
19.202664175695123	2.5247238	1.5889379
19.220440155767623	2.5532176	1.597879
19.238216602753447	2.5481465	1.5962914
19.2559935171172	2.5772526	1.6053824
19.27377089932361	2.579251	1.6060047
19.291548749837514	2.5628502	1.6008904
19.309327069123835	2.5569284	1.5990398
19.32710585764763	2.558047	1.5993896
19.344885115874032	2.5679202	1.6024731
19.362664844268313	2.5632033	1.6010008
19.380445043295822	2.5487676	1.596486
19.39822571342203	2.5296874	1.5904992
19.41600685511252	2.5290895	1.5903112
19.43378846883297	2.570035	1.6031328
19.451570555049173	2.606478	1.614459
19.469353114227037	2.5943794	1.6107078
19.48713614683254	2.5807526	1.6064721
19.50491965333182	2.532732	1.5914559
19.52270363419109	2.5251458	1.5890707
19.540488089876686	2.503272	1.5821732
19.55827302085503	2.5177753	1.5867499
19.576058427592674	2.5283256	1.590071
19.593844310556282	2.525314	1.5891237
19.611630670212598	2.5001898	1.5811988
19.629417507028506	2.485109	1.5764229
19.64720482147098	2.5170326	1.5865159
19.6649926140071	2.5483572	1.5963575
19.682780885104084	2.538986	1.5934196
19.70056963522921	2.4782262	1.5742383
19.718358864849908	2.424915	1.5572139
19.7361485744337	2.4460812	1.5639952
19.753938764448215	2.4791217	1.5745227
19.771729435361202	2.5106354	1.5844984
19.789520587640506	2.527528	1.5898201
19.807312221754092	2.5654483	1.6017017
19.825104338170043	2.5672965	1.6022786
19.842896937356517	2.5768015	1.6052419
19.860690019781824	2.5502014	1.596935
19.87848358591436	2.547132	1.5959737
19.896277636222635	2.5439777	1.5949851
19.914072171175278	2.5271337	1.589696
19.931867191241015	2.5354867	1.5923212
19.94966269688869	2.540642	1.5939392
19.967458688587264	2.546407	1.5957465
19.985255166805807	2.5110152	1.5846183
20.00305213201348	2.5140908	1.5855885
20.020849584679578	2.501747	1.5816911
20.038647525273507	2.482471	1.575586
20.05644595426477	2.4603555	1.568552
20.07424487212299	2.4496777	1.5651447
20.092044279317903	2.4326243	1.5596873
20.109844176319353	2.4346566	1.5603386
20.127644563597304	2.434876	1.560409
20.145445441621817	2.4747972	1.5731488
20.16324681086307	2.4736962	1.5727988
20.181048671791373	2.4564948	1.567321
20.198851024877122	2.4104247	1.5525542
20.216653870590836	2.4060152	1.5511335
20.234457209403146	2.4146135	1.5539026
20.252261041784802	2.4024634	1.5499882
20.270065368206662	2.3788283	1.542345
20.287870189139685	2.379218	1.5424714
20.305675505054968	2.4001396	1.5492384
20.323481316423702	2.3956425	1.5477864
20.341287623717207	2.357398	1.535382
20.359094427406884	2.345853	1.5316178
20.376901727964288	2.3454783	1.5314955
20.39470952586107	2.3832495	1.5437777
20.41251782156899	2.3894176	1.5457741
20.430326615559935	2.3950262	1.5475873
20.448135908305886	2.3761678	1.5414823
20.465945700278965	2.366191	1.5382428
20.483755991951384	2.3567934	1.5351851
20.50156678379548	2.3786569	1.5422895
20.519378076283708	2.3701699	1.5395356
20.537189869888635	2.3789258	1.5423766
20.55500216508294	2.3470159	1.5319973
20.572814962339415	2.3399947	1.5297041
20.59062826213098	2.3282888	1.5258732
20.60844206493066	2.3451378	1.5313842
20.626256371211593	2.3644295	1.5376701
20.644071181447032	2.3882341	1.5453912
20.66188649611036	2.3945417	1.5474306
20.67970231567506	2.3333097	1.5275174
20.697518640614742	2.259134	1.5030416
20.715335471403122	2.2866142	1.5121555
20.73315280851404	2.3070266	1.5188899
20.750970652421447	2.2996914	1.5164734
20.768789003599412	2.2653985	1.5051241
20.786607862522136	2.3011134	1.5169421
20.8044272296639	2.3109887	1.5201936
20.82224710549913	2.2875113	1.5124521
20.84006749050237	2.2580926	1.5026951
20.857888385148268	3.8286927	1.9567045
20.8757097899116	45.98281	6.7810626
20.893531705267254	64.84347	8.052545
20.911354131690224	83.85684	9.157338
20.92917706965566	69.08525	8.311754
20.94700051963877	50.170563	7.083118
20.96482448211493	29.441048	5.4259605
20.982648957559622	4.2026277	2.0500312
21.00047394644843	2.32893	1.5260832
21.01829944925707	2.3266203	1.5253263
21.036125466461375	2.2706904	1.506881
21.053951998537297	2.2431827	1.4977258
21.071779045960906	2.2691221	1.5063605
21.089606609208378	2.253007	1.501002
21.10743468875603	2.2156832	1.4885172
21.12526328508028	2.2186565	1.4895155
21.143092398657675	2.2472742	1.4990911
21.16092202996488	2.2520542	1.5006846
21.17875217947867	2.2092593	1.4863577
21.19658284767596	2.1888604	1.4794798
21.21441403503377	2.2017636	1.4838341
21.232245742029225	2.2467864	1.4989284
21.2500779691396	2.2655494	1.5051742
21.26791071684227	2.269294	1.5064176
21.28574398561475	2.231029	1.493663
21.30357777593465	2.2266502	1.4921964
21.321412088279704	2.2026775	1.484142
21.339246923127792	2.1959763	1.4818827
21.357082280956888	2.1662898	1.4718322
21.3749181622451	2.1419437	1.463538
21.392754567470647	2.1326637	1.4603642
21.41059149711187	2.142373	1.4636848
21.42842895164726	2.1557496	1.468247
21.446266931555378	2.1340282	1.4608313
21.464105437314945	2.122842	1.4569976
21.481944469404798	2.101982	1.4498214
21.49978402830388	2.0960782	1.4477838
21.51762411449127	2.1050406	1.4508758
21.53546472844617	2.0984087	1.4485885
21.553305870647876	2.0766802	1.4410691
21.571147541575865	2.0655806	1.4372128
21.58898974170967	2.072994	1.4397895
21.60683247152899	2.074314	1.4402479
21.62467573151363	2.0819721	1.4429041
21.642519522143523	2.0644062	1.4368042
21.660363843898722	2.0580456	1.434589
21.6782086972594	2.0460365	1.4303973
21.696054082705864	2.0646017	1.4368721
21.713900000718535	2.0682507	1.4381413
21.73174645177795	2.0955715	1.447609
21.749593436364794	2.0769775	1.4411722
21.767440954959845	2.0422559	1.4290752
21.785289008044032	2.014166	1.4192132
21.803137596098388	2.0596907	1.4351623
21.820986719604086	2.114105	1.4539962
21.838836379042412	2.1149359	1.4542819
21.85668657489478	2.0568805	1.4341829
21.87453730764273	2.020437	1.4214208
21.892388577767914	2.030945	1.4251122
21.91024038575213	2.0493631	1.4315597
21.928092732077285	2.0392487	1.4280226
21.945945617225426	2.0278568	1.4240284
21.963799041678694	2.0193725	1.4210463
21.981653005919398	31.376926	5.601511
21.999507510429943	78.1847	8.842212
22.01736255569286	73.101555	8.549945
22.035218142190818	4.1745152	2.043163
22.05307427040661	1.9744061	1.4051356
22.07093094082315	2.0004902	1.4143869
22.088788153923474	2.0161355	1.4199069
22.106645910190746	2.0193264	1.42103
22.12450421010827	1.9970493	1.41317
22.142363054159464	1.9923537	1.4115076
22.16022244282787	1.9921429	1.411433
22.178082376597164	2.01485	1.4194541
22.195942855951145	2.0181947	1.4206318
22.213803881373742	2.0339057	1.4261507
22.231665453349002	1.9949584	1.4124299
22.24952757236111	1.9856969	1.4091476
22.26739023889438	1.9600402	1.4000144
22.28525345343323	2.001089	1.4145986
22.30311721646225	2.0167172	1.4201117
22.320981528466113	2.0433965	1.4294742
22.33884638992964	2.0259159	1.4233468
22.356711801337788	2.0088003	1.4173216
22.37457776317561	1.9527237	1.397399
22.392444275928337	1.9073733	1.3810768
22.410311340081282	1.9186305	1.3851464
22.428178956119904	1.963278	1.4011703
22.446047124529805	1.9953642	1.4125736
22.46391584579669	1.9962524	1.4128879
22.481785120406414	1.9323926	1.3901052
22.49965494884496	1.9289678	1.3888729
22.51752533159841	1.9588218	1.3995792
22.53539626915302	2.000673	1.4144515
22.553267761995137	1.9861279	1.4093004
22.571139810611264	1.9779627	1.4064007
22.589012415488025	1.9744663	1.4051571
22.60688557711216	1.9447583	1.3945459
22.624759295970566	1.927302	1.388273
22.642633572550263	1.9426339	1.393784
22.660508407338362	1.950035	1.3964366
22.67838380082217	1.9314706	1.3897736
22.696259753489077	1.8972373	1.3774024
22.714136265826614	1.8919814	1.3754932
22.73201333832246	1.9371393	1.3918115
22.74989097146439	1.9448304	1.3945718
22.76776916574035	1.911136	1.3824384
22.785647921638393	1.9184368	1.3850764
22.803527239646712	1.9227734	1.386641
22.82140712025363	1.922611	1.3865825
22.839287563947593	1.9148895	1.3837953
22.85716857121719	1.9208332	1.3859413
22.875050142551135	1.9118083	1.3826815
22.892932278438277	1.884285	1.3726926
22.910814979367604	1.9153674	1.383968
22.928698245828222	1.9471345	1.3953977
22.946582078309387	1.9462737	1.3950891
22.96446647730047	1.9192214	1.3853596
22.98235144329098	1.9032599	1.3795868
23.000236976770562	1.916011	1.3842005
23.018123078229	1.9163615	1.384327
23.03600974815619	1.9296594	1.3891218
23.053896987042194	1.9509975	1.3967811
23.071784795377173	1.96251	1.4008962
23.08967317365145	1.9666218	1.402363
23.10756212235546	1.9583584	1.3994136
23.125451641979787	1.9398583	1.3927879
23.143341733015134	1.9452062	1.3947065
23.161232395952357	1.9579724	1.3992757
23.179123631282426	1.9687017	1.4031043
23.197015439496468	1.9628683	1.401024
23.214907821085717	1.9734817	1.4048066
23.23280077654157	1.9944125	1.4122367
23.250694306355538	1.9782531	1.4065039
23.268588411019277	1.9404743	1.3930091
23.28648309102458	1.9074978	1.3811219
23.304378346863356	1.8902972	1.3748808
23.322274179027676	1.8756717	1.3695517
23.340170588009723	1.8623878	1.3646933
23.358067574301852	1.8680581	1.3667692
23.37596513839651	1.9109927	1.3823866
23.39386328078629	1.9424198	1.3937072
23.411762001963947	1.964975	1.4017757
23.429661302422353	1.953827	1.3977937
23.4475611826545	1.982502	1.4080135
23.46546164315356	1.9926931	1.4116278
23.48336268441279	1.9968276	1.4130915
23.501264306925638	1.9969305	1.4131279
23.51916651118564	1.9658756	1.4020969
23.537069297686497	1.9695754	1.4034157
23.554972666922037	1.9733944	1.4047756
23.57287661938623	1.9351025	1.3910795
23.59078115557318	1.8978552	1.3776267
23.608686275977128	1.8877114	1.3739401
23.62659198109246	1.9063544	1.380708
23.6444982714137	1.9252532	1.387535
23.66240514743549	1.9006487	1.3786402
23.68031260965263	1.9181429	1.3849703
23.698220658560068	1.9323757	1.3900992
23.716129294652845	1.9226931	1.386612
23.7340385184262	1.9072728	1.3810405
23.75194833037546	1.9243706	1.3872169
23.769858730996123	1.9365231	1.3915901
23.78776972078382	1.9303052	1.3893542
23.80568130023431	1.9395896	1.3926915
23.823593469843495	1.9042292	1.3799381
23.841506230107424	1.8897587	1.3746849
23.859419581522275	1.8908184	1.3750703
23.87733352458438	1.8517232	1.3607804
23.89524805979019	1.8511493	1.3605695
23.913163187636318	1.8566003	1.3625712
23.931078908619508	1.9151704	1.3838968
23.948995223236633	1.9675354	1.4026886
23.966912131984735	2.0119674	1.4184383
23.98482963536096	2.0713527	1.4392195
24.002747733862616	2.0936162	1.4469334
24.020666427987155	2.0911803	1.4460914
24.038585718232156	2.1074889	1.4517193
24.056505605095353	2.1060636	1.4512283
24.074426089074617	2.1225724	1.4569051
24.092347170667946	2.097424	1.4482486
24.110268850373515	2.0889504	1.4453201
24.128191128689586	2.0985212	1.4486274
24.146114006114626	2.0882678	1.445084
24.164037483147187	2.1048439	1.450808
24.181961560286005	2.0595706	1.4351203
24.199886238029926	2.045417	1.4301808
24.21781151687797	2.0756745	1.4407202
24.235737397329274	2.094188	1.4471309
24.253663879883135	2.097188	1.4481671
24.271590965038975	2.0353258	1.4266485
24.289518653296376	2.0335336	1.4260201
24.30744694515505	2.0993109	1.4488999
24.32537584111486	2.090371	1.4458115
24.34330534167581	2.0658226	1.437297
24.361235447338046	2.0280938	1.4241116
24.379166158601876	1.9968337	1.4130937
24.39709747596772	1.953714	1.3977532
24.41502939993615	1.977374	1.4061913
24.432961931007917	2.0146787	1.4193938
24.450895069683856	2.0061183	1.416375
24.468828816465	2.0139015	1.41912
24.4867631718525	2.0174084	1.420355
24.504698136347656	2.0133207	1.4189153
24.52263371045192	1.9578995	1.3992496
24.540569894666874	1.9490871	1.3960971
24.558506689494266	1.9504427	1.3965825
24.57644409543597	1.9643382	1.4015485
24.594382112994012	1.9710763	1.4039502
24.61232074267057	1.9935844	1.4119434
24.630259984967953	1.9683073	1.4029638
24.64819984038863	1.9479734	1.3956982
24.66614030943522	1.9827611	1.4081055
24.684081392610462	2.0261626	1.4234334
24.702023090417274	2.0520566	1.4325001
24.7199654033587	2.0613089	1.4357259
24.737908331937927	2.0378115	1.4275193
24.755851876658305	2.012894	1.418765
24.773796038023324	2.047432	1.4308851
24.79174081653661	2.0929837	1.4467148
24.809686212701962	2.0904162	1.4458271
24.827632227023294	2.0478232	1.4310217
24.8455788600047	2.052792	1.4327568
24.8635261121504	2.0858283	1.4442397
24.88147398396475	2.1240776	1.4574215
24.899422475952303	2.1338668	1.4607761
24.917371588617698	2.1278896	1.4587288
24.935321322465768	2.1868913	1.4788141
24.953271678001478	2.2824366	1.5107735
24.97122265572994	2.4398785	1.562011
24.989174256156414	2.7422037	1.6559601
25.00712647978632	3.247847	1.8021784
25.02507932712521	3.8562922	1.9637444
25.043032798678798	4.3615336	2.0884285
25.060986894952933	4.915595	2.2171142
25.078941616453637	5.6125197	2.3690758
25.096896963687055	6.590097	2.5671184
25.114852937159508	7.8215775	2.7967083
25.132809537377444	8.317101	2.8839383
25.150766764847468	8.3939705	2.897235
25.168724620076347	7.867619	2.8049276
25.186683103570985	6.832548	2.6139143
25.204642215838426	5.6572356	2.3784945
25.222601957385894	4.237302	2.0584707
25.24056232872074	3.2217853	1.7949332
25.25852333035048	2.6354754	1.6234148
25.276484962782778	2.2652647	1.5050796
25.294447226525435	2.1327176	1.4603827
25.312410122086423	2.0529225	1.4328023
25.330373649973843	2.005169	1.4160398
25.348337810695988	1.9273264	1.3882818
25.366302604761245	1.92332	1.3868382
25.384268032678207	1.8981942	1.3777497
25.40223409495558	1.9483843	1.3958454
25.420200792102257	1.9040493	1.3798729
25.438168124627246	1.9111944	1.3824595
25.45613609303974	1.8949257	1.376563
25.474104697849057	1.8991941	1.3781126
25.492073939564698	1.879216	1.370845
25.510043818696285	1.8792288	1.3708497
25.528014335753614	1.8873212	1.3737981
25.54598549124664	1.9087583	1.3815782
25.56395728568544	1.9560727	1.3985966
25.58192971958028	1.9483202	1.3958224
25.59990279344156	1.9186476	1.3851526
25.617876507779833	1.8910766	1.3751642
25.635850863105826	1.9191582	1.3853369
25.653825859930386	1.9310539	1.3896236
25.671801498764548	1.9138694	1.3834267
25.68977778011949	1.8492625	1.3598759
25.707754704506524	1.8834653	1.372394
25.725732272437153	1.8950984	1.3766258
25.743710484423012	1.8823811	1.3719989
25.761689340975888	1.8528589	1.3611976
25.77966884260774	1.8171176	1.348005
25.797648989830662	1.8466156	1.3589023
25.815629783156922	1.8489269	1.3597525
25.83361122309895	1.8227897	1.3501073
25.85159331016929	1.832327	1.3536347
25.869576044880695	1.8398553	1.3564126
25.887559427746034	1.9091983	1.3817375
25.90554345927836	1.9134934	1.3832908
25.92352813999086	1.9109136	1.382358
25.94151347039689	1.8953396	1.3767134
25.959499451009965	1.8572147	1.3627967
25.97748608234374	1.845576	1.3585198
25.995473364912062	1.8440131	1.3579445
26.013461299228904	1.8158385	1.3475305
26.03144988580839	1.8295039	1.3525915
26.04943912516483	1.8201897	1.3491441
26.067429017812675	1.87186	1.3681594
26.085419564266537	1.8938853	1.376185
26.103410765041186	1.8354868	1.3548014
26.12140262065155	1.7787154	1.3336849
26.139395131612723	1.7930883	1.3390625
26.157388298439948	1.812021	1.3461133
26.17538212164861	1.8153381	1.3473449
26.193376601754295	1.799269	1.3413683
26.211371739272714	1.7973378	1.3406483
26.229367534719746	1.8260854	1.3513273
26.247363988611433	1.8315138	1.3533343
26.26536110146397	1.8442227	1.3580216
26.283358873793727	1.8097491	1.3452692
26.301357306117204	1.8076824	1.3445008
26.319356398951104	1.8085986	1.3448415
26.33735615281224	1.8124499	1.3462726
26.35535656821762	1.8161806	1.3476574
26.373357645684404	1.8188823	1.3486595
26.39135938572991	1.8318115	1.3534443
26.409361788871614	1.8586566	1.3633256
26.427364855627165	1.8415616	1.3570415
26.445368586514352	1.8382574	1.3558235
26.46337298205115	1.8494867	1.3599583
26.48137804275568	1.8658059	1.3659451
26.499383769146217	1.8766497	1.3699087
26.517390161741215	1.8926241	1.3757268
26.53539722105928	1.8549157	1.3619529
26.553404947619182	1.8075358	1.3444463
26.571413341939856	1.832676	1.3537637
26.589422404540397	1.8407418	1.3567394
26.60743213594006	1.8408077	1.3567637
26.62544253665827	1.8201059	1.349113
26.64345360721459	1.8269492	1.3516469
26.66146534812879	1.8601903	1.3638879
26.679477759920758	1.841016	1.3568405
26.69749084311057	1.8274573	1.3518348
26.71550459821847	1.8046846	1.3433855
26.733519025764842	1.8178178	1.3482647
26.751534126270258	1.7989968	1.3412669
26.769549900255434	1.7767962	1.3329653
26.787566348241267	1.8288472	1.3523488
26.80558347074881	1.8726681	1.3684547
26.823601268299267	1.8570217	1.3627259
26.841619741414036	1.8384513	1.355895
26.85963889061465	1.8175931	1.3481814
26.877658716422832	1.7967793	1.3404399
26.89567921936045	1.8250289	1.3509363
26.913700399949544	1.8271344	1.3517153
26.93172225871233	1.8163491	1.34772
26.949744796171174	1.8130801	1.3465066
26.967768012848605	1.8288788	1.3523605
26.98579190926733	1.840668	1.3567122
27.003816485950225	1.8441572	1.3579975
27.021841743420318	1.8427662	1.3574853
27.039867682200814	1.8527747	1.3611667
27.057894302815072	1.821617	1.3496729
27.07592160578664	1.8040946	1.3431659
27.0939495916392	1.7935057	1.3392183
27.111978260896635	1.8175615	1.3481697
27.13000761408296	1.824795	1.3508497
27.148037651722397	1.7929804	1.3390222
27.166068374339304	1.76793	1.3296353
27.184099782458215	1.8132865	1.3465832
27.20213187660384	1.8814422	1.3716568
27.22016465730105	1.884188	1.3726573
27.23819812507487	1.8758311	1.3696098
27.256232280450533	1.8859264	1.3732903
27.274267123953383	1.8624666	1.3647221
27.292302656108987	1.8425351	1.3574002
27.31033887744306	1.7901237	1.337955
27.32837578848146	1.7720279	1.3311753
27.34641338975026	1.782865	1.3352396
27.364451681775673	1.764928	1.3285059
27.382490665084074	1.7418028	1.3197738
27.400530340202046	1.7388902	1.3186698
27.41857070765629	1.7624245	1.3275634
27.436611767973726	1.7838026	1.3355907
27.454653521681404	1.844858	1.3582555
27.472695969306564	1.8640101	1.3652875
27.490739111376627	1.8584478	1.363249
27.508782948419153	1.8304669	1.3529475
27.526827480961902	1.8144476	1.3470143
27.54487270953279	1.8176746	1.3482116
27.562918634659898	1.8455848	1.358523
27.580965256871508	1.8309431	1.3531234
27.599012576696026	1.8593471	1.3635788
27.617060594662068	1.9077988	1.3812308
27.63510931129842	1.9094532	1.3818296
27.65315872713401	1.8772343	1.3701221
27.67120884269797	1.8736073	1.3687978
27.68925965851958	1.8334398	1.3540457
27.707311175128307	1.8126168	1.3463346
27.725363393053787	1.8191061	1.3487424
27.74341631282583	1.840449	1.3566315
27.7614699349744	1.8813668	1.3716292
27.77952426002968	2.062632	1.4361867
27.797579288521973	2.1298082	1.4593862
27.815635020981784	2.5086105	1.5838593
27.83369145793979	2.5564444	1.5988885
27.85174859992682	2.46534	1.5701401
27.869806447473923	2.367975	1.5388227
27.887865001112267	2.057461	1.4343853
27.905924261373233	1.9315283	1.3897943
27.92398422878836	1.9213068	1.3861121
27.94204490388936	1.8828404	1.3721663
27.96010628720813	1.8213645	1.3495793
27.978168379276728	1.8152888	1.3473265
27.9962311806274	1.8695136	1.3673016
28.014294691792568	1.8884891	1.3742231
28.0323589133048	1.857661	1.3629603
28.050423845696887	1.8419421	1.3571817
28.068489489501758	1.870878	1.3678005
28.086555845252523	1.91509	1.3838677
28.104622913482487	1.9440693	1.3942988
28.122690694725115	1.9407798	1.3931187
28.14075918951405	1.9109228	1.3823613
28.15882839838312	1.8770493	1.3700545
28.176898321866304	1.8417039	1.3570939
28.1949689604978	1.8672955	1.3664902
28.213040314811945	1.9071459	1.3809946
28.23111238534327	1.9619199	1.4006855
28.249185172626493	1.9253933	1.3875854
28.267258677196473	1.9110897	1.3824216
28.285332899588294	1.915142	1.3838866
28.303407840337172	1.9575517	1.3991253
28.321483499978545	2.019704	1.421163
28.33955987904799	2.0454316	1.4301859
28.357636978081285	2.0089526	1.4173752
28.37571479761439	1.993743	1.4119996
28.393793338183425	2.003209	1.4153477
28.41187260032469	1.9636478	1.4013022
28.429952584574686	1.9158055	1.3841262
28.448033291470065	1.8942708	1.3763251
28.46611472154769	1.9517175	1.3970388
28.484196875344566	1.982899	1.4081545
28.502279753397914	2.010286	1.4178456
28.52036335624511	1.9881849	1.4100301
28.538447684423716	2.0213807	1.4217527
28.556532738471482	2.0595622	1.4351175
28.574618518926325	2.0727057	1.4396895
28.59270502632635	2.0212407	1.4217035
28.61079226120985	2.0508513	1.4320794
28.628880224115274	1.9806583	1.4073586
28.646968915581287	1.9269323	1.3881398
28.66505833614671	1.9293406	1.3890071
28.68314848635055	2.043814	1.4296203
28.701239366732004	2.1374857	1.4620143
28.71933097783044	2.1146426	1.4541811
28.737423320185403	2.0628684	1.4362689
28.75551639433665	2.0694225	1.4385487
28.773610200824074	2.0855286	1.4441359
28.791704740187793	2.098589	1.4486507
28.80980001296809	2.1026635	1.4500564
28.827896019705413	2.1247387	1.4576484
28.845992760940433	2.188863	1.4794806
28.86409023721397	2.1659455	1.4717152
28.88218844906704	2.1828425	1.4774445
28.900287397040845	2.2509618	1.5003206
28.918387081676755	2.3016753	1.5171273
28.936487503516343	2.2651696	1.505048
28.954588663101365	2.2788823	1.5095967
28.97269056097374	2.275344	1.5084243
28.990793197675597	2.332079	1.5271146
29.00889657374923	2.3552182	1.534672
29.027000689737125	2.4102361	1.5524936
29.04510554618196	2.443244	1.5630879
29.06321114362659	2.4286156	1.5584016
29.08131748261405	2.4216883	1.5561775
29.099424563687567	2.4428804	1.5629717
29.11753238739057	2.4762547	1.573612
29.13564095426663	2.5314054	1.5910391
29.15375026485954	2.6256056	1.620372
29.171860319713275	2.6975873	1.6424333
29.18997111937199	2.7161455	1.6480733
29.20808266438002	2.7024903	1.6439253
29.226194955281898	2.8062904	1.6751986
29.244307992622335	2.8986602	1.7025452
29.26242177694624	2.887613	1.6992978
29.2805363087987	2.9293754	1.7115418
29.29865158872498	2.9590163	1.7201792
29.316767617270557	2.981191	1.7266126
29.334884394981064	3.0124824	1.7356504
29.353001922402367	3.0315995	1.741149
29.37112020008047	3.035494	1.7422669
29.389239228561596	3.1484077	1.7743753
29.407359008392152	3.3828576	1.8392546
29.42547954011872	3.7168598	1.9279159
29.44360082428809	4.366514	2.0896206
29.46172286144722	5.378364	2.31913
29.479845652143283	6.899154	2.626624
29.497969196923606	9.012013	3.0020015
29.516093496335728	11.682167	3.4179184
29.5342185509274	14.540773	3.8132367
29.55234436124651	17.026966	4.1263742
29.570470927841175	18.539143	4.3057103
29.588598251259686	18.110859	4.2556853
29.60672633205055	16.564539	4.069956
29.624855170762405	14.304937	3.7821867
29.642984767944146	11.633331	3.410767
29.66111512414481	8.977188	2.9961956
29.67924623991366	6.66473	2.5816138
29.697378115800138	5.0482736	2.2468364
29.71551075235387	4.0877876	2.0218277
29.733644150124675	3.6756027	1.9171861
29.751778309662576	3.4657428	1.8616506
29.769913231517766	3.444746	1.8560027
29.78804891624066	3.4890053	1.867888
29.806185364381818	3.412457	1.8472837
29.82432257649206	3.3357198	1.8263953
29.842460553122333	3.3374088	1.8268576
29.86059929482382	3.30137	1.8169672
29.878738802147872	3.278403	1.810636
29.896879075646048	3.2890277	1.8135676
29.915020115870114	3.285934	1.8127146
29.933161923371976	3.322288	1.8227144
29.951304498703777	3.3749108	1.837093
29.969447842417857	3.3899155	1.8411723
29.987591955066733	3.3814268	1.8388656
30.005736837203123	3.3220372	1.8226457
30.023882489379943	3.1907578	1.7862692
30.04202891215028	3.1394563	1.7718511
30.060176106067455	3.1723855	1.7811191
30.078324071684946	3.1951761	1.7875055
30.09647280955646	3.1948168	1.787405
30.114622320235863	3.17149	1.7808677
30.132772604277257	3.1164467	1.765346
30.1509236622349	3.0804002	1.7551069
30.16907549466328	3.0266314	1.7397217
30.18722810211705	3.0682118	1.7516311
30.205381485151097	3.1132152	1.7644305
30.22353564432045	3.1214335	1.7667578
30.241690580180403	3.1463826	1.7738045
30.25984629328638	3.1578677	1.777039
30.278002784194037	3.0413523	1.7439473
30.296160053459246	2.9548488	1.7189673
30.314318101638033	2.9462295	1.7164584
30.332476929286646	2.9817326	1.7267694
30.35063653696153	2.9683828	1.7228996
30.368796925219307	2.9487529	1.7171934
30.386958094616844	2.9262414	1.710626
30.40512004571115	2.9650126	1.7219212
30.423282779059463	2.9780104	1.7256913
30.441446295219233	2.9391243	1.7143874
30.459610594748067	2.8737974	1.6952279
30.47777567820382	2.8215542	1.6797483
30.495941546144504	2.8268745	1.6813312
30.51410819912835	2.7963448	1.6722275
30.532275637713795	2.8488543	1.6878549
30.55044386245946	2.8963785	1.701875
30.56861287392416	2.871436	1.6945312
30.586782672666956	2.8751504	1.6956269
30.604953259247047	2.9059308	1.7046791
30.623124634223885	2.8866422	1.6990122
30.641296798157075	2.8429086	1.6860927
30.659469751606462	2.8452828	1.6867967
30.677643495132074	2.861959	1.6917325
30.695818029294152	2.8280258	1.6816735
30.713993354653116	2.761427	1.6617541
30.73216947176962	2.7266572	1.6512593
30.75034638120448	2.7581797	1.6607769
30.768524083518756	2.8121338	1.6769418
30.786702579273673	2.8217745	1.6798139
30.80488186903069	2.856668	1.690168
30.82306195335144	2.8942676	1.7012547
30.841242832797782	3.1440537	1.773148
30.85942450793176	3.507016	1.8727028
30.877606979315637	3.831254	1.957359
30.895790247511883	4.194422	2.0480287
30.913974313083134	4.6340394	2.1526818
30.932159176592283	4.918298	2.2177236
30.95034483860237	4.9736047	2.230158
30.968531299676698	4.7705503	2.184159
30.98671856037873	4.5061426	2.1227677
31.00490662127215	4.0814543	2.020261
31.023095482920848	3.54463	1.8827188
31.04128514588892	3.0047975	1.7334352
31.059475610740662	2.6972873	1.642342
31.07766687804056	2.6255825	1.6203649
31.09585894835335	2.5905104	1.6095062
31.11405182224393	2.5234983	1.5885522
31.132245500277417	2.4699357	1.571603
31.15043998301914	2.4801142	1.5748378
31.168635271034628	2.4935923	1.5791112
31.18683136488964	2.504319	1.582504
31.20502826515008	2.5026975	1.5819917
31.223225972382135	2.4814498	1.5752618
31.241424487152155	2.433442	1.5599494
31.259623810026692	2.3665457	1.5383581
31.27782394157253	2.4094539	1.5522416
31.296024882356644	2.4565444	1.5673367
31.314226632946237	2.4400153	1.5620549
31.332429193908684	2.4873145	1.5771222
31.350632565811598	2.564026	1.6012577
31.368836749222787	2.532749	1.5914613
31.387041744710295	2.4879582	1.5773263
31.40524755284232	2.5136147	1.5854384
31.423454174187317	2.5256958	1.5892438
31.441661609313922	2.493915	1.5792134
31.459869858791002	2.4596086	1.568314
31.478078923187628	2.411665	1.5529536
31.496288803073064	2.382974	1.5436884
31.514499499016807	2.4089458	1.5520779
31.532711011588546	2.3810506	1.5430653
31.550923341358178	2.3819962	1.5433717
31.56913648889584	2.4297566	1.5587677
31.587350454771844	2.4157195	1.5542585
31.605565239556732	2.3573687	1.5353725
31.62378084382127	2.377727	1.541988
31.641997268136382	2.3406608	1.5299219
31.660214513073274	2.3085628	1.5193955
31.67843257920331	2.3208241	1.5234251
31.6966514670981	2.3705678	1.5396649
31.71487117732944	2.3009145	1.5168766
31.733091710469346	2.270299	1.5067512
31.751313067090052	2.2799559	1.5099523
31.769535247764008	2.312778	1.520782
31.787758253063878	2.2889013	1.5129116
31.805982083562526	2.3015807	1.5170962
31.824206739833024	2.270745	1.5068991
31.84243222244869	2.2801788	1.5100261
31.860658531983013	2.2683268	1.5060965
31.878885669009737	2.2031689	1.4843075
31.897113634102784	2.1023371	1.4499438
31.91534242783632	2.0735457	1.4399811
31.933572050784694	2.2424464	1.49748
31.951802503522508	2.265767	1.5052465
31.970033786624548	2.1725903	1.4739709
31.988265900665834	2.136619	1.4617178
32.006498846221575	2.1633325	1.4708271
32.02473262386724	2.1859682	1.478502
32.04296723417845	2.1816227	1.4770317
32.0612026777311	2.2039816	1.4845814
32.07943895510129	2.1800854	1.4765112
32.097676066865304	2.1206245	1.4562365
32.115914013599685	2.1086996	1.4521362
32.13415279588115	2.1234016	1.4571897
32.152392414286666	2.2019796	1.4839069
32.1706328693934	2.183248	1.4775819
32.18887416177875	2.1275177	1.4586012
32.20711629202032	2.1255739	1.4579349
32.225359260695924	2.1292272	1.4591872
32.243603068383614	2.1646254	1.4712666
32.26184771566166	2.1830165	1.4775035
32.28009320310852	2.1555	1.4681621
32.2983395313029	2.123475	1.4572148
32.31658670082372	2.197148	1.482278
32.33483471225012	2.1929483	1.4808607
32.35308356616143	2.1409917	1.4632128
32.371333263137245	2.113522	1.4537958
32.38958380375734	2.124582	1.4575946
32.407835188601744	2.1855712	1.4783678
32.42608741825067	2.2169917	1.4889566
32.444340493284585	2.1860995	1.4785464
32.46259441428416	2.2085822	1.4861299
32.48084918183028	2.2999945	1.5165733
32.49910479650405	2.2663388	1.5054364
32.51736125888683	2.1519353	1.4669477
32.53561856956014	2.0894902	1.4455069
32.5538767291058	2.0740614	1.4401602
32.572135738105764	2.127059	1.458444
32.59039559714228	2.1662161	1.4718071
32.608656306797776	2.2130053	1.4876174
32.62691786765491	2.177988	1.4758009
32.645180280296586	2.0904489	1.4458385
32.663443545305896	1.9898295	1.4106132
32.68170766326619	1.9776942	1.4063052
32.69997263476099	1.9852468	1.4089879
32.7182384603741	1.9462016	1.3950633
32.7365051406895	1.8971827	1.3773825
32.75477267629144	1.9542629	1.3979496
32.77304106776434	2.0528514	1.4327775
32.79131031569289	2.0684664	1.4382164
32.809580420661966	2.0464242	1.4305328
32.827851383256714	2.0114145	1.4182434
32.84612320406245	1.9674184	1.4026469
32.86439588366476	1.9564785	1.3987417
32.88266942264945	1.9828918	1.4081519
32.9009438216025	2.0027692	1.4151922
32.9192190811102	1.9358057	1.3913324
32.937495201758985	1.9096009	1.381883
32.95577218413556	1.9421886	1.3936243
32.974050028826866	1.982523	1.408021
32.992328736420035	2.0261066	1.4234138
33.010608307502444	2.0853841	1.444086
33.02888874266169	2.0925958	1.4465808
33.047170042485604	2.0558486	1.4338231
33.06545220756225	2.096479	1.4479222
33.083735238479896	2.017373	1.4203426
33.10201913582707	1.8846676	1.372832
33.12030390019248	1.9278684	1.388477
33.138589532165135	2.0815523	1.4427586
33.15687603233419	2.09758	1.4483024
33.17516340128909	2.006302	1.4164399
33.19345163961947	1.9889828	1.410313
33.211740747915215	2.0247207	1.4229268
33.23003072676643	2.0414996	1.4288106
33.248321576763466	1.9729007	1.4045999
33.266613298496885	1.9233439	1.3868468
33.28490589255747	1.9531256	1.3975427
33.30319935953626	2.0438075	1.429618
33.32149370002451	2.1288505	1.459058
33.339788914613706	2.0624247	1.4361144
33.358085003895575	2.0164607	1.4200214
33.376381968462034	1.9774367	1.4062136
33.39467980890529	1.9076061	1.3811611
33.41297852581774	1.9485859	1.3959175
33.43127811979204	2.0975358	1.4482872
33.44957859142105	2.0718527	1.4393932
33.467879941297866	1.9785148	1.4065969
33.486182170015844	1.8547261	1.3618833
33.50448527816853	1.9180272	1.3849286
33.522789266349754	1.9531416	1.3975484
33.541094135153514	1.9194262	1.3854336
33.55939988517411	1.8613901	1.3643277
33.57770651700602	1.9753538	1.4054729
33.59601403124398	1.9676931	1.4027449
33.61432242848296	1.9348298	1.3909816
33.632631709318154	1.9783373	1.4065338
33.650941874344994	2.0082111	1.4171137
33.66925292415916	1.981435	1.4076345
33.68756485935654	2.021234	1.4217011
33.70587768053328	1.9084301	1.3814594
33.724191388285746	1.9305716	1.3894501
33.74250598321054	2.0060532	1.416352
33.760821465904506	1.9559566	1.3985552
33.77913783696474	1.8480219	1.3594197
33.79745509698852	1.9391097	1.3925192
33.815773246573414	1.9135348	1.3833058
33.8340922863172	1.8447958	1.3582326
33.852412216817896	1.9131602	1.3831704
33.87073303867377	2.0424955	1.429159
33.889054752483304	2.082392	1.4430496
33.907377358845245	2.0156317	1.4197295
33.92570085835853	1.9536495	1.3977301
33.94402525162239	1.9347258	1.3909442
33.96235053923627	2.0170612	1.4202328
33.980676721799824	1.9336871	1.3905708
33.999003799912984	1.8373268	1.3554803
34.01733177417592	1.7544817	1.3245685
34.03566064518901	1.773341	1.3316685
34.0539904135529	1.8868662	1.3736324
34.07232107986846	1.9909867	1.4110233
34.090652644736785	1.9545195	1.3980414
34.108985108759235	1.8622482	1.3646421
34.12731847253742	1.9347118	1.3909392
34.14565273667313	2.0075812	1.4168915
34.16398790176847	2.1502292	1.4663659
34.18232396842574	2.2203746	1.4900922
34.20066093724749	2.0778518	1.4414755
34.21899880883651	1.9410799	1.3932264
34.23733758379583	1.940858	1.3931468
34.25567726272874	2.0419466	1.428967
34.27401784623872	2.129077	1.4591357
34.29235933492957	2.0528634	1.4327817
34.31070172940526	1.9350702	1.391068
34.32904503027003	1.8780117	1.3704057
34.347389238128386	2.0234652	1.4224856
34.36573435358502	2.0300853	1.4248106
34.38408037724492	1.9452956	1.3947386
34.402427309713296	1.8645092	1.3654703
34.42077515159559	1.8663816	1.3661557
34.43912390349752	2.0957153	1.4476585
34.45747356602499	2.2270718	1.4923377
34.47582413978423	2.055152	1.4335802
34.49417562538163	1.899207	1.3781172
34.51252802342388	1.8578734	1.3630383
34.53088133451789	1.9173063	1.3846684
34.54923555927084	2.0136325	1.4190252
34.567590698290104	1.9644136	1.4015754
34.58594675218336	1.9450779	1.3946605
34.6043037215585	2.1131084	1.4536535
34.62266160702365	2.0508738	1.4320872
34.641020409187234	1.8618269	1.3644878
34.65938012865785	1.7215147	1.312065
34.677740766044394	1.78707	1.3368133
34.69610232195598	1.9631592	1.4011278
34.714464797002016	2.008547	1.4172322
34.73282819179208	1.9694055	1.4033551
34.751192506936064	2.0179174	1.4205341
34.76955774304408	2.0064294	1.4164848
34.7879239007265	1.9940116	1.4120947
34.80629098059391	1.9737219	1.4048921
34.824658983257194	1.9105316	1.3822198
34.843027909327446	1.9973682	1.4132828
34.86139775941603	1.9713864	1.4040607
34.879768534134534	2.0536146	1.4330438
34.89814023409483	2.0771346	1.4412267
34.91651285990901	1.954469	1.3980232
34.93488641218944	1.8130764	1.3465053
34.95326089154871	1.7879353	1.337137
34.97163629859967	1.9392847	1.392582
34.99001263395542	1.9604614	1.4001647
35.00838989822934	1.9387548	1.3923918
35.02676809203499	1.8875195	1.3738703
35.04514721598624	1.9159802	1.3841894
35.063527270697215	1.8911496	1.3751907
35.081908256782256	1.9296384	1.3891143
35.10029017485597	1.8323982	1.3536611
35.11867302553321	1.6991955	1.3035319
35.137056809429104	1.8078909	1.3445784
35.155441527159006	1.7931607	1.3390895
35.173827179338524	1.7149183	1.3095489
35.19221376658354	1.9396791	1.3927237
35.21060128951017	2.1663785	1.4718622
35.2289897487348	2.233082	1.4943501
35.24737914487405	2.150651	1.4665098
35.26576947854479	2.1699176	1.4730641
35.28416075036418	2.0540202	1.4331853
35.30255296094958	2.1030803	1.4502001
35.32094611091867	2.1748378	1.4747331
35.33934020088932	2.077662	1.4414097
35.35773523147969	1.9139476	1.3834549
35.3761312033082	1.7978692	1.3408464
35.394528116993506	1.7488325	1.3224343
35.41292597315452	1.8915671	1.3753425
35.431324772410434	2.0111547	1.4181519
35.449724515380666	1.8306262	1.3530064
35.46812520268491	1.9534079	1.3976437
35.486526834943106	1.9854007	1.4090425
35.504929412775454	1.7462492	1.3214573
35.52333293680242	2.1940892	1.4812459
35.54173740764471	2.7738419	1.6654855
35.560142825923286	2.6851783	1.6386514
35.5785491922594	1.6590408	1.2880375
35.59695650727454	0.8957799	0.9464565
35.61536477159042	1.2298433	1.108983
