0.008763373481513119	0.0	0.0
0.026290120649546365	0.17179282	0.414479
0.043816868432600686	0.25175577	0.5017527
0.06134361724069026	0.18205996	0.42668486
0.07887036748382949	0.116217546	0.34090695
0.0963971195720331	0.0036183195	0.060152467
0.11392387391531617	0.05934485	0.24360798
0.1314506309236943	0.12905034	0.35923576
0.1489773910071836	0.15421726	0.39270505
0.16650415457580078	0.15336882	0.39162332
0.18403092203956356	0.096918754	0.31131777
0.20155769380849	0.10281467	0.32064727
0.2190844702925996	0.136265	0.3691409
0.2366112519019124	0.17870921	0.42274013
0.2541380390464497	0.14165932	0.37637657
0.27166483213623416	0.10480524	0.32373637
0.28919163158128947	0.09664836	0.3108832
0.3067184377916406	0.08855786	0.29758674
0.324245251177314	0.16992362	0.41221792
0.34177207214833777	0.16637465	0.4078905
0.3592989011147415	0.19195619	0.43812805
0.37682573848655654	0.16239256	0.4029796
0.39435258467381573	0.14750452	0.38406318
0.41187944008655414	0.16559671	0.40693575
0.42940630513480854	0.15077516	0.38829777
0.446933180228618	0.13389839	0.3659213
0.4644600657780234	0.08555726	0.29250172
0.48198696219306775	0.088067934	0.2967624
0.49951386988379676	0.13248648	0.3639869
0.5170407892602581	0.15606955	0.3950564
0.5345677207325025	0.1610207	0.40127385
0.5520946647105822	0.1441477	0.37966788
0.5696216216045534	0.14500304	0.38079265
0.5871485918244737	0.16939054	0.41157082
0.6046755757804043	0.21277975	0.46128055
0.6222025738824094	0.23336926	0.48308307
0.6397295865405557	0.22363219	0.47289765
0.6572566141649129	0.15831013	0.39788204
0.6747836571655547	0.13021179	0.3608487
0.6923107159525568	0.11665996	0.3415552
0.7098377909359992	0.14333859	0.37860084
0.7273648825259653	0.17724536	0.4210052
0.7448919911325411	0.1581953	0.39773774
0.762419117165817	0.1397333	0.3738092
0.7799462610358868	0.14502631	0.3808232
0.7974734231528482	0.15884554	0.39855433
0.8150006039268024	0.18088745	0.42530864
0.8325278037678551	0.16851799	0.41050944
0.8500550230861152	0.19718769	0.4440582
0.8675822622916969	0.19226934	0.43848526
0.8851095217947171	0.21322294	0.4617607
0.9026368020052984	0.23105754	0.48068446
0.9201641033335665	0.20715858	0.45514676
0.9376914261896523	0.21076182	0.45908803
0.9552187709836915	0.2358398	0.4856334
0.9727461381258234	0.23301996	0.48272142
0.990273528026193	0.22629718	0.47570702
1.0078009410949496	0.19316003	0.43949974
1.0253283777422473	0.21578632	0.46452805
1.0428558383782454	0.24143374	0.49135908
1.0603833234131086	0.24522431	0.4952013
1.0779108332570058	0.29350117	0.54175746
1.0954383683201119	0.27714667	0.52644724
1.112965929012607	0.34966436	0.59132427
1.1304935157446763	0.46630535	0.68286556
1.1480211289265108	0.5210173	0.7218153
1.1655487689683062	1.4570783	1.207095
1.1830764362802655	1.7282892	1.3146441
1.200604131272596	2.1027873	1.450099
1.2181318543555117	2.3541641	1.5343286
1.235659605939232	2.3586936	1.5358039
1.253187386433982	3.9855475	1.9963837
1.270715196249994	6.3249564	2.5149467
1.2882430357975057	11.672255	3.4164681
1.3057709054867608	16.518923	4.0643477
1.3232988057280106	22.213139	4.713082
1.3408267369315112	27.538416	5.247706
1.358354699507526	31.31774	5.5962253
1.3758826938663256	35.414944	5.9510455
1.3934107204181858	37.619797	6.1334977
1.410938779573391	37.87327	6.154126
1.4284668717422309	38.56306	6.209916
1.4459949973350033	37.945507	6.159992
1.4635231567620117	37.55727	6.1283984
1.4810513504335687	36.775696	6.0642967
1.4985795787599925	36.042393	6.0035315
1.5161078421516088	35.90428	5.992018
1.5336361410187505	35.146275	5.928429
1.5511644757717598	35.030075	5.918621
1.5686928468209842	35.695316	5.974556
1.58622125457678	36.26512	6.022053
1.6037496994495108	37.269142	6.104846
1.621278181849548	37.15837	6.0957665
1.6388067021872719	37.43287	6.118241
1.6563352608730693	36.997257	6.082537
1.673863858317336	36.14391	6.0119805
1.6913924949304753	35.565273	5.9636626
1.7089211711228998	34.653446	5.886718
1.7264498873050296	34.07443	5.837331
1.7439786438872935	33.419716	5.7809787
1.7615074412801288	32.049576	5.6612344
1.779036279893981	31.139486	5.5802765
1.796565160139305	30.205442	5.495948
1.814094082426564	30.1632	5.4921036
1.8316230471662298	29.71605	5.451243
1.849152054768784	28.855951	5.3717737
1.8666811056447168	28.092157	5.3002033
1.8842102002045273	27.18628	5.2140465
1.901739338858724	26.546232	5.1523037
1.9192685220178245	25.742691	5.0737257
1.9367977500923557	25.182468	5.0182137
1.9543270234928547	24.646423	4.9645166
1.971856342629867	24.060852	4.905186
1.9893857079139496	23.452124	4.842739
2.006915119755667	23.010796	4.796957
2.0244445785655945	22.504568	4.743898
2.0419740847543175	22.308825	4.723222
2.0595036387324317	22.050058	4.695749
2.0770332409105414	21.533857	4.6404586
2.094562891699263	20.92259	4.574122
2.1120925915092217	20.32293	4.508096
2.129622340751053	19.867887	4.4573407
2.1471521398354043	187.98712	13.710839
2.1646819891729323	444.211	21.076313
2.182211889174303	440.39844	20.985672
2.1997418402501974	452.7863	21.278776
2.2172718428113023	432.80557	20.80398
2.234801897268317	320.61612	17.905756
2.2523320040319548	16.959074	4.1181397
2.269862163512935	16.651247	4.080594
2.287392376121992	16.521341	4.0646453
2.304922642269869	16.314058	4.0390663
2.322452962367322	16.083473	4.010421
2.3399833368251164	15.729943	3.9660993
2.357513766054032	15.408291	3.9253397
2.3750442504648586	15.034053	3.877377
2.3925747904683963	14.6882715	3.832528
2.410105386475459	14.603556	3.8214598
2.4276360388968707	14.377674	3.7917902
2.445166748143469	14.26086	3.7763555
2.4626975146261025	14.079258	3.7522337
2.4802283387556323	13.679533	3.6985853
2.4977592209429305	13.424212	3.6639068
2.5152901615988825	12.96925	3.6012845
2.5328211611343865	12.78916	3.5761936
2.5503522199603523	12.778115	3.5746489
2.5678833384877024	12.687264	3.5619187
2.5854145171273712	12.598069	3.5493758
2.6029457562903064	12.273879	3.5034096
2.620477056387469	12.077229	3.4752307
2.6380084178298326	11.866913	3.4448385
2.655539841028383	11.624156	3.4094217
2.673071326394119	11.336634	3.3669918
2.6906028743380523	11.246485	3.3535779
2.708134485271211	11.115039	3.3339224
2.7256661596046325	10.893535	3.3005354
2.743197897749369	10.675214	3.2672946
2.760729700116486	10.529451	3.2449117
2.778261567117063	10.471882	3.2360287
2.795793499162193	10.316776	3.211974
2.8133254966629817	10.106006	3.1789944
2.830857560030551	9.875823	3.1425822
2.8483896896760337	9.779617	3.127238
2.865921886010578	9.647314	3.1060126
2.883454149445347	9.480575	3.079054
2.9009864803915177	9.306474	3.0506513
2.91851887926028	9.233029	3.03859
2.9360513464628384	9.205306	3.0340247
2.953583882410413	9.0675535	3.0112379
2.9711164875142373	8.911591	2.9852288
2.9886491621855606	8.753485	2.958629
3.0061819068356455	8.612065	2.934632
3.023714721875769	8.58757	2.9304557
3.041247607717225	8.582811	2.9296436
3.0587805647713213	8.482557	2.912483
3.0763135934493806	8.289899	2.8792183
3.0938466941627407	8.005908	2.8294713
3.1113798673227544	7.8226075	2.7968924
3.1289131133407904	7.84004	2.800007
3.1464464326282315	7.9134064	2.8130777
3.1639798255964786	7.926401	2.8153865
3.1815132926569443	7.742488	2.7825327
3.1990468342210603	7.5985045	2.7565384
3.216580450700272	7.4707084	2.7332597
3.2341141425060416	7.4407706	2.7277775
3.251647910049847	7.380396	2.7166884
3.2691817537431813	7.3759737	2.7158744
3.286715673997555	7.2421217	2.691119
3.3042496712244938	7.252849	2.6931114
3.32178374583554	7.20221	2.6836934
3.339317898242251	7.1581397	2.67547
3.3568521288562034	6.9913354	2.6441133
3.3743864380889876	6.843117	2.6159353
3.3919208263522127	6.799341	2.6075547
3.4094552940575023	6.736086	2.595397
3.4269898416164972	6.6532917	2.5793974
3.444524469440858	6.5777836	2.564719
3.4620591779422587	6.550179	2.5593317
3.479593967532391	6.463857	2.5424116
3.4971288386229658	6.3883367	2.527516
3.5146637916257086	6.402335	2.5302837
3.5321988269523628	6.424645	2.5346882
3.5497339450146903	6.365105	2.522916
3.5672691462244708	6.2413363	2.4982667
3.5848044309934988	6.164255	2.482792
3.60233979973359	6.141684	2.4782422
3.619875252856575	6.219955	2.4939837
3.6374107907743034	6.399131	2.5296504
3.6549464138986427	6.541654	2.5576658
3.6724821226414788	6.635365	2.5759203
3.690017917414714	6.670308	2.582694
3.7075537986302702	6.550211	2.559338
3.7250897667000857	6.4294977	2.5356455
3.7426258220361235	6.3754325	2.524962
3.7601619650503553	6.762553	2.600491
3.777698196154779	7.40594	2.7213857
3.7952345157614067	8.565803	2.9267392
3.8127709242822716	9.314668	3.051994
3.830307422129425	11.331927	3.3662927
3.847844009714936	30.147446	5.490669
3.8653806874508954	97.68981	9.883816
3.882917455749409	97.06967	9.852394
3.900454315022606	97.00865	9.849297
3.917991265682631	41.574615	6.447838
3.9355283081416506	11.125626	3.3355098
3.9530654428118495	8.831637	2.971807
3.970602670105433	7.5445557	2.7467356
3.9881399904346244	6.5559916	2.560467
4.005677404211669	6.478591	2.5453076
4.023214911848827	6.4610186	2.5418534
4.0407525137583855	6.4758444	2.544768
4.058290210352644	6.6107564	2.571139
4.075828002043927	6.550571	2.5594084
4.0933658892445814	6.5336924	2.5561087
4.110903872366966	6.463062	2.5422552
4.128441951823468	6.4035697	2.5305276
4.145980128026488	6.365851	2.523064
4.163518401388452	6.3276944	2.515491
4.181056772321807	6.280118	2.5060163
4.1985952412390155	6.2112536	2.4922388
4.216133808552567	6.1974397	2.4894657
4.233672474674966	6.1886644	2.4877026
4.251211240018741	6.4559684	2.5408597
4.268750104996445	6.702177	2.5888562
4.286289070020643	7.6631446	2.7682385
4.303828135503928	9.286418	3.0473626
4.3213673018589125	29.52951	5.4341063
4.3389065694982305	90.75048	9.526304
4.356445938834537	166.04268	12.885755
4.3739854102805085	171.6712	13.102336
4.391524984248844	172.41548	13.130708
4.409064661152262	136.51733	11.684063
4.426604441403504	96.79193	9.838289
4.444144325415337	75.79925	8.706276
4.461684313600543	21.733925	4.661966
4.47922440637193	21.985525	4.6888723
4.496764604142329	20.370447	4.5133634
4.5143049073245916	18.62671	4.3158674
4.531845316331589	16.505056	4.0626416
4.5493858315762195	13.651279	3.694764
4.566926453471405	11.235245	3.3519018
4.584467182430081	9.3430605	3.056642
4.602008018865218	8.211498	2.8655713
4.619548963189798	7.527628	2.7436523
4.637090015816834	7.054545	2.6560392
4.654631177159353	6.8066278	2.6089516
4.672172447630417	6.5480504	2.5589159
4.689713827643102	6.3806334	2.5259914
4.7072553176105085	6.104541	2.470737
4.724796917945764	5.9816775	2.445747
4.742338629062015	5.8385906	2.4163175
4.759880451372434	5.7508693	2.398097
4.777422385290215	5.7097497	2.3895082
4.794964431228581	5.7488923	2.3976848
4.812506589600768	5.720596	2.3917768
4.830048860820047	5.701659	2.3878148
4.847591245299709	5.677242	2.3826964
4.8651337434530655	5.664072	2.3799312
4.882676355693457	5.634564	2.3737237
4.900219082434242	5.565935	2.3592234
4.917761924088813	5.497096	2.3445888
4.935304881070575	5.4991794	2.345033
4.952847953792969	5.492534	2.3436155
4.970391142669449	5.433675	2.3310244
4.9879344481135055	5.3655543	2.3163667
5.005477870538642	5.3560414	2.3143122
5.023021410358394	5.4810934	2.3411734
5.040565067986324	5.5266957	2.3508925
5.05810884383601	5.5671115	2.3594728
5.075652738321066	5.5458884	2.354971
5.09319675185512	5.4166846	2.327377
5.110740884851836	5.385506	2.3206694
5.128285137724894	5.321753	2.3068924
5.145829510888007	5.3819737	2.3199081
5.163374004754908	5.36965	2.3172505
5.1809186197393595	5.3009553	2.3023803
5.198463356255145	5.344504	2.3118184
5.216008214716077	5.396739	2.3230882
5.233553195535998	5.4093575	2.3258026
5.251098299128764	5.395707	2.3228662
5.268643525908272	5.3628464	2.315782
5.286188876288432	5.3344326	2.309639
5.3037343506831895	5.276116	2.2969797
5.32127994950651	5.151714	2.2697387
5.3388256731723915	5.0932546	2.256824
5.356371522094851	5.145666	2.2684062
5.373917496687938	5.175246	2.2749166
5.391463597365729	5.228182	2.2865217
5.40900982454232	5.181521	2.2762954
5.426556178631843	5.2321386	2.287387
5.444102660048449	5.2003403	2.2804255
5.4616492692063225	5.18201	2.276403
5.479196006519669	5.186062	2.2772927
5.496742872402727	5.1714005	2.2740715
5.514289867269756	5.1996655	2.2802775
5.531836991535049	5.2097917	2.2824967
5.549384245612924	5.180756	2.2761273
5.566931629917724	5.131347	2.2652478
5.584479144863822	5.085441	2.2550921
5.6020267908656205	5.076904	2.2531986
5.619574568337545	5.113819	2.2613754
5.637122477694054	5.1161895	2.2618995
5.654670519349629	5.156173	2.270721
5.672218693718784	5.1565146	2.270796
5.689767001216059	5.159071	2.2713587
5.707315442256021	5.1456428	2.268401
5.724864017253266	5.0460744	2.246347
5.7424127266224225	5.061834	2.249852
5.75996157077814	5.0900216	2.2561076
5.777510550135105	5.2072763	2.2819457
5.795059665108022	5.2895546	2.2999032
5.812608916111639	5.293757	2.3008165
5.830158303560715	5.3135366	2.305111
5.847707827870055	5.2450557	2.2902086
5.86525748945448	5.2988915	2.301932
5.8828072887288485	5.430237	2.3302867
5.900357226108044	5.5490384	2.3556397
5.917907302006979	5.597575	2.3659196
5.9354575168406	6.1017942	2.470181
5.9530078710238765	6.6319656	2.5752604
5.970558364971812	7.2505803	2.6926901
5.988108999099438	7.6888905	2.7728848
6.005659773821818	8.297821	2.8805938
6.023210689554039	8.089907	2.8442762
6.040761746711227	8.480335	2.9121015
6.058312945708531	7.825167	2.79735
6.075864286961132	7.2390184	2.6905425
6.093415770884244	6.552658	2.5598161
6.1109673978931065	6.004061	2.4503186
6.128519168402993	5.53307	2.352248
6.146071082829204	5.4984746	2.3448827
6.163623141587075	5.4184084	2.3277476
6.181175345091969	5.3290586	2.3084755
6.198727693759281	5.21766	2.2842197
6.216280188004435	5.192584	2.2787242
6.233832828242885	5.1720896	2.2742229
6.251385614890126	5.198159	2.2799473
6.268938548361669	5.10947	2.2604136
6.286491629073067	5.0657563	2.2507236
6.304044857439898	5.1088257	2.260271
6.321598233877777	5.1731796	2.2744625
6.339151758802344	5.118477	2.2624052
6.356705432629277	5.0543523	2.2481887
6.37425925577428	4.9393635	2.222468
6.391813228653095	4.982651	2.2321854
6.409367351681486	4.9932485	2.2345579
6.426921625275259	5.0115833	2.2386565
6.44447604985025	4.9505386	2.2249806
6.46203062582232	4.9276295	2.2198265
6.47958535360737	4.9479547	2.2243998
6.497140233621328	5.0117435	2.2386923
6.514695266280161	5.070852	2.2518551
6.532250451999859	5.099936	2.2583039
6.549805791196454	5.05047	2.247325
6.567361284286002	5.022117	2.241008
6.584916931684597	5.048081	2.2467935
6.602472733808367	5.0634074	2.2502017
6.6200286910734665	5.03594	2.24409
6.637584803896092	5.0462103	2.2463772
6.655141072692462	5.0707917	2.2518418
6.672697497878842	5.1079545	2.2600784
6.690254079871514	5.081874	2.2543013
6.707810819086808	5.117761	2.2622468
6.725367715941078	5.0862494	2.2552714
6.742924770850719	5.127409	2.2643783
6.760481984232151	5.0752926	2.252841
6.778039356501836	5.0375376	2.244446
6.795596888076266	4.9983563	2.2357004
6.813154579371963	4.9970737	2.2354136
6.830712430805492	5.0733905	2.2524188
6.84827044279344	5.0814214	2.254201
6.865828615752445	5.02165	2.2409039
6.883386950099159	5.011808	2.2387068
6.900945446250287	5.0527606	2.2478347
6.918504104622553	5.038428	2.2446442
6.936062925632727	5.031347	2.2430663
6.953621909697607	4.9599547	2.2270956
6.971181057234028	5.0110803	2.2385442
6.988740368658859	5.1335444	2.2657328
7.006299844389007	5.3067436	2.303637
7.023859484841407	5.4095206	2.3258376
7.041419290433036	5.5092273	2.3471744
7.058979261580902	5.5996842	2.3663652
7.0765393987020495	5.7325673	2.394278
7.094099702213559	6.0331283	2.4562428
7.111660172532549	6.3891006	2.527667
7.129220810076164	6.7485576	2.5977986
7.146781615261595	7.4546614	2.7303226
7.16434258850606	7.6730437	2.770026
7.181903730226821	8.157887	2.8562016
7.1994650408411704	8.211965	2.8656526
7.217026520766437	8.45806	2.9082744
7.234588170419983	8.720056	2.952974
7.252149990219215	8.627354	2.9372358
7.269711980581568	8.461907	2.9089358
7.2872741419245175	8.19515	2.8627174
7.304836474665574	7.756951	2.7851303
7.322398979222286	7.512465	2.7408876
7.339961656012233	7.231657	2.689174
7.357524505453039	6.8926044	2.625377
7.375087527962357	6.5847225	2.5660715
7.392650723957886	6.2970767	2.5093977
7.410214093857353	5.896958	2.4283652
7.427777638078528	5.69155	2.385697
7.445341357039213	5.613168	2.3692124
7.4629052511572525	5.4848948	2.3419852
7.480469320850524	5.4381976	2.3319943
7.498033566536948	5.3340816	2.3095632
7.5155979886344735	5.2819777	2.2982554
7.5331625875610975	5.3472424	2.3124106
7.550727363734844	5.3970966	2.3231652
7.568292317573788	5.38611	2.3207994
7.585857449496025	5.302061	2.3026204
7.603422759919705	5.243224	2.2898088
7.620988249263007	5.2370076	2.288451
7.638553917944147	5.2700944	2.2956686
7.656119766381391	5.367533	2.3167937
7.673685794993023	5.407727	2.3254519
7.691252004197388	5.3686614	2.317037
7.70881839441285	5.322199	2.3069892
7.726384966057826	5.3264146	2.3079026
7.743951719550762	5.3339543	2.3095355
7.761518655310149	5.4109945	2.3261545
7.779085773754511	5.4018316	2.3241842
7.796653075302419	5.452451	2.3350484
7.814220560372475	5.4171576	2.327479
7.831788229383323	5.3186245	2.3062143
7.8493560827536495	5.2925763	2.30056
7.866924120902174	5.313749	2.305157
7.884492344247663	5.355597	2.3142164
7.9020607532089135	5.408506	2.3256195
7.919629348204771	5.317841	2.3060446
7.937198129654115	5.3046465	2.303182
7.954767097975865	5.339454	2.310726
7.972336253588986	5.466749	2.338108
7.989905596912472	5.518031	2.349049
8.007475128365371	5.5573196	2.3573968
8.025044848366756	5.5255427	2.3506472
8.042614757335754	5.623801	2.3714554
8.060184855691523	5.6869736	2.3847377
8.07775514385327	5.8284307	2.4142144
8.095325622240228	5.8993964	2.4288673
8.112896291271687	5.929519	2.4350605
8.130467151366968	5.9533105	2.4399407
8.148038202945436	5.9450293	2.4382432
8.165609446426497	5.9568386	2.4406636
8.183180882229594	6.031845	2.4559815
8.200752510774217	6.0022397	2.4499469
8.218324332479893	6.03028	2.455663
8.235896347766193	6.0288296	2.4553676
8.253468557052724	6.046159	2.4588938
8.27104096075914	6.0872927	2.467244
8.288613559305137	6.1306024	2.4760053
8.306186353110448	6.1956954	2.4891155
8.32375934259485	6.2397494	2.4979491
8.341332528178162	6.2448907	2.498978
8.358905910280246	6.223373	2.494669
8.376479489321003	6.1716228	2.484275
8.394053265720377	6.2450633	2.4990125
8.411627239898356	6.3366957	2.5172794
8.42920141227497	6.3973823	2.5293047
8.44677578327029	6.380949	2.5260541
8.464350353304427	6.3151274	2.5129917
8.48192512279754	6.2922254	2.508431
8.499500092169827	6.289794	2.5079463
8.51707526184153	6.24313	2.4986258
8.534650632232934	6.2435756	2.4987147
8.552226203764365	6.290875	2.5081618
8.569801976856192	6.3560557	2.521122
8.587377951928834	6.473426	2.5442927
8.60495412940274	6.4803033	2.545644
8.622530509698416	6.4657865	2.5427911
8.6401070932364	6.5033584	2.5501683
8.657683880437283	6.5704	2.5632792
8.675260871721695	6.724347	2.5931346
8.692838067510303	6.819756	2.6114662
8.710415468223834	6.930872	2.632655
8.727993074283043	7.0742884	2.6597533
8.745570886108737	7.1273723	2.669714
8.763148904121765	7.159561	2.6757357
8.78072712874302	7.213525	2.6858006
8.798305560393441	7.5349975	2.7449949
8.815884199494006	7.762305	2.7860913
8.833463046465745	7.9300127	2.8160279
8.851042101729728	7.967712	2.8227136
8.86862136570707	8.242931	2.8710506
8.886200838818924	8.340565	2.8880036
8.903780521486505	8.376467	2.8942127
8.921360414131055	8.506439	2.91658
8.938940517173874	8.65872	2.9425702
8.956520831036297	8.797572	2.9660702
8.97410135613971	9.03292	3.0054817
8.99168209290554	9.246532	3.040811
9.009263041755265	9.601596	3.0986443
9.026844203110405	9.823322	3.134218
9.044425577392525	9.92207	3.1499317
9.062007165023239	9.958615	3.1557274
9.079588966424197	10.316728	3.2119663
9.097170982017108	10.460874	3.2343273
9.11475321222372	11.513526	3.3931587
9.132335657465825	12.364993	3.5163891
9.149918318165264	12.3971405	3.5209572
9.167501194743924	12.776149	3.574374
9.18508428762374	12.430204	3.5256495
9.202667597226693	12.417722	3.5238788
9.220251123974803	12.114586	3.4806013
9.237834868290143	11.878917	3.4465804
9.255418830594836	11.692994	3.419502
9.273003011311046	11.225806	3.3504934
9.290587410860985	11.042684	3.3230534
9.308172029666911	10.505044	3.2411485
9.32575686815113	10.239329	3.1998951
9.343341926735997	8.922737	2.987095
9.360927205843916	8.589054	2.930709
9.378512705897327	8.3740635	2.8937974
9.396098427318728	8.134432	2.8520925
9.413684370530664	8.093145	2.8448453
9.431270535955722	7.9570084	2.820817
9.448856924016539	7.9078865	2.8120964
9.466443535135806	7.7771907	2.7887616
9.484030369736251	7.7625895	2.7861423
9.501617428240658	7.7537546	2.7845564
9.519204711071852	7.7664576	2.7868364
9.536792218652714	7.7786202	2.7890177
9.55437995140617	7.808058	2.7942903
9.571967909755191	7.849981	2.8017817
9.589556094122802	7.8668284	2.8047867
9.60714450493207	7.8998456	2.8106663
9.624733142606116	7.905737	2.8117142
9.642322007568108	8.006136	2.8295116
9.659911100241267	8.00651	2.8295777
9.677500421048851	8.061951	2.8393574
9.695089970414175	8.087741	2.8438954
9.712679748760609	8.11962	2.8494947
9.730269756511557	8.197752	2.8631716
9.747859994090492	8.17634	2.85943
9.765450461920915	8.256732	2.873453
9.78304116042639	8.312175	2.8830843
9.800632090030527	8.332868	2.8866706
9.81822325115699	8.344867	2.8887484
9.835814644229481	8.335688	2.887159
9.853406269671762	8.412651	2.9004571
9.870998127907646	8.383024	2.8953452
9.888590219360985	8.39452	2.8973298
9.906182544455698	8.278898	2.8773074
9.923775103615734	8.2797165	2.8774498
9.941367897265108	8.248317	2.8719883
9.958960925827878	8.336811	2.8873537
9.97655418972816	8.33231	2.886574
9.994147689390106	8.3544855	2.8904128
10.011741425237934	8.319785	2.8844037
10.029335397695904	8.398534	2.8980224
10.04692960718833	8.463405	2.909193
10.06452405413958	8.426501	2.9028437
10.082118738974064	8.381242	2.8950374
10.099713662116246	8.261836	2.874341
10.117308823990651	8.253989	2.8729756
10.134904225021844	8.219824	2.8670235
10.152499865634445	8.275883	2.8767834
10.170095746253125	8.301964	2.8813128
10.18769186730261	8.295711	2.8802276
10.205288229207675	8.257588	2.873602
10.222884832393145	8.255474	2.873234
10.2404816772839	8.275412	2.8767016
10.258078764304868	8.219448	2.866958
10.275676093881035	8.171173	2.8585265
10.293273666437438	8.140303	2.8531215
10.310871482399158	8.112651	2.8482716
10.32846954219134	8.135398	2.8522618
10.346067846239173	8.0936775	2.844939
10.363666394967908	8.088127	2.8439634
10.38126518880283	8.101024	2.8462298
10.398864228169298	8.13771	2.852667
10.416463513492713	8.237611	2.8701239
10.434063045198531	8.240915	2.8706994
10.451662823712262	8.316319	2.883803
10.469262849459467	8.251713	2.8725796
10.486863122865758	8.192176	2.8621976
10.504463644356806	8.129469	2.8512223
10.522064414358338	8.0961	2.8453646
10.539665433296118	7.997921	2.8280597
10.557266701595987	7.9692516	2.8229864
10.574868219683818	7.93833	2.8175042
10.592469987985552	7.8733525	2.8059494
10.610072006927185	7.7426233	2.782557
10.627674276934751	7.570742	2.7514982
10.64527679843435	7.428388	2.725507
10.662879571852143	7.2782483	2.6978228
10.680482597614331	7.176708	2.678938
10.698085876147173	7.06306	2.657642
10.715689407876988	6.9911675	2.6440816
10.733293193230146	6.8765197	2.6223118
10.750897232633072	6.7686014	2.6016536
10.76850152651225	6.687282	2.585978
10.786106075294207	6.646105	2.5780041
10.803710879405534	6.581872	2.565516
10.821315939272877	6.515707	2.5525882
10.83892125532294	6.411376	2.5320694
10.856526827982472	6.2968373	2.50935
10.874132657678285	6.22976	2.4959488
10.891738744837243	6.196973	2.489372
10.909345089886271	6.270564	2.5041094
10.926951693252343	6.2825456	2.5065007
10.944558555362494	6.1918635	2.4883456
10.96216567664381	6.08417	2.466611
10.979773057523436	5.9807377	2.4455547
10.997380698428573	5.9332595	2.4358282
11.014988599786477	5.902835	2.429575
11.032596762024461	5.8092184	2.410232
11.050205185569892	5.733679	2.39451
11.067813870850198	5.606176	2.3677363
11.085422818292859	5.5774074	2.3616536
11.10303202832541	5.5356765	2.3528018
11.120641501375454	5.4590244	2.3364556
11.138251237870636	5.367032	2.3166857
11.155861238238671	5.2868676	2.299319
11.173471502907317	5.210098	2.282564
11.191082032304402	5.165755	2.2728298
11.208692826857805	5.1493087	2.269209
11.226303886995465	5.0751576	2.252811
11.243915213145371	5.027417	2.2421904
11.261526805735578	4.9544897	2.2258682
11.279138665194196	4.910545	2.2159748
11.296750791949393	4.8983045	2.2132113
11.314363186429393	4.8995	2.2134814
11.331975849062479	4.8350286	2.19887
11.34958878027699	4.745829	2.1784923
11.36720198050133	4.6722445	2.1615376
11.384815450163948	4.6012597	2.1450548
11.402429189693366	4.514056	2.124631
11.420043199518153	4.413772	2.100898
11.437657480066942	63.382553	7.961316
11.455272031768422	85.11723	9.2259
11.472886855051353	107.51807	10.369092
11.490501950344528	99.11394	9.955598
11.508117318076819	84.45254	9.189806
11.52573295867715	45.86383	6.772284
11.543348872574514	4.1769156	2.0437503
11.560965060197946	4.167981	2.0415635
11.57858152197655	4.1571302	2.0389042
11.59619825833949	4.145079	2.0359468
11.613815269715985	4.0609446	2.0151784
11.631432556535323	38.524685	6.2068257
11.649050119226837	83.033394	9.112267
11.666667958219929	93.44623	9.666759
11.68428607394406	107.72315	10.378977
11.701904466828756	82.5837	9.087558
11.719523137303586	65.46712	8.091175
11.737142085798196	4.6985803	2.167621
11.754761312742286	3.828169	1.9565707
11.772380818565619	3.786357	1.9458563
11.790000603698015	3.736528	1.9330101
11.80762066856935	3.6732836	1.9165813
11.825241013609572	3.6206055	1.9027889
11.842861639248683	3.5286589	1.8784724
11.860482545916748	3.492502	1.8688236
11.878103734043883	3.456526	1.8591735
11.895725204060282	3.4506004	1.8575792
11.91334695639619	3.4391618	1.8544977
11.930968991481919	3.4402626	1.8547945
11.948591309747824	3.385797	1.8400536
11.966213911624347	3.302037	1.8171508
11.98383679754198	3.2417123	1.8004756
12.001459967931268	3.2509954	1.8030517
12.019083423222835	3.2411835	1.8003287
12.036707163847352	3.2543252	1.8039749
12.05433119023556	3.2378795	1.7994109
12.071955502818259	3.2341907	1.7983856
12.089580102026313	3.23142	1.797615
12.107204988290643	3.2199302	1.7944164
12.12483016204224	3.2014809	1.7892683
12.142455623712152	3.178928	1.7829548
12.16008137373149	3.1189663	1.7660595
12.177707412531431	3.0782342	1.7544898
12.19533374054321	3.079465	1.7548404
12.212960358198126	3.1143653	1.7647564
12.230587265927545	3.1450446	1.7734274
12.248214464162889	3.1161153	1.7652522
12.265841953335649	3.063685	1.7503386
12.283469733877375	3.0510259	1.7467186
12.301097806219685	3.02467	1.7391578
12.31872617079425	2.9928725	1.729992
12.336354828032825	2.9569712	1.7195846
12.353983778367205	2.9787436	1.7259037
12.371613022229262	2.9737773	1.7244643
12.389242560050928	2.966302	1.7222955
12.406872392264201	2.8987918	1.7025839
12.424502519301143	2.8743532	1.6953918
12.442132941593874	2.8918056	1.700531
12.459763659574586	2.9106379	1.7060592
12.477394673675532	2.9177594	1.708145
12.49502598432903	2.8527832	1.6890184
12.51265759196746	2.8465276	1.6871655
12.530289497023267	2.8200681	1.6793058
12.547921699928967	2.8418915	1.685791
12.565554201117134	2.8619623	1.6917335
12.583187001020404	2.8703363	1.6942067
12.600820100071486	2.8485389	1.6877615
12.618453498703152	2.7937074	1.6714387
12.636087197348235	2.7820704	1.667954
12.65372119643964	2.7661197	1.6631656
12.671355496410326	2.7957792	1.6720583
12.68899009769333	2.8348887	1.6837127
12.706625000721749	2.8652585	1.6927074
12.724260205928752	2.9470565	1.7166994
12.741895713747551	2.9178421	1.7081692
12.759531524611454	2.9326255	1.712491
12.777167638953818	2.9334483	1.7127312
12.794804057208072	3.00512	1.7335283
12.812440779807702	3.108373	1.7630578
12.830077807186271	3.283865	1.8121438
12.847715139777405	3.3219786	1.8226296
12.865352778014795	3.4924133	1.8687999
12.882990722332197	3.6172657	1.901911
12.90062897316344	3.7025576	1.9242032
12.918267530942412	3.769898	1.9416225
12.935906396103071	3.6546254	1.9117074
12.953545569079449	3.822129	1.9550266
12.971185050305628	3.651556	1.9109045
12.988824840215775	3.6719952	1.9162451
13.006464939244115	3.628371	1.9048283
13.024105347824943	3.463041	1.8609248
13.041746066392617	3.5664644	1.8885086
13.05938709538157	3.368515	1.8353515
13.077028435226296	3.4037156	1.8449161
13.094670086361363	3.2551498	1.8042034
13.112312049221401	3.18609	1.7849622
13.129954324241112	3.0933752	1.7587993
13.147596911855258	2.9226751	1.7095833
13.165239812498685	2.9031293	1.7038572
13.182883026606293	2.8358293	1.683992
13.200526554613058	2.7928426	1.67118
13.218170396954017	2.732011	1.6528796
13.235814554064284	2.648369	1.6273811
13.253459026379034	2.6230164	1.6195729
13.271103814333523	2.6236584	1.6197711
13.288748918363058	2.6452892	1.6264344
13.306394338903031	2.6622498	1.6316402
13.32404007638889	2.6469302	1.6269389
13.341686131256164	2.6580608	1.6303561
13.359332503940449	2.6457987	1.6265911
13.376979194877402	2.6475108	1.6271173
13.394626204502751	2.6927967	1.6409743
13.412273533252307	2.7178912	1.6486028
13.429921181561937	2.7013605	1.6435816
13.447569149867581	2.678446	1.6365958
13.465217438605247	2.6827166	1.6379001
13.482866048211022	2.6945028	1.641494
13.500514979121052	2.7105923	1.6463877
13.518164231771568	2.6562145	1.6297897
13.535813806598844	2.6550968	1.6294467
13.553463704039254	2.6669643	1.6330843
13.571113924529229	2.662974	1.6318622
13.588764468505275	2.678664	1.6366625
13.606415336403956	2.6999676	1.6431578
13.624066528661917	2.7490382	1.6580224
13.641718045715882	2.7782016	1.6667938
13.659369888002635	2.841919	1.6857992
13.67702205595903	2.9114482	1.7062967
13.694674550021993	3.0080643	1.7343771
13.712327370628532	3.015962	1.7366525
13.729980518215713	3.0852492	1.7564877
13.747633993220681	3.1670132	1.7796104
13.765287796080647	3.2629533	1.8063647
13.7829419272329	3.3352036	1.826254
13.800596387114801	3.3426373	1.8282881
13.818251176163775	3.3631456	1.833888
13.835906294817324	3.40869	1.8462638
13.853561743513023	3.4300597	1.8520421
13.871217522688525	3.4817517	1.8659452
13.888873632781538	3.4999835	1.8708243
13.906530074229858	3.562774	1.8875312
13.92418684747135	3.5404017	1.8815955
13.941843952943948	3.4904902	1.8682854
13.959501391085665	3.4584286	1.8596851
13.977159162334578	3.4104626	1.8467438
13.994817267128846	3.3826993	1.8392116
14.012475705906693	3.2758808	1.8099395
14.030134479106424	3.2459862	1.8016621
14.047793587166414	3.2058134	1.7904786
14.065453030525108	3.1521966	1.7754427
14.083112809621026	3.0606954	1.7494843
14.100772924892766	2.965256	1.7219919
14.118433376778997	2.9113255	1.7062607
14.136094165718458	2.8465812	1.6871815
14.153755292149969	2.7875519	1.6695963
14.171416756512416	2.714514	1.6475782
14.189078559244768	2.653303	1.6288962
14.20674070078606	2.5848541	1.6077482
14.224403181575408	2.5177114	1.5867298
14.242066002051999	2.5029235	1.5820631
14.259729162655093	2.4875891	1.5772092
14.277392663824022	2.4867	1.5769274
14.295056505998208	2.4217765	1.5562059
14.312720689617128	2.4022691	1.5499256
14.330385215120348	2.3857434	1.5445852
14.348050082947497	2.401906	1.5498084
14.3657152935383	2.417453	1.5548161
14.383380847332528	2.4050117	1.55081
14.401046744770051	2.4280536	1.5582213
14.418712986290798	2.4256964	1.5574647
14.436379572334793	2.4289086	1.5584956
14.454046503342123	2.42599	1.557559
14.471713779752946	2.4609647	1.5687462
14.489381402007504	2.465892	1.570316
14.507049370546113	2.4200075	1.5556374
14.524717685809168	2.3811238	1.543089
14.542386348237134	2.3652303	1.5379305
14.560055358270553	2.364611	1.5377291
14.577724716350051	2.4285426	1.5583782
14.595394422916325	2.4538	1.566461
14.61306447841015	2.4548025	1.5667809
14.63073488327237	2.439877	1.5620105
14.648405637943917	2.4909458	1.578273
14.6660767428658	2.5208163	1.5877079
14.683748198479094	2.5420313	1.5943749
14.701420005224954	2.54999	1.5968688
14.719092163544628	2.6085768	1.6151088
14.73676467387942	2.6553483	1.629524
14.754437536670727	2.6915553	1.640596
14.772110752360014	2.674467	1.6353798
14.78978432138882	2.6866503	1.6391004
14.807458244198777	2.7380974	1.6547197
14.82513252123159	2.7474728	1.6575502
14.842807152929028	2.7641668	1.6625783
14.860482139732962	2.7193832	1.6490552
14.87815748208531	2.694747	1.6415684
14.8958331804281	2.7185752	1.6488103
14.91350923520342	2.690457	1.6402613
14.931185646853438	2.692458	1.640871
14.948862415820408	2.692632	1.6409241
14.966539542546656	2.726045	1.6510738
14.98421702747459	2.6908317	1.6403755
15.001894871046696	2.6741781	1.6352915
15.019573073705542	2.683944	1.6382747
15.037251635893766	2.692579	1.640908
15.054930558054092	2.711593	1.6466916
15.072609840629323	2.7549367	1.6598002
15.090289484062351	2.871819	1.6946442
15.107969488796124	3.1464634	1.7738273
15.125649855273691	3.5647428	1.8880527
15.14333058393817	4.114547	2.0284345
15.161011675232768	5.1394525	2.267036
15.17869312960076	6.5689154	2.5629895
15.196374947485506	8.47329	2.9108918
15.214057129330447	11.675848	3.416994
15.231739675579114	16.383013	4.0475936
15.249422586675102	21.410202	4.6271157
15.267105863062092	24.288925	4.9283795
15.284789505183847	24.363388	4.9359283
15.302473513484218	22.056107	4.696393
15.320157888407127	18.45942	4.2964425
15.337842630396578	14.35424	3.7886992
15.355527739896656	11.176788	3.3431704
15.37321321735153	8.655934	2.942097
15.39089906320545	6.339497	2.5178359
15.408585277902748	4.7643514	2.1827395
15.42627186188783	3.7011008	1.9238245
15.443958815605198	3.1791036	1.783004
15.461646139499424	2.9344728	1.7130303
15.479333834015168	2.8303277	1.6823578
15.497021899597165	2.767269	1.663511
15.514710336690234	2.691203	1.6404886
15.53239914573928	2.605785	1.6142443
15.550088327189297	2.5338743	1.5918148
15.567777881485336	2.4971423	1.5802349
15.58546780907256	2.5043502	1.5825139
15.6031581103962	2.4826083	1.5756295
15.620848785901568	2.5130572	1.5852625
15.638539836034063	2.5142684	1.5856445
15.656231261239173	2.484738	1.5763052
15.673923061962451	2.4484608	1.5647558
15.691615238649552	2.4600725	1.5684618
15.709307791746202	2.5131745	1.5852995
15.727000721698221	2.4801836	1.5748599
15.744694028951498	2.41285	1.5533351
15.76238771395202	2.382126	1.5434138
15.780081777145844	2.3956747	1.5477967
15.797776218979125	2.4063778	1.5512503
15.815471039898094	2.3913329	1.5463935
15.833166240349064	2.388519	1.5454835
15.850861820778437	2.4006793	1.5494126
15.868557781632699	2.418109	1.555027
15.886254123358412	2.4119475	1.5530446
15.903950846402232	2.3979323	1.5485258
15.921647951210897	2.3899312	1.5459403
15.939345438231225	2.389001	1.5456393
15.957043307910133	2.3998995	1.5491608
15.974741560694602	2.4102795	1.5525075
15.992440197031714	2.401268	1.5496025
16.01013921736862	2.4019992	1.5498384
16.02783862215259	2.3905091	1.5461271
16.045538411830933	2.4004295	1.5493319
16.06323858685107	2.3970225	1.5482321
16.080939147660512	2.3673453	1.538618
16.09864009470684	2.3406796	1.529928
16.11634142843774	2.333988	1.5277395
16.134043149300954	2.3870647	1.5450128
16.15174525774433	2.4246418	1.5571262
16.169447754215817	2.4427035	1.5629151
16.18715063916342	2.4402046	1.5621154
16.204853913035244	2.4635046	1.5695555
16.222557576279478	2.467666	1.5708807
16.240261629344403	22.415789	4.7345314
16.257966072678386	42.93559	6.5525255
16.275670906729868	38.085785	6.171368
16.293376131947387	2.5585418	1.5995443
16.31108174877957	2.5955873	1.6110827
16.328787757675133	2.585943	1.6080867
16.34649415908287	2.5951288	1.6109403
16.364200953451657	2.6072292	1.6146917
16.38190814123048	2.6220663	1.6192795
16.39961572286839	2.6307044	1.6219447
16.41732369881455	2.6854193	1.6387249
16.43503206951817	2.7586565	1.6609204
16.45274083542859	2.7855165	1.6689867
16.47044999699522	2.7533462	1.659321
16.488159554667558	2.7544441	1.6596518
16.505869508895184	2.821436	1.679713
16.523579860127786	2.9185467	1.7083755
16.541290608815117	3.0147512	1.7363039
16.559001755407035	3.0671284	1.7513219
16.57671330035348	3.0908115	1.7580703
16.59442524410448	3.0794542	1.7548374
16.61213758711015	3.1279445	1.7685996
16.629850329820705	3.2508192	1.8030028
16.647563472686436	3.3521063	1.8308759
16.665277016157724	3.4389892	1.8544512
16.682990960685053	3.4894292	1.8680013
16.70070530671898	3.5285978	1.8784562
16.718420054710155	3.498936	1.8705443
16.736135205109335	3.534046	1.8799058
16.753850758367335	3.5796947	1.8920081
16.771566714935087	3.6574073	1.9124349
16.789283075263597	3.7297347	1.9312521
16.80699983980398	3.807873	1.9513772
16.82471700900741	3.878948	1.9695045
16.84243458332518	3.9408062	1.9851464
16.860152563208665	3.9896603	1.9974134
16.87787094910932	4.0452538	2.0112817
16.89558974147871	4.1077585	2.0267606
16.913308940768466	4.1996937	2.0493155
16.931028547430333	4.282352	2.0693843
16.94874856191613	4.3481402	2.0852194
16.966468984677785	4.4105434	2.1001294
16.98418981616729	4.4269605	2.1040344
17.00191105683676	4.470386	2.1143286
17.019632707138374	4.4976125	2.1207576
17.03735476752442	4.548208	2.1326528
17.05507723844728	4.5575795	2.1348488
17.072800120359403	4.6027217	2.1453955
17.090523413713353	4.57807	2.1396425
17.108247118961785	4.604055	2.1457062
17.125971236557437	4.584645	2.1411784
17.143695766953133	4.6243043	2.1504195
17.161420710601806	4.676337	2.162484
17.179146067956477	4.7035475	2.1687663
17.19687183947025	4.675192	2.1622193
17.21459802559634	4.668166	2.160594
17.232324626788028	4.7124395	2.1708155
17.25005164349871	4.6865797	2.164851
17.267779076181863	4.649144	2.1561875
17.285506925291074	4.589857	2.1423953
17.30323519127999	4.5899544	2.142418
17.320963874602384	4.634569	2.1528049
17.33869297571211	4.6136127	2.1479323
17.356422495063114	4.582136	2.1405926
17.37415243310944	4.5386996	2.1304224
17.391882790305218	4.5294447	2.1282492
17.40961356710468	4.476018	2.1156602
17.42734476396215	4.4582973	2.111468
17.445076381332044	4.4340763	2.1057246
17.462808419668868	4.5442047	2.131714
17.48054087942723	4.7551003	2.1806192
17.498273761061835	5.1206493	2.262885
17.51600706502747	5.5812693	2.362471
17.533740791779024	6.289788	2.5079448
17.551474941771485	7.8077865	2.7942417
17.56920951545993	9.012349	3.0020576
17.586944513299528	11.181435	3.3438652
17.60467993574556	12.770322	3.5735588
17.622415783253373	14.417407	3.7970262
17.64015205627843	15.760184	3.96991
17.657888755276293	16.744402	4.0919924
17.675625880702604	17.143047	4.140416
17.69336343301311	16.990143	4.12191
17.71110141266366	16.308052	4.038323
17.728839820110178	15.529414	3.9407377
17.746578655808705	14.747055	3.8401895
17.764317920215372	13.250103	3.640069
17.7820576137864	11.663417	3.4151745
17.79979773697811	9.51331	3.0843654
17.81753829024692	7.5228295	2.7427776
17.835279274049356	5.791557	2.4065654
17.85302068884201	4.764092	2.18268
17.870762535081607	4.1658187	2.0410337
17.888504813224934	3.9404907	1.9850669
17.90624752372891	3.7322078	1.9318923
17.923990667050536	3.6172106	1.9018966
17.941734243646895	3.5039349	1.87188
17.959478253975185	3.5003912	1.8709333
17.9772226984927	3.4403763	1.8548251
17.994967577656833	3.4125059	1.847297
18.01271289192506	3.3759716	1.8373817
18.030458641754965	3.3668442	1.8348962
18.04820482760425	3.3490758	1.8300481
18.06595144993067	3.3308425	1.8250595
18.083698509192125	3.295392	1.8153214
18.101446005846576	3.2865129	1.8128742
18.119193940352105	3.2118568	1.7921654
18.136942313166887	3.1926432	1.7867969
18.1546911247492	3.1536596	1.7758546
18.1724403755574	3.1826978	1.7840117
18.19019006604997	3.1958778	1.7877018
18.207940196685467	3.1968346	1.7879694
18.225690767922575	3.191863	1.7865785
18.243441780220046	3.1524847	1.7755238
18.261193234036764	3.1203866	1.7664616
18.278945129831676	3.0939777	1.7589706
18.29669746806386	3.1090202	1.7632414
18.314450249192483	3.1148796	1.7649021
18.3322034736768	3.102176	1.7612995
18.349957141976184	3.0726805	1.7529063
18.3677112545501	3.064959	1.7507025
18.385465811858108	3.0855942	1.756586
18.403220814359884	3.1003413	1.7607787
18.420976262515172	3.11962	1.7662446
18.43873215678387	3.149216	1.774603
18.456488497625923	3.148092	1.7742864
18.474245285501407	3.2224746	1.7951252
18.492002520870486	3.2889833	1.8135555
18.50976020419343	3.3907883	1.8414093
18.527518335930615	3.7504175	1.9365995
18.545276916542516	4.3968267	2.0968611
18.563035946489688	4.550791	2.1332583
18.580795426232832	4.916506	2.2173195
18.598555356232698	4.7683005	2.1836438
18.616315736950185	5.1108913	2.2607281
18.63407656884626	4.7746053	2.185087
18.65183785238201	4.947987	2.2244072
18.669599588018617	4.699505	2.167834
18.68736177621737	4.739867	2.1771235
18.705124417439652	4.7230096	2.1732485
18.72288751214696	4.4979053	2.1208265
18.740651060800886	4.6221304	2.149914
18.758415063863115	4.3560047	2.0871043
18.77617952179546	4.487514	2.1183753
18.793944435059814	4.1941714	2.0479677
18.811709804118184	4.243641	2.06001
18.829475629432675	4.263365	2.0647917
18.8472419114655	4.112367	2.0278971
18.86500865067897	4.1388383	2.0344136
18.88277584753551	3.7690377	1.941401
18.90054350249763	3.7912283	1.9471077
18.918311616027957	3.4960284	1.869767
18.936080188589226	3.3800921	1.8385026
18.953849220644265	3.0763147	1.7539426
18.971618712656007	2.9239275	1.7099496
18.9893886650875	2.8752482	1.6956557
19.007159078401887	8.044153	2.8362217
19.024929953062408	32.937057	5.7390814
19.042701289532435	32.89544	5.7354546
19.060473088275405	25.42366	5.042188
19.07824534975489	2.6236525	1.6197692
19.096018074434568	2.5651677	1.6016141
19.113791262778197	2.5308976	1.5908796
19.13156491524966	2.5408351	1.5939997
19.149339032312945	2.5310433	1.5909253
19.167113614432136	2.5555806	1.5986184
19.184888662071433	2.529685	1.5904983
19.202664175695123	2.54735	1.5960419
19.220440155767623	2.522057	1.5880985
19.238216602753447	2.5289736	1.5902747
19.2559935171172	2.5481591	1.5962955
19.27377089932361	2.602233	1.6131438
19.291548749837514	2.5827336	1.6070886
19.309327069123835	2.5523891	1.5976199
19.32710585764763	2.4996867	1.5810398
19.344885115874032	2.5042107	1.5824698
19.362664844268313	2.51927	1.5872208
19.380445043295822	2.5527174	1.5977225
19.39822571342203	2.4972835	1.5802796
19.41600685511252	2.46528	1.570121
19.43378846883297	2.4662583	1.5704325
19.451570555049173	2.4918282	1.5785526
19.469353114227037	2.5040734	1.5824264
19.48713614683254	2.494144	1.5792859
19.50491965333182	2.507402	1.5834779
19.52270363419109	2.4808216	1.5750624
19.540488089876686	2.4636989	1.5696174
19.55827302085503	2.4594429	1.5682611
19.576058427592674	2.4545667	1.5667057
19.593844310556282	2.4674163	1.5708011
19.611630670212598	2.461922	1.5690513
19.629417507028506	2.500601	1.5813289
19.64720482147098	2.5189483	1.5871195
19.6649926140071	2.5517728	1.5974269
19.682780885104084	2.5243294	1.5888139
19.70056963522921	2.485626	1.5765868
19.718358864849908	2.4552267	1.5669163
19.7361485744337	2.4906409	1.5781765
19.753938764448215	2.4884663	1.5774873
19.771729435361202	2.5138452	1.585511
19.789520587640506	2.5254536	1.5891676
19.807312221754092	2.5590193	1.5996935
19.825104338170043	2.553549	1.5979828
19.842896937356517	2.524659	1.5889175
19.860690019781824	2.5222385	1.5881557
19.87848358591436	2.4779086	1.5741374
19.896277636222635	2.5174587	1.5866501
19.914072171175278	2.5233448	1.588504
19.931867191241015	2.5062785	1.583123
19.94966269688869	2.485746	1.5766249
19.967458688587264	2.4723887	1.5723832
19.985255166805807	2.4785392	1.5743377
20.00305213201348	2.453882	1.5664872
20.020849584679578	2.4605114	1.5686017
20.038647525273507	2.4956048	1.5797483
20.05644595426477	2.4827514	1.5756749
20.07424487212299	2.4741993	1.5729588
20.092044279317903	2.4661274	1.5703908
20.109844176319353	2.463432	1.5695324
20.127644563597304	2.4399993	1.5620497
20.145445441621817	2.403382	1.5502845
20.16324681086307	2.4004066	1.5493245
20.181048671791373	2.4269257	1.5578593
20.198851024877122	2.4505506	1.5654235
20.216653870590836	2.4489393	1.5649087
20.234457209403146	2.424752	1.5571616
20.252261041784802	2.401645	1.5497241
20.270065368206662	2.3789322	1.5423788
20.287870189139685	2.378491	1.5422357
20.305675505054968	2.3967094	1.548131
20.323481316423702	2.3728967	1.5404209
20.341287623717207	2.36797	1.538821
20.359094427406884	2.3960533	1.547919
20.376901727964288	2.4268467	1.557834
20.39470952586107	2.407485	1.5516073
20.41251782156899	2.3651016	1.5378886
20.430326615559935	2.334454	1.527892
20.448135908305886	2.3674138	1.5386403
20.465945700278965	2.3938375	1.5472031
20.483755991951384	2.393965	1.5472443
20.50156678379548	2.3800771	1.5427499
20.519378076283708	2.3554673	1.5347532
20.537189869888635	2.3424213	1.5304971
20.55500216508294	2.3165023	1.522006
20.572814962339415	2.3043814	1.5180188
20.59062826213098	2.3058465	1.5185014
20.60844206493066	2.3285937	1.5259731
20.626256371211593	2.3167515	1.5220878
20.644071181447032	2.303879	1.5178534
20.66188649611036	2.3081493	1.5192595
20.67970231567506	2.340634	1.5299131
20.697518640614742	2.3474417	1.5321363
20.715335471403122	2.3290424	1.5261201
20.73315280851404	2.2714121	1.5071205
20.750970652421447	2.2677853	1.5059167
20.768789003599412	2.3000352	1.5165867
20.786607862522136	2.302914	1.5175354
20.8044272296639	2.315303	1.521612
20.82224710549913	2.293969	1.5145854
20.84006749050237	2.2825139	1.510799
20.857888385148268	3.811398	1.9522802
20.8757097899116	45.92754	6.776986
20.893531705267254	64.78988	8.049216
20.911354131690224	83.82282	9.15548
20.92917706965566	69.06452	8.310507
20.94700051963877	50.0963	7.0778737
20.96482448211493	29.390875	5.421335
20.982648957559622	4.162823	2.0403
21.00047394644843	2.2855487	1.5118032
21.01829944925707	2.2403958	1.4967952
21.036125466461375	2.2414691	1.4971536
21.053951998537297	2.2516189	1.5005395
21.071779045960906	2.238982	1.4963229
21.089606609208378	2.2117958	1.4872108
21.10743468875603	2.210377	1.4867337
21.12526328508028	2.2120883	1.4873091
21.143092398657675	2.2269847	1.4923085
21.16092202996488	2.2198064	1.4899015
21.17875217947867	2.2107108	1.486846
21.19658284767596	2.1873448	1.4789674
21.21441403503377	2.171844	1.4737178
21.232245742029225	2.173256	1.4741967
21.2500779691396	2.1669154	1.4720446
21.26791071684227	2.1691227	1.4727942
21.28574398561475	2.1934412	1.481027
21.30357777593465	2.1957455	1.4818048
21.321412088279704	2.1886744	1.479417
21.339246923127792	2.1872573	1.4789379
21.357082280956888	2.193093	1.4809096
21.3749181622451	2.1708374	1.4733762
21.392754567470647	2.1621375	1.4704208
21.41059149711187	2.153715	1.4675541
21.42842895164726	2.155199	1.4680597
21.446266931555378	2.1518972	1.4669347
21.464105437314945	2.157959	1.4689993
21.481944469404798	2.1576998	1.468911
21.49978402830388	2.167755	1.4723297
21.51762411449127	2.1679394	1.4723924
21.53546472844617	2.1610384	1.4700471
21.553305870647876	2.1465437	1.4651088
21.571147541575865	2.1219156	1.4566796
21.58898974170967	2.0993469	1.4489123
21.60683247152899	2.091208	1.446101
21.62467573151363	2.0828063	1.4431931
21.642519522143523	2.071436	1.4392484
21.660363843898722	2.055133	1.4335735
21.6782086972594	2.0622272	1.4360456
21.696054082705864	2.0784843	1.441695
21.713900000718535	2.0717766	1.4393667
21.73174645177795	2.0721495	1.4394963
21.749593436364794	2.0656	1.4372195
21.767440954959845	2.0404313	1.4284366
21.785289008044032	2.0105414	1.4179356
21.803137596098388	2.0249903	1.4230216
21.820986719604086	2.026139	1.4234251
21.838836379042412	2.0163534	1.4199836
21.85668657489478	1.9702379	1.4036516
21.87453730764273	1.9593056	1.399752
21.892388577767914	1.9708278	1.4038618
21.91024038575213	1.9953367	1.4125638
21.928092732077285	2.004954	1.415964
21.945945617225426	2.0034885	1.4154464
21.963799041678694	2.0474095	1.4308772
21.981653005919398	31.381968	5.601961
21.999507510429943	78.20072	8.843117
22.01736255569286	73.17061	8.553982
22.035218142190818	4.2450714	2.060357
22.05307427040661	2.0405757	1.4284872
22.07093094082315	2.0223038	1.4220773
22.088788153923474	2.0085273	1.4172252
22.106645910190746	1.9989511	1.4138427
22.12450421010827	2.0011358	1.414615
22.142363054159464	2.0227797	1.4222445
22.16022244282787	2.0255234	1.4232088
22.178082376597164	2.038807	1.427868
22.195942855951145	2.0258245	1.4233147
22.213803881373742	1.98756	1.4098085
22.231665453349002	1.9496866	1.3963118
22.24952757236111	1.9288564	1.3888327
22.26739023889438	1.9439707	1.3942635
22.28525345343323	1.9494367	1.3962222
22.30311721646225	1.9798176	1.4070599
22.320981528466113	2.0120058	1.4184519
22.33884638992964	2.034619	1.4264008
22.356711801337788	2.0335023	1.4260092
22.37457776317561	1.9977515	1.4134184
22.392444275928337	1.9964031	1.4129413
22.410311340081282	1.9702504	1.4036561
22.428178956119904	1.9663697	1.402273
22.446047124529805	1.9612287	1.4004388
22.46391584579669	1.954443	1.398014
22.481785120406414	1.9696773	1.4034519
22.49965494884496	1.9561177	1.3986127
22.51752533159841	1.9319242	1.3899368
22.53539626915302	1.9273412	1.3882872
22.553267761995137	1.9640557	1.4014477
22.571139810611264	1.9581215	1.399329
22.589012415488025	1.9426278	1.3937818
22.60688557711216	1.9394009	1.3926238
22.624759295970566	1.9267198	1.3880633
22.642633572550263	1.9470937	1.395383
22.660508407338362	1.9239832	1.3870772
22.67838380082217	1.915627	1.3840618
22.696259753489077	1.906147	1.3806329
22.714136265826614	1.920935	1.385978
22.73201333832246	1.9409022	1.3931627
22.74989097146439	1.9516143	1.3970019
22.76776916574035	1.9779136	1.4063832
22.785647921638393	1.9995253	1.4140457
22.803527239646712	1.9823965	1.407976
22.82140712025363	1.9467503	1.39526
22.839287563947593	1.8927516	1.3757731
22.85716857121719	1.9198192	1.3855754
22.875050142551135	1.9336251	1.3905485
22.892932278438277	1.9177321	1.384822
22.910814979367604	1.9201609	1.3856987
22.928698245828222	1.9319217	1.3899359
22.946582078309387	1.9763197	1.4058163
22.96446647730047	1.9777911	1.4063396
22.98235144329098	1.9461191	1.3950337
23.000236976770562	1.9082758	1.3814036
23.018123078229	1.9099214	1.381999
23.03600974815619	1.9231133	1.3867636
23.053896987042194	1.9360965	1.3914368
23.071784795377173	1.9633144	1.4011832
23.08967317365145	1.9374624	1.3919276
23.10756212235546	1.9037654	1.37977
23.125451641979787	1.9099376	1.382005
23.143341733015134	1.9255352	1.3876365
23.161232395952357	1.942123	1.3936007
23.179123631282426	1.919763	1.3855551
23.197015439496468	1.892827	1.3758005
23.214907821085717	1.8992867	1.3781462
23.23280077654157	1.9243289	1.3872018
23.250694306355538	1.9570665	1.3989519
23.268588411019277	1.99065	1.4109039
23.28648309102458	2.0188732	1.4208705
23.304378346863356	2.0195434	1.4211065
23.322274179027676	1.9936622	1.4119711
23.340170588009723	1.9213382	1.3861234
23.358067574301852	1.8645519	1.3654859
23.37596513839651	1.8358276	1.3549272
23.39386328078629	1.853424	1.3614051
23.411762001963947	1.9044175	1.3800063
23.429661302422353	1.9327083	1.3902187
23.4475611826545	1.9638602	1.4013779
23.46546164315356	1.9756849	1.4055905
23.48336268441279	1.9995978	1.4140713
23.501264306925638	1.9921256	1.4114268
23.51916651118564	1.9819398	1.4078138
23.537069297686497	1.9601988	1.400071
23.554972666922037	1.9613191	1.400471
23.57287661938623	1.9383293	1.392239
23.59078115557318	1.8809873	1.371491
23.608686275977128	1.8817568	1.3717715
23.62659198109246	1.8859649	1.3733044
23.6444982714137	1.9113157	1.3825034
23.66240514743549	1.9570806	1.398957
23.68031260965263	1.9899153	1.4106436
23.698220658560068	1.9835122	1.4083722
23.716129294652845	1.9673651	1.402628
23.7340385184262	1.9183395	1.3850414
23.75194833037546	1.8816229	1.3717226
23.769858730996123	1.8313739	1.3532827
23.78776972078382	1.8111056	1.3457732
23.80568130023431	1.8700563	1.3675001
23.823593469843495	1.923896	1.3870457
23.841506230107424	1.9276214	1.388388
23.859419581522275	1.9051896	1.3802861
23.87733352458438	1.8878094	1.3739758
23.89524805979019	1.9058198	1.3805143
23.913163187636318	1.9233422	1.3868462
23.931078908619508	1.949858	1.3963732
23.948995223236633	1.9730972	1.4046698
23.966912131984735	2.0005145	1.4143955
23.98482963536096	2.014398	1.419295
24.002747733862616	2.0483415	1.4312028
24.020666427987155	2.071179	1.4391592
24.038585718232156	2.0980773	1.4484742
24.056505605095353	2.1045082	1.4506923
24.074426089074617	2.1276002	1.4586296
24.092347170667946	2.056546	1.4340663
24.110268850373515	2.040755	1.42855
24.128191128689586	2.030472	1.4249463
24.146114006114626	2.0262082	1.4234494
24.164037483147187	2.0146062	1.4193683
24.181961560286005	2.0628374	1.4362581
24.199886238029926	2.1011088	1.4495202
24.21781151687797	2.094778	1.4473348
24.235737397329274	2.0570118	1.4342287
24.253663879883135	2.036647	1.4271114
24.271590965038975	2.0325108	1.4256616
24.289518653296376	2.0442934	1.4297879
24.30744694515505	2.0771236	1.441223
24.32537584111486	2.032569	1.425682
24.34330534167581	2.006469	1.4164989
24.361235447338046	1.9675505	1.402694
24.379166158601876	1.9901979	1.4107437
24.39709747596772	1.9952648	1.4125384
24.41502939993615	1.9949789	1.4124372
24.432961931007917	1.9636639	1.401308
24.450895069683856	1.928752	1.3887951
24.468828816465	1.9330318	1.3903351
24.4867631718525	1.9528947	1.3974601
24.504698136347656	1.9918528	1.4113301
24.52263371045192	1.9847696	1.4088185
24.540569894666874	1.9825364	1.4080257
24.558506689494266	1.9652241	1.4018645
24.57644409543597	1.9901953	1.4107428
24.594382112994012	1.9907824	1.4109509
24.61232074267057	1.9780455	1.40643
24.630259984967953	1.9266331	1.3880321
24.64819984038863	1.9170973	1.3845929
24.66614030943522	1.9402466	1.3929273
24.684081392610462	1.9259663	1.3877919
24.702023090417274	1.8943021	1.3763365
24.7199654033587	1.9258062	1.3877342
24.737908331937927	1.9673127	1.4026092
24.755851876658305	2.0042217	1.4157053
24.773796038023324	2.044851	1.4299829
24.79174081653661	2.04899	1.4314294
24.809686212701962	2.068397	1.4381922
24.827632227023294	2.117792	1.4552635
24.8455788600047	2.166251	1.4718189
24.8635261121504	2.1570554	1.4686917
24.88147398396475	2.0749893	1.4404824
24.899422475952303	2.0533452	1.4329498
24.917371588617698	2.0957367	1.4476659
24.935321322465768	2.1847749	1.4780984
24.953271678001478	2.3235662	1.5243248
24.97122265572994	2.5623653	1.600739
24.989174256156414	2.8636456	1.6922309
25.00712647978632	3.2738578	1.8093805
25.02507932712521	3.8045073	1.9505146
25.043032798678798	4.343804	2.0841794
25.060986894952933	5.0006614	2.2362158
25.078941616453637	5.792919	2.4068484
25.096896963687055	6.7086587	2.590108
25.114852937159508	7.6809464	2.771452
25.132809537377444	8.067608	2.8403535
25.150766764847468	8.066401	2.8401408
25.168724620076347	7.5375795	2.7454653
25.186683103570985	6.5879774	2.5667055
25.204642215838426	5.511519	2.3476624
25.222601957385894	4.155789	2.0385752
25.24056232872074	3.0515316	1.7468634
25.25852333035048	2.4774294	1.5739852
25.276484962782778	2.181389	1.4769527
25.294447226525435	2.0789182	1.4418454
25.312410122086423	1.9788028	1.4066993
25.330373649973843	1.9551041	1.3982503
25.348337810695988	1.9340131	1.3906881
25.366302604761245	1.9252131	1.3875204
25.384268032678207	1.9059306	1.3805544
25.40223409495558	1.8862951	1.3734245
25.420200792102257	1.909415	1.3818158
25.438168124627246	1.9417264	1.3934585
25.45613609303974	1.92334	1.3868454
25.474104697849057	1.8784566	1.370568
25.492073939564698	1.889647	1.3746443
25.510043818696285	1.8563004	1.3624611
25.528014335753614	1.8454285	1.3584654
25.54598549124664	1.8534783	1.3614252
25.56395728568544	1.8859465	1.3732977
25.58192971958028	1.919311	1.3853921
25.59990279344156	1.9160895	1.3842288
25.617876507779833	1.8844814	1.3727641
25.635850863105826	1.841896	1.3571647
25.653825859930386	1.8675492	1.366583
25.671801498764548	1.8628443	1.3648605
25.68977778011949	1.8667377	1.3662862
25.707754704506524	1.8826207	1.3720863
25.725732272437153	1.8992717	1.3781407
25.743710484423012	1.936242	1.3914891
25.761689340975888	1.9330248	1.3903326
25.77966884260774	1.9166301	1.3844241
25.797648989830662	1.8351207	1.3546662
25.815629783156922	1.792469	1.3388312
25.83361122309895	1.8123746	1.3462446
25.85159331016929	1.8383296	1.3558501
25.869576044880695	1.8563077	1.3624638
25.887559427746034	1.8373139	1.3554755
25.90554345927836	1.8134738	1.3466529
25.92352813999086	1.8235365	1.3503839
25.94151347039689	1.8516364	1.3607485
25.959499451009965	1.8836324	1.3724549
25.97748608234374	1.9284989	1.3887041
25.995473364912062	1.9160889	1.3842286
26.013461299228904	1.884188	1.3726573
26.03144988580839	1.887576	1.3738909
26.04943912516483	1.8973122	1.3774296
26.067429017812675	1.8965616	1.3771571
26.085419564266537	1.8522598	1.3609775
26.103410765041186	1.8255736	1.3511379
26.12140262065155	1.8002294	1.3417263
26.139395131612723	1.7966634	1.3403968
26.157388298439948	1.8371634	1.35542
26.17538212164861	1.8408301	1.356772
26.193376601754295	1.7905055	1.3380977
26.211371739272714	1.7921336	1.3387059
26.229367534719746	1.8191112	1.3487443
26.247363988611433	1.838779	1.3560158
26.26536110146397	1.8039712	1.34312
26.283358873793727	1.77092	1.3307592
26.301357306117204	1.7659764	1.3289005
26.319356398951104	1.793002	1.3390303
26.33735615281224	1.8032944	1.342868
26.35535656821762	1.8093814	1.3451325
26.373357645684404	1.7798119	1.334096
26.39135938572991	1.7837678	1.3355777
26.409361788871614	1.8184199	1.348488
26.427364855627165	1.8568524	1.3626637
26.445368586514352	1.8663979	1.3661617
26.46337298205115	1.8388569	1.3560447
26.48137804275568	1.7975806	1.3407388
26.499383769146217	1.7914633	1.3384556
26.517390161741215	1.8014259	1.3421721
26.53539722105928	1.8399309	1.3564405
26.553404947619182	1.8565315	1.362546
26.571413341939856	1.8503708	1.3602834
26.589422404540397	1.8065702	1.3440871
26.60743213594006	1.7882769	1.3372647
26.62544253665827	1.7546009	1.3246135
26.64345360721459	1.742316	1.3199682
26.66146534812879	1.7475585	1.3219526
26.679477759920758	1.7535164	1.3242041
26.69749084311057	1.7566233	1.3253766
26.71550459821847	1.7843094	1.3357804
26.733519025764842	1.8149972	1.3472183
26.751534126270258	1.8096389	1.3452282
26.769549900255434	1.839635	1.3563315
26.787566348241267	1.8485587	1.3596171
26.80558347074881	1.8569218	1.3626891
26.823601268299267	1.8330244	1.3538923
26.841619741414036	1.7877705	1.3370754
26.85963889061465	1.771793	1.3310871
26.877658716422832	1.836613	1.355217
26.89567921936045	1.8719136	1.368179
26.913700399949544	1.8321232	1.3535595
26.93172225871233	1.7559834	1.3251352
26.949744796171174	1.8018358	1.3423247
26.967768012848605	1.8176689	1.3482095
26.98579190926733	1.7986128	1.3411237
27.003816485950225	1.8305944	1.3529946
27.021841743420318	1.8861175	1.3733599
27.039867682200814	1.8618735	1.3645048
27.057894302815072	1.8422222	1.3572849
27.07592160578664	1.790202	1.3379843
27.0939495916392	1.8040161	1.3431367
27.111978260896635	1.8717021	1.3681016
27.13000761408296	1.866827	1.3663188
27.148037651722397	1.8495398	1.3599778
27.166068374339304	1.8377619	1.3556408
27.184099782458215	1.8261917	1.3513666
27.20213187660384	1.824145	1.3506091
27.22016465730105	1.8235589	1.3503921
27.23819812507487	1.8326793	1.3537649
27.256232280450533	1.8224304	1.3499742
27.274267123953383	1.7640183	1.3281635
27.292302656108987	1.7585522	1.3261042
27.31033887744306	1.7750546	1.3323117
27.32837578848146	1.8197975	1.3489987
27.34641338975026	1.792988	1.339025
27.364451681775673	1.7655898	1.328755
27.382490665084074	1.7745849	1.3321354
27.400530340202046	1.7947288	1.3396748
27.41857070765629	1.7937537	1.3393109
27.436611767973726	1.7924378	1.3388195
27.454653521681404	1.8067039	1.3441368
27.472695969306564	1.8366785	1.3552412
27.490739111376627	1.8530189	1.3612564
27.508782948419153	1.8033305	1.3428814
27.526827480961902	1.806574	1.3440886
27.54487270953279	1.8427691	1.3574864
27.562918634659898	1.8271098	1.3517063
27.580965256871508	1.7733668	1.3316782
27.599012576696026	1.7929415	1.3390076
27.617060594662068	1.8599204	1.363789
27.63510931129842	1.8757513	1.3695807
27.65315872713401	1.8477299	1.3593123
27.67120884269797	1.8297029	1.3526651
27.68925965851958	1.8594716	1.3636245
27.707311175128307	1.8579162	1.363054
27.725363393053787	1.8732371	1.3686625
27.74341631282583	1.8947749	1.3765082
27.7614699349744	1.9134516	1.3832756
27.77952426002968	2.0322034	1.4255537
27.797579288521973	2.061049	1.4356354
27.815635020981784	2.6056724	1.6142095
27.83369145793979	2.6839166	1.6382663
27.85174859992682	2.4700968	1.5716542
27.869806447473923	2.3019311	1.5172117
27.887865001112267	1.9744912	1.4051659
27.905924261373233	1.8822737	1.3719598
27.92398422878836	1.9073262	1.3810598
27.94204490388936	1.9446787	1.3945173
27.96010628720813	2.0136275	1.4190234
27.978168379276728	1.9914287	1.4111799
27.9962311806274	1.9443107	1.3943855
28.014294691792568	1.8821746	1.3719237
28.0323589133048	1.8432935	1.3576795
28.050423845696887	1.8574742	1.3628919
28.068489489501758	1.8735563	1.3687791
28.086555845252523	1.8667203	1.3662797
28.104622913482487	1.8130627	1.3465002
28.122690694725115	1.8180194	1.3483394
28.14075918951405	1.8475392	1.3592421
28.15882839838312	1.8750994	1.3693427
28.176898321866304	1.9179568	1.3849032
28.1949689604978	1.9167559	1.3844695
28.213040314811945	1.9011449	1.3788201
28.23111238534327	1.907252	1.381033
28.249185172626493	1.9131278	1.3831587
28.267258677196473	1.9472165	1.395427
28.285332899588294	1.9651889	1.4018519
28.303407840337172	1.9126145	1.3829731
28.321483499978545	1.9264841	1.3879784
28.33955987904799	1.9644136	1.4015754
28.357636978081285	1.9671782	1.4025613
28.37571479761439	1.90024	1.3784919
28.393793338183425	1.8773944	1.3701805
28.41187260032469	1.9319863	1.3899591
28.429952584574686	1.9690108	1.4032145
28.448033291470065	1.9731277	1.4046806
28.46611472154769	1.9529481	1.3974792
28.484196875344566	1.9593517	1.3997685
28.502279753397914	1.9284328	1.3886802
28.52036335624511	1.9311043	1.3896418
28.538447684423716	1.9325925	1.3901771
28.556532738471482	1.9597856	1.3999234
28.574618518926325	2.0052722	1.4160763
28.59270502632635	2.0575094	1.4344021
28.61079226120985	2.0390203	1.4279426
28.628880224115274	1.9772683	1.4061538
28.646968915581287	1.970218	1.4036446
28.66505833614671	2.0114448	1.4182541
28.68314848635055	2.0917373	1.4462839
28.701239366732004	2.0692782	1.4384986
28.71933097783044	2.0707815	1.439021
28.737423320185403	2.0904348	1.4458336
28.75551639433665	2.1768775	1.4754245
28.773610200824074	2.2194085	1.4897679
28.791704740187793	2.1965716	1.4820836
28.80980001296809	2.1519415	1.4669497
28.827896019705413	2.1773202	1.4755745
28.845992760940433	2.1950047	1.4815549
28.86409023721397	2.2019477	1.4838961
28.88218844906704	2.2040668	1.48461
28.900287397040845	2.2284853	1.4928112
28.918387081676755	2.2142787	1.4880452
28.936487503516343	2.2723658	1.5074369
28.954588663101365	2.348419	1.5324552
28.97269056097374	2.3845441	1.544197
28.990793197675597	2.3965702	1.5480859
29.00889657374923	2.405224	1.5508785
29.027000689737125	2.4010649	1.549537
29.04510554618196	2.4679089	1.5709579
29.06321114362659	2.4982312	1.5805794
29.08131748261405	2.4931438	1.5789692
29.099424563687567	2.5513217	1.5972857
29.11753238739057	2.5576084	1.5992525
29.13564095426663	2.552532	1.5976645
29.15375026485954	2.5895932	1.6092213
29.171860319713275	2.6656897	1.632694
29.18997111937199	2.7544227	1.6596453
29.20808266438002	2.8016999	1.6738279
29.226194955281898	2.8547404	1.6895977
29.244307992622335	2.8957102	1.7016786
29.26242177694624	2.861943	1.6917278
29.2805363087987	2.8557496	1.6898963
29.29865158872498	2.8842444	1.6983063
29.316767617270557	2.9019468	1.7035102
29.334884394981064	2.9073584	1.7050978
29.353001922402367	2.9126813	1.7066579
29.37112020008047	2.9934704	1.7301649
29.389239228561596	3.1365457	1.7710296
29.407359008392152	3.4171717	1.8485594
29.42547954011872	3.86349	1.9655763
29.44360082428809	4.5171895	2.125368
29.46172286144722	5.655168	2.3780596
29.479845652143283	7.310308	2.7037582
29.497969196923606	9.368046	3.0607264
29.516093496335728	11.828987	3.4393294
29.5342185509274	14.566673	3.816631
29.55234436124651	16.861656	4.1062946
29.570470927841175	17.95877	4.237779
29.588598251259686	17.385439	4.1695848
29.60672633205055	15.785524	3.9731002
29.624855170762405	13.837524	3.7198822
29.642984767944146	11.177095	3.3432164
29.66111512414481	8.423162	2.9022684
29.67924623991366	6.2262793	2.4952514
29.697378115800138	4.8720484	2.2072718
29.71551075235387	4.1380324	2.0342155
29.733644150124675	3.739413	1.9337562
29.751778309662576	3.534127	1.8799274
29.769913231517766	3.4219332	1.8498468
29.78804891624066	3.397964	1.8433567
29.806185364381818	3.4227345	1.8500633
29.82432257649206	3.3578997	1.8324573
29.842460553122333	3.3366642	1.8266538
29.86059929482382	3.3493795	1.830131
29.878738802147872	3.3381166	1.8270514
29.896879075646048	3.297378	1.8158684
29.915020115870114	3.277271	1.8103235
29.933161923371976	3.294616	1.8151077
29.951304498703777	3.2879436	1.8132688
29.969447842417857	3.2825685	1.8117859
29.987591955066733	3.255391	1.8042701
30.005736837203123	3.270329	1.808405
30.023882489379943	3.3110445	1.8196275
30.04202891215028	3.2735863	1.8093054
30.060176106067455	3.1786015	1.7828633
30.078324071684946	3.198068	1.7883142
30.09647280955646	3.260522	1.8056915
30.114622320235863	3.2183301	1.7939705
30.132772604277257	3.1403036	1.7720902
30.1509236622349	3.1243043	1.7675701
30.16907549466328	3.040669	1.7437514
30.18722810211705	3.0237362	1.7388893
30.205381485151097	3.0765252	1.7540026
30.22353564432045	3.1156263	1.7651137
30.241690580180403	3.1035278	1.7616832
30.25984629328638	3.079055	1.7547237
30.278002784194037	3.04263	1.7443136
30.296160053459246	2.97938	1.726088
30.314318101638033	2.9323602	1.7124135
30.332476929286646	2.950687	1.7177564
30.35063653696153	3.0048068	1.7334379
30.368796925219307	3.0415142	1.7439938
30.386958094616844	3.036439	1.7425381
30.40512004571115	2.930354	1.7118278
30.423282779059463	2.871859	1.694656
30.441446295219233	2.822236	1.6799512
30.459610594748067	2.8165548	1.6782595
30.47777567820382	2.794514	1.67168
30.495941546144504	2.795056	1.6718421
30.51410819912835	2.7818067	1.6678749
30.532275637713795	2.7945375	1.671687
30.55044386245946	2.786989	1.6694278
30.56861287392416	2.8277898	1.6816033
30.586782672666956	2.849167	1.6879476
30.604953259247047	2.848542	1.6877624
30.623124634223885	2.8280542	1.681682
30.641296798157075	2.8143373	1.6775987
30.659469751606462	2.7649639	1.6628181
30.677643495132074	2.7447793	1.6567376
30.695818029294152	2.7281864	1.6517222
30.713993354653116	2.6677754	1.6333326
30.73216947176962	2.688205	1.6395746
30.75034638120448	2.6933181	1.6411332
30.768524083518756	2.6626785	1.6317716
30.786702579273673	2.7451382	1.6568458
30.80488186903069	2.8538315	1.6893287
30.82306195335144	2.9153259	1.7074325
30.841242832797782	3.0634418	1.750269
30.85942450793176	3.3787284	1.8381318
30.877606979315637	3.7848284	1.9454635
30.895790247511883	4.137719	2.0341384
30.913974313083134	4.581687	2.1404877
30.932159176592283	4.809153	2.1929781
30.95034483860237	4.845092	2.2011569
30.968531299676698	4.646833	2.1556513
30.98671856037873	4.2928925	2.0719297
31.00490662127215	3.8648767	1.965929
31.023095482920848	3.3862882	1.840187
31.04128514588892	2.981883	1.726813
31.059475610740662	2.742488	1.6560459
31.07766687804056	2.6161718	1.6174585
31.09585894835335	2.5615509	1.6004846
31.11405182224393	2.4652805	1.5701212
31.132245500277417	2.4246607	1.5571322
31.15043998301914	2.394251	1.5473368
31.168635271034628	2.4381945	1.5614719
31.18683136488964	2.4618244	1.5690202
31.20502826515008	2.4784904	1.5743222
31.223225972382135	2.451193	1.5656286
31.241424487152155	2.4353802	1.5605705
31.259623810026692	2.4336157	1.5600051
31.27782394157253	2.4144652	1.553855
31.296024882356644	2.3783205	1.5421804
31.314226632946237	2.3352928	1.5281665
31.332429193908684	2.3634102	1.5373387
31.350632565811598	2.4628463	1.5693458
31.368836749222787	2.5087988	1.5839188
31.387041744710295	2.5112848	1.5847034
31.40524755284232	2.493216	1.5789921
31.423454174187317	2.477701	1.5740714
31.441661609313922	2.437403	1.5612184
31.459869858791002	2.4145427	1.5538799
31.478078923187628	2.3810356	1.5430604
31.496288803073064	2.3927004	1.5468357
31.514499499016807	2.383954	1.5440059
31.532711011588546	2.3672225	1.538578
31.550923341358178	2.369565	1.5393392
31.56913648889584	2.4022598	1.5499225
31.587350454771844	2.3532465	1.5340295
31.605565239556732	2.2821727	1.5106862
31.62378084382127	2.2117987	1.4872117
31.641997268136382	2.2487416	1.4995805
31.660214513073274	2.3329322	1.5273939
31.67843257920331	2.3936687	1.5471486
31.6966514670981	2.3622913	1.5369748
31.71487117732944	2.374451	1.5409254
31.733091710469346	2.4032235	1.5502334
31.751313067090052	2.3816383	1.5432557
31.769535247764008	2.3437474	1.5309303
31.787758253063878	2.3064694	1.5187066
31.805982083562526	2.2910864	1.5136335
31.824206739833024	2.2602558	1.5034148
31.84243222244869	2.2489684	1.4996561
31.860658531983013	2.3050816	1.5182495
31.878885669009737	2.3880186	1.5453215
31.897113634102784	2.3621557	1.5369306
31.91534242783632	2.2943592	1.5147142
31.933572050784694	2.233708	1.4945594
31.951802503522508	2.2152429	1.4883692
31.970033786624548	2.2117076	1.4871811
31.988265900665834	2.2366927	1.4955577
32.006498846221575	2.1951404	1.4816006
32.02473262386724	2.2168887	1.488922
32.04296723417845	2.2296462	1.4932
32.0612026777311	2.1641195	1.4710946
32.07943895510129	2.109471	1.4524019
32.097676066865304	2.1209507	1.4563484
32.115914013599685	2.192804	1.480812
32.13415279588115	2.1730537	1.4741281
32.152392414286666	2.1551917	1.4680572
32.1706328693934	2.1571908	1.4687378
32.18887416177875	2.2370613	1.4956809
32.20711629202032	2.2061636	1.485316
32.225359260695924	2.109189	1.4523047
32.243603068383614	2.1673348	1.472187
32.26184771566166	2.2323968	1.4941207
32.28009320310852	2.2269182	1.4922862
32.2983395313029	2.2147052	1.4881886
32.31658670082372	2.166951	1.4720567
32.33483471225012	2.1550508	1.4680091
32.35308356616143	2.1945012	1.4813849
32.371333263137245	2.159358	1.4694754
32.38958380375734	2.1021385	1.4498754
32.407835188601744	2.1714706	1.4735911
32.42608741825067	2.0557685	1.4337951
32.444340493284585	1.9625692	1.4009173
32.46259441428416	1.896928	1.3772901
32.48084918183028	1.9653943	1.4019252
32.49910479650405	2.0553203	1.4336388
32.51736125888683	2.1037343	1.4504255
32.53561856956014	2.0827549	1.4431753
32.5538767291058	2.1304383	1.4596021
32.572135738105764	2.0986674	1.4486778
32.59039559714228	2.0410802	1.4286638
32.608656306797776	2.01786	1.420514
32.62691786765491	2.0184398	1.4207181
32.645180280296586	1.9965466	1.4129921
32.663443545305896	2.0403717	1.4284158
32.68170766326619	2.0309803	1.4251246
32.69997263476099	2.008933	1.4173684
32.7182384603741	1.8943546	1.3763555
32.7365051406895	1.9478891	1.395668
32.75477267629144	1.9702502	1.403656
32.77304106776434	1.8900248	1.3747817
32.79131031569289	1.8217225	1.349712
32.809580420661966	1.9160744	1.3842233
32.827851383256714	1.9468731	1.395304
32.84612320406245	1.9905657	1.4108741
32.86439588366476	1.9119748	1.3827418
32.88266942264945	1.8733093	1.368689
32.9009438216025	1.8991088	1.3780816
32.9192190811102	1.9908335	1.410969
32.937495201758985	2.0286584	1.4243098
32.95577218413556	2.0323873	1.4256182
32.974050028826866	2.0393636	1.4280629
32.992328736420035	2.0157418	1.4197682
33.010608307502444	1.9930196	1.4117434
33.02888874266169	1.9690925	1.4032435
33.047170042485604	1.9325734	1.3901703
33.06545220756225	1.9653383	1.4019053
33.083735238479896	2.022215	1.4220461
33.10201913582707	2.0754945	1.4406576
33.12030390019248	2.066656	1.4375869
33.138589532165135	2.0762012	1.440903
33.15687603233419	2.0756822	1.4407228
33.17516340128909	2.068291	1.4381554
33.19345163961947	2.0722766	1.4395404
33.211740747915215	2.0818639	1.4428666
33.23003072676643	2.0711892	1.4391626
33.248321576763466	2.0081034	1.4170756
33.266613298496885	1.8964996	1.3771346
33.28490589255747	1.9469311	1.3953247
33.30319935953626	2.0381904	1.427652
33.32149370002451	2.0685005	1.4382282
33.339788914613706	1.9283783	1.3886607
33.358085003895575	1.8855202	1.3731425
33.376381968462034	1.942166	1.3936162
33.39467980890529	1.9363358	1.3915229
33.41297852581774	1.8978223	1.3776147
33.43127811979204	1.9938674	1.4120437
33.44957859142105	2.1080208	1.4519025
33.467879941297866	2.0676353	1.4379275
33.486182170015844	2.015468	1.4196718
33.50448527816853	1.9361911	1.3914708
33.522789266349754	1.9984243	1.4136564
33.541094135153514	1.9942769	1.4121886
33.55939988517411	1.9413178	1.3933119
33.57770651700602	1.8143388	1.3469739
33.59601403124398	1.8049514	1.3434848
33.61432242848296	1.8057873	1.3437959
33.632631709318154	1.8768134	1.3699684
33.650941874344994	2.0062392	1.4164177
33.66925292415916	1.9258732	1.3877584
33.68756485935654	1.897107	1.3773551
33.70587768053328	1.8848964	1.3729153
33.724191388285746	1.8661404	1.3660675
33.74250598321054	1.9717859	1.4042029
33.760821465904506	2.1160643	1.4546698
33.77913783696474	2.1412761	1.46331
33.79745509698852	2.11304	1.45363
33.815773246573414	1.987007	1.4096124
33.8340922863172	1.8599795	1.3638107
33.852412216817896	1.8675814	1.3665948
33.87073303867377	1.9035813	1.3797033
33.889054752483304	1.8623742	1.3646883
33.907377358845245	1.8782251	1.3704835
33.92570085835853	1.8137736	1.3467641
33.94402525162239	1.9483721	1.395841
33.96235053923627	2.0212617	1.4217108
33.980676721799824	1.9958826	1.4127572
33.999003799912984	1.8800851	1.3711619
34.01733177417592	1.9510071	1.3967845
34.03566064518901	2.0475392	1.4309225
34.0539904135529	2.164955	1.4713786
34.07232107986846	2.0898688	1.4456378
34.090652644736785	1.9710313	1.4039342
34.108985108759235	1.8630363	1.3649309
34.12731847253742	1.9292945	1.3889904
34.14565273667313	1.9617006	1.4006072
34.16398790176847	2.0414958	1.4288092
34.18232396842574	2.0511556	1.4321856
34.20066093724749	1.9740146	1.4049963
34.21899880883651	1.9284755	1.3886956
34.23733758379583	1.9588733	1.3995975
34.25567726272874	1.9150714	1.3838611
34.27401784623872	1.9374459	1.3919216
34.29235933492957	2.1157224	1.4545523
34.31070172940526	2.2007403	1.4834893
34.32904503027003	2.1875818	1.4790475
34.347389238128386	2.0505798	1.4319845
34.36573435358502	1.9937488	1.4120017
34.38408037724492	2.0887609	1.4452546
34.402427309713296	2.0631762	1.4363761
34.42077515159559	1.962004	1.4007155
34.43912390349752	1.9016492	1.3790029
34.45747356602499	1.8258727	1.3512485
34.47582413978423	1.8912832	1.3752393
34.49417562538163	1.9204676	1.3858094
34.51252802342388	2.019537	1.4211042
34.53088133451789	1.9655483	1.4019802
34.54923555927084	1.9929699	1.4117259
34.567590698290104	1.9588156	1.3995769
34.58594675218336	1.9349563	1.3910271
34.6043037215585	1.9334768	1.3904952
34.62266160702365	1.9806454	1.407354
34.641020409187234	2.0541193	1.4332199
34.65938012865785	1.925695	1.3876941
34.677740766044394	1.8487778	1.3596977
34.69610232195598	1.88897	1.3743981
34.714464797002016	2.0525281	1.4326648
34.73282819179208	2.0851624	1.4440092
34.751192506936064	2.0389662	1.4279237
34.76955774304408	2.0723221	1.4395562
34.7879239007265	2.0319037	1.4254487
34.80629098059391	1.8061708	1.3439386
34.824658983257194	1.8244543	1.3507236
34.843027909327446	1.9344765	1.3908546
34.86139775941603	1.8802266	1.3712136
34.879768534134534	2.00139	1.4147049
34.89814023409483	2.2059853	1.485256
34.91651285990901	2.2685075	1.5061566
34.93488641218944	2.1191	1.4557129
34.95326089154871	1.8790728	1.3707927
34.97163629859967	1.8463243	1.3587952
34.99001263395542	1.7428223	1.3201599
35.00838989822934	1.7513299	1.3233782
35.02676809203499	1.8130188	1.3464838
35.04514721598624	1.8459299	1.35865
35.063527270697215	1.9308795	1.3895609
35.081908256782256	2.101445	1.4496361
35.10029017485597	2.028827	1.424369
35.11867302553321	2.0702844	1.4388483
35.137056809429104	2.1136284	1.4538323
35.155441527159006	1.986129	1.4093009
35.173827179338524	1.9071143	1.3809831
35.19221376658354	1.7478919	1.3220786
35.21060128951017	1.7344925	1.3170013
35.2289897487348	1.8630058	1.3649197
35.24737914487405	1.914071	1.3834995
35.26576947854479	1.7857226	1.3363093
35.28416075036418	1.6829178	1.2972733
35.30255296094958	1.9034115	1.3796418
35.32094611091867	1.9792423	1.4068555
35.33934020088932	2.0509624	1.4321182
35.35773523147969	2.1169262	1.4549661
35.3761312033082	2.1855674	1.4783665
35.394528116993506	2.1091805	1.4523017
35.41292597315452	2.1443331	1.4643542
35.431324772410434	2.2797894	1.5098971
35.449724515380666	2.527149	1.5897009
35.46812520268491	2.3797045	1.5426291
35.486526834943106	2.050129	1.4318272
35.504929412775454	1.8672853	1.3664864
35.52333293680242	2.112781	1.4535409
35.54173740764471	2.1568258	1.4686135
35.560142825923286	1.809686	1.3452457
35.5785491922594	2.005667	1.4162158
35.59695650727454	2.2171316	1.4890035
35.61536477159042	1.9848942	1.4088627
