0.008763373481513119	0.0	0.0
0.026290120649546365	0.0	0.0
0.043816868432600686	0.0	0.0
0.06134361724069026	0.011486674	0.1071759
0.07887036748382949	0.07051493	0.26554647
0.0963971195720331	0.058300674	0.24145533
0.11392387391531617	0.058220845	0.24128996
0.1314506309236943	0.04733724	0.21757123
0.1489773910071836	0.10082822	0.3175346
0.16650415457580078	0.13329819	0.36510023
0.18403092203956356	0.121775195	0.34896302
0.20155769380849	0.09833508	0.31358424
0.2190844702925996	0.08231575	0.28690723
0.2366112519019124	0.07462705	0.27317953
0.2541380390464497	0.12061726	0.34729996
0.27166483213623416	0.13974611	0.37382632
0.28919163158128947	0.13260984	0.36415634
0.3067184377916406	0.09862158	0.31404072
0.324245251177314	0.12628783	0.35537
0.34177207214833777	0.11131832	0.333644
0.3592989011147415	0.12395714	0.3520755
0.37682573848655654	0.1460429	0.3821556
0.39435258467381573	0.1883336	0.4339742
0.41187944008655414	0.17107128	0.41360763
0.42940630513480854	0.17061394	0.4130544
0.446933180228618	0.16289929	0.40360785
0.4644600657780234	0.19623508	0.44298428
0.48198696219306775	0.22930396	0.47885692
0.49951386988379676	0.25129884	0.5012972
0.5170407892602581	0.2479852	0.49798113
0.5345677207325025	0.19555694	0.4422182
0.5520946647105822	0.17205112	0.41479045
0.5696216216045534	0.16668616	0.40827218
0.5871485918244737	0.1921076	0.43830082
0.6046755757804043	0.205446	0.45326152
0.6222025738824094	0.1763599	0.41995227
0.6397295865405557	0.19066656	0.43665382
0.6572566141649129	0.20594364	0.45381016
0.6747836571655547	0.241249	0.49117103
0.6923107159525568	0.2231073	0.47234234
0.7098377909359992	0.20278192	0.45031312
0.7273648825259653	0.1758062	0.41929248
0.7448919911325411	0.17541768	0.41882893
0.762419117165817	0.22314116	0.4723782
0.7799462610358868	0.24784419	0.4978395
0.7974734231528482	0.2169692	0.46579954
0.8150006039268024	0.16808753	0.4099848
0.8325278037678551	0.16312058	0.40388188
0.8500550230861152	0.15889947	0.39862198
0.8675822622916969	0.18105686	0.42550775
0.8851095217947171	0.1936294	0.4400334
0.9026368020052984	0.21992989	0.46896684
0.9201641033335665	0.23277476	0.48246738
0.9376914261896523	0.23112166	0.48075113
0.9552187709836915	0.22225869	0.4714432
0.9727461381258234	0.2459631	0.49594668
0.990273528026193	0.22560385	0.47497773
1.0078009410949496	0.21922025	0.46820962
1.0253283777422473	0.22207537	0.47124875
1.0428558383782454	0.2548336	0.50481045
1.0603833234131086	0.2687748	0.51843494
1.0779108332570058	0.3232387	0.5685409
1.0954383683201119	0.3424509	0.58519304
1.112965929012607	0.4057037	0.63694876
1.1304935157446763	0.54374164	0.7373884
1.1480211289265108	0.525948	0.7252227
1.1655487689683062	1.1808201	1.0866555
1.1830764362802655	1.4488226	1.2036705
1.200604131272596	1.8695141	1.3673017
1.2181318543555117	2.2983887	1.5160438
1.235659605939232	2.326109	1.5251586
1.253187386433982	3.8546798	1.9633338
1.270715196249994	6.152571	2.4804378
1.2882430357975057	11.521449	3.394326
1.3057709054867608	16.192776	4.024025
1.3232988057280106	22.016968	4.692224
1.3408267369315112	27.032522	5.1992807
1.358354699507526	30.668669	5.53793
1.3758826938663256	35.21287	5.9340434
1.3934107204181858	37.361977	6.1124444
1.410938779573391	38.131233	6.1750493
1.4284668717422309	38.739395	6.2240977
1.4459949973350033	38.17431	6.178536
1.4635231567620117	37.694653	6.139597
1.4810513504335687	36.287952	6.023948
1.4985795787599925	35.751675	5.9792705
1.5161078421516088	35.47364	5.955975
1.5336361410187505	35.08478	5.9232407
1.5511644757717598	35.1146	5.9257574
1.5686928468209842	35.917706	5.9931383
1.58622125457678	36.560474	6.046526
1.6037496994495108	37.645954	6.1356297
1.621278181849548	37.307438	6.1079817
1.6388067021872719	37.769405	6.145682
1.6563352608730693	37.171345	6.096831
1.673863858317336	36.235443	6.0195885
1.6913924949304753	35.431435	5.952431
1.7089211711228998	34.509678	5.874494
1.7264498873050296	33.513466	5.7890816
1.7439786438872935	32.902035	5.7360296
1.7615074412801288	31.856743	5.644178
1.779036279893981	31.07254	5.574275
1.796565160139305	29.7192	5.451532
1.814094082426564	29.175407	5.4014263
1.8316230471662298	28.618591	5.3496346
1.849152054768784	28.028973	5.2942395
1.8666811056447168	27.5853	5.252171
1.8842102002045273	26.903929	5.1868997
1.901739338858724	26.459425	5.1438727
1.9192685220178245	25.872143	5.086467
1.9367977500923557	25.013887	5.0013885
1.9543270234928547	24.747513	4.974687
1.971856342629867	24.03449	4.9024982
1.9893857079139496	23.580725	4.855999
2.006915119755667	23.132877	4.809665
2.0244445785655945	22.526785	4.746239
2.0419740847543175	21.853386	4.6747603
2.0595036387324317	21.119005	4.595542
2.0770332409105414	20.5	4.527693
2.094562891699263	20.407875	4.5175076
2.1120925915092217	20.069387	4.479887
2.129622340751053	19.96673	4.468415
2.1471521398354043	188.2875	13.721789
2.1646819891729323	444.59293	21.085373
2.182211889174303	440.80197	20.995285
2.1997418402501974	453.1226	21.286676
2.2172718428113023	432.93738	20.807148
2.234801897268317	320.86826	17.912796
2.2523320040319548	17.443687	4.176564
2.269862163512935	17.212502	4.148795
2.287392376121992	17.0507	4.129249
2.304922642269869	16.56116	4.0695405
2.322452962367322	16.169792	4.021168
2.3399833368251164	15.937569	3.9921885
2.357513766054032	15.835944	3.9794402
2.3750442504648586	15.47376	3.93367
2.3925747904683963	15.089791	3.884558
2.410105386475459	14.761495	3.8420691
2.4276360388968707	14.300093	3.7815464
2.445166748143469	14.102142	3.755282
2.4626975146261025	13.73733	3.7063904
2.4802283387556323	13.537041	3.6792717
2.4977592209429305	13.285013	3.6448612
2.5152901615988825	13.152642	3.6266572
2.5328211611343865	12.93113	3.595988
2.5503522199603523	12.624168	3.5530505
2.5678833384877024	12.372442	3.5174482
2.5854145171273712	12.200662	3.4929445
2.6029457562903064	11.970133	3.459788
2.620477056387469	11.799455	3.4350333
2.6380084178298326	11.54986	3.3985085
2.655539841028383	11.355948	3.3698587
2.673071326394119	11.163423	3.3411708
2.6906028743380523	10.983604	3.3141522
2.708134485271211	11.094449	3.3308332
2.7256661596046325	11.026086	3.320555
2.743197897749369	10.805783	3.2872152
2.760729700116486	10.669734	3.266456
2.778261567117063	10.485397	3.2381163
2.795793499162193	10.373016	3.2207167
2.8133254966629817	10.25966	3.2030704
2.830857560030551	9.979366	3.1590135
2.8483896896760337	9.734452	3.1200085
2.865921886010578	9.5414505	3.088924
2.883454149445347	9.444058	3.0731187
2.9009864803915177	9.333735	3.0551162
2.91851887926028	9.155079	3.025736
2.9360513464628384	9.048923	3.0081427
2.953583882410413	8.994507	2.9990842
2.9711164875142373	9.012691	3.0021143
2.9886491621855606	8.869921	2.9782412
3.0061819068356455	8.716846	2.9524305
3.023714721875769	8.461001	2.90878
3.041247607717225	8.343119	2.8884456
3.0587805647713213	8.4222765	2.9021158
3.0763135934493806	8.4822855	2.9124362
3.0938466941627407	8.318751	2.8842247
3.1113798673227544	8.135237	2.8522336
3.1289131133407904	7.9404945	2.8178883
3.1464464326282315	7.8735547	2.8059855
3.1639798255964786	7.8271317	2.7977011
3.1815132926569443	7.6149054	2.7595117
3.1990468342210603	7.4577994	2.7308972
3.216580450700272	7.4490004	2.7292857
3.2341141425060416	7.398694	2.7200541
3.251647910049847	7.3769364	2.7160516
3.2691817537431813	7.3450804	2.7101808
3.286715673997555	7.25336	2.6932063
3.3042496712244938	7.194745	2.6823022
3.32178374583554	7.1742363	2.6784766
3.339317898242251	7.142971	2.6726336
3.3568521288562034	7.0538716	2.6559126
3.3743864380889876	6.9811234	2.6421816
3.3919208263522127	6.8784003	2.6226704
3.4094552940575023	6.815422	2.6106362
3.4269898416164972	6.8014297	2.607955
3.444524469440858	6.6699586	2.5826263
3.4620591779422587	6.515075	2.5524645
3.479593967532391	6.4054956	2.530908
3.4971288386229658	6.3905163	2.527947
3.5146637916257086	6.490347	2.547616
3.5321988269523628	6.4712157	2.5438585
3.5497339450146903	6.42109	2.533987
3.5672691462244708	6.3329625	2.516538
3.5848044309934988	6.436399	2.537006
3.60233979973359	6.4261284	2.534981
3.619875252856575	6.323129	2.5145833
3.6374107907743034	6.1718283	2.4843163
3.6549464138986427	6.1202674	2.4739175
3.6724821226414788	6.2524943	2.5004988
3.690017917414714	6.271573	2.5043108
3.7075537986302702	6.3760843	2.525091
3.7250897667000857	6.3380327	2.517545
3.7426258220361235	6.595499	2.5681703
3.7601619650503553	6.9305854	2.6326005
3.777698196154779	7.4989343	2.738418
3.7952345157614067	8.579218	2.9290302
3.8127709242822716	9.396166	3.0653167
3.830307422129425	11.485332	3.3890016
3.847844009714936	30.291994	5.503816
3.8653806874508954	97.74213	9.886462
3.882917455749409	97.0057	9.849147
3.900454315022606	96.831726	9.840311
3.917991265682631	41.45626	6.4386535
3.9355283081416506	11.074357	3.3278158
3.9530654428118495	8.768979	2.9612463
3.970602670105433	7.4688797	2.7329252
3.9881399904346244	6.5883083	2.56677
4.005677404211669	6.642995	2.5774007
4.023214911848827	6.6433396	2.5774677
4.0407525137583855	6.557153	2.560694
4.058290210352644	6.448881	2.5394647
4.075828002043927	6.287532	2.5074952
4.0933658892445814	6.2697997	2.5039568
4.110903872366966	6.259344	2.501868
4.128441951823468	6.3407326	2.5180812
4.145980128026488	6.314203	2.5128078
4.163518401388452	6.229567	2.4959102
4.181056772321807	6.189719	2.4879146
4.1985952412390155	6.156888	2.4813077
4.216133808552567	6.2824116	2.506474
4.233672474674966	6.301242	2.5102274
4.251211240018741	6.4850683	2.5465798
4.268750104996445	6.70304	2.589023
4.286289070020643	7.6730323	2.7700238
4.303828135503928	9.436771	3.0719328
4.3213673018589125	29.689096	5.44877
4.3389065694982305	90.870865	9.532621
4.356445938834537	166.03699	12.885534
4.3739854102805085	171.44322	13.093633
4.391524984248844	172.2399	13.12402
4.409064661152262	136.23595	11.672015
4.426604441403504	96.57758	9.82739
4.444144325415337	75.722855	8.701888
4.461684313600543	21.881315	4.677747
4.47922440637193	22.406368	4.7335367
4.496764604142329	20.722809	4.5522313
4.5143049073245916	18.797663	4.335627
4.531845316331589	16.576216	4.0713897
4.5493858315762195	13.573723	3.6842535
4.566926453471405	11.196851	3.3461695
4.584467182430081	9.209987	3.034796
4.602008018865218	8.107009	2.847281
4.619548963189798	7.5029764	2.7391562
4.637090015816834	7.076245	2.6601212
4.654631177159353	6.7777214	2.6034057
4.672172447630417	6.4523044	2.5401387
4.689713827643102	6.287394	2.5074677
4.7072553176105085	6.0481234	2.4592934
4.724796917945764	5.965662	2.4424706
4.742338629062015	5.89794	2.4285674
4.759880451372434	5.8869247	2.4262986
4.777422385290215	5.789365	2.4061098
4.794964431228581	5.731993	2.3941581
4.812506589600768	5.670042	2.381185
4.830048860820047	5.615295	2.3696613
4.847591245299709	5.5302444	2.3516471
4.8651337434530655	5.4873643	2.3425124
4.882676355693457	5.4789863	2.3407235
4.900219082434242	5.499791	2.3451633
4.917761924088813	5.4723163	2.3392982
4.935304881070575	5.4478827	2.33407
4.952847953792969	5.4449363	2.3334386
4.970391142669449	5.500267	2.345265
4.9879344481135055	5.554483	2.356795
5.005477870538642	5.521098	2.3497016
5.023021410358394	5.545927	2.3549793
5.040565067986324	5.521135	2.3497095
5.05810884383601	5.44799	2.3340929
5.075652738321066	5.418284	2.3277206
5.09319675185512	5.417456	2.327543
5.110740884851836	5.452794	2.3351219
5.128285137724894	5.4393606	2.3322437
5.145829510888007	5.369145	2.3171415
5.163374004754908	5.319952	2.306502
5.1809186197393595	5.3021297	2.3026354
5.198463356255145	5.384495	2.3204515
5.216008214716077	5.4127946	2.3265414
5.233553195535998	5.3805695	2.3196054
5.251098299128764	5.3460145	2.312145
5.268643525908272	5.299041	2.3019645
5.286188876288432	5.3124676	2.3048792
5.3037343506831895	5.3426	2.3114064
5.32127994950651	5.337105	2.3102174
5.3388256731723915	5.3395042	2.3107367
5.356371522094851	5.291785	2.3003879
5.373917496687938	5.230454	2.2870185
5.391463597365729	5.2141643	2.2834544
5.40900982454232	5.1593237	2.2714145
5.426556178631843	5.136167	2.2663114
5.444102660048449	5.0743628	2.2526345
5.4616492692063225	5.0931873	2.256809
5.479196006519669	5.1762214	2.275131
5.496742872402727	5.127215	2.2643354
5.514289867269756	5.0597696	2.2493932
5.531836991535049	4.986483	2.2330434
5.549384245612924	5.0446725	2.2460349
5.566931629917724	5.068091	2.2512422
5.584479144863822	5.083783	2.2547247
5.6020267908656205	5.129232	2.2647808
5.619574568337545	5.15	2.2693613
5.637122477694054	5.1309633	2.265163
5.654670519349629	5.146195	2.2685227
5.672218693718784	5.149013	2.2691436
5.689767001216059	5.1434655	2.267921
5.707315442256021	5.105137	2.259455
5.724864017253266	5.0685883	2.2513525
5.7424127266224225	5.1205335	2.2628596
5.75996157077814	5.1634574	2.2723243
5.777510550135105	5.142954	2.2678082
5.795059665108022	5.185028	2.2770658
5.812608916111639	5.235351	2.288089
5.830158303560715	5.3345075	2.3096552
5.847707827870055	5.2889624	2.2997744
5.86525748945448	5.199061	2.280145
5.8828072887288485	5.234492	2.2879012
5.900357226108044	5.330661	2.3088224
5.917907302006979	5.498783	2.3449485
5.9354575168406	6.224058	2.4948063
5.9530078710238765	6.874294	2.6218874
5.970558364971812	7.3471103	2.7105553
5.988108999099438	7.6258817	2.7615
6.005659773821818	8.144509	2.8538587
6.023210689554039	7.986463	2.826033
6.040761746711227	8.410254	2.9000437
6.058312945708531	7.7938967	2.7917552
6.075864286961132	7.378266	2.7162964
6.093415770884244	6.668088	2.5822642
6.1109673978931065	6.160376	2.4820106
6.128519168402993	5.565879	2.3592114
6.146071082829204	5.4097095	2.3258781
6.163623141587075	5.2864285	2.2992234
6.181175345091969	5.1650286	2.27267
6.198727693759281	5.1744294	2.2747371
6.216280188004435	5.16741	2.2731938
6.233832828242885	5.176383	2.2751665
6.251385614890126	5.147833	2.2688837
6.268938548361669	5.106297	2.2597117
6.286491629073067	5.0622525	2.249945
6.304044857439898	5.079186	2.253705
6.321598233877777	5.0919747	2.2565405
6.339151758802344	5.059038	2.2492306
6.356705432629277	4.997778	2.2355711
6.37425925577428	4.932224	2.220861
6.391813228653095	4.9484806	2.224518
6.409367351681486	4.9513974	2.2251735
6.426921625275259	4.9764314	2.2307916
6.44447604985025	5.0054965	2.2372966
6.46203062582232	5.0045776	2.2370913
6.47958535360737	5.0110636	2.2385404
6.497140233621328	5.0372205	2.2443752
6.514695266280161	4.985613	2.2328486
6.532250451999859	4.963119	2.2278059
6.549805791196454	5.0013895	2.2363787
6.567361284286002	5.0188637	2.240282
6.584916931684597	5.025204	2.2416968
6.602472733808367	4.934509	2.2213755
6.6200286910734665	4.9714847	2.2296827
6.637584803896092	4.9343047	2.2213295
6.655141072692462	4.97178	2.2297487
6.672697497878842	4.980038	2.2315998
6.690254079871514	4.9996524	2.2359903
6.707810819086808	4.987174	2.2331982
6.725367715941078	4.9181175	2.2176828
6.742924770850719	4.935605	2.2216222
6.760481984232151	4.9705825	2.2294803
6.778039356501836	5.0163307	2.2397168
6.795596888076266	5.042866	2.2456326
6.813154579371963	4.9713135	2.2296443
6.830712430805492	4.9771123	2.2309442
6.84827044279344	4.9861307	2.2329645
6.865828615752445	5.0718536	2.2520776
6.883386950099159	5.11512	2.2616632
6.900945446250287	5.109635	2.2604501
6.918504104622553	5.0217385	2.2409236
6.936062925632727	4.9579597	2.2266476
6.953621909697607	4.95156	2.2252102
6.971181057234028	5.020241	2.2405894
6.988740368658859	5.098922	2.2580793
7.006299844389007	5.1141047	2.2614386
7.023859484841407	5.15866	2.2712684
7.041419290433036	5.2455597	2.2903187
7.058979261580902	5.4248414	2.329129
7.0765393987020495	5.627092	2.3721492
7.094099702213559	6.012258	2.4519906
7.111660172532549	6.2600565	2.5020106
7.129220810076164	6.6715155	2.5829277
7.146781615261595	7.407103	2.7215993
7.16434258850606	7.72028	2.7785392
7.181903730226821	8.180821	2.8602135
7.1994650408411704	8.279222	2.8773637
7.217026520766437	8.401385	2.8985143
7.234588170419983	8.604852	2.9334028
7.252149990219215	8.534668	2.9214153
7.269711980581568	8.388212	2.896241
7.2872741419245175	8.212461	2.8657393
7.304836474665574	7.7926736	2.791536
7.322398979222286	7.447175	2.7289512
7.339961656012233	7.2535605	2.6932435
7.357524505453039	6.9426503	2.634891
7.375087527962357	6.685371	2.5856085
7.392650723957886	6.2947907	2.5089421
7.410214093857353	5.943665	2.4379632
7.427777638078528	5.7078013	2.3891006
7.445341357039213	5.6322355	2.373233
7.4629052511572525	5.483331	2.3416514
7.480469320850524	5.3542743	2.3139305
7.498033566536948	5.268105	2.2952354
7.5155979886344735	5.226746	2.2862077
7.5331625875610975	5.1700954	2.2737844
7.550727363734844	5.1455636	2.2683835
7.568292317573788	5.1544504	2.2703414
7.585857449496025	5.221174	2.2849889
7.603422759919705	5.2763257	2.2970254
7.620988249263007	5.2419276	2.2895257
7.638553917944147	5.1367817	2.2664468
7.656119766381391	5.125414	2.2639377
7.673685794993023	5.1461596	2.2685149
7.691252004197388	5.2217503	2.285115
7.70881839441285	5.2628937	2.2940998
7.726384966057826	5.262948	2.2941115
7.743951719550762	5.252106	2.2917473
7.761518655310149	5.279857	2.2977939
7.779085773754511	5.3338304	2.3095088
7.796653075302419	5.415594	2.327143
7.814220560372475	5.394392	2.322583
7.831788229383323	5.3800645	2.3194966
7.8493560827536495	5.334134	2.3095744
7.866924120902174	5.275695	2.296888
7.884492344247663	5.258694	2.2931843
7.9020607532089135	5.3117375	2.3047206
7.919629348204771	5.332381	2.3091948
7.937198129654115	5.3740296	2.3181953
7.954767097975865	5.4184165	2.3277493
7.972336253588986	5.4374566	2.3318355
7.989905596912472	5.478693	2.3406608
8.007475128365371	5.4881277	2.3426754
8.025044848366756	5.4500475	2.3345337
8.042614757335754	5.554705	2.3568423
8.060184855691523	5.6817126	2.3836343
8.07775514385327	5.8717003	2.4231591
8.095325622240228	5.939428	2.4370942
8.112896291271687	5.8763614	2.4241207
8.130467151366968	5.857127	2.4201503
8.148038202945436	5.9112062	2.4312973
8.165609446426497	5.9116054	2.4313793
8.183180882229594	5.944726	2.438181
8.200752510774217	5.9156055	2.4322019
8.218324332479893	5.993155	2.4480922
8.235896347766193	6.011348	2.451805
8.253468557052724	6.0085626	2.451237
8.27104096075914	6.0414934	2.4579449
8.288613559305137	6.083214	2.4664173
8.306186353110448	6.1805353	2.4860682
8.32375934259485	6.2204814	2.4940894
8.341332528178162	6.222891	2.4945722
8.358905910280246	6.2832255	2.5066364
8.376479489321003	6.2886686	2.507722
8.394053265720377	6.395869	2.5290055
8.411627239898356	6.441261	2.5379639
8.42920141227497	6.4470105	2.5390964
8.44677578327029	6.397634	2.5293546
8.464350353304427	6.320174	2.5139956
8.48192512279754	6.3273735	2.515427
8.499500092169827	6.298734	2.509728
8.51707526184153	6.240882	2.4981756
8.534650632232934	6.2028346	2.490549
8.552226203764365	6.165959	2.483135
8.569801976856192	6.1792283	2.4858053
8.587377951928834	6.2284617	2.4956887
8.60495412940274	6.2387614	2.4977512
8.622530509698416	6.3183846	2.5136397
8.6401070932364	6.407876	2.5313783
8.657683880437283	6.549418	2.5591831
8.675260871721695	6.655837	2.579891
8.692838067510303	6.798822	2.607455
8.710415468223834	6.8635983	2.619847
8.727993074283043	7.021755	2.6498594
8.745570886108737	7.0714636	2.6592224
8.763148904121765	7.1789637	2.6793587
8.78072712874302	7.223727	2.6876993
8.798305560393441	7.38259	2.7170923
8.815884199494006	7.512164	2.7408328
8.833463046465745	7.690554	2.7731848
8.851042101729728	7.859264	2.803438
8.86862136570707	8.1532	2.855381
8.886200838818924	8.343616	2.8885317
8.903780521486505	8.380834	2.8949668
8.921360414131055	8.482242	2.9124289
8.938940517173874	8.59971	2.9325264
8.956520831036297	8.729696	2.954606
8.97410135613971	9.018953	3.0031571
8.99168209290554	9.182671	3.0302923
9.009263041755265	9.530398	3.0871344
9.026844203110405	9.733052	3.119784
9.044425577392525	9.845385	3.1377356
9.062007165023239	9.813792	3.1326973
9.079588966424197	10.091669	3.1767387
9.097170982017108	10.255918	3.202486
9.11475321222372	11.334221	3.3666334
9.132335657465825	12.246235	3.4994621
9.149918318165264	12.352921	3.5146723
9.167501194743924	12.961732	3.6002405
9.18508428762374	12.686796	3.561853
9.202667597226693	12.617104	3.5520563
9.220251123974803	12.288417	3.5054839
9.237834868290143	11.9133	3.4515648
9.255418830594836	11.642975	3.4121804
9.273003011311046	11.135978	3.3370612
9.290587410860985	10.964651	3.3112915
9.308172029666911	10.367259	3.219823
9.32575686815113	10.071065	3.173494
9.343341926735997	8.776989	2.9625983
9.360927205843916	8.578511	2.9289095
9.378512705897327	8.404805	2.899104
9.396098427318728	8.125024	2.8504426
9.413684370530664	8.012913	2.830709
9.431270535955722	7.924489	2.8150468
9.448856924016539	7.951567	2.8198524
9.466443535135806	7.8978515	2.8103116
9.484030369736251	7.922238	2.814647
9.501617428240658	7.951897	2.8199108
9.519204711071852	8.022491	2.8324003
9.536792218652714	8.021304	2.8321908
9.55437995140617	8.052812	2.8377476
9.571967909755191	7.952459	2.8200104
9.589556094122802	7.929794	2.815989
9.60714450493207	7.9284916	2.8157578
9.624733142606116	7.9475346	2.819137
9.642322007568108	8.0220785	2.8323274
9.659911100241267	8.083224	2.8431013
9.677500421048851	8.101154	2.8462527
9.695089970414175	8.107206	2.8473155
9.712679748760609	8.087934	2.8439293
9.730269756511557	8.103344	2.8466372
9.747859994090492	8.209608	2.8652413
9.765450461920915	8.242055	2.870898
9.78304116042639	8.344274	2.8886456
9.800632090030527	8.347081	2.8891315
9.81822325115699	8.284745	2.8783233
9.835814644229481	8.296243	2.8803198
9.853406269671762	8.332769	2.8866537
9.870998127907646	8.318512	2.8841832
9.888590219360985	8.274379	2.876522
9.906182544455698	8.294423	2.880004
9.923775103615734	8.346488	2.8890288
9.941367897265108	8.371858	2.8934162
9.958960925827878	8.335139	2.8870642
9.97655418972816	8.331282	2.886396
9.994147689390106	8.353752	2.8902857
10.011741425237934	8.37152	2.893358
10.029335397695904	8.348515	2.8893795
10.04692960718833	8.294875	2.8800826
10.06452405413958	8.211982	2.8656557
10.082118738974064	8.1925955	2.862271
10.099713662116246	8.246988	2.871757
10.117308823990651	8.23029	2.8688483
10.134904225021844	8.224757	2.8678837
10.152499865634445	8.198046	2.863223
10.170095746253125	8.21171	2.8656082
10.18769186730261	8.222544	2.867498
10.205288229207675	8.181816	2.8603873
10.222884832393145	8.178184	2.8597524
10.2404816772839	8.155713	2.855821
10.258078764304868	8.168527	2.8580635
10.275676093881035	8.087212	2.8438022
10.293273666437438	8.046331	2.8366055
10.310871482399158	8.082937	2.8430507
10.32846954219134	8.155971	2.855866
10.346067846239173	8.285012	2.8783698
10.363666394967908	8.295014	2.8801067
10.38126518880283	8.233754	2.869452
10.398864228169298	8.211799	2.8656237
10.416463513492713	8.202327	2.8639705
10.434063045198531	8.186133	2.861142
10.451662823712262	8.194827	2.862661
10.469262849459467	8.122537	2.8500063
10.486863122865758	8.093203	2.8448555
10.504463644356806	8.081613	2.8428178
10.522064414358338	8.044088	2.8362103
10.539665433296118	7.993736	2.8273196
10.557266701595987	7.9282746	2.8157191
10.574868219683818	7.8716955	2.8056543
10.592469987985552	7.847192	2.801284
10.610072006927185	7.6858096	2.7723293
10.627674276934751	7.51182	2.7407699
10.64527679843435	7.2969465	2.701286
10.662879571852143	7.201131	2.6834922
10.680482597614331	7.1712694	2.6779225
10.698085876147173	7.159524	2.6757288
10.715689407876988	7.0859456	2.661944
10.733293193230146	6.942195	2.6348045
10.750897232633072	6.7724385	2.602391
10.76850152651225	6.691846	2.5868602
10.786106075294207	6.620448	2.573023
10.803710879405534	6.5595846	2.5611687
10.821315939272877	6.51198	2.5518582
10.83892125532294	6.4056373	2.530936
10.856526827982472	6.358573	2.521621
10.874132657678285	6.306195	2.5112138
10.891738744837243	6.2508492	2.5001698
10.909345089886271	6.1419506	2.4782958
10.926951693252343	6.0466943	2.4590027
10.944558555362494	5.9746704	2.444314
10.96216567664381	5.949354	2.4391298
10.979773057523436	5.935903	2.4363708
10.997380698428573	5.8981	2.4286003
11.014988599786477	5.860105	2.4207654
11.032596762024461	5.824965	2.4134965
11.050205185569892	5.773913	2.402897
11.067813870850198	5.672667	2.381736
11.085422818292859	5.557746	2.3574872
11.10303202832541	5.4356093	2.3314393
11.120641501375454	5.4082513	2.3255646
11.138251237870636	5.352679	2.3135858
11.155861238238671	5.29955	2.3020751
11.173471502907317	5.2099705	2.282536
11.191082032304402	5.1468134	2.2686589
11.208692826857805	5.153037	2.2700303
11.226303886995465	5.1308126	2.2651298
11.243915213145371	5.1069684	2.2598603
11.261526805735578	5.0191	2.2403347
11.279138665194196	4.9490957	2.2246563
11.296750791949393	4.887394	2.210745
11.314363186429393	4.8591704	2.2043526
11.331975849062479	4.802801	2.1915295
11.34958878027699	4.723348	2.1733265
11.36720198050133	4.677091	2.1626585
11.384815450163948	4.611639	2.1474726
11.402429189693366	4.5568438	2.1346765
11.420043199518153	4.5070376	2.1229784
11.437657480066942	63.44135	7.965008
11.455272031768422	85.118835	9.225987
11.472886855051353	107.48148	10.367328
11.490501950344528	99.134766	9.956644
11.508117318076819	84.465744	9.190525
11.52573295867715	45.856205	6.771721
11.543348872574514	4.1816635	2.0449116
11.560965060197946	4.2053967	2.0507064
11.57858152197655	4.2162886	2.0533602
11.59619825833949	4.116836	2.0289989
11.613815269715985	4.0525265	2.0130887
11.631432556535323	38.530098	6.2072616
11.649050119226837	83.08466	9.115079
11.666667958219929	93.4915	9.669101
11.68428607394406	107.75773	10.380642
11.701904466828756	82.55707	9.086092
11.719523137303586	65.33699	8.08313
11.737142085798196	4.568691	2.1374495
11.754761312742286	3.6799767	1.9183265
11.772380818565619	3.6687536	1.9153991
11.790000603698015	3.6221573	1.9031966
11.80762066856935	3.5981941	1.8968906
11.825241013609572	3.537817	1.8809086
11.842861639248683	3.5306244	1.8789955
11.860482545916748	3.5100708	1.8735183
11.878103734043883	3.5205293	1.8763074
11.895725204060282	3.4533558	1.8583207
11.91334695639619	3.408928	1.8463283
11.930968991481919	3.3886373	1.8408252
11.948591309747824	3.3944337	1.8423989
11.966213911624347	3.3403542	1.8276635
11.98383679754198	3.3139849	1.8204354
12.001459967931268	3.2339604	1.7983216
12.019083423222835	3.217413	1.7937149
12.036707163847352	3.1759844	1.7821292
12.05433119023556	3.1652641	1.7791189
12.071955502818259	3.1959283	1.7877159
12.089580102026313	3.2148724	1.7930065
12.107204988290643	3.1751387	1.781892
12.12483016204224	3.1345491	1.7704659
12.142455623712152	3.139787	1.7719444
12.16008137373149	3.124811	1.7677134
12.177707412531431	3.1074884	1.762807
12.19533374054321	3.1048985	1.7620722
12.212960358198126	3.1081498	1.7629945
12.230587265927545	3.106797	1.7626108
12.248214464162889	3.0677955	1.7515124
12.265841953335649	3.04726	1.7456403
12.283469733877375	3.0261025	1.7395697
12.301097806219685	2.9767458	1.7253249
12.31872617079425	2.9214077	1.7092125
12.336354828032825	2.886452	1.6989561
12.353983778367205	2.8852084	1.6985902
12.371613022229262	2.9267797	1.7107834
12.389242560050928	2.9224546	1.7095188
12.406872392264201	2.8700356	1.6941179
12.424502519301143	2.8259163	1.6810462
12.442132941593874	2.7934306	1.671356
12.459763659574586	2.8583603	1.6906686
12.477394673675532	2.885787	1.6987604
12.49502598432903	2.9066997	1.7049046
12.51265759196746	2.880104	1.6970869
12.530289497023267	2.871207	1.6944636
12.547921699928967	2.845637	1.6869016
12.565554201117134	2.8244228	1.680602
12.583187001020404	2.783979	1.6685259
12.600820100071486	2.7477682	1.6576394
12.618453498703152	2.7295063	1.6521218
12.636087197348235	2.7669477	1.6634145
12.65372119643964	2.8264744	1.6812122
12.671355496410326	2.8788779	1.6967256
12.68899009769333	2.8858256	1.6987718
12.706625000721749	2.8632298	1.692108
12.724260205928752	2.8915362	1.7004517
12.741895713747551	2.913926	1.7070225
12.759531524611454	2.9861112	1.7280368
12.777167638953818	2.977116	1.7254322
12.794804057208072	2.957316	1.7196848
12.812440779807702	2.9842095	1.7274865
12.830077807186271	3.1932642	1.7869707
12.847715139777405	3.296904	1.8157378
12.865352778014795	3.5219843	1.876695
12.882990722332197	3.5853033	1.8934897
12.90062897316344	3.6137688	1.9009916
12.918267530942412	3.7311347	1.9316145
12.935906396103071	3.62265	1.903326
12.953545569079449	3.7797668	1.9441622
12.971185050305628	3.5697722	1.8893842
12.988824840215775	3.6364696	1.906953
13.006464939244115	3.629326	1.905079
13.024105347824943	3.4545333	1.8586375
13.041746066392617	3.552718	1.8848655
13.05938709538157	3.36662	1.8348352
13.077028435226296	3.4201448	1.8493633
13.094670086361363	3.3357937	1.8264155
13.112312049221401	3.2234635	1.7954006
13.129954324241112	3.101228	1.7610304
13.147596911855258	2.8880177	1.6994169
13.165239812498685	2.8781743	1.6965183
13.182883026606293	2.848148	1.6876457
13.200526554613058	2.7914197	1.6707542
13.218170396954017	2.7204678	1.649384
13.235814554064284	2.7150078	1.6477281
13.253459026379034	2.6881475	1.6395571
13.271103814333523	2.645078	1.6263696
13.288748918363058	2.616014	1.6174097
13.306394338903031	2.654362	1.6292213
13.32404007638889	2.6440532	1.6260545
13.341686131256164	2.6532342	1.6288751
13.359332503940449	2.6453063	1.6264398
13.376979194877402	2.6889176	1.639792
13.394626204502751	2.732091	1.6529038
13.412273533252307	2.7766435	1.6663264
13.429921181561937	2.7588685	1.6609842
13.447569149867581	2.749128	1.6580495
13.465217438605247	2.7409747	1.6555889
13.482866048211022	2.7374308	1.6545182
13.500514979121052	2.7410233	1.6556036
13.518164231771568	2.7255476	1.6509233
13.535813806598844	2.725547	1.6509231
13.553463704039254	2.7350569	1.6538007
13.571113924529229	2.7194774	1.6490839
13.588764468505275	2.7131636	1.6471684
13.606415336403956	2.697082	1.6422795
13.624066528661917	2.7245278	1.6506144
13.641718045715882	2.781687	1.667839
13.659369888002635	2.8430548	1.686136
13.67702205595903	2.9156356	1.7075232
13.694674550021993	2.979108	1.7260092
13.712327370628532	3.0645344	1.7505811
13.729980518215713	3.183318	1.7841855
13.747633993220681	3.2047746	1.7901884
13.765287796080647	3.213134	1.7925217
13.7829419272329	3.2298772	1.7971859
13.800596387114801	3.296963	1.815754
13.818251176163775	3.3190174	1.821817
13.835906294817324	3.3501506	1.8303417
13.853561743513023	3.3995175	1.843778
13.871217522688525	3.4604545	1.8602297
13.888873632781538	3.4671233	1.8620213
13.906530074229858	3.494001	1.8692247
13.92418684747135	3.501748	1.8712958
13.941843952943948	3.495495	1.8696243
13.959501391085665	3.4573088	1.859384
13.977159162334578	3.4028347	1.8446773
13.994817267128846	3.3933244	1.8420979
14.012475705906693	3.297912	1.8160154
14.030134479106424	3.2135131	1.7926275
14.047793587166414	3.1262677	1.7681254
14.065453030525108	3.1134539	1.7644982
14.083112809621026	3.0414953	1.7439884
14.100772924892766	2.9999874	1.7320472
14.118433376778997	2.941908	1.7151991
14.136094165718458	2.8901227	1.700036
14.153755292149969	2.798393	1.6728398
14.171416756512416	2.6730707	1.6349528
14.189078559244768	2.60249	1.6132234
14.20674070078606	2.536179	1.5925386
14.224403181575408	2.5031028	1.5821197
14.242066002051999	2.4549348	1.5668231
14.259729162655093	2.4175816	1.5548574
14.277392663824022	2.3990405	1.5488837
14.295056505998208	2.3831325	1.5437398
14.312720689617128	2.3879144	1.5452878
14.330385215120348	2.3902514	1.5460438
14.348050082947497	2.4016259	1.549718
14.3657152935383	2.425212	1.5573092
14.383380847332528	2.4209592	1.5559433
14.401046744770051	2.3977177	1.5484565
14.418712986290798	2.3775053	1.5419161
14.436379572334793	2.3876762	1.5452107
14.454046503342123	2.3975728	1.5484097
14.471713779752946	2.416534	1.5545205
14.489381402007504	2.3683183	1.5389341
14.507049370546113	2.3501673	1.5330255
14.524717685809168	2.3275926	1.525645
14.542386348237134	2.3407588	1.5299538
14.560055358270553	2.306696	1.5187811
14.577724716350051	2.3400671	1.5297278
14.595394422916325	2.3618753	1.5368394
14.61306447841015	2.400337	1.5493021
14.63073488327237	2.432518	1.5596532
14.648405637943917	2.4582286	1.567874
14.6660767428658	2.4790459	1.5744987
14.683748198479094	2.5058649	1.5829923
14.701420005224954	2.5679204	1.6024733
14.719092163544628	2.605476	1.6141486
14.73676467387942	2.6495798	1.627753
14.754437536670727	2.669014	1.6337117
14.772110752360014	2.6759365	1.635829
14.78978432138882	2.6944797	1.641487
14.807458244198777	2.711017	1.6465166
14.82513252123159	2.7050602	1.6447067
14.842807152929028	2.7071915	1.6453545
14.860482139732962	2.671942	1.6346076
14.87815748208531	2.6395721	1.624676
14.8958331804281	2.6287825	1.6213521
14.91350923520342	2.5706651	1.6033294
14.931185646853438	2.5999587	1.6124387
14.948862415820408	2.6048524	1.6139555
14.966539542546656	2.647363	1.6270719
14.98421702747459	2.6542234	1.6291788
15.001894871046696	2.6740649	1.6352568
15.019573073705542	2.6567028	1.6299394
15.037251635893766	2.6387024	1.6244084
15.054930558054092	2.654781	1.62935
15.072609840629323	2.7265909	1.6512392
15.090289484062351	2.906271	1.7047789
15.107969488796124	3.2063825	1.7906375
15.125649855273691	3.5805805	1.8922422
15.14333058393817	4.0275173	2.0068676
15.161011675232768	4.982836	2.2322266
15.17869312960076	6.375446	2.5249646
15.196374947485506	8.233031	2.8693259
15.214057129330447	11.368954	3.371788
15.231739675579114	16.030457	4.003805
15.249422586675102	21.03121	4.58598
15.267105863062092	24.112875	4.910486
15.284789505183847	24.476355	4.947358
15.302473513484218	22.505947	4.7440434
15.320157888407127	18.976313	4.356181
15.337842630396578	14.705746	3.8348072
15.355527739896656	11.4253845	3.3801455
15.37321321735153	8.889837	2.981583
15.39089906320545	6.4773026	2.5450544
15.408585277902748	4.906024	2.2149546
15.42627186188783	3.7811747	1.9445243
15.443958815605198	3.23591	1.7988635
15.461646139499424	2.9270217	1.710854
15.479333834015168	2.7660532	1.6631455
15.497021899597165	2.7269733	1.651355
15.514710336690234	2.6890264	1.6398251
15.53239914573928	2.6454456	1.6264826
15.550088327189297	2.6007404	1.6126812
15.567777881485336	2.5490959	1.5965889
15.58546780907256	2.507806	1.5836054
15.6031581103962	2.4463975	1.5640965
15.620848785901568	2.421353	1.5560697
15.638539836034063	2.4083114	1.5518734
15.656231261239173	2.433615	1.5600048
15.673923061962451	2.4515886	1.565755
15.691615238649552	2.466812	1.5706087
15.709307791746202	2.4428508	1.5629622
15.727000721698221	2.3979897	1.5485444
15.744694028951498	2.4100564	1.5524356
15.76238771395202	2.400078	1.5492185
15.780081777145844	2.3905885	1.5461528
15.797776218979125	2.3920724	1.5466326
15.815471039898094	2.3893366	1.5457479
15.833166240349064	2.3853712	1.5444647
15.850861820778437	2.3941538	1.5473053
15.868557781632699	2.382549	1.5435508
15.886254123358412	2.3537157	1.5341824
15.903950846402232	2.3313074	1.5268619
15.921647951210897	2.355967	1.5349159
15.939345438231225	2.4022598	1.5499225
15.957043307910133	2.3933907	1.5470587
15.974741560694602	2.3591866	1.5359644
15.992440197031714	2.3343043	1.527843
16.01013921736862	2.3276649	1.5256686
16.02783862215259	2.3738327	1.5407248
16.045538411830933	2.37666	1.5416421
16.06323858685107	2.409016	1.5521004
16.080939147660512	2.3992229	1.5489424
16.09864009470684	2.441834	1.5626369
16.11634142843774	2.4300458	1.5588604
16.134043149300954	2.4065788	1.5513152
16.15174525774433	2.4066856	1.5513496
16.169447754215817	2.4263883	1.5576868
16.18715063916342	2.4187045	1.5552185
16.204853913035244	2.42364	1.5568044
16.222557576279478	2.4116201	1.5529392
16.240261629344403	22.411198	4.7340465
16.257966072678386	42.94886	6.553538
16.275670906729868	38.08071	6.170957
16.293376131947387	2.5162578	1.5862716
16.31108174877957	2.5920835	1.6099949
16.328787757675133	2.622827	1.6195145
16.34649415908287	2.6377347	1.6241105
16.364200953451657	2.59627	1.6112945
16.38190814123048	2.607831	1.614878
16.39961572286839	2.6511214	1.6282264
16.41732369881455	2.6875496	1.6393747
16.43503206951817	2.6982763	1.6426431
16.45274083542859	2.7115448	1.6466769
16.47044999699522	2.7774644	1.6665727
16.488159554667558	2.8070114	1.6754138
16.505869508895184	2.8825788	1.6978159
16.523579860127786	2.9428656	1.7154783
16.541290608815117	2.9996796	1.7319583
16.559001755407035	3.0201204	1.7378494
16.57671330035348	3.024557	1.7391254
16.59442524410448	3.1015074	1.7611097
16.61213758711015	3.203279	1.7897706
16.629850329820705	3.2898366	1.8137907
16.647563472686436	3.3342657	1.8259972
16.665277016157724	3.3477776	1.8296933
16.682990960685053	3.3576658	1.8323934
16.70070530671898	3.4041035	1.8450212
16.718420054710155	3.4499552	1.8574055
16.736135205109335	3.5349324	1.8801416
16.753850758367335	3.5968156	1.8965273
16.771566714935087	3.671496	1.9161148
16.789283075263597	3.7087696	1.9258167
16.80699983980398	3.7891188	1.9465659
16.82471700900741	3.8608909	1.9649149
16.84243458332518	3.92138	1.9802475
16.860152563208665	3.9808133	1.9951975
16.87787094910932	4.045523	2.0113485
16.89558974147871	4.133332	2.0330596
16.913308940768466	4.206342	2.050937
16.931028547430333	4.2824783	2.069415
16.94874856191613	4.276875	2.0680606
16.966468984677785	4.3395734	2.0831642
16.98418981616729	4.3805394	2.0929737
17.00191105683676	4.4797564	2.1165435
17.019632707138374	4.5138106	2.124573
17.03735476752442	4.525541	2.127332
17.05507723844728	4.56553	2.13671
17.072800120359403	4.596699	2.1439915
17.090523413713353	4.6046753	2.1458507
17.108247118961785	4.618803	2.1491401
17.125971236557437	4.6269507	2.1510348
17.143695766953133	4.669002	2.1607873
17.161420710601806	4.705857	2.1692986
17.179146067956477	4.7016234	2.1683228
17.19687183947025	4.712075	2.1707315
17.21459802559634	4.6812115	2.1636107
17.232324626788028	4.682266	2.1638546
17.25005164349871	4.6700025	2.1610188
17.267779076181863	4.703862	2.168839
17.285506925291074	4.713767	2.1711211
17.30323519127999	4.6878233	2.1651382
17.320963874602384	4.642838	2.1547246
17.33869297571211	4.593484	2.1432414
17.356422495063114	4.587891	2.1419363
17.37415243310944	4.523414	2.126832
17.391882790305218	4.491244	2.1192555
17.40961356710468	4.527004	2.1276758
17.42734476396215	4.5284996	2.1280272
17.445076381332044	4.491958	2.119424
17.462808419668868	4.568154	2.137324
17.48054087942723	4.689259	2.1654696
17.498273761061835	4.9983644	2.2357023
17.51600706502747	5.4454536	2.3335495
17.533740791779024	6.171373	2.4842248
17.551474941771485	7.6405873	2.7641613
17.56920951545993	8.779041	2.9629447
17.586944513299528	10.835072	3.291667
17.60467993574556	12.4494295	3.528375
17.622415783253373	14.231576	3.7724762
17.64015205627843	15.748319	3.968415
17.657888755276293	16.846697	4.1044726
17.675625880702604	17.360302	4.1665697
17.69336343301311	17.211203	4.1486387
17.71110141266366	16.375797	4.046702
17.728839820110178	15.284887	3.909589
17.746578655808705	14.31216	3.7831414
17.764317920215372	12.883574	3.5893695
17.7820576137864	11.408575	3.3776581
17.79979773697811	9.386123	3.063678
17.81753829024692	7.505814	2.739674
17.835279274049356	5.844969	2.417637
17.85302068884201	4.8656354	2.2058184
17.870762535081607	4.244588	2.0602398
17.888504813224934	3.9415836	1.9853421
17.90624752372891	3.7666554	1.9407873
17.923990667050536	3.6343813	1.9064053
17.941734243646895	3.531848	1.8793211
17.959478253975185	3.4808414	1.8657013
17.9772226984927	3.484844	1.8667737
17.994967577656833	3.4714692	1.8631879
18.01271289192506	3.4381738	1.8542314
18.030458641754965	3.3612475	1.8333706
18.04820482760425	3.3402362	1.8276314
18.06595144993067	3.2970493	1.8157779
18.083698509192125	3.2770855	1.8102722
18.101446005846576	3.2296932	1.7971348
18.119193940352105	3.2163658	1.7934229
18.136942313166887	3.2113864	1.7920341
18.1546911247492	3.2493289	1.8025895
18.1724403755574	3.2016554	1.789317
18.19019006604997	3.145116	1.7734475
18.207940196685467	3.1005473	1.7608371
18.225690767922575	3.1103458	1.7636173
18.243441780220046	3.0763404	1.75395
18.261193234036764	3.0510094	1.7467139
18.278945129831676	3.0233724	1.7387848
18.29669746806386	3.0213473	1.7382023
18.314450249192483	3.0562167	1.7482039
18.3322034736768	3.06042	1.7494056
18.349957141976184	3.056509	1.7482874
18.3677112545501	3.0608747	1.7495356
18.385465811858108	3.0633526	1.7502435
18.403220814359884	3.067294	1.7513691
18.420976262515172	3.0214996	1.7382461
18.43873215678387	3.0572155	1.7484895
18.456488497625923	3.0909247	1.7581027
18.474245285501407	3.1957302	1.7876606
18.492002520870486	3.2848043	1.812403
18.50976020419343	3.3987622	1.8435732
18.527518335930615	3.6997533	1.9234743
18.545276916542516	4.292364	2.0718021
18.563035946489688	4.476419	2.1157548
18.580795426232832	4.8989573	2.2133589
18.598555356232698	4.7584624	2.18139
18.616315736950185	4.9816885	2.2319696
18.63407656884626	4.620243	2.149475
18.65183785238201	4.85213	2.202755
18.669599588018617	4.6850767	2.1645038
18.68736177621737	4.6787744	2.1630476
18.705124417439652	4.5724554	2.13833
18.72288751214696	4.3882227	2.0948086
18.740651060800886	4.576341	2.1392384
18.758415063863115	4.3616366	2.088453
18.77617952179546	4.5268006	2.1276278
18.793944435059814	4.2519116	2.0620165
18.811709804118184	4.2894897	2.0711083
18.829475629432675	4.264015	2.0649493
18.8472419114655	4.067697	2.0168533
18.86500865067897	4.1756287	2.0434356
18.88277584753551	3.8672824	1.9665407
18.90054350249763	3.9110022	1.9776254
18.918311616027957	3.5643187	1.8879403
18.936080188589226	3.444182	1.8558507
18.953849220644265	3.1105635	1.763679
18.971618712656007	2.9259794	1.7105495
18.9893886650875	2.8652127	1.692694
19.007159078401887	8.036886	2.8349402
19.024929953062408	32.946613	5.739914
19.042701289532435	32.896145	5.735516
19.060473088275405	25.40275	5.040114
19.07824534975489	2.6268342	1.6207511
19.096018074434568	2.614655	1.6169895
19.113791262778197	2.6044254	1.6138232
19.13156491524966	2.5828552	1.6071264
19.149339032312945	2.5454357	1.5954422
19.167113614432136	2.5072548	1.5834314
19.184888662071433	2.5272548	1.5897342
19.202664175695123	2.54901	1.5965619
19.220440155767623	2.5370166	1.5928015
19.238216602753447	2.501798	1.5817072
19.2559935171172	2.464391	1.5698379
19.27377089932361	2.479879	1.5747632
19.291548749837514	2.4993768	1.5809417
19.309327069123835	2.4902701	1.578059
19.32710585764763	2.4941208	1.5792786
19.344885115874032	2.490601	1.5781639
19.362664844268313	2.5026908	1.5819895
19.380445043295822	2.4709876	1.5719376
19.39822571342203	2.4812872	1.5752102
19.41600685511252	2.4842806	1.5761601
19.43378846883297	2.5057015	1.5829408
19.451570555049173	2.4859748	1.5766975
19.469353114227037	2.443108	1.5630445
19.48713614683254	2.4362066	1.5608352
19.50491965333182	2.4489233	1.5649036
19.52270363419109	2.4665186	1.5705154
19.540488089876686	2.4511964	1.5656297
19.55827302085503	2.4491777	1.5649849
19.576058427592674	2.4879417	1.577321
19.593844310556282	2.5314903	1.5910658
19.611630670212598	2.5630646	1.6009574
19.629417507028506	2.5326877	1.591442
19.64720482147098	2.4917164	1.5785172
19.6649926140071	2.4855566	1.5765648
19.682780885104084	2.5143342	1.5856652
19.70056963522921	2.514159	1.5856099
19.718358864849908	2.4839349	1.5760504
19.7361485744337	2.4764814	1.573684
19.753938764448215	2.5040398	1.5824158
19.771729435361202	2.5313148	1.5910107
19.789520587640506	2.5174158	1.5866367
19.807312221754092	2.517324	1.5866077
19.825104338170043	2.5098732	1.584258
19.842896937356517	2.4807935	1.5750535
19.860690019781824	2.4595582	1.5682979
19.87848358591436	2.4969425	1.5801717
19.896277636222635	2.528251	1.5900475
19.914072171175278	2.5475028	1.5960898
19.931867191241015	2.5175257	1.5866712
19.94966269688869	2.5089357	1.583962
19.967458688587264	2.5051506	1.5827668
19.985255166805807	2.4784925	1.5743228
20.00305213201348	2.4522963	1.5659809
20.020849584679578	2.4640923	1.5697427
20.038647525273507	2.4924393	1.5787461
20.05644595426477	2.4761486	1.5735782
20.07424487212299	2.452155	1.5659359
20.092044279317903	2.4413476	1.5624813
20.109844176319353	2.4229083	1.5565695
20.127644563597304	2.4501832	1.5653061
20.145445441621817	2.4244149	1.5570532
20.16324681086307	2.3881133	1.5453521
20.181048671791373	2.3629413	1.5371861
20.198851024877122	2.363442	1.537349
20.216653870590836	2.3818994	1.5433403
20.234457209403146	2.4155636	1.5542084
20.252261041784802	2.4115248	1.5529085
20.270065368206662	2.3845074	1.544185
20.287870189139685	2.3644936	1.537691
20.305675505054968	2.3799226	1.5426998
20.323481316423702	2.3794112	1.542534
20.341287623717207	2.353818	1.5342157
20.359094427406884	2.3495615	1.532828
20.376901727964288	2.351281	1.5333887
20.39470952586107	2.365423	1.5379932
20.41251782156899	2.3690727	1.5391792
20.430326615559935	2.340548	1.5298849
20.448135908305886	2.3322144	1.527159
20.465945700278965	2.3605373	1.536404
20.483755991951384	2.3526478	1.5338343
20.50156678379548	2.325813	1.5250616
20.519378076283708	2.3450453	1.5313541
20.537189869888635	2.3850904	1.5443738
20.55500216508294	2.3543608	1.5343926
20.572814962339415	2.2969797	1.515579
20.59062826213098	2.2922816	1.5140283
20.60844206493066	2.337613	1.5289254
20.626256371211593	2.3641882	1.5375917
20.644071181447032	2.367845	1.5387803
20.66188649611036	2.3499033	1.5329394
20.67970231567506	2.3410954	1.5300639
20.697518640614742	2.3054361	1.5183662
20.715335471403122	2.2657487	1.5052404
20.73315280851404	2.2534943	1.5011643
20.750970652421447	2.2826617	1.510848
20.768789003599412	2.3012648	1.516992
20.786607862522136	2.2892396	1.5130234
20.8044272296639	2.2902415	1.5133544
20.82224710549913	2.2846391	1.5115023
20.84006749050237	2.2874293	1.512425
20.857888385148268	3.821799	1.9549422
20.8757097899116	45.91943	6.7763877
20.893531705267254	64.789345	8.049183
20.911354131690224	83.82073	9.155366
20.92917706965566	69.07297	8.311015
20.94700051963877	50.134502	7.080572
20.96482448211493	29.415813	5.4236345
20.982648957559622	4.182681	2.0451603
21.00047394644843	2.3000944	1.5166062
21.01829944925707	2.25636	1.5021185
21.036125466461375	2.1800065	1.4764845
21.053951998537297	2.1983187	1.4826728
21.071779045960906	2.217374	1.489085
21.089606609208378	2.2297804	1.4932449
21.10743468875603	2.1992078	1.4829726
21.12526328508028	2.2144706	1.4881097
21.143092398657675	2.221396	1.4904349
21.16092202996488	2.255346	1.501781
21.17875217947867	2.2465358	1.4988449
21.19658284767596	2.1994185	1.4830437
21.21441403503377	2.1992738	1.4829949
21.232245742029225	2.2225857	1.4908339
21.2500779691396	2.2369103	1.4956304
21.26791071684227	2.1851969	1.4782411
21.28574398561475	2.146722	1.4651697
21.30357777593465	2.1355863	1.4613645
21.321412088279704	2.1638546	1.4710046
21.339246923127792	2.1678028	1.4723461
21.357082280956888	2.1723409	1.4738864
21.3749181622451	2.1293874	1.4592421
21.392754567470647	2.114513	1.4541365
21.41059149711187	2.1009052	1.44945
21.42842895164726	2.1318333	1.4600799
21.446266931555378	2.1413	1.4633181
21.464105437314945	2.1219049	1.456676
21.481944469404798	2.1167223	1.454896
21.49978402830388	2.128471	1.458928
21.51762411449127	2.1192026	1.4557481
21.53546472844617	2.098856	1.4487429
21.553305870647876	2.091352	1.4461508
21.571147541575865	2.1317568	1.4600537
21.58898974170967	2.0917523	1.4462892
21.60683247152899	2.0700705	1.438774
21.62467573151363	2.0506027	1.4319925
21.642519522143523	2.0640566	1.4366825
21.660363843898722	2.0605233	1.4354523
21.6782086972594	2.078532	1.4417114
21.696054082705864	2.0937023	1.4469632
21.713900000718535	2.053771	1.4330984
21.73174645177795	2.03793	1.4275608
21.749593436364794	1.9939011	1.4120556
21.767440954959845	2.011502	1.4182743
21.785289008044032	2.0217168	1.421871
21.803137596098388	2.0216534	1.4218485
21.820986719604086	1.9750797	1.4053752
21.838836379042412	1.93296	1.3903093
21.85668657489478	1.940505	1.3930202
21.87453730764273	1.9792417	1.4068552
21.892388577767914	1.9848043	1.4088308
21.91024038575213	1.9992957	1.4139645
21.928092732077285	1.9850779	1.4089279
21.945945617225426	2.0232823	1.4224213
21.963799041678694	2.0318992	1.425447
21.981653005919398	31.362404	5.6002145
21.999507510429943	78.12398	8.838777
22.01736255569286	73.08998	8.549268
22.035218142190818	4.189604	2.046852
22.05307427040661	2.057174	1.4342852
22.07093094082315	2.0276465	1.4239545
22.088788153923474	1.9948149	1.4123791
22.106645910190746	1.9992682	1.4139549
22.12450421010827	2.010231	1.4178262
22.142363054159464	1.9778575	1.4063632
22.16022244282787	1.9832317	1.4082726
22.178082376597164	1.968663	1.4030905
22.195942855951145	2.0074177	1.4168336
22.213803881373742	1.9881378	1.4100134
22.231665453349002	2.0057948	1.4162608
22.24952757236111	1.9893252	1.4104344
22.26739023889438	2.0162964	1.4199635
22.28525345343323	2.0144444	1.4193112
22.30311721646225	2.0247629	1.4229417
22.320981528466113	1.9826462	1.4080647
22.33884638992964	1.9506887	1.3966706
22.356711801337788	1.9509687	1.3967708
22.37457776317561	1.9681557	1.4029098
22.392444275928337	1.9557589	1.3984845
22.410311340081282	1.9423507	1.3936825
22.428178956119904	1.924551	1.3872819
22.446047124529805	1.8994933	1.378221
22.46391584579669	1.8639601	1.3652693
22.481785120406414	1.8713455	1.3679713
22.49965494884496	1.8814163	1.3716474
22.51752533159841	1.921111	1.3860415
22.53539626915302	1.9305333	1.3894364
22.553267761995137	1.9193473	1.3854051
22.571139810611264	1.8944782	1.3764005
22.589012415488025	1.8873941	1.3738246
22.60688557711216	1.9235884	1.3869349
22.624759295970566	1.9538217	1.3977917
22.642633572550263	1.9867307	1.4095143
22.660508407338362	1.9901683	1.4107332
22.67838380082217	2.0071874	1.4167525
22.696259753489077	1.9560411	1.3985854
22.714136265826614	1.9325052	1.3901458
22.73201333832246	1.921194	1.3860714
22.74989097146439	1.9476937	1.3955979
22.76776916574035	1.9337504	1.3905935
22.785647921638393	1.9381064	1.3921589
22.803527239646712	1.9431347	1.3939637
22.82140712025363	1.9466282	1.3952162
22.839287563947593	1.9365783	1.3916099
22.85716857121719	1.9314706	1.3897736
22.875050142551135	1.9154519	1.3839985
22.892932278438277	1.9280838	1.3885546
22.910814979367604	1.9256816	1.3876894
22.928698245828222	1.9593214	1.3997576
22.946582078309387	1.9953909	1.4125831
22.96446647730047	1.9691306	1.4032571
22.98235144329098	1.923702	1.3869759
23.000236976770562	1.876066	1.3696955
23.018123078229	1.8735219	1.3687665
23.03600974815619	1.8898203	1.3747073
23.053896987042194	1.9281877	1.388592
23.071784795377173	1.9268445	1.3881083
23.08967317365145	1.9083803	1.3814414
23.10756212235546	1.907652	1.3811778
23.125451641979787	1.9124231	1.3829039
23.143341733015134	1.9316881	1.3898518
23.161232395952357	1.9303067	1.3893548
23.179123631282426	1.9197587	1.3855536
23.197015439496468	1.9250864	1.3874748
23.214907821085717	1.9115562	1.3825904
23.23280077654157	1.938023	1.392129
23.250694306355538	1.9183844	1.3850576
23.268588411019277	1.937698	1.3920122
23.28648309102458	1.9300467	1.3892612
23.304378346863356	1.9376786	1.3920052
23.322274179027676	1.9419523	1.3935395
23.340170588009723	1.9547689	1.3981305
23.358067574301852	1.9784765	1.4065833
23.37596513839651	1.9964272	1.4129498
23.39386328078629	2.0001185	1.4142555
23.411762001963947	1.9921985	1.4114527
23.429661302422353	1.9724194	1.4044285
23.4475611826545	1.9414668	1.3933653
23.46546164315356	1.9512664	1.3968774
23.48336268441279	1.9349906	1.3910394
23.501264306925638	1.8934145	1.376014
23.51916651118564	1.8879601	1.3740306
23.537069297686497	1.8865975	1.3735347
23.554972666922037	1.8861183	1.3733603
23.57287661938623	1.8579013	1.3630486
23.59078115557318	1.8913802	1.3752745
23.608686275977128	1.9392985	1.392587
23.62659198109246	1.9573318	1.3990468
23.6444982714137	1.9564872	1.3987448
23.66240514743549	1.9526953	1.3973887
23.68031260965263	1.9430447	1.3939314
23.698220658560068	1.9432042	1.3939886
23.716129294652845	1.9365386	1.3915957
23.7340385184262	1.9461788	1.3950552
23.75194833037546	1.9431688	1.3939759
23.769858730996123	1.9148921	1.3837962
23.78776972078382	1.9020299	1.379141
23.80568130023431	1.8915858	1.3753494
23.823593469843495	1.8982762	1.3777795
23.841506230107424	1.9101503	1.3820819
23.859419581522275	1.8811623	1.3715547
23.87733352458438	1.9015516	1.3789676
23.89524805979019	1.8789033	1.3707309
23.913163187636318	1.88223	1.371944
23.931078908619508	1.8783233	1.3705194
23.948995223236633	1.909182	1.3817315
23.966912131984735	1.990731	1.4109327
23.98482963536096	2.0121996	1.4185202
24.002747733862616	1.9804097	1.4072703
24.020666427987155	1.9536403	1.3977269
24.038585718232156	1.9705687	1.4037695
24.056505605095353	2.0108557	1.4180465
24.074426089074617	2.0378416	1.4275299
24.092347170667946	2.0693624	1.4385278
24.110268850373515	2.0919871	1.4463704
24.128191128689586	2.0935173	1.4468992
24.146114006114626	2.0427508	1.4292483
24.164037483147187	2.061093	1.4356507
24.181961560286005	2.0439482	1.4296671
24.199886238029926	2.01688	1.420169
24.21781151687797	2.0670204	1.4377136
24.235737397329274	2.0930953	1.4467534
24.253663879883135	2.0889568	1.4453224
24.271590965038975	2.0722399	1.4395276
24.289518653296376	2.0575728	1.4344242
24.30744694515505	2.0451908	1.4301016
24.32537584111486	2.0547407	1.4334366
24.34330534167581	2.1076703	1.4517817
24.361235447338046	2.1349401	1.4611435
24.379166158601876	2.101757	1.4497437
24.39709747596772	2.0488584	1.4313834
24.41502939993615	2.0281003	1.4241139
24.432961931007917	2.0064492	1.4164919
24.450895069683856	1.9771099	1.4060974
24.468828816465	1.9483985	1.3958504
24.4867631718525	1.9720948	1.404313
24.504698136347656	1.9576119	1.3991468
24.52263371045192	1.9562294	1.3986527
24.540569894666874	1.9361056	1.3914402
24.558506689494266	1.9270239	1.3881729
24.57644409543597	1.9346087	1.3909022
24.594382112994012	1.9347445	1.3909509
24.61232074267057	1.9656527	1.4020174
24.630259984967953	1.9829271	1.4081644
24.64819984038863	2.0183055	1.4206707
24.66614030943522	2.0119817	1.4184434
24.684081392610462	1.9725667	1.4044809
24.702023090417274	1.9720513	1.4042975
24.7199654033587	1.9987323	1.4137653
24.737908331937927	1.9999259	1.4141873
24.755851876658305	2.013076	1.4188291
24.773796038023324	2.0280917	1.4241109
24.79174081653661	2.0714793	1.4392635
24.809686212701962	2.1122303	1.4533514
24.827632227023294	2.1192741	1.4557726
24.8455788600047	2.0959325	1.4477335
24.8635261121504	2.1162002	1.4547166
24.88147398396475	2.156279	1.4684274
24.899422475952303	2.156885	1.4686337
24.917371588617698	2.1516883	1.4668634
24.935321322465768	2.1570842	1.4687016
24.953271678001478	2.2957034	1.5151579
24.97122265572994	2.4921582	1.578657
24.989174256156414	2.7858367	1.6690826
25.00712647978632	3.2120166	1.79221
25.02507932712521	3.7773972	1.9435527
25.043032798678798	4.2696342	2.0663092
25.060986894952933	4.930192	2.2204037
25.078941616453637	5.6701875	2.3812156
25.096896963687055	6.6360707	2.5760572
25.114852937159508	7.7546177	2.7847114
25.132809537377444	8.206825	2.8647556
25.150766764847468	8.21171	2.8656082
25.168724620076347	7.6860456	2.7723718
25.186683103570985	6.7819734	2.6042223
25.204642215838426	5.6331863	2.3734334
25.222601957385894	4.2312593	2.0570025
25.24056232872074	3.160114	1.777671
25.25852333035048	2.6250017	1.6201857
25.276484962782778	2.2631242	1.5043684
25.294447226525435	2.0809107	1.4425362
25.312410122086423	2.0060585	1.416354
25.330373649973843	1.9641267	1.401473
25.348337810695988	1.9479685	1.3956964
25.366302604761245	1.9041721	1.3799174
25.384268032678207	1.8814572	1.3716623
25.40223409495558	1.9359522	1.391385
25.420200792102257	1.9811876	1.4075466
25.438168124627246	1.9546803	1.3980988
25.45613609303974	1.9015089	1.3789521
25.474104697849057	1.8401614	1.3565255
25.492073939564698	1.8256711	1.351174
25.510043818696285	1.8780177	1.3704078
25.528014335753614	1.884615	1.3728127
25.54598549124664	1.8870729	1.3737078
25.56395728568544	1.8252276	1.3510098
25.58192971958028	1.8152292	1.3473045
25.59990279344156	1.8368584	1.3553075
25.617876507779833	1.8843685	1.372723
25.635850863105826	1.8874992	1.3738629
25.653825859930386	1.8464732	1.35885
25.671801498764548	1.8677794	1.3666673
25.68977778011949	1.9031243	1.3795377
25.707754704506524	1.896583	1.3771648
25.725732272437153	1.8678054	1.3666768
25.743710484423012	1.8613	1.3642946
25.761689340975888	1.8892374	1.3744953
25.77966884260774	1.8944173	1.3763783
25.797648989830662	1.8503776	1.3602859
25.815629783156922	1.8461999	1.3587494
25.83361122309895	1.892398	1.3756446
25.85159331016929	1.9148093	1.3837664
25.869576044880695	1.871788	1.3681331
25.887559427746034	1.8328594	1.3538314
25.90554345927836	1.8405824	1.3566806
25.92352813999086	1.8199172	1.349043
25.94151347039689	1.816716	1.347856
25.959499451009965	1.8335748	1.3540956
25.97748608234374	1.8519657	1.3608694
25.995473364912062	1.8408197	1.3567681
26.013461299228904	1.8171929	1.348033
26.03144988580839	1.7955357	1.339976
26.04943912516483	1.8178282	1.3482686
26.067429017812675	1.8486284	1.3596427
26.085419564266537	1.8511144	1.3605566
26.103410765041186	1.8492296	1.3598638
26.12140262065155	1.8511549	1.3605715
26.139395131612723	1.8544158	1.3617693
26.157388298439948	1.8811618	1.3715545
26.17538212164861	1.890887	1.3750952
26.193376601754295	1.8655951	1.3658679
26.211371739272714	1.8208426	1.349386
26.229367534719746	1.7973615	1.3406571
26.247363988611433	1.795759	1.3400593
26.26536110146397	1.8278006	1.3519617
26.283358873793727	1.8537809	1.3615363
26.301357306117204	1.8454094	1.3584585
26.319356398951104	1.7995728	1.3414816
26.33735615281224	1.8037659	1.3430436
26.35535656821762	1.8011786	1.34208
26.373357645684404	1.8035965	1.3429805
26.39135938572991	1.7875115	1.3369784
26.409361788871614	1.8016399	1.3422518
26.427364855627165	1.7861383	1.3364649
26.445368586514352	1.7968614	1.3404706
26.46337298205115	1.8067272	1.3441455
26.48137804275568	1.8199459	1.3490537
26.499383769146217	1.803148	1.3428135
26.517390161741215	1.8158706	1.3475424
26.53539722105928	1.8078935	1.3445793
26.553404947619182	1.8275144	1.3518559
26.571413341939856	1.8253778	1.3510654
26.589422404540397	1.839391	1.3562415
26.60743213594006	1.8405032	1.3566514
26.62544253665827	1.8231299	1.3502333
26.64345360721459	1.8376486	1.355599
26.66146534812879	1.8413144	1.3569504
26.679477759920758	1.791136	1.3383332
26.69749084311057	1.7587459	1.3261771
26.71550459821847	1.7740481	1.331934
26.733519025764842	1.7869709	1.3367763
26.751534126270258	1.8266933	1.3515521
26.769549900255434	1.8348434	1.354564
26.787566348241267	1.8192873	1.3488096
26.80558347074881	1.780293	1.3342762
26.823601268299267	1.7873671	1.3369246
26.841619741414036	1.8634304	1.3650752
26.85963889061465	1.8639231	1.3652557
26.877658716422832	1.8284646	1.3522073
26.89567921936045	1.8108879	1.3456924
26.913700399949544	1.789687	1.3377918
26.93172225871233	1.7870184	1.3367941
26.949744796171174	1.7872872	1.3368946
26.967768012848605	1.8181127	1.3483741
26.98579190926733	1.847796	1.3593366
27.003816485950225	1.8120534	1.3461254
27.021841743420318	1.8114426	1.3458984
27.039867682200814	1.8079085	1.344585
27.057894302815072	1.7791089	1.3338324
27.07592160578664	1.8167896	1.3478833
27.0939495916392	1.8306829	1.3530273
27.111978260896635	1.8626102	1.3647748
27.13000761408296	1.8513432	1.3606408
27.148037651722397	1.8285509	1.3522393
27.166068374339304	1.8042798	1.3432348
27.184099782458215	1.8405178	1.3566568
27.20213187660384	1.8380742	1.3557559
27.22016465730105	1.8308598	1.3530927
27.23819812507487	1.8548679	1.3619354
27.256232280450533	1.8484534	1.3595784
27.274267123953383	1.8103995	1.3455108
27.292302656108987	1.8180759	1.3483604
27.31033887744306	1.8072333	1.3443338
27.32837578848146	1.8147541	1.3471282
27.34641338975026	1.8222687	1.3499143
27.364451681775673	1.8299679	1.352763
27.382490665084074	1.8353046	1.3547342
27.400530340202046	1.8039346	1.3431063
27.41857070765629	1.8022951	1.3424958
27.436611767973726	1.8278782	1.3519905
27.454653521681404	1.8189193	1.3486731
27.472695969306564	1.7976918	1.3407803
27.490739111376627	1.7928934	1.3389897
27.508782948419153	1.7937236	1.3392997
27.526827480961902	1.7944256	1.3395617
27.54487270953279	1.8378855	1.3556863
27.562918634659898	1.8521256	1.3609282
27.580965256871508	1.8282316	1.3521211
27.599012576696026	1.8164785	1.347768
27.617060594662068	1.8135232	1.3466711
27.63510931129842	1.8340151	1.3542582
27.65315872713401	1.8550278	1.361994
27.67120884269797	1.8749218	1.3692778
27.68925965851958	1.8614178	1.3643378
27.707311175128307	1.7994314	1.3414289
27.725363393053787	1.8001775	1.3417069
27.74341631282583	1.8311317	1.3531932
27.7614699349744	1.8722712	1.3683096
27.77952426002968	2.0669584	1.437692
27.797579288521973	2.12565	1.4579608
27.815635020981784	2.536431	1.5926176
27.83369145793979	2.6214669	1.6190945
27.85174859992682	2.490961	1.5782778
27.869806447473923	2.413402	1.5535128
27.887865001112267	2.1396787	1.462764
27.905924261373233	1.9997089	1.4141107
27.92398422878836	1.8964247	1.3771074
27.94204490388936	1.8662645	1.366113
27.96010628720813	1.8165203	1.3477834
27.978168379276728	1.8366752	1.3552399
27.9962311806274	1.8661902	1.3660858
28.014294691792568	1.855221	1.362065
28.0323589133048	1.8218939	1.3497756
28.050423845696887	1.8691487	1.3671682
28.068489489501758	1.880753	1.3714055
28.086555845252523	1.8591461	1.3635051
28.104622913482487	1.8456621	1.3585515
28.122690694725115	1.9054896	1.3803947
28.14075918951405	1.9296296	1.389111
28.15882839838312	1.9049181	1.3801877
28.176898321866304	1.8511215	1.3605592
28.1949689604978	1.8553629	1.362117
28.213040314811945	1.8646188	1.3655105
28.23111238534327	1.8887641	1.3743231
28.249185172626493	1.9238439	1.387027
28.267258677196473	1.923895	1.3870454
28.285332899588294	1.9347295	1.3909456
28.303407840337172	1.9706912	1.4038131
28.321483499978545	1.9783123	1.4065249
28.33955987904799	1.9600176	1.4000063
28.357636978081285	1.9648616	1.4017352
28.37571479761439	1.92614	1.3878545
28.393793338183425	1.9268456	1.3881086
28.41187260032469	1.9427631	1.3938304
28.429952584574686	1.9825432	1.4080281
28.448033291470065	2.0261197	1.4234183
28.46611472154769	2.041572	1.4288359
28.484196875344566	1.957669	1.3991673
28.502279753397914	1.9066546	1.3808167
28.52036335624511	1.9308648	1.3895556
28.538447684423716	2.0003867	1.4143503
28.556532738471482	2.0037704	1.415546
28.574618518926325	1.999497	1.4140357
28.59270502632635	2.013106	1.4188397
28.61079226120985	2.0247748	1.4229459
28.628880224115274	2.034005	1.4261855
28.646968915581287	2.0406585	1.4285161
28.66505833614671	1.9697974	1.4034947
28.68314848635055	1.965625	1.4020075
28.701239366732004	2.0162718	1.4199549
28.71933097783044	2.0536249	1.4330474
28.737423320185403	2.0537894	1.4331048
28.75551639433665	2.0906267	1.4459
28.773610200824074	2.1490881	1.4659768
28.791704740187793	2.1568286	1.4686146
28.80980001296809	2.0909448	1.44601
28.827896019705413	2.1174812	1.4551568
28.845992760940433	2.1379013	1.4621564
28.86409023721397	2.1868246	1.4787916
28.88218844906704	2.2591362	1.5030423
28.900287397040845	2.249732	1.4999107
28.918387081676755	2.2827702	1.5108839
28.936487503516343	2.2448997	1.498299
28.954588663101365	2.2244937	1.4914737
28.97269056097374	2.2281091	1.4926852
28.990793197675597	2.277277	1.5090649
29.00889657374923	2.4196703	1.555529
29.027000689737125	2.4536583	1.5664158
29.04510554618196	2.3954358	1.5477196
29.06321114362659	2.4451194	1.5636878
29.08131748261405	2.4913547	1.5784026
29.099424563687567	2.4961333	1.5799156
29.11753238739057	2.5151954	1.5859368
29.13564095426663	2.489937	1.5779535
29.15375026485954	2.573529	1.6042223
29.171860319713275	2.6413238	1.625215
29.18997111937199	2.6728222	1.6348768
29.20808266438002	2.652441	1.6286316
29.226194955281898	2.6142445	1.6168625
29.244307992622335	2.6170866	1.6177412
29.26242177694624	2.72488	1.6507211
29.2805363087987	2.8208573	1.6795408
29.29865158872498	2.9200587	1.708818
29.316767617270557	3.0085056	1.7345045
29.334884394981064	2.993508	1.7301757
29.353001922402367	2.947375	1.7167921
29.37112020008047	3.0060139	1.733786
29.389239228561596	3.134245	1.7703799
29.407359008392152	3.320197	1.8221408
29.42547954011872	3.7412372	1.9342278
29.44360082428809	4.4074845	2.099401
29.46172286144722	5.447511	2.3339903
29.479845652143283	6.9623756	2.6386313
29.497969196923606	8.998696	2.9997828
29.516093496335728	11.533743	3.3961365
29.5342185509274	14.393916	3.7939315
29.55234436124651	16.69596	4.086069
29.570470927841175	17.983965	4.2407503
29.588598251259686	17.613102	4.1967964
29.60672633205055	16.234373	4.02919
29.624855170762405	14.156606	3.7625265
29.642984767944146	11.493341	3.3901832
29.66111512414481	8.895404	2.9825163
29.67924623991366	6.7207737	2.5924456
29.697378115800138	5.1888905	2.2779136
29.71551075235387	4.2482424	2.0611265
29.733644150124675	3.7689712	1.9413838
29.751778309662576	3.594439	1.8959006
29.769913231517766	3.444293	1.8558806
29.78804891624066	3.3419504	1.8281002
29.806185364381818	3.2740147	1.8094238
29.82432257649206	3.333715	1.8258463
29.842460553122333	3.3618174	1.8335259
29.86059929482382	3.3595803	1.8329158
29.878738802147872	3.359247	1.8328248
29.896879075646048	3.2653325	1.807023
29.915020115870114	3.1579611	1.7770653
29.933161923371976	3.148	1.7742604
29.951304498703777	3.2171376	1.7936381
29.969447842417857	3.1805973	1.783423
29.987591955066733	3.213936	1.7927454
30.005736837203123	3.2671015	1.8075125
30.023882489379943	3.2574565	1.8048425
30.04202891215028	3.1672986	1.7796906
30.060176106067455	3.165323	1.7791355
30.078324071684946	3.2218788	1.7949593
30.09647280955646	3.278169	1.8105714
30.114622320235863	3.1906765	1.7862464
30.132772604277257	3.1412234	1.7723497
30.1509236622349	3.1221545	1.7669619
30.16907549466328	3.1331449	1.7700691
30.18722810211705	3.1163156	1.765309
30.205381485151097	3.1262062	1.7681081
30.22353564432045	3.0558503	1.7480991
30.241690580180403	2.9895055	1.7290187
30.25984629328638	2.9586253	1.7200655
30.278002784194037	3.018362	1.7373434
30.296160053459246	3.045996	1.7452782
30.314318101638033	2.9777303	1.7256101
30.332476929286646	2.9362595	1.7135518
30.35063653696153	2.9495275	1.7174188
30.368796925219307	2.960348	1.7205662
30.386958094616844	2.8877332	1.6993332
30.40512004571115	2.8335757	1.6833228
30.423282779059463	2.8474948	1.6874522
30.441446295219233	2.8609064	1.6914214
30.459610594748067	2.82518	1.6808271
30.47777567820382	2.8175745	1.6785632
30.495941546144504	2.8466244	1.6871942
30.51410819912835	2.8071756	1.6754628
30.532275637713795	2.8294928	1.6821096
30.55044386245946	2.8156712	1.6779962
30.56861287392416	2.8151972	1.6778549
30.586782672666956	2.8676522	1.6934143
30.604953259247047	2.879547	1.6969228
30.623124634223885	2.8284934	1.6818125
30.641296798157075	2.7564163	1.6602459
30.659469751606462	2.7087789	1.6458368
30.677643495132074	2.7346396	1.6536746
30.695818029294152	2.7219994	1.6498483
30.713993354653116	2.6911752	1.6404802
30.73216947176962	2.6806035	1.6372548
30.75034638120448	2.6467175	1.6268735
30.768524083518756	2.6916683	1.6406305
30.786702579273673	2.8044086	1.6746368
30.80488186903069	2.838123	1.684673
30.82306195335144	2.880635	1.6972433
30.841242832797782	3.1064243	1.7625052
30.85942450793176	3.4638762	1.8611492
30.877606979315637	3.7337947	1.932303
30.895790247511883	4.0372	2.0092785
30.913974313083134	4.4500084	2.1095042
30.932159176592283	4.781213	2.1865985
30.95034483860237	4.8214016	2.195769
30.968531299676698	4.660476	2.1588137
30.98671856037873	4.3537283	2.086559
31.00490662127215	3.9625201	1.990608
31.023095482920848	3.5555842	1.8856257
31.04128514588892	3.0673525	1.7513859
31.059475610740662	2.6804395	1.6372048
31.07766687804056	2.5342908	1.5919456
31.09585894835335	2.5265164	1.589502
31.11405182224393	2.5380602	1.593129
31.132245500277417	2.5535924	1.5979964
31.15043998301914	2.5691693	1.6028628
31.168635271034628	2.5154955	1.5860314
31.18683136488964	2.50252	1.5819355
31.20502826515008	2.4911342	1.5783327
31.223225972382135	2.444602	1.5635223
31.241424487152155	2.4574597	1.5676287
31.259623810026692	2.4761071	1.5735651
31.27782394157253	2.4854014	1.5765156
31.296024882356644	2.5749722	1.604672
31.314226632946237	2.5651777	1.6016172
31.332429193908684	2.4318936	1.559453
31.350632565811598	2.3847716	1.5442705
31.368836749222787	2.415853	1.5543015
31.387041744710295	2.4605472	1.5686132
31.40524755284232	2.5816612	1.6067549
31.423454174187317	2.584982	1.6077878
31.441661609313922	2.4847496	1.5763088
31.459869858791002	2.3862512	1.5447496
31.478078923187628	2.4011877	1.5495766
31.496288803073064	2.41542	1.5541621
31.514499499016807	2.359799	1.5361637
31.532711011588546	2.309179	1.5195984
31.550923341358178	2.3273706	1.5255722
31.56913648889584	2.3024619	1.5173866
31.587350454771844	2.2767599	1.5088936
31.605565239556732	2.294612	1.5147977
31.62378084382127	2.3091981	1.5196046
31.641997268136382	2.375624	1.5413059
31.660214513073274	2.388907	1.5456089
31.67843257920331	2.3567708	1.5351777
31.6966514670981	2.3470013	1.5319926
31.71487117732944	2.2014937	1.4837432
31.733091710469346	2.1969473	1.4822103
31.751313067090052	2.326502	1.5252875
31.769535247764008	2.352163	1.5336764
31.787758253063878	2.2734873	1.5078088
31.805982083562526	2.2378762	1.4959533
31.824206739833024	2.242977	1.4976572
31.84243222244869	2.3213818	1.5236082
31.860658531983013	2.2823355	1.51074
31.878885669009737	2.2927547	1.5141845
31.897113634102784	2.2880404	1.512627
31.91534242783632	2.301085	1.5169327
31.933572050784694	2.2856555	1.5118384
31.951802503522508	2.2172003	1.4890267
31.970033786624548	2.2207046	1.4902029
31.988265900665834	2.2229748	1.4909644
32.006498846221575	2.236594	1.4955246
32.02473262386724	2.230531	1.4934962
32.04296723417845	2.2180061	1.4892972
32.0612026777311	2.2345686	1.4948473
32.07943895510129	2.2429926	1.4976624
32.097676066865304	2.2483494	1.4994497
32.115914013599685	2.2557373	1.5019112
32.13415279588115	2.236386	1.4954551
32.152392414286666	2.1635065	1.4708863
32.1706328693934	2.1278749	1.4587237
32.18887416177875	2.1506965	1.4665253
32.20711629202032	2.1401756	1.4629339
32.225359260695924	2.073363	1.4399177
32.243603068383614	2.0472383	1.4308174
32.26184771566166	2.107371	1.4516788
32.28009320310852	2.1892202	1.4796014
32.2983395313029	2.2296352	1.4931964
32.31658670082372	2.1649392	1.4713732
32.33483471225012	2.0865026	1.4444731
32.35308356616143	2.0726073	1.4396553
32.371333263137245	2.0426545	1.4292146
32.38958380375734	1.993958	1.4120758
32.407835188601744	2.08185	1.4428618
32.42608741825067	2.1301475	1.4595025
32.444340493284585	2.112269	1.4533647
32.46259441428416	2.0009046	1.4145334
32.48084918183028	1.9847256	1.4088029
32.49910479650405	1.9752687	1.4054425
32.51736125888683	2.082218	1.4429892
32.53561856956014	2.0508463	1.4320776
32.5538767291058	2.0104775	1.4179131
32.572135738105764	1.9822166	1.4079121
32.59039559714228	1.9293652	1.3890159
32.608656306797776	1.945283	1.394734
32.62691786765491	2.1165898	1.4548504
32.645180280296586	2.117958	1.4553206
32.663443545305896	2.1145494	1.454149
32.68170766326619	2.0985584	1.4486402
32.69997263476099	1.985043	1.4089155
32.7182384603741	1.8919017	1.3754642
32.7365051406895	1.9135613	1.3833153
32.75477267629144	1.9873952	1.40975
32.77304106776434	2.0011358	1.414615
32.79131031569289	1.9476259	1.3955736
32.809580420661966	1.9472283	1.3954313
32.827851383256714	1.9519534	1.3971232
32.84612320406245	1.9977043	1.4134017
32.86439588366476	1.9874002	1.4097518
32.88266942264945	2.016867	1.4201643
32.9009438216025	2.0353281	1.4266493
32.9192190811102	2.0104816	1.4179145
32.937495201758985	2.019631	1.4211372
32.95577218413556	1.9463964	1.3951331
32.974050028826866	1.9053044	1.3803277
32.992328736420035	1.9059368	1.3805567
33.010608307502444	1.9965091	1.4129788
33.02888874266169	1.9827528	1.4081025
33.047170042485604	1.9480355	1.3957204
33.06545220756225	1.9001678	1.3784658
33.083735238479896	1.874351	1.3690695
33.10201913582707	1.8970336	1.3773284
33.12030390019248	1.9901205	1.4107163
33.138589532165135	2.0438147	1.4296205
33.15687603233419	1.9718286	1.4042182
33.17516340128909	1.9579024	1.3992506
33.19345163961947	1.9420485	1.393574
33.211740747915215	1.9174497	1.3847201
33.23003072676643	1.864354	1.3654135
33.248321576763466	1.8721241	1.3682559
33.266613298496885	1.8442255	1.3580227
33.28490589255747	1.9003205	1.3785211
33.30319935953626	1.938858	1.3924289
33.32149370002451	1.9694915	1.4033858
33.339788914613706	1.9260205	1.3878114
33.358085003895575	1.909715	1.3819244
33.376381968462034	1.874986	1.3693013
33.39467980890529	1.9343722	1.390817
33.41297852581774	1.9918972	1.4113458
33.43127811979204	1.9263562	1.3879323
33.44957859142105	1.7694387	1.3302025
33.467879941297866	1.7655675	1.3287466
33.486182170015844	1.8551682	1.3620456
33.50448527816853	1.9627873	1.4009951
33.522789266349754	1.9715233	1.4041095
33.541094135153514	1.8479471	1.3593922
33.55939988517411	1.8725471	1.3684105
33.57770651700602	1.9073638	1.3810734
33.59601403124398	1.9477842	1.3956304
33.61432242848296	1.943108	1.393954
33.632631709318154	1.9485612	1.3959087
33.650941874344994	2.0897408	1.4455936
33.66925292415916	2.1144862	1.4541273
33.68756485935654	2.0253873	1.423161
33.70587768053328	1.9936637	1.4119716
33.724191388285746	1.8981788	1.3777441
33.74250598321054	1.8706104	1.3677026
33.760821465904506	1.9270921	1.3881974
33.77913783696474	1.9882206	1.4100428
33.79745509698852	1.9276903	1.3884128
33.815773246573414	1.8625002	1.3647345
33.8340922863172	1.8797795	1.3710505
33.852412216817896	2.0109074	1.4180647
33.87073303867377	1.9751893	1.4054143
33.889054752483304	1.948576	1.3959141
33.907377358845245	1.9319181	1.3899345
33.92570085835853	1.9321982	1.3900353
33.94402525162239	1.8948735	1.376544
33.96235053923627	1.8499207	1.3601179
33.980676721799824	1.828515	1.352226
33.999003799912984	1.8604606	1.3639871
34.01733177417592	1.9141903	1.3835427
34.03566064518901	2.0007296	1.4144715
34.0539904135529	2.0075934	1.4168957
34.07232107986846	1.905245	1.3803061
34.090652644736785	1.86133	1.3643057
34.108985108759235	1.9156001	1.384052
34.12731847253742	1.8679405	1.3667262
34.14565273667313	1.8463029	1.3587873
34.16398790176847	1.8760802	1.3697008
34.18232396842574	1.9399797	1.3928316
34.20066093724749	1.8893635	1.3745412
34.21899880883651	1.9151409	1.3838861
34.23733758379583	1.9335872	1.3905349
34.25567726272874	1.9653844	1.4019216
34.27401784623872	1.8401477	1.3565204
34.29235933492957	1.8150303	1.3472307
34.31070172940526	1.9894537	1.4104799
34.32904503027003	2.0886543	1.4452177
34.347389238128386	2.0716991	1.4393399
34.36573435358502	1.9946376	1.4123164
34.38408037724492	2.0147374	1.4194144
34.402427309713296	2.043595	1.4295436
34.42077515159559	2.0722091	1.439517
34.43912390349752	2.0954542	1.4475684
34.45747356602499	2.082763	1.443178
34.47582413978423	2.0830274	1.4432697
34.49417562538163	2.1047516	1.4507762
34.51252802342388	2.1166728	1.4548789
34.53088133451789	1.9537494	1.3977659
34.54923555927084	1.934734	1.3909471
34.567590698290104	1.9901708	1.4107342
34.58594675218336	2.0877345	1.4448994
34.6043037215585	2.0898845	1.4456433
34.62266160702365	2.0936563	1.4469472
34.641020409187234	1.9968243	1.4130903
34.65938012865785	1.8154409	1.347383
34.677740766044394	1.8674312	1.3665398
34.69610232195598	2.0982811	1.4485445
34.714464797002016	2.1476848	1.4654981
34.73282819179208	2.135717	1.4614092
34.751192506936064	1.9986902	1.4137504
34.76955774304408	1.9513832	1.3969193
34.7879239007265	1.9310954	1.3896385
34.80629098059391	1.9415216	1.3933849
34.824658983257194	1.9818448	1.40778
34.843027909327446	1.9979992	1.413506
34.86139775941603	2.0057878	1.4162585
34.879768534134534	1.9826642	1.4080712
34.89814023409483	1.9289669	1.3888725
34.91651285990901	2.0229511	1.4223049
34.93488641218944	2.096451	1.4479127
34.95326089154871	2.122665	1.4569368
34.97163629859967	2.1431613	1.463954
34.99001263395542	2.211986	1.4872748
35.00838989822934	2.1198728	1.4559783
35.02676809203499	2.0753102	1.4405937
35.04514721598624	2.0947921	1.4473397
35.063527270697215	2.0432613	1.4294269
35.081908256782256	2.03729	1.4273367
35.10029017485597	1.9394542	1.3926429
35.11867302553321	1.768405	1.3298138
35.137056809429104	1.7587492	1.3261784
35.155441527159006	1.8901784	1.3748376
35.173827179338524	2.0376084	1.4274482
35.19221376658354	1.8261492	1.3513509
35.21060128951017	1.7876478	1.3370295
35.2289897487348	1.9321032	1.3900012
35.24737914487405	2.0241616	1.4227303
35.26576947854479	2.0180554	1.4205828
35.28416075036418	2.10564	1.4510823
35.30255296094958	2.0186768	1.4208014
35.32094611091867	1.927622	1.3883883
35.33934020088932	1.6744701	1.2940131
35.35773523147969	1.8415673	1.3570436
35.3761312033082	2.2500198	1.5000066
35.394528116993506	2.6290326	1.6214292
35.41292597315452	2.851648	1.6886823
35.431324772410434	2.6163723	1.6175205
35.449724515380666	2.0444698	1.4298496
35.46812520268491	1.82724	1.3517544
35.486526834943106	2.0228524	1.4222702
35.504929412775454	2.0491436	1.431483
35.52333293680242	2.0824423	1.443067
35.54173740764471	2.019545	1.4211069
35.560142825923286	2.124746	1.4576509
35.5785491922594	2.2461388	1.4987124
35.59695650727454	2.0240352	1.4226859
35.61536477159042	1.8569168	1.3626873
