0.008763373481513119	0.0	0.0
0.026290120649546365	0.11242709	0.3353015
0.043816868432600686	0.15683767	0.39602736
0.06134361724069026	0.1660059	0.40743822
0.07887036748382949	0.12308245	0.3508311
0.0963971195720331	0.05312366	0.23048571
0.11392387391531617	0.09829285	0.3135169
0.1314506309236943	0.12592828	0.35486376
0.1489773910071836	0.11093634	0.33307108
0.16650415457580078	0.059569083	0.24406779
0.18403092203956356	0.009217635	0.09600852
0.20155769380849	0.038822193	0.19703348
0.2190844702925996	0.11669184	0.34160188
0.2366112519019124	0.14727068	0.38375863
0.2541380390464497	0.16297068	0.40369627
0.27166483213623416	0.11233764	0.3351681
0.28919163158128947	0.15414819	0.3926171
0.3067184377916406	0.1756494	0.41910547
0.324245251177314	0.15866326	0.39832556
0.34177207214833777	0.110770196	0.33282158
0.3592989011147415	0.09933486	0.31517434
0.37682573848655654	0.15719374	0.39647666
0.39435258467381573	0.17532904	0.4187231
0.41187944008655414	0.17100859	0.41353184
0.42940630513480854	0.17225666	0.41503814
0.446933180228618	0.13408634	0.366178
0.4644600657780234	0.1694378	0.41162822
0.48198696219306775	0.1278028	0.3574952
0.49951386988379676	0.11160709	0.33407646
0.5170407892602581	0.10184065	0.31912482
0.5345677207325025	0.12569493	0.3545348
0.5520946647105822	0.1601526	0.4001907
0.5696216216045534	0.15581378	0.39473253
0.5871485918244737	0.14054304	0.3748907
0.6046755757804043	0.13988137	0.3740072
0.6222025738824094	0.12533277	0.3540237
0.6397295865405557	0.14244501	0.37741888
0.6572566141649129	0.14803232	0.38474968
0.6747836571655547	0.15193355	0.38978654
0.6923107159525568	0.13129987	0.36235324
0.7098377909359992	0.14262185	0.37765306
0.7273648825259653	0.15301274	0.39116842
0.7448919911325411	0.17228605	0.41507354
0.762419117165817	0.14743479	0.38397238
0.7799462610358868	0.1395842	0.3736097
0.7974734231528482	0.16121237	0.4015126
0.8150006039268024	0.17374374	0.4168258
0.8325278037678551	0.19071469	0.43670893
0.8500550230861152	0.22900313	0.47854272
0.8675822622916969	0.24461596	0.49458665
0.8851095217947171	0.2453956	0.4953742
0.9026368020052984	0.22703779	0.47648484
0.9201641033335665	0.18007743	0.42435533
0.9376914261896523	0.16156986	0.40195754
0.9552187709836915	0.16191278	0.40238386
0.9727461381258234	0.20582135	0.4536754
0.990273528026193	0.22936365	0.47891924
1.0078009410949496	0.2521066	0.5021022
1.0253283777422473	0.24711405	0.49710566
1.0428558383782454	0.2858473	0.5346469
1.0603833234131086	0.2823888	0.5314027
1.0779108332570058	0.2746163	0.52403843
1.0954383683201119	0.28337106	0.5323261
1.112965929012607	0.33845785	0.5817713
1.1304935157446763	0.5334443	0.7303727
1.1480211289265108	0.5539731	0.7442937
1.1655487689683062	1.3553468	1.1641936
1.1830764362802655	1.6476374	1.2836033
1.200604131272596	2.0695326	1.4385871
1.2181318543555117	2.4560091	1.567166
1.235659605939232	2.511332	1.5847182
1.253187386433982	3.9437914	1.9858981
1.270715196249994	6.15897	2.4817271
1.2882430357975057	11.438695	3.382114
1.3057709054867608	16.31072	4.0386534
1.3232988057280106	22.19925	4.711608
1.3408267369315112	26.76391	5.1733847
1.358354699507526	30.095709	5.4859557
1.3758826938663256	34.03709	5.8341317
1.3934107204181858	36.15131	6.012596
1.410938779573391	36.927643	6.076812
1.4284668717422309	37.3233	6.1092796
1.4459949973350033	36.672302	6.055766
1.4635231567620117	36.605965	6.0502863
1.4810513504335687	36.006557	6.0005465
1.4985795787599925	35.432014	5.95248
1.5161078421516088	35.029835	5.9186006
1.5336361410187505	34.2666	5.8537683
1.5511644757717598	34.22512	5.850224
1.5686928468209842	34.65654	5.8869805
1.58622125457678	35.420654	5.951525
1.6037496994495108	36.51192	6.0425096
1.621278181849548	36.16572	6.0137944
1.6388067021872719	36.79046	6.065514
1.6563352608730693	36.17102	6.014235
1.673863858317336	35.52525	5.960306
1.6913924949304753	35.069687	5.9219666
1.7089211711228998	33.90175	5.8225207
1.7264498873050296	32.922947	5.737852
1.7439786438872935	31.849459	5.6435323
1.7615074412801288	30.795113	5.5493345
1.779036279893981	30.31197	5.505631
1.796565160139305	29.545868	5.4356112
1.814094082426564	29.088139	5.393342
1.8316230471662298	28.254839	5.315528
1.849152054768784	27.540993	5.2479515
1.8666811056447168	26.847488	5.181456
1.8842102002045273	26.29029	5.1274056
1.901739338858724	25.666637	5.066225
1.9192685220178245	24.652983	4.965177
1.9367977500923557	23.723265	4.8706536
1.9543270234928547	23.381378	4.8354297
1.971856342629867	23.201538	4.8167973
1.9893857079139496	23.0137	4.79726
2.006915119755667	22.481592	4.7414756
2.0244445785655945	21.984589	4.6887727
2.0419740847543175	21.377586	4.62359
2.0595036387324317	20.887306	4.5702634
2.0770332409105414	20.20704	4.495224
2.094562891699263	19.785303	4.448067
2.1120925915092217	19.277353	4.3905983
2.129622340751053	19.153284	4.3764467
2.1471521398354043	187.49072	13.692725
2.1646819891729323	443.97406	21.070692
2.182211889174303	440.2926	20.98315
2.1997418402501974	452.8264	21.279718
2.2172718428113023	432.8713	20.80556
2.234801897268317	320.75522	17.909641
2.2523320040319548	17.031315	4.126901
2.269862163512935	16.531507	4.0658956
2.287392376121992	16.336718	4.0418706
2.304922642269869	15.810433	3.9762335
2.322452962367322	15.346403	3.9174485
2.3399833368251164	14.911323	3.8615181
2.357513766054032	14.713947	3.8358762
2.3750442504648586	14.480288	3.8052974
2.3925747904683963	14.432853	3.7990594
2.410105386475459	14.195171	3.767648
2.4276360388968707	13.887231	3.7265575
2.445166748143469	13.660523	3.6960146
2.4626975146261025	13.348928	3.6536186
2.4802283387556323	13.239986	3.6386793
2.4977592209429305	13.031591	3.6099296
2.5152901615988825	12.749711	3.5706737
2.5328211611343865	12.615631	3.551849
2.5503522199603523	12.34443	3.5134642
2.5678833384877024	12.298132	3.5068693
2.5854145171273712	12.074681	3.4748642
2.6029457562903064	11.942248	3.4557557
2.620477056387469	11.753659	3.428361
2.6380084178298326	11.441812	3.3825748
2.655539841028383	11.268329	3.3568332
2.673071326394119	11.216839	3.349155
2.6906028743380523	11.126365	3.3356206
2.708134485271211	11.123825	3.33524
2.7256661596046325	10.750477	3.278792
2.743197897749369	10.518442	3.2432148
2.760729700116486	10.254741	3.2023025
2.778261567117063	9.993908	3.1613142
2.795793499162193	9.722546	3.1180997
2.8133254966629817	9.405141	3.0667803
2.830857560030551	9.305097	3.0504255
2.8483896896760337	9.437533	3.0720568
2.865921886010578	9.441948	3.0727754
2.883454149445347	9.371211	3.0612433
2.9009864803915177	9.198782	3.0329494
2.91851887926028	9.039145	3.0065172
2.9360513464628384	8.886731	2.9810622
2.953583882410413	8.7249365	2.9538004
2.9711164875142373	8.656553	2.942202
2.9886491621855606	8.585666	2.9301307
3.0061819068356455	8.394033	2.897246
3.023714721875769	8.312651	2.8831668
3.041247607717225	8.2669525	2.8752308
3.0587805647713213	8.056214	2.8383472
3.0763135934493806	7.9271593	2.8155212
3.0938466941627407	7.866188	2.8046725
3.1113798673227544	7.821232	2.7966466
3.1289131133407904	7.6978407	2.7744982
3.1464464326282315	7.416956	2.723409
3.1639798255964786	7.2239203	2.687735
3.1815132926569443	7.0628676	2.6576056
3.1990468342210603	7.145519	2.6731102
3.216580450700272	7.2657495	2.6955054
3.2341141425060416	7.317525	2.7050924
3.251647910049847	7.223428	2.6876435
3.2691817537431813	7.1374793	2.671606
3.286715673997555	6.997963	2.6453664
3.3042496712244938	6.9826055	2.642462
3.32178374583554	6.8882284	2.6245434
3.339317898242251	6.798272	2.6073496
3.3568521288562034	6.7061353	2.5896206
3.3743864380889876	6.599243	2.5688992
3.3919208263522127	6.523532	2.5541205
3.4094552940575023	6.4566092	2.5409858
3.4269898416164972	6.4035015	2.530514
3.444524469440858	6.3820443	2.5262709
3.4620591779422587	6.3320165	2.5163498
3.479593967532391	6.2811966	2.5062315
3.4971288386229658	6.215532	2.4930968
3.5146637916257086	6.1611004	2.4821565
3.5321988269523628	6.1302238	2.4759288
3.5497339450146903	6.062567	2.462228
3.5672691462244708	6.07414	2.464577
3.5848044309934988	6.100814	2.4699826
3.60233979973359	6.0940285	2.4686086
3.619875252856575	6.099511	2.469719
3.6374107907743034	6.027836	2.4551651
3.6549464138986427	6.0367446	2.4569788
3.6724821226414788	6.029404	2.4554844
3.690017917414714	5.9934697	2.4481564
3.7075537986302702	6.023911	2.4543657
3.7250897667000857	6.02889	2.4553797
3.7426258220361235	6.212069	2.4924023
3.7601619650503553	6.541001	2.557538
3.777698196154779	7.140611	2.672192
3.7952345157614067	8.285874	2.8785195
3.8127709242822716	9.130462	3.0216653
3.830307422129425	11.302727	3.3619528
3.847844009714936	30.06782	5.483413
3.8653806874508954	97.42928	9.870627
3.882917455749409	96.72841	9.83506
3.900454315022606	96.48968	9.822916
3.917991265682631	40.988174	6.4022007
3.9355283081416506	10.563058	3.2500858
3.9530654428118495	8.428869	2.9032514
3.970602670105433	7.2168536	2.6864202
3.9881399904346244	6.3869114	2.5272338
4.005677404211669	6.3590293	2.5217116
4.023214911848827	6.3708487	2.524054
4.0407525137583855	6.41096	2.5319874
4.058290210352644	6.3611155	2.5221252
4.075828002043927	6.2246957	2.494934
4.0933658892445814	6.1643014	2.4828012
4.110903872366966	6.114737	2.4727995
4.128441951823468	5.989763	2.4473991
4.145980128026488	5.971949	2.443757
4.163518401388452	5.930376	2.4352365
4.181056772321807	5.958527	2.4410095
4.1985952412390155	5.9787774	2.445154
4.216133808552567	6.054563	2.4606023
4.233672474674966	6.0105286	2.451638
4.251211240018741	6.202276	2.490437
4.268750104996445	6.5212154	2.553667
4.286289070020643	7.535049	2.7450044
4.303828135503928	9.131823	3.0218906
4.3213673018589125	29.23856	5.407269
4.3389065694982305	90.367836	9.5062
4.356445938834537	165.60117	12.868611
4.3739854102805085	171.3574	13.090356
4.391524984248844	172.24416	13.124182
4.409064661152262	136.36891	11.67771
4.426604441403504	96.51929	9.824423
4.444144325415337	75.411705	8.683991
4.461684313600543	21.290236	4.6141343
4.47922440637193	21.515528	4.6384835
4.496764604142329	19.948822	4.4664106
4.5143049073245916	18.132675	4.258248
4.531845316331589	16.095078	4.011867
4.5493858315762195	13.292499	3.6458879
4.566926453471405	11.028699	3.3209486
4.584467182430081	9.082524	3.0137227
4.602008018865218	7.9440956	2.8185272
4.619548963189798	7.3517833	2.7114172
4.637090015816834	6.8563275	2.618459
4.654631177159353	6.6900806	2.586519
4.672172447630417	6.503716	2.5502384
4.689713827643102	6.2945633	2.5088968
4.7072553176105085	6.070492	2.463837
4.724796917945764	5.912837	2.4316325
4.742338629062015	5.8034034	2.4090254
4.759880451372434	5.6546273	2.3779461
4.777422385290215	5.5013466	2.345495
4.794964431228581	5.43194	2.3306522
4.812506589600768	5.467709	2.3383133
4.830048860820047	5.5178647	2.3490136
4.847591245299709	5.510129	2.3473663
4.8651337434530655	5.4920464	2.3435116
4.882676355693457	5.388714	2.3213603
4.900219082434242	5.396562	2.3230503
4.917761924088813	5.39718	2.323183
4.935304881070575	5.410683	2.3260875
4.952847953792969	5.4255004	2.3292704
4.970391142669449	5.479892	2.3409169
4.9879344481135055	5.39976	2.3237383
5.005477870538642	5.352766	2.3136046
5.023021410358394	5.270582	2.295775
5.040565067986324	5.2691684	2.295467
5.05810884383601	5.270289	2.295711
5.075652738321066	5.3875856	2.3211174
5.09319675185512	5.3499436	2.3129945
5.110740884851836	5.3560047	2.3143044
5.128285137724894	5.2754645	2.296838
5.145829510888007	5.2766776	2.297102
5.163374004754908	5.2534814	2.2920475
5.1809186197393595	5.2307386	2.2870808
5.198463356255145	5.1604824	2.2716696
5.216008214716077	5.124951	2.2638354
5.233553195535998	5.2015233	2.280685
5.251098299128764	5.172713	2.27436
5.268643525908272	5.119823	2.2627025
5.286188876288432	5.085574	2.2551217
5.3037343506831895	5.0690007	2.251444
5.32127994950651	5.0702753	2.251727
5.3388256731723915	5.1301	2.2649724
5.356371522094851	5.094339	2.257064
5.373917496687938	5.0441546	2.2459195
5.391463597365729	4.9640746	2.2280204
5.40900982454232	4.977312	2.230989
5.426556178631843	5.014525	2.2393136
5.444102660048449	5.1118507	2.2609403
5.4616492692063225	5.147078	2.2687173
5.479196006519669	5.1502666	2.26942
5.496742872402727	5.1172915	2.2621431
5.514289867269756	5.1306424	2.2650921
5.531836991535049	5.116884	2.262053
5.549384245612924	5.1067443	2.2598107
5.566931629917724	4.991281	2.2341175
5.584479144863822	4.944819	2.2236948
5.6020267908656205	4.952698	2.2254658
5.619574568337545	4.9274974	2.2197967
5.637122477694054	4.94953	2.2247539
5.654670519349629	4.9628015	2.2277346
5.672218693718784	5.0061765	2.2374487
5.689767001216059	4.9644036	2.228094
5.707315442256021	4.9585547	2.2267814
5.724864017253266	4.9793296	2.2314413
5.7424127266224225	4.9978204	2.2355804
5.75996157077814	4.992325	2.2343512
5.777510550135105	4.971732	2.2297382
5.795059665108022	4.9721603	2.229834
5.812608916111639	5.0009136	2.2362723
5.830158303560715	5.134898	2.2660313
5.847707827870055	5.187754	2.2776642
5.86525748945448	5.2579904	2.2930307
5.8828072887288485	5.341689	2.3112094
5.900357226108044	5.403057	2.3244476
5.917907302006979	5.501658	2.3455613
5.9354575168406	6.059185	2.4615412
5.9530078710238765	6.594907	2.5680552
5.970558364971812	7.0596075	2.6569922
5.988108999099438	7.389594	2.7183807
6.005659773821818	7.87788	2.8067563
6.023210689554039	7.659277	2.76754
6.040761746711227	8.147578	2.8543963
6.058312945708531	7.5077395	2.7400255
6.075864286961132	7.0547514	2.656078
6.093415770884244	6.4007983	2.52998
6.1109673978931065	5.9433475	2.4378982
6.128519168402993	5.428798	2.3299782
6.146071082829204	5.283803	2.2986524
6.163623141587075	5.1630626	2.2722373
6.181175345091969	5.052315	2.2477355
6.198727693759281	5.0592246	2.249272
6.216280188004435	5.015031	2.2394264
6.233832828242885	5.047329	2.2466261
6.251385614890126	5.106865	2.2598374
6.268938548361669	5.1223316	2.2632568
6.286491629073067	5.0586114	2.2491357
6.304044857439898	5.026808	2.2420545
6.321598233877777	4.9752107	2.230518
6.339151758802344	4.9364033	2.2218018
6.356705432629277	4.940581	2.2227418
6.37425925577428	4.9537745	2.2257075
6.391813228653095	4.9314046	2.2206767
6.409367351681486	4.91284	2.2164927
6.426921625275259	4.8770647	2.2084076
6.44447604985025	4.8398547	2.199967
6.46203062582232	4.8244405	2.196461
6.47958535360737	4.8072195	2.1925373
6.497140233621328	4.8041515	2.1918375
6.514695266280161	4.821544	2.1958015
6.532250451999859	4.8527617	2.2028985
6.549805791196454	4.868582	2.2064862
6.567361284286002	4.917553	2.2175555
6.584916931684597	4.9141345	2.2167847
6.602472733808367	4.9138327	2.2167165
6.6200286910734665	4.9002204	2.213644
6.637584803896092	4.9231086	2.218808
6.655141072692462	4.9749303	2.2304552
6.672697497878842	5.00535	2.237264
6.690254079871514	5.007015	2.237636
6.707810819086808	4.9086986	2.2155583
6.725367715941078	4.8425875	2.200588
6.742924770850719	4.8474984	2.2017035
6.760481984232151	4.8152924	2.1943774
6.778039356501836	4.897725	2.2130804
6.795596888076266	4.9407997	2.222791
6.813154579371963	4.9935007	2.2346141
6.830712430805492	4.8865695	2.2105587
6.84827044279344	4.850003	2.2022722
6.865828615752445	4.799318	2.1907346
6.883386950099159	4.8329115	2.1983883
6.900945446250287	4.8152127	2.1943593
6.918504104622553	4.7918553	2.1890306
6.936062925632727	4.802972	2.1915684
6.953621909697607	4.851496	2.2026112
6.971181057234028	4.975021	2.2304754
6.988740368658859	5.0147357	2.2393606
7.006299844389007	5.021675	2.2409093
7.023859484841407	5.069504	2.251556
7.041419290433036	5.1296906	2.264882
7.058979261580902	5.2489676	2.2910626
7.0765393987020495	5.4991455	2.3450258
7.094099702213559	5.9288297	2.4349189
7.111660172532549	6.3416066	2.5182548
7.129220810076164	6.682904	2.5851312
7.146781615261595	7.2498302	2.692551
7.16434258850606	7.44184	2.7279737
7.181903730226821	7.879704	2.807081
7.1994650408411704	8.017309	2.8314853
7.217026520766437	8.189298	2.8616948
7.234588170419983	8.467467	2.9098914
7.252149990219215	8.366348	2.8924642
7.269711980581568	8.2571945	2.8735335
7.2872741419245175	7.9863114	2.8260062
7.304836474665574	7.5479383	2.7473512
7.322398979222286	7.206384	2.684471
7.339961656012233	6.921299	2.6308362
7.357524505453039	6.650858	2.5789258
7.375087527962357	6.3822126	2.5263042
7.392650723957886	6.139656	2.477833
7.410214093857353	5.836968	2.4159818
7.427777638078528	5.613509	2.3692846
7.445341357039213	5.4600487	2.3366747
7.4629052511572525	5.261209	2.2937326
7.480469320850524	5.1671724	2.2731416
7.498033566536948	5.061265	2.2497256
7.5155979886344735	5.0543475	2.2481875
7.5331625875610975	5.029542	2.242664
7.550727363734844	5.002807	2.2366955
7.568292317573788	5.0188656	2.2402825
7.585857449496025	5.050579	2.2473493
7.603422759919705	5.1142797	2.2614772
7.620988249263007	5.112315	2.2610428
7.638553917944147	5.149053	2.2691524
7.656119766381391	5.1106663	2.2606783
7.673685794993023	5.122645	2.2633262
7.691252004197388	5.0737653	2.252502
7.70881839441285	5.086177	2.2552555
7.726384966057826	5.055923	2.248538
7.743951719550762	5.0973825	2.2577384
7.761518655310149	5.1302705	2.26501
7.779085773754511	5.133336	2.2656868
7.796653075302419	5.135028	2.2660599
7.814220560372475	5.1250734	2.2638626
7.831788229383323	5.128259	2.264566
7.8493560827536495	5.1834064	2.2767096
7.866924120902174	5.1936107	2.2789495
7.884492344247663	5.2292404	2.2867532
7.9020607532089135	5.223162	2.2854238
7.919629348204771	5.2391033	2.2889087
7.937198129654115	5.263991	2.294339
7.954767097975865	5.309325	2.3041973
7.972336253588986	5.320192	2.306554
7.989905596912472	5.330614	2.3088124
8.007475128365371	5.342394	2.311362
8.025044848366756	5.3952794	2.3227742
8.042614757335754	5.5589013	2.3577323
8.060184855691523	5.6572385	2.378495
8.07775514385327	5.7922387	2.406707
8.095325622240228	5.7816486	2.404506
8.112896291271687	5.749269	2.3977633
8.130467151366968	5.7111354	2.3897982
8.148038202945436	5.745067	2.396887
8.165609446426497	5.7623568	2.400491
8.183180882229594	5.8195643	2.4123774
8.200752510774217	5.808557	2.4100947
8.218324332479893	5.819778	2.4124217
8.235896347766193	5.811455	2.410696
8.253468557052724	5.8706822	2.422949
8.27104096075914	5.8600845	2.420761
8.288613559305137	5.929645	2.4350863
8.306186353110448	6.0198026	2.4535286
8.32375934259485	6.104538	2.4707363
8.341332528178162	6.1253486	2.474944
8.358905910280246	6.0978327	2.469379
8.376479489321003	6.0512395	2.4599268
8.394053265720377	6.1578655	2.4815047
8.411627239898356	6.189497	2.48787
8.42920141227497	6.2198524	2.4939632
8.44677578327029	6.185956	2.4871583
8.464350353304427	6.0756426	2.464882
8.48192512279754	6.065791	2.4628828
8.499500092169827	6.0545425	2.460598
8.51707526184153	6.068047	2.4633405
8.534650632232934	6.09681	2.469172
8.552226203764365	6.1088686	2.4716125
8.569801976856192	6.147289	2.4793727
8.587377951928834	6.162084	2.4823546
8.60495412940274	6.196296	2.489236
8.622530509698416	6.1647124	2.482884
8.6401070932364	6.232331	2.4964638
8.657683880437283	6.341748	2.518283
8.675260871721695	6.518424	2.5531204
8.692838067510303	6.6578035	2.580272
8.710415468223834	6.8142595	2.6104136
8.727993074283043	6.987719	2.6434295
8.745570886108737	7.072029	2.6593287
8.763148904121765	7.1101303	2.6664827
8.78072712874302	7.0448728	2.654218
8.798305560393441	7.2622633	2.6948588
8.815884199494006	7.3695707	2.7146952
8.833463046465745	7.5196433	2.7421968
8.851042101729728	7.62682	2.7616699
8.86862136570707	7.9415317	2.8180723
8.886200838818924	8.088406	2.8440123
8.903780521486505	8.203426	2.8641624
8.921360414131055	8.32915	2.8860266
8.938940517173874	8.470525	2.9104166
8.956520831036297	8.618982	2.9358103
8.97410135613971	8.865925	2.9775703
8.99168209290554	9.080588	3.0134015
9.009263041755265	9.311098	3.0514092
9.026844203110405	9.500954	3.0823617
9.044425577392525	9.662624	3.1084762
9.062007165023239	9.756668	3.1235666
9.079588966424197	10.038033	3.1682854
9.097170982017108	10.161497	3.1877103
9.11475321222372	11.019634	3.3195834
9.132335657465825	11.914737	3.451773
9.149918318165264	12.04197	3.4701543
9.167501194743924	12.618729	3.552285
9.18508428762374	12.288709	3.5055254
9.202667597226693	12.3157	3.5093732
9.220251123974803	11.981338	3.461407
9.237834868290143	11.727326	3.4245183
9.255418830594836	11.510991	3.392785
9.273003011311046	10.9826	3.3140006
9.290587410860985	10.729358	3.27557
9.308172029666911	10.151596	3.186157
9.32575686815113	9.853592	3.139043
9.343341926735997	8.609162	2.9341373
9.360927205843916	8.330072	2.8861866
9.378512705897327	8.139326	2.8529503
9.396098427318728	7.949162	2.8194258
9.413684370530664	7.851004	2.8019643
9.431270535955722	7.735535	2.781283
9.448856924016539	7.588918	2.7547991
9.466443535135806	7.5508637	2.7478836
9.484030369736251	7.600827	2.7569597
9.501617428240658	7.713002	2.7772293
9.519204711071852	7.6664004	2.7688265
9.536792218652714	7.6562424	2.7669916
9.55437995140617	7.5880384	2.7546394
9.571967909755191	7.6093855	2.7585115
9.589556094122802	7.6083317	2.7583203
9.60714450493207	7.628423	2.76196
9.624733142606116	7.6548777	2.7667449
9.642322007568108	7.733271	2.780876
9.659911100241267	7.7912793	2.7912862
9.677500421048851	7.7796154	2.7891963
9.695089970414175	7.828427	2.7979326
9.712679748760609	7.9034863	2.8113139
9.730269756511557	7.937193	2.8173025
9.747859994090492	7.8923955	2.8093407
9.765450461920915	7.9324455	2.8164597
9.78304116042639	8.020229	2.832001
9.800632090030527	8.098104	2.8457167
9.81822325115699	8.155778	2.8558323
9.835814644229481	8.069124	2.8406203
9.853406269671762	8.020551	2.8320577
9.870998127907646	8.025482	2.8329282
9.888590219360985	8.133207	2.851878
9.906182544455698	8.242168	2.8709178
9.923775103615734	8.23917	2.8703954
9.941367897265108	8.213545	2.8659282
9.958960925827878	8.155494	2.8557825
9.97655418972816	8.134452	2.852096
9.994147689390106	8.116805	2.8490007
10.011741425237934	8.095996	2.8453465
10.029335397695904	8.082868	2.8430386
10.04692960718833	8.128481	2.8510492
10.06452405413958	8.181488	2.86033
10.082118738974064	8.219359	2.8669424
10.099713662116246	8.231604	2.8690772
10.117308823990651	8.163611	2.8572035
10.134904225021844	8.124266	2.8503098
10.152499865634445	8.061884	2.8393457
10.170095746253125	8.047866	2.8368762
10.18769186730261	8.061161	2.8392184
10.205288229207675	7.967093	2.822604
10.222884832393145	7.952585	2.8200328
10.2404816772839	7.9646363	2.8221688
10.258078764304868	7.9836674	2.8255384
10.275676093881035	7.9337454	2.8166904
10.293273666437438	7.894639	2.80974
10.310871482399158	7.8346405	2.7990427
10.32846954219134	7.9012904	2.8109233
10.346067846239173	7.9795194	2.8248043
10.363666394967908	8.035117	2.834628
10.38126518880283	8.047478	2.8368077
10.398864228169298	8.111628	2.8480918
10.416463513492713	8.121221	2.8497756
10.434063045198531	8.153991	2.8555193
10.451662823712262	8.101671	2.8463435
10.469262849459467	8.05448	2.8380415
10.486863122865758	7.8983364	2.8103979
10.504463644356806	7.894843	2.8097763
10.522064414358338	7.878896	2.8069372
10.539665433296118	7.8213663	2.7966707
10.557266701595987	7.70658	2.7760727
10.574868219683818	7.576052	2.7524629
10.592469987985552	7.512883	2.740964
10.610072006927185	7.5040503	2.7393522
10.627674276934751	7.3262362	2.706702
10.64527679843435	7.172095	2.6780767
10.662879571852143	7.0987163	2.6643417
10.680482597614331	7.0319486	2.651782
10.698085876147173	6.9778438	2.6415608
10.715689407876988	6.886657	2.6242442
10.733293193230146	6.84289	2.6158917
10.750897232633072	6.740493	2.596246
10.76850152651225	6.581764	2.565495
10.786106075294207	6.3827124	2.526403
10.803710879405534	6.21985	2.4939628
10.821315939272877	6.1604457	2.4820244
10.83892125532294	6.1703386	2.4840167
10.856526827982472	6.190197	2.4880106
10.874132657678285	6.2257705	2.4951494
10.891738744837243	6.20575	2.4911342
10.909345089886271	6.1429076	2.478489
10.926951693252343	6.034413	2.456504
10.944558555362494	5.974155	2.4442084
10.96216567664381	5.9457254	2.4383857
10.979773057523436	5.852991	2.4192955
10.997380698428573	5.687208	2.3847868
11.014988599786477	5.599709	2.3663704
11.032596762024461	5.5220227	2.3498983
11.050205185569892	5.4665256	2.3380601
11.067813870850198	5.390833	2.3218167
11.085422818292859	5.3601003	2.3151891
11.10303202832541	5.385864	2.3207464
11.120641501375454	5.4131503	2.3266177
11.138251237870636	5.419105	2.327897
11.155861238238671	5.309407	2.3042152
11.173471502907317	5.170518	2.2738774
11.191082032304402	4.9916725	2.234205
11.208692826857805	4.9892035	2.2336526
11.226303886995465	4.9704113	2.229442
11.243915213145371	4.955497	2.2260945
11.261526805735578	4.9037566	2.2144427
11.279138665194196	4.8744893	2.2078245
11.296750791949393	4.8372173	2.1993675
11.314363186429393	4.771829	2.1844516
11.331975849062479	4.7180767	2.1721134
11.34958878027699	4.615162	2.1482928
11.36720198050133	4.525994	2.1274383
11.384815450163948	4.439807	2.107085
11.402429189693366	4.4331164	2.1054966
11.420043199518153	4.4063034	2.0991197
11.437657480066942	63.34229	7.958787
11.455272031768422	85.02518	9.22091
11.472886855051353	107.418236	10.364277
11.490501950344528	99.06177	9.952978
11.508117318076819	84.41622	9.18783
11.52573295867715	45.848106	6.771123
11.543348872574514	4.1647477	2.0407712
11.560965060197946	4.133973	2.0332174
11.57858152197655	4.058938	2.0146806
11.59619825833949	4.0130067	2.003249
11.613815269715985	3.9600642	1.989991
11.631432556535323	38.432304	6.1993794
11.649050119226837	82.95987	9.108231
11.666667958219929	93.36957	9.662793
11.68428607394406	107.67382	10.376599
11.701904466828756	82.469864	9.081292
11.719523137303586	65.32191	8.082197
11.737142085798196	4.510949	2.1238995
11.754761312742286	3.6572745	1.9124002
11.772380818565619	3.654498	1.9116741
11.790000603698015	3.6691241	1.9154958
11.80762066856935	3.6155798	1.9014678
11.825241013609572	3.5852606	1.8934784
11.842861639248683	3.5482657	1.883684
11.860482545916748	3.4812672	1.8658154
11.878103734043883	3.3966877	1.8430105
11.895725204060282	3.3426304	1.8282862
11.91334695639619	3.3178995	1.8215102
11.930968991481919	3.2991738	1.8163629
11.948591309747824	3.3087752	1.8190039
11.966213911624347	3.2946656	1.8151214
11.98383679754198	3.2845025	1.8123196
12.001459967931268	3.2439306	1.8010916
12.019083423222835	3.208562	1.7912459
12.036707163847352	3.2243032	1.7956345
12.05433119023556	3.2011645	1.7891798
12.071955502818259	3.1664882	1.7794629
12.089580102026313	3.0857058	1.7566177
12.107204988290643	3.0872228	1.7570494
12.12483016204224	3.122712	1.7671196
12.142455623712152	3.1803946	1.7833661
12.16008137373149	3.1643264	1.7788553
12.177707412531431	3.1466813	1.7738887
12.19533374054321	3.0967255	1.7597516
12.212960358198126	3.0346193	1.7420158
12.230587265927545	2.978875	1.7259418
12.248214464162889	2.9863746	1.728113
12.265841953335649	3.0300596	1.7407067
12.283469733877375	3.0139296	1.7360673
12.301097806219685	2.966344	1.7223078
12.31872617079425	2.9499044	1.7175286
12.336354828032825	2.9305446	1.7118833
12.353983778367205	2.8971546	1.702103
12.371613022229262	2.8618064	1.6916875
12.389242560050928	2.8719742	1.69469
12.406872392264201	2.904895	1.7043753
12.424502519301143	2.8925536	1.7007508
12.442132941593874	2.8442953	1.6865039
12.459763659574586	2.8136885	1.6774052
12.477394673675532	2.8068416	1.6753632
12.49502598432903	2.7757797	1.6660671
12.51265759196746	2.7630308	1.6622367
12.530289497023267	2.7532685	1.6592976
12.547921699928967	2.7473009	1.6574984
12.565554201117134	2.762423	1.6620538
12.583187001020404	2.7543766	1.6596315
12.600820100071486	2.746455	1.6572431
12.618453498703152	2.7431796	1.6562546
12.636087197348235	2.732781	1.6531125
12.65372119643964	2.7651718	1.6628805
12.671355496410326	2.7884233	1.6698573
12.68899009769333	2.815055	1.6778126
12.706625000721749	2.8432786	1.6862024
12.724260205928752	2.8577383	1.6904846
12.741895713747551	2.8366141	1.6842251
12.759531524611454	2.874168	1.695337
12.777167638953818	2.872265	1.6947758
12.794804057208072	2.9130569	1.7067679
12.812440779807702	2.95338	1.7185401
12.830077807186271	3.127954	1.7686023
12.847715139777405	3.1667988	1.7795502
12.865352778014795	3.3483853	1.8298594
12.882990722332197	3.4720278	1.8633378
12.90062897316344	3.53466	1.8800691
12.918267530942412	3.5991962	1.8971548
12.935906396103071	3.5297441	1.8787613
12.953545569079449	3.7079408	1.9256014
12.971185050305628	3.52196	1.8766886
12.988824840215775	3.5113404	1.8738571
13.006464939244115	3.4626393	1.8608168
13.024105347824943	3.3359947	1.8264706
13.041746066392617	3.417341	1.8486052
13.05938709538157	3.279173	1.8108487
13.077028435226296	3.3195524	1.8219639
13.094670086361363	3.2103984	1.7917584
13.112312049221401	3.1244378	1.7676079
13.129954324241112	3.031469	1.7411114
13.147596911855258	2.8495336	1.6880561
13.165239812498685	2.8313031	1.6826477
13.182883026606293	2.759124	1.6610612
13.200526554613058	2.7302403	1.6523439
13.218170396954017	2.7206614	1.6494428
13.235814554064284	2.6955402	1.64181
13.253459026379034	2.719167	1.6489897
13.271103814333523	2.673129	1.6349707
13.288748918363058	2.6923227	1.6408299
13.306394338903031	2.6601033	1.6309823
13.32404007638889	2.6301491	1.6217735
13.341686131256164	2.6278615	1.621068
13.359332503940449	2.6145883	1.6169689
13.376979194877402	2.599893	1.6124184
13.394626204502751	2.6533408	1.6289079
13.412273533252307	2.7016063	1.6436564
13.429921181561937	2.714241	1.6474954
13.447569149867581	2.6853	1.6386886
13.465217438605247	2.6468058	1.6269007
13.482866048211022	2.6338575	1.6229163
13.500514979121052	2.672989	1.6349277
13.518164231771568	2.6779778	1.6364528
13.535813806598844	2.671378	1.634435
13.553463704039254	2.6598802	1.6309139
13.571113924529229	2.6437364	1.625957
13.588764468505275	2.6558752	1.6296856
13.606415336403956	2.6706884	1.634224
13.624066528661917	2.668894	1.633675
13.641718045715882	2.705409	1.6448128
13.659369888002635	2.724937	1.6507384
13.67702205595903	2.8118768	1.6768652
13.694674550021993	2.9300866	1.7117496
13.712327370628532	3.0338047	1.7417821
13.729980518215713	3.1063411	1.7624816
13.747633993220681	3.1383197	1.7715304
13.765287796080647	3.1488125	1.7744894
13.7829419272329	3.1834452	1.7842212
13.800596387114801	3.2319534	1.7977635
13.818251176163775	3.2768605	1.8102101
13.835906294817324	3.3247259	1.8233831
13.853561743513023	3.364893	1.8343644
13.871217522688525	3.3767946	1.8376057
13.888873632781538	3.412609	1.8473248
13.906530074229858	3.4561129	1.8590623
13.92418684747135	3.4819937	1.8660101
13.941843952943948	3.4263358	1.8510364
13.959501391085665	3.3774588	1.8377864
13.977159162334578	3.3018608	1.8171023
13.994817267128846	3.2784548	1.8106503
14.012475705906693	3.2150846	1.7930657
14.030134479106424	3.1724832	1.7811466
14.047793587166414	3.1426857	1.7727622
14.065453030525108	3.092216	1.7584698
14.083112809621026	3.001939	1.7326105
14.100772924892766	2.92081	1.7090378
14.118433376778997	2.859113	1.6908911
14.136094165718458	2.8221292	1.6799194
14.153755292149969	2.7551618	1.659868
14.171416756512416	2.726474	1.6512039
14.189078559244768	2.6394768	1.6246467
14.20674070078606	2.592143	1.6100134
14.224403181575408	2.5124452	1.5850694
14.242066002051999	2.4553347	1.5669508
14.259729162655093	2.4469693	1.5642792
14.277392663824022	2.4202733	1.5557227
14.295056505998208	2.4002125	1.5492619
14.312720689617128	2.376141	1.5414736
14.330385215120348	2.37312	1.5404935
14.348050082947497	2.382819	1.5436382
14.3657152935383	2.3679807	1.5388244
14.383380847332528	2.339439	1.5295224
14.401046744770051	2.3015435	1.5170839
14.418712986290798	2.3111527	1.5202476
14.436379572334793	2.3326695	1.5273079
14.454046503342123	2.385846	1.5446184
14.471713779752946	2.416224	1.5544208
14.489381402007504	2.3860757	1.5446928
14.507049370546113	2.3482494	1.5323999
14.524717685809168	2.343176	1.5307436
14.542386348237134	2.3640463	1.5375456
14.560055358270553	2.4083223	1.551877
14.577724716350051	2.4383852	1.561533
14.595394422916325	2.4207702	1.5558825
14.61306447841015	2.4123683	1.5531801
14.63073488327237	2.4067209	1.551361
14.648405637943917	2.425909	1.557533
14.6660767428658	2.4270825	1.5579097
14.683748198479094	2.44767	1.5645031
14.701420005224954	2.4701002	1.5716553
14.719092163544628	2.494252	1.5793201
14.73676467387942	2.5537193	1.598036
14.754437536670727	2.582719	1.607084
14.772110752360014	2.5705366	1.6032894
14.78978432138882	2.574327	1.604471
14.807458244198777	2.6143515	1.6168957
14.82513252123159	2.6417582	1.6253487
14.842807152929028	2.697221	1.6423218
14.860482139732962	2.6714709	1.6344634
14.87815748208531	2.644596	1.6262214
14.8958331804281	2.625957	1.6204805
14.91350923520342	2.5999503	1.6124362
14.931185646853438	2.6481202	1.6273046
14.948862415820408	2.63299	1.6226491
14.966539542546656	2.6467402	1.6268805
14.98421702747459	2.622344	1.6193653
15.001894871046696	2.6352081	1.6233324
15.019573073705542	2.5960126	1.6112146
15.037251635893766	2.5764651	1.6051371
15.054930558054092	2.5967407	1.6114405
15.072609840629323	2.6119723	1.6161598
15.090289484062351	2.7388513	1.6549475
15.107969488796124	2.8911564	1.7003402
15.125649855273691	3.128249	1.7686857
15.14333058393817	3.4893713	1.8679858
15.161011675232768	4.1126895	2.0279768
15.17869312960076	4.7736807	2.1848755
15.196374947485506	5.52298	2.3501022
15.214057129330447	6.795012	2.6067243
15.231739675579114	8.839763	2.9731739
15.249422586675102	13.332766	3.651406
15.267105863062092	17.744577	4.2124314
15.284789505183847	24.853525	4.985331
15.302473513484218	29.525951	5.433779
15.320157888407127	33.78854	5.812791
15.337842630396578	32.741753	5.722041
15.355527739896656	30.13067	5.489141
15.37321321735153	23.47061	4.8446474
15.39089906320545	15.994009	3.9992511
15.408585277902748	10.21377	3.195899
15.42627186188783	6.3433948	2.5186098
15.443958815605198	4.598595	2.1444335
15.461646139499424	3.780745	1.9444138
15.479333834015168	3.3495677	1.8301824
15.497021899597165	2.9990618	1.7317799
15.514710336690234	2.8063042	1.6752027
15.53239914573928	2.6526656	1.6287006
15.550088327189297	2.557644	1.5992635
15.567777881485336	2.5208294	1.587712
15.58546780907256	2.5347517	1.5920904
15.6031581103962	2.5443072	1.5950885
15.620848785901568	2.526467	1.5894865
15.638539836034063	2.481866	1.5753939
15.656231261239173	2.448724	1.56484
15.673923061962451	2.439967	1.5620394
15.691615238649552	2.4225318	1.5564485
15.709307791746202	2.4157286	1.5542614
15.727000721698221	2.402443	1.5499816
15.744694028951498	2.4035604	1.5503421
15.76238771395202	2.436588	1.5609574
15.780081777145844	2.4336972	1.5600312
15.797776218979125	2.3831217	1.5437363
15.815471039898094	2.3375754	1.5289131
15.833166240349064	2.340898	1.5299994
15.850861820778437	2.3883224	1.5454198
15.868557781632699	2.4050772	1.5508311
15.886254123358412	2.4416718	1.562585
15.903950846402232	2.4659991	1.57035
15.921647951210897	2.4729402	1.5725585
15.939345438231225	2.4639304	1.5696912
15.957043307910133	2.4613655	1.568874
15.974741560694602	2.504546	1.5825757
15.992440197031714	2.4893653	1.5777723
16.01013921736862	2.472274	1.5723467
16.02783862215259	2.423906	1.5568899
16.045538411830933	2.4331136	1.5598441
16.06323858685107	2.4223924	1.5564036
16.080939147660512	2.424862	1.5571969
16.09864009470684	2.3843737	1.5441418
16.11634142843774	2.3592315	1.535979
16.134043149300954	2.3511395	1.5333426
16.15174525774433	2.3705158	1.5396479
16.169447754215817	2.4085171	1.5519398
16.18715063916342	2.4231722	1.5566542
16.204853913035244	2.430531	1.559016
16.222557576279478	2.4351563	1.5604987
16.240261629344403	22.409773	4.7338963
16.257966072678386	42.934677	6.552456
16.275670906729868	38.032394	6.167041
16.293376131947387	2.463287	1.5694863
16.31108174877957	2.4895415	1.577828
16.328787757675133	2.550471	1.5970194
16.34649415908287	2.5567029	1.5989693
16.364200953451657	2.62579	1.620429
16.38190814123048	2.6343381	1.6230644
16.39961572286839	2.662626	1.6317555
16.41732369881455	2.6581094	1.630371
16.43503206951817	2.6801195	1.637107
16.45274083542859	2.7280605	1.6516842
16.47044999699522	2.7590942	1.6610521
16.488159554667558	2.7818382	1.6678843
16.505869508895184	2.7868118	1.6693747
16.523579860127786	2.8672683	1.693301
16.541290608815117	2.9564106	1.7194216
16.559001755407035	3.0467284	1.745488
16.57671330035348	3.1043808	1.7619253
16.59442524410448	3.212993	1.7924824
16.61213758711015	3.4021204	1.8444837
16.629850329820705	3.4979804	1.8702888
16.647563472686436	3.5019612	1.8713528
16.665277016157724	3.436512	1.8537831
16.682990960685053	3.4231212	1.8501679
16.70070530671898	3.4343965	1.8532125
16.718420054710155	3.4832642	1.8663505
16.736135205109335	3.5103211	1.8735851
16.753850758367335	3.5506654	1.884321
16.771566714935087	3.5779243	1.8915402
16.789283075263597	3.6798985	1.9183061
16.80699983980398	3.7187212	1.9283986
16.82471700900741	3.831724	1.957479
16.84243458332518	3.8789728	1.9695108
16.860152563208665	3.9605403	1.9901106
16.87787094910932	3.9959934	1.998998
16.89558974147871	4.0577025	2.014374
16.913308940768466	4.0966234	2.0240116
16.931028547430333	4.148728	2.0368426
16.94874856191613	4.1983814	2.0489953
16.966468984677785	4.2808785	2.0690284
16.98418981616729	4.3463945	2.0848007
17.00191105683676	4.3820796	2.0933418
17.019632707138374	4.366391	2.0895913
17.03735476752442	4.381156	2.093121
17.05507723844728	4.4583464	2.1114798
17.072800120359403	4.544667	2.1318223
17.090523413713353	4.6067214	2.1463275
17.108247118961785	4.6315417	2.1521018
17.125971236557437	4.606446	2.1462631
17.143695766953133	4.5512238	2.1333597
17.161420710601806	4.5478086	2.132559
17.179146067956477	4.6244826	2.150461
17.19687183947025	4.6545177	2.157433
17.21459802559634	4.669725	2.1609547
17.232324626788028	4.680118	2.163358
17.25005164349871	4.6561394	2.157809
17.267779076181863	4.6067734	2.1463394
17.285506925291074	4.553224	2.1338284
17.30323519127999	4.484253	2.1176054
17.320963874602384	4.479909	2.1165795
17.33869297571211	4.4218044	2.1028087
17.356422495063114	4.4229984	2.1030927
17.37415243310944	4.3891315	2.0950255
17.391882790305218	4.3960686	2.0966804
17.40961356710468	4.439649	2.1070476
17.42734476396215	4.4676714	2.1136868
17.445076381332044	4.5353746	2.129642
17.462808419668868	4.601597	2.1451333
17.48054087942723	4.745961	2.1785228
17.498273761061835	4.8426547	2.2006032
17.51600706502747	5.1879106	2.2776985
17.533740791779024	5.8525987	2.4192145
17.551474941771485	6.8194885	2.6114151
17.56920951545993	8.738569	2.9561071
17.586944513299528	9.908671	3.1478043
17.60467993574556	12.638807	3.55511
17.622415783253373	15.188515	3.8972445
17.64015205627843	17.903507	4.2312536
17.657888755276293	20.251595	4.5001774
17.675625880702604	21.729246	4.6614637
17.69336343301311	20.289328	4.504368
17.71110141266366	18.182371	4.264079
17.728839820110178	15.476671	3.93404
17.746578655808705	12.33262	3.511783
17.764317920215372	10.157328	3.1870563
17.7820576137864	8.503887	2.9161425
17.79979773697811	7.2337255	2.6895585
17.81753829024692	6.0176263	2.453085
17.835279274049356	5.2515564	2.2916274
17.85302068884201	4.4808755	2.116808
17.870762535081607	4.068743	2.0171125
17.888504813224934	3.8064425	1.9510106
17.90624752372891	3.676432	1.9174024
17.923990667050536	3.540351	1.881582
17.941734243646895	3.4628596	1.8608761
17.959478253975185	3.408652	1.8462535
17.9772226984927	3.3593407	1.8328505
17.994967577656833	3.309353	1.8191627
18.01271289192506	3.2959936	1.8154871
18.030458641754965	3.305007	1.8179678
18.04820482760425	3.2735484	1.8092949
18.06595144993067	3.2351902	1.7986634
18.083698509192125	3.2044506	1.790098
18.101446005846576	3.2007031	1.7890509
18.119193940352105	3.1640472	1.7787769
18.136942313166887	3.178406	1.7828084
18.1546911247492	3.1463716	1.7738014
18.1724403755574	3.1465394	1.7738488
18.19019006604997	3.130231	1.7692459
18.207940196685467	3.092241	1.7584769
18.225690767922575	3.0812118	1.7553381
18.243441780220046	3.045217	1.7450551
18.261193234036764	3.017231	1.7370179
18.278945129831676	2.999414	1.7318816
18.29669746806386	2.9711857	1.7237128
18.314450249192483	2.9573872	1.7197056
18.3322034736768	2.95364	1.7186158
18.349957141976184	2.9829967	1.7271354
18.3677112545501	3.0007217	1.7322592
18.385465811858108	3.02646	1.7396724
18.403220814359884	3.0604446	1.7494127
18.420976262515172	3.0679278	1.7515501
18.43873215678387	3.1058447	1.7623407
18.456488497625923	3.1595159	1.7775027
18.474245285501407	3.2510564	1.8030686
18.492002520870486	3.2782068	1.8105819
18.50976020419343	3.3421686	1.8281599
18.527518335930615	3.5887072	1.8943883
18.545276916542516	4.1450567	2.0359411
18.563035946489688	4.3168974	2.0777144
18.580795426232832	4.79399	2.1895182
18.598555356232698	4.6705337	2.1611416
18.616315736950185	4.87874	2.208787
18.63407656884626	4.5031767	2.122069
18.65183785238201	4.656654	2.1579282
18.669599588018617	4.46313	2.112612
18.68736177621737	4.4932156	2.1197207
18.705124417439652	4.490629	2.1191106
18.72288751214696	4.2939053	2.072174
18.740651060800886	4.405718	2.0989802
18.758415063863115	4.1653647	2.0409224
18.77617952179546	4.3539453	2.086611
18.793944435059814	4.2002187	2.0494435
18.811709804118184	4.2237053	2.0551655
18.829475629432675	4.156065	2.038643
18.8472419114655	3.958208	1.9895246
18.86500865067897	3.9773889	1.9943392
18.88277584753551	3.6386707	1.90753
18.90054350249763	3.641958	1.9083915
18.918311616027957	3.3669474	1.8349243
18.936080188589226	3.2649589	1.8069197
18.953849220644265	3.013905	1.7360603
18.971618712656007	2.8539705	1.6893699
18.9893886650875	2.8074107	1.6755329
19.007159078401887	7.9936213	2.8272994
19.024929953062408	32.88405	5.7344613
19.042701289532435	32.817093	5.7286205
19.060473088275405	25.36601	5.036468
19.07824534975489	2.6547263	1.629333
19.096018074434568	2.63739	1.6240042
19.113791262778197	2.6267457	1.6207238
19.13156491524966	2.581544	1.6067184
19.149339032312945	2.526344	1.5894477
19.167113614432136	2.520268	1.5875351
19.184888662071433	2.540258	1.5938187
19.202664175695123	2.5713172	1.6035327
19.220440155767623	2.5587611	1.5996128
19.238216602753447	2.5680327	1.6025083
19.2559935171172	2.554782	1.5983685
19.27377089932361	2.5434918	1.5948329
19.291548749837514	2.5118215	1.5848727
19.309327069123835	2.4909987	1.5782899
19.32710585764763	2.463594	1.569584
19.344885115874032	2.488717	1.5775669
19.362664844268313	2.510105	1.584331
19.380445043295822	2.4929283	1.5789009
19.39822571342203	2.4652274	1.5701042
19.41600685511252	2.4651775	1.5700884
19.43378846883297	2.4723952	1.5723852
19.451570555049173	2.4571562	1.5675318
19.469353114227037	2.4467254	1.5642012
19.48713614683254	2.4602458	1.5685171
19.50491965333182	2.4445086	1.5634924
19.52270363419109	2.440534	1.5622209
19.540488089876686	2.4915874	1.5784763
19.55827302085503	2.5297122	1.5905069
19.576058427592674	2.5340316	1.5918642
19.593844310556282	2.5541935	1.5981845
19.611630670212598	2.5330722	1.5915629
19.629417507028506	2.491325	1.5783931
19.64720482147098	2.4510021	1.5655676
19.6649926140071	2.4406724	1.5622652
19.682780885104084	2.4329586	1.5597944
19.70056963522921	2.4396071	1.5619242
19.718358864849908	2.472401	1.572387
19.7361485744337	2.4729087	1.5725485
19.753938764448215	2.4426603	1.5629013
19.771729435361202	2.4736733	1.5727916
19.789520587640506	2.4871883	1.5770823
19.807312221754092	2.5026882	1.5819887
19.825104338170043	2.5061588	1.5830852
19.842896937356517	2.5015218	1.58162
19.860690019781824	2.4918432	1.5785574
19.87848358591436	2.47462	1.5730926
19.896277636222635	2.4871871	1.5770818
19.914072171175278	2.4714108	1.5720721
19.931867191241015	2.4883525	1.5774512
19.94966269688869	2.5087442	1.5839016
19.967458688587264	2.5022705	1.5818566
19.985255166805807	2.4596093	1.5683142
20.00305213201348	2.416541	1.5545228
20.020849584679578	2.4421449	1.5627364
20.038647525273507	2.4433835	1.5631325
20.05644595426477	2.4473832	1.5644114
20.07424487212299	2.4407263	1.5622824
20.092044279317903	2.427649	1.5580915
20.109844176319353	2.3893	1.5457361
20.127644563597304	2.3890917	1.5456687
20.145445441621817	2.3938074	1.5471934
20.16324681086307	2.4064054	1.5512593
20.181048671791373	2.3755088	1.5412686
20.198851024877122	2.3399775	1.5296985
20.216653870590836	2.3077922	1.5191419
20.234457209403146	2.3333466	1.5275296
20.252261041784802	2.3654208	1.5379925
20.270065368206662	2.3670177	1.5385115
20.287870189139685	2.3546722	1.5344942
20.305675505054968	2.320956	1.5234684
20.323481316423702	2.2755117	1.50848
20.341287623717207	2.2857237	1.511861
20.359094427406884	2.3338337	1.527689
20.376901727964288	2.3583558	1.5356939
20.39470952586107	2.3581028	1.5356115
20.41251782156899	2.367135	1.5385497
20.430326615559935	2.3848896	1.5443088
20.448135908305886	2.3852537	1.5444267
20.465945700278965	2.3512015	1.5333629
20.483755991951384	2.3069892	1.5188776
20.50156678379548	2.2831373	1.5110054
20.519378076283708	2.297336	1.5156965
20.537189869888635	2.3217607	1.5237324
20.55500216508294	2.3238413	1.5244151
20.572814962339415	2.3055193	1.5183936
20.59062826213098	2.2783494	1.5094203
20.60844206493066	2.2776568	1.5091908
20.626256371211593	2.2759616	1.5086291
20.644071181447032	2.2738063	1.5079145
20.66188649611036	2.2729785	1.50764
20.67970231567506	2.291578	1.5137959
20.697518640614742	2.306077	1.5185773
20.715335471403122	2.320393	1.5232836
20.73315280851404	2.279163	1.5096897
20.750970652421447	2.267596	1.5058539
20.768789003599412	2.239341	1.4964428
20.786607862522136	2.2305121	1.4934899
20.8044272296639	2.232974	1.494314
20.82224710549913	2.2369888	1.4956566
20.84006749050237	2.2607508	1.5035794
20.857888385148268	3.8337104	1.9579864
20.8757097899116	45.940582	6.7779484
20.893531705267254	64.79635	8.049618
20.911354131690224	83.823586	9.155522
20.92917706965566	69.07802	8.311318
20.94700051963877	50.14435	7.0812674
20.96482448211493	29.36701	5.4191337
20.982648957559622	4.1027107	2.0255148
21.00047394644843	2.2282965	1.492748
21.01829944925707	2.257722	1.5025718
21.036125466461375	2.2039	1.4845538
21.053951998537297	2.183589	1.4776971
21.071779045960906	2.1604168	1.4698356
21.089606609208378	2.1442444	1.4643239
21.10743468875603	2.1646876	1.4712877
21.12526328508028	2.1812472	1.4769046
21.143092398657675	2.1674147	1.4722142
21.16092202996488	2.1909962	1.4802014
21.17875217947867	2.1956055	1.4817575
21.19658284767596	2.1847332	1.4780843
21.21441403503377	2.1663158	1.471841
21.232245742029225	2.178162	1.4758598
21.2500779691396	2.1972382	1.4823084
21.26791071684227	2.1844578	1.4779911
21.28574398561475	2.140104	1.4629095
21.30357777593465	2.108569	1.4520912
21.321412088279704	2.1059623	1.4511935
21.339246923127792	2.1417067	1.4634571
21.357082280956888	2.1524622	1.4671272
21.3749181622451	2.1407623	1.4631344
21.392754567470647	2.1313043	1.4598987
21.41059149711187	2.1312525	1.459881
21.42842895164726	2.1285124	1.4589422
21.446266931555378	2.138254	1.4622769
21.464105437314945	2.1176956	1.4552305
21.481944469404798	2.1046724	1.4507489
21.49978402830388	2.0569398	1.4342035
21.51762411449127	2.0424328	1.4291371
21.53546472844617	2.04906	1.4314538
21.553305870647876	2.0644336	1.4368137
21.571147541575865	2.0913968	1.4461663
21.58898974170967	2.0935624	1.4469148
21.60683247152899	2.0836868	1.4434981
21.62467573151363	2.0781705	1.4415861
21.642519522143523	2.085665	1.4441831
21.660363843898722	2.09513	1.4474564
21.6782086972594	2.0635374	1.4365017
21.696054082705864	2.0381444	1.4276359
21.713900000718535	2.0095463	1.4175847
21.73174645177795	1.9892102	1.4103936
21.749593436364794	2.0064073	1.4164771
21.767440954959845	2.0328345	1.425775
21.785289008044032	2.0602784	1.435367
21.803137596098388	2.023735	1.4225804
21.820986719604086	1.9822792	1.4079343
21.838836379042412	1.9360619	1.3914244
21.85668657489478	1.959888	1.39996
21.87453730764273	1.9943795	1.412225
21.892388577767914	1.9817313	1.4077398
21.91024038575213	1.9758668	1.4056553
21.928092732077285	1.969201	1.4032822
21.945945617225426	1.9856886	1.4091446
21.963799041678694	1.9946349	1.4123154
21.981653005919398	31.321754	5.5965843
21.999507510429943	78.13078	8.839162
22.01736255569286	73.06714	8.547932
22.035218142190818	4.138236	2.0342655
22.05307427040661	1.9250877	1.3874753
22.07093094082315	1.9518464	1.397085
22.088788153923474	1.9619979	1.4007133
22.106645910190746	2.0052168	1.4160568
22.12450421010827	2.0019333	1.414897
22.142363054159464	1.9801571	1.4071805
22.16022244282787	1.9472373	1.3954344
22.178082376597164	1.9440014	1.3942745
22.195942855951145	1.9404339	1.3929945
22.213803881373742	1.9283316	1.3886439
22.231665453349002	1.944785	1.3945554
22.24952757236111	1.9519571	1.3971245
22.26739023889438	1.954309	1.397966
22.28525345343323	1.9320172	1.3899702
22.30311721646225	1.933795	1.3906096
22.320981528466113	1.9336383	1.3905532
22.33884638992964	1.9187241	1.3851801
22.356711801337788	1.8939569	1.376211
22.37457776317561	1.9142648	1.3835696
22.392444275928337	1.9440897	1.3943062
22.410311340081282	1.9794536	1.4069306
22.428178956119904	1.984752	1.4088123
22.446047124529805	1.9747403	1.4052545
22.46391584579669	1.9806963	1.4073721
22.481785120406414	1.9660505	1.4021592
22.49965494884496	1.9723315	1.4043972
22.51752533159841	1.9392238	1.3925601
22.53539626915302	1.9218383	1.3863038
22.553267761995137	1.9017041	1.3790228
22.571139810611264	1.9122335	1.3828353
22.589012415488025	1.906858	1.3808903
22.60688557711216	1.9106429	1.3822601
22.624759295970566	1.8932693	1.3759612
22.642633572550263	1.9116032	1.3826073
22.660508407338362	1.9312464	1.3896929
22.67838380082217	1.959485	1.399816
22.696259753489077	1.9530705	1.397523
22.714136265826614	1.9442091	1.394349
22.73201333832246	1.9493408	1.3961879
22.74989097146439	1.9530622	1.3975201
22.76776916574035	1.9360379	1.3914158
22.785647921638393	1.9001195	1.3784482
22.803527239646712	1.8886131	1.3742682
22.82140712025363	1.8814441	1.3716574
22.839287563947593	1.8905847	1.3749853
22.85716857121719	1.8932995	1.3759722
22.875050142551135	1.8661879	1.3660849
22.892932278438277	1.8472364	1.3591307
22.910814979367604	1.8446622	1.3581834
22.928698245828222	1.8964627	1.3771212
22.946582078309387	1.9204167	1.3857911
22.96446647730047	1.9323891	1.390104
22.98235144329098	1.9190811	1.385309
23.000236976770562	1.9208165	1.3859353
23.018123078229	1.9172158	1.3846357
23.03600974815619	1.9100039	1.3820289
23.053896987042194	1.8967956	1.3772421
23.071784795377173	1.8927327	1.3757663
23.08967317365145	1.9006634	1.3786455
23.10756212235546	1.8690096	1.3671173
23.125451641979787	1.8405608	1.3566726
23.143341733015134	1.8734807	1.3687515
23.161232395952357	1.9156564	1.3840724
23.179123631282426	1.9337498	1.3905933
23.197015439496468	1.9107246	1.3822896
23.214907821085717	1.9086156	1.3815266
23.23280077654157	1.9247239	1.3873441
23.250694306355538	1.9065316	1.3807721
23.268588411019277	1.8872713	1.3737799
23.28648309102458	1.8846076	1.3728101
23.304378346863356	1.8785359	1.3705969
23.322274179027676	1.8702832	1.367583
23.340170588009723	1.8737875	1.3688636
23.358067574301852	1.8969214	1.3772877
23.37596513839651	1.9365026	1.3915827
23.39386328078629	1.9488717	1.3960199
23.411762001963947	1.9465946	1.3952042
23.429661302422353	1.9588265	1.3995808
23.4475611826545	1.9565572	1.3987699
23.46546164315356	1.9203318	1.3857604
23.48336268441279	1.9129524	1.3830953
23.501264306925638	1.9201148	1.3856821
23.51916651118564	1.9439254	1.3942473
23.537069297686497	1.9530716	1.3975234
23.554972666922037	1.9577419	1.3991933
23.57287661938623	1.9663755	1.4022751
23.59078115557318	1.9616107	1.4005752
23.608686275977128	1.8989626	1.3780285
23.62659198109246	1.856373	1.3624878
23.6444982714137	1.8606058	1.3640403
23.66240514743549	1.8897362	1.3746767
23.68031260965263	1.9102515	1.3821185
23.698220658560068	1.9130527	1.3831315
23.716129294652845	1.8990762	1.3780698
23.7340385184262	1.8801228	1.3711756
23.75194833037546	1.8726599	1.3684516
23.769858730996123	1.8848813	1.3729098
23.78776972078382	1.8874831	1.373857
23.80568130023431	1.8792214	1.370847
23.823593469843495	1.8774934	1.3702165
23.841506230107424	1.8825582	1.3720635
23.859419581522275	1.8665769	1.3662273
23.87733352458438	1.845368	1.3584433
23.89524805979019	1.830284	1.3528799
23.913163187636318	1.8420862	1.3572347
23.931078908619508	1.8911405	1.3751874
23.948995223236633	1.9419116	1.3935249
23.966912131984735	1.9604201	1.4001501
23.98482963536096	1.9947706	1.4123635
24.002747733862616	1.995735	1.4127048
24.020666427987155	2.0281599	1.4241347
24.038585718232156	2.010858	1.4180473
24.056505605095353	2.0315619	1.4253287
24.074426089074617	2.0221758	1.4220322
24.092347170667946	1.9716748	1.4041634
24.110268850373515	1.979388	1.4069072
24.128191128689586	2.0496726	1.4316678
24.146114006114626	2.091776	1.4462973
24.164037483147187	2.0968895	1.4480641
24.181961560286005	2.0483134	1.431193
24.199886238029926	2.0109112	1.418066
24.21781151687797	2.0561602	1.4339317
24.235737397329274	2.1326666	1.4603652
24.253663879883135	2.063058	1.4363348
24.271590965038975	2.0005033	1.4143915
24.289518653296376	1.9437349	1.394179
24.30744694515505	2.0252762	1.4231219
24.32537584111486	2.0706308	1.4389687
24.34330534167581	2.047263	1.430826
24.361235447338046	2.0176342	1.4204345
24.379166158601876	1.9792935	1.4068737
24.39709747596772	2.0282767	1.4241757
24.41502939993615	2.0343716	1.426314
24.432961931007917	2.006053	1.416352
24.450895069683856	1.9696051	1.4034262
24.468828816465	1.9521842	1.3972058
24.4867631718525	1.9278904	1.388485
24.504698136347656	1.9429808	1.3939085
24.52263371045192	1.9939729	1.412081
24.540569894666874	2.0224183	1.4221175
24.558506689494266	1.9723763	1.4044132
24.57644409543597	1.901002	1.3787683
24.594382112994012	1.8622395	1.3646389
24.61232074267057	1.8555768	1.3621956
24.630259984967953	1.8957949	1.3768786
24.64819984038863	1.9224404	1.386521
24.66614030943522	1.9747053	1.4052421
24.684081392610462	2.008797	1.4173204
24.702023090417274	1.9777582	1.4063278
24.7199654033587	1.9837347	1.4084512
24.737908331937927	2.0300279	1.4247905
24.755851876658305	2.0612264	1.4356972
24.773796038023324	2.0805573	1.4424137
24.79174081653661	2.053307	1.4329365
24.809686212701962	2.0331743	1.4258943
24.827632227023294	2.0887842	1.4452627
24.8455788600047	2.1351423	1.4612126
24.8635261121504	2.1336584	1.4607048
24.88147398396475	2.0758433	1.4407787
24.899422475952303	2.0526438	1.432705
24.917371588617698	2.06927	1.4384958
24.935321322465768	2.1453493	1.464701
24.953271678001478	2.2382796	1.4960881
24.97122265572994	2.4420512	1.5627064
24.989174256156414	2.8062634	1.6751906
25.00712647978632	3.39165	1.8416433
25.02507932712521	4.41351	2.1008356
25.043032798678798	5.923459	2.4338157
25.060986894952933	7.5327725	2.7445896
25.078941616453637	8.955553	2.992583
25.096896963687055	9.792685	3.1293266
25.114852937159508	10.446349	3.2320812
25.132809537377444	10.284076	3.2068794
25.150766764847468	9.666797	3.1091473
25.168724620076347	8.393411	2.8971384
25.186683103570985	7.160752	2.6759582
25.204642215838426	5.7542243	2.3987963
25.222601957385894	4.582986	2.140791
25.24056232872074	3.5599093	1.8867722
25.25852333035048	2.8501563	1.6882406
25.276484962782778	2.4225767	1.5564629
25.294447226525435	2.212794	1.4875463
25.312410122086423	2.0921805	1.4464371
25.330373649973843	1.9824715	1.4080026
25.348337810695988	1.9092377	1.3817517
25.366302604761245	1.9451021	1.3946692
25.384268032678207	1.9433436	1.3940386
25.40223409495558	1.9061809	1.380645
25.420200792102257	1.8316295	1.3533771
25.438168124627246	1.7688054	1.3299644
25.45613609303974	1.7766418	1.3329073
25.474104697849057	1.8182234	1.3484151
25.492073939564698	1.8179629	1.3483186
25.510043818696285	1.837375	1.3554981
25.528014335753614	1.8822988	1.371969
25.54598549124664	1.8409548	1.3568178
25.56395728568544	1.7878101	1.3370901
25.58192971958028	1.7661879	1.32898
25.59990279344156	1.8255755	1.3511386
25.617876507779833	1.8816645	1.3717377
25.635850863105826	1.9327035	1.3902171
25.653825859930386	1.865728	1.3659165
25.671801498764548	1.8105755	1.3455763
25.68977778011949	1.7904639	1.3380822
25.707754704506524	1.800861	1.3419616
25.725732272437153	1.808569	1.3448305
25.743710484423012	1.8268965	1.3516273
25.761689340975888	1.8216915	1.3497006
25.77966884260774	1.7653637	1.3286699
25.797648989830662	1.7362378	1.3176638
25.815629783156922	1.7720344	1.3311778
25.83361122309895	1.8292769	1.3525076
25.85159331016929	1.8871613	1.3737398
25.869576044880695	1.8718916	1.3681709
25.887559427746034	1.8308455	1.3530874
25.90554345927836	1.7833338	1.3354152
25.92352813999086	1.7731154	1.3315837
25.94151347039689	1.8189564	1.3486869
25.959499451009965	1.8375092	1.3555475
25.97748608234374	1.8131797	1.3465437
25.995473364912062	1.8116368	1.3459706
26.013461299228904	1.8636237	1.365146
26.03144988580839	1.8598937	1.3637792
26.04943912516483	1.8121812	1.3461728
26.067429017812675	1.8035328	1.3429568
26.085419564266537	1.8112074	1.345811
26.103410765041186	1.8629369	1.3648944
26.12140262065155	1.8586155	1.3633105
26.139395131612723	1.8173698	1.3480986
26.157388298439948	1.7983527	1.3410268
26.17538212164861	1.8303514	1.3529048
26.193376601754295	1.8389913	1.3560941
26.211371739272714	1.8208127	1.3493749
26.229367534719746	1.8299663	1.3527625
26.247363988611433	1.8292471	1.3524966
26.26536110146397	1.8174134	1.3481147
26.283358873793727	1.8080103	1.3446227
26.301357306117204	1.8353872	1.3547646
26.319356398951104	1.86676	1.3662943
26.33735615281224	1.8630495	1.3649358
26.35535656821762	1.8424362	1.3573637
26.373357645684404	1.751358	1.3233888
26.39135938572991	1.7847595	1.335949
26.409361788871614	1.8151833	1.3472874
26.427364855627165	1.8669796	1.3663746
26.445368586514352	1.839399	1.3562444
26.46337298205115	1.8309898	1.3531407
26.48137804275568	1.804331	1.3432539
26.499383769146217	1.7686231	1.3298959
26.517390161741215	1.7774221	1.3332
26.53539722105928	1.7922641	1.3387547
26.553404947619182	1.7849741	1.3360292
26.571413341939856	1.7919865	1.338651
26.589422404540397	1.8309188	1.3531145
26.60743213594006	1.8023417	1.3425132
26.62544253665827	1.821629	1.3496774
26.64345360721459	1.819221	1.348785
26.66146534812879	1.8009616	1.341999
26.679477759920758	1.7624834	1.3275856
26.69749084311057	1.7812445	1.3346328
26.71550459821847	1.7924188	1.3388125
26.733519025764842	1.8530898	1.3612825
26.751534126270258	1.8394307	1.3562561
26.769549900255434	1.7901633	1.3379698
26.787566348241267	1.7656432	1.328775
26.80558347074881	1.7368968	1.3179138
26.823601268299267	1.7210922	1.3119041
26.841619741414036	1.7283657	1.3146732
26.85963889061465	1.7471029	1.3217802
26.877658716422832	1.7849678	1.3360269
26.89567921936045	1.8047568	1.3434124
26.913700399949544	1.8179933	1.3483298
26.93172225871233	1.8384804	1.3559058
26.949744796171174	1.8526996	1.361139
26.967768012848605	1.7895756	1.3377502
26.98579190926733	1.7625223	1.3276002
27.003816485950225	1.7564553	1.3253133
27.021841743420318	1.798199	1.3409694
27.039867682200814	1.7376862	1.3182132
27.057894302815072	1.7122282	1.3085214
27.07592160578664	1.7665532	1.3291174
27.0939495916392	1.8232595	1.3502812
27.111978260896635	1.8082026	1.3446943
27.13000761408296	1.8139228	1.3468195
27.148037651722397	1.7899423	1.3378873
27.166068374339304	1.7544948	1.3245734
27.184099782458215	1.7700983	1.3304504
27.20213187660384	1.8076829	1.344501
27.22016465730105	1.7965211	1.3403436
27.23819812507487	1.7915573	1.3384907
27.256232280450533	1.7984459	1.3410615
27.274267123953383	1.7848148	1.3359696
27.292302656108987	1.7775785	1.3332586
27.31033887744306	1.7606966	1.3269124
27.32837578848146	1.7448283	1.3209195
27.34641338975026	1.744927	1.3209568
27.364451681775673	1.7455138	1.3211789
27.382490665084074	1.7819362	1.3348918
27.400530340202046	1.7644507	1.3283262
27.41857070765629	1.7490079	1.3225006
27.436611767973726	1.7367187	1.3178462
27.454653521681404	1.7656276	1.3287692
27.472695969306564	1.8095193	1.3451837
27.490739111376627	1.8032875	1.3428655
27.508782948419153	1.7765429	1.3328701
27.526827480961902	1.7753404	1.332419
27.54487270953279	1.7834793	1.3354697
27.562918634659898	1.7970011	1.3405226
27.580965256871508	1.8043363	1.3432559
27.599012576696026	1.8436664	1.3578168
27.617060594662068	1.8526591	1.3611242
27.63510931129842	1.8373768	1.3554988
27.65315872713401	1.8065993	1.344098
27.67120884269797	1.8465465	1.358877
27.68925965851958	1.8399028	1.3564302
27.707311175128307	1.8439968	1.3579384
27.725363393053787	1.8511828	1.3605818
27.74341631282583	1.8644973	1.365466
27.7614699349744	1.8685652	1.3669547
27.77952426002968	2.0823915	1.4430494
27.797579288521973	2.1638844	1.4710147
27.815635020981784	2.5489316	1.5965374
27.83369145793979	2.6250834	1.6202109
27.85174859992682	2.4761603	1.5735819
27.869806447473923	2.326382	1.5252482
27.887865001112267	2.0437627	1.4296023
27.905924261373233	1.9627967	1.4009985
27.92398422878836	1.9414417	1.3933562
27.94204490388936	1.9122152	1.3828287
27.96010628720813	1.9485403	1.3959012
27.978168379276728	1.9351646	1.391102
27.9962311806274	1.8781036	1.3704392
28.014294691792568	1.8366481	1.3552299
28.0323589133048	1.8433913	1.3577155
28.050423845696887	1.8398894	1.3564253
28.068489489501758	1.8203084	1.3491881
28.086555845252523	1.7880323	1.3371732
28.104622913482487	1.8055577	1.3437104
28.122690694725115	1.8471906	1.3591139
28.14075918951405	1.8844026	1.3727355
28.15882839838312	1.8648996	1.3656133
28.176898321866304	1.8287891	1.3523273
28.1949689604978	1.8253106	1.3510406
28.213040314811945	1.8797796	1.3710506
28.23111238534327	1.8998086	1.3783355
28.249185172626493	1.9744856	1.4051639
28.267258677196473	1.9667495	1.4024085
28.285332899588294	1.955049	1.3982307
28.303407840337172	1.9792784	1.4068683
28.321483499978545	1.9906728	1.410912
28.33955987904799	1.9615915	1.4005682
28.357636978081285	1.979092	1.406802
28.37571479761439	1.9580317	1.3992969
28.393793338183425	1.9878508	1.4099116
28.41187260032469	2.0429096	1.4293039
28.429952584574686	2.0477	1.4309787
28.448033291470065	2.0409877	1.4286314
28.46611472154769	2.0482662	1.4311765
28.484196875344566	2.0638547	1.4366122
28.502279753397914	2.0082414	1.4171244
28.52036335624511	1.9959757	1.4127901
28.538447684423716	1.9908049	1.4109589
28.556532738471482	1.9691541	1.4032655
28.574618518926325	1.9548806	1.3981705
28.59270502632635	1.9688114	1.4031434
28.61079226120985	1.989895	1.4106364
28.628880224115274	2.024425	1.422823
28.646968915581287	1.9601511	1.400054
28.66505833614671	1.9485953	1.395921
28.68314848635055	2.0388694	1.4278898
28.701239366732004	2.0771515	1.4412327
28.71933097783044	2.1034393	1.4503238
28.737423320185403	2.10097	1.4494723
28.75551639433665	2.088942	1.4453173
28.773610200824074	2.094425	1.4472128
28.791704740187793	2.132826	1.4604198
28.80980001296809	2.1626148	1.4705832
28.827896019705413	2.1373768	1.461977
28.845992760940433	2.1659303	1.47171
28.86409023721397	2.1392174	1.4626063
28.88218844906704	2.1198645	1.4559754
28.900287397040845	2.1356618	1.4613904
28.918387081676755	2.2707822	1.5069115
28.936487503516343	2.3384933	1.5292133
28.954588663101365	2.3043473	1.5180076
28.97269056097374	2.3174899	1.5223304
28.990793197675597	2.3388638	1.5293344
29.00889657374923	2.32203	1.5238209
29.027000689737125	2.317435	1.5223124
29.04510554618196	2.3234437	1.5242846
29.06321114362659	2.3965414	1.5480766
29.08131748261405	2.4833581	1.5758674
29.099424563687567	2.5407293	1.5939665
29.11753238739057	2.5476885	1.596148
29.13564095426663	2.56249	1.600778
29.15375026485954	2.599989	1.6124481
29.171860319713275	2.5972438	1.6115967
29.18997111937199	2.5681505	1.602545
29.20808266438002	2.6853151	1.6386931
29.226194955281898	2.8016615	1.6738164
29.244307992622335	2.8092165	1.6760718
29.26242177694624	2.750979	1.6586075
29.2805363087987	2.758903	1.6609946
29.29865158872498	2.8648834	1.6925967
29.316767617270557	2.8808205	1.697298
29.334884394981064	2.8981864	1.702406
29.353001922402367	2.9892375	1.7289412
29.37112020008047	3.0726306	1.7528921
29.389239228561596	3.1303847	1.7692894
29.407359008392152	3.2874155	1.8131231
29.42547954011872	3.583425	1.8929937
29.44360082428809	4.0552197	2.0137577
29.46172286144722	4.993103	2.2345252
29.479845652143283	6.7244773	2.5931597
29.497969196923606	9.5592375	3.0918016
29.516093496335728	13.450201	3.6674516
29.5342185509274	17.046772	4.1287737
29.55234436124651	20.174942	4.4916525
29.570470927841175	21.453346	4.631776
29.588598251259686	21.320547	4.617418
29.60672633205055	19.649256	4.4327483
29.624855170762405	16.50997	4.0632463
29.642984767944146	13.072801	3.6156328
29.66111512414481	9.64956	3.106374
29.67924623991366	7.0472875	2.6546729
29.697378115800138	5.157124	2.2709303
29.71551075235387	4.265938	2.0654147
29.733644150124675	3.84372	1.9605408
29.751778309662576	3.616262	1.9016472
29.769913231517766	3.4715562	1.8632113
29.78804891624066	3.3548245	1.8316181
29.806185364381818	3.3591545	1.8327997
29.82432257649206	3.3576717	1.8323951
29.842460553122333	3.279788	1.8110185
29.86059929482382	3.2758644	1.8099349
29.878738802147872	3.2596755	1.8054571
29.896879075646048	3.2128284	1.7924365
29.915020115870114	3.1521473	1.7754288
29.933161923371976	3.1533701	1.7757732
29.951304498703777	3.1641495	1.7788056
29.969447842417857	3.2413628	1.8003786
29.987591955066733	3.2880535	1.8132991
30.005736837203123	3.256088	1.8044634
30.023882489379943	3.2044528	1.7900985
30.04202891215028	3.197309	1.788102
30.060176106067455	3.1640751	1.7787848
30.078324071684946	3.0596788	1.7491938
30.09647280955646	3.0790946	1.7547349
30.114622320235863	3.1679409	1.779871
30.132772604277257	3.220805	1.7946601
30.1509236622349	3.2141433	1.7928032
30.16907549466328	3.1212127	1.7666954
30.18722810211705	3.030713	1.7408943
30.205381485151097	3.0001569	1.7320961
30.22353564432045	2.997477	1.7313223
30.241690580180403	2.9691844	1.7231321
30.25984629328638	2.9584029	1.7200009
30.278002784194037	2.9419465	1.7152103
30.296160053459246	2.9448543	1.7160578
30.314318101638033	2.955919	1.7192787
30.332476929286646	3.0244565	1.7390964
30.35063653696153	3.0232606	1.7387526
30.368796925219307	2.913227	1.7068179
30.386958094616844	2.8702228	1.6941732
30.40512004571115	2.8409526	1.6855125
30.423282779059463	2.8375442	1.6845012
30.441446295219233	2.8076696	1.6756102
30.459610594748067	2.7914736	1.6707704
30.47777567820382	2.7898173	1.6702746
30.495941546144504	2.798755	1.672948
30.51410819912835	2.803854	1.6744713
30.532275637713795	2.8822968	1.6977328
30.55044386245946	2.8439624	1.6864052
30.56861287392416	2.775295	1.6659217
30.586782672666956	2.7266896	1.6512691
30.604953259247047	2.6850212	1.6386034
30.623124634223885	2.7118464	1.6467685
30.641296798157075	2.7253249	1.6508558
30.659469751606462	2.6885052	1.6396662
30.677643495132074	2.7002256	1.6432363
30.695818029294152	2.736316	1.6541814
30.713993354653116	2.7952604	1.6719033
30.73216947176962	2.796077	1.6721474
30.75034638120448	2.7614274	1.6617544
30.768524083518756	2.6419547	1.6254091
30.786702579273673	2.6725256	1.6347861
30.80488186903069	2.8631272	1.6920778
30.82306195335144	3.055235	1.747923
30.841242832797782	3.261264	1.805897
30.85942450793176	3.560298	1.8868752
30.877606979315637	4.0225782	2.0056367
30.895790247511883	4.398606	2.0972853
30.913974313083134	4.7534633	2.180244
30.932159176592283	5.1760497	2.2750933
30.95034483860237	5.5800185	2.3622062
30.968531299676698	5.603846	2.3672445
30.98671856037873	5.228336	2.2865555
31.00490662127215	4.721501	2.1729014
31.023095482920848	4.201596	2.0497794
31.04128514588892	3.6339116	1.9062822
31.059475610740662	3.1762671	1.7822086
31.07766687804056	2.8240414	1.6804885
31.09585894835335	2.6263683	1.6206074
31.11405182224393	2.5109632	1.5846019
31.132245500277417	2.4121785	1.553119
31.15043998301914	2.3964372	1.548043
31.168635271034628	2.4113529	1.5528531
31.18683136488964	2.3990464	1.5488856
31.20502826515008	2.3686194	1.539032
31.223225972382135	2.409695	1.5523192
31.241424487152155	2.4370284	1.5610985
31.259623810026692	2.4085746	1.5519583
31.27782394157253	2.4609058	1.5687275
31.296024882356644	2.5089045	1.5839522
31.314226632946237	2.4130127	1.5533875
31.332429193908684	2.3350701	1.5280936
31.350632565811598	2.389503	1.5458018
31.368836749222787	2.4482687	1.5646944
31.387041744710295	2.4665568	1.5705276
31.40524755284232	2.465882	1.5703127
31.423454174187317	2.4798548	1.5747554
31.441661609313922	2.481851	1.5753891
31.459869858791002	2.4208963	1.555923
31.478078923187628	2.3281574	1.52583
31.496288803073064	2.2515798	1.5005265
31.514499499016807	2.2405593	1.4968498
31.532711011588546	2.2282841	1.4927438
31.550923341358178	2.2896192	1.5131488
31.56913648889584	2.374559	1.5409604
31.587350454771844	2.35393	1.5342523
31.605565239556732	2.2234733	1.4911315
31.62378084382127	2.1743324	1.4745618
31.641997268136382	2.284157	1.5113428
31.660214513073274	2.3682694	1.5389183
31.67843257920331	2.330302	1.5265326
31.6966514670981	2.354662	1.5344908
31.71487117732944	2.393368	1.5470514
31.733091710469346	2.3790598	1.5424201
31.751313067090052	2.3502264	1.5330448
31.769535247764008	2.3235168	1.5243087
31.787758253063878	2.310885	1.5201595
31.805982083562526	2.293099	1.5142982
31.824206739833024	2.2823746	1.510753
31.84243222244869	2.2423742	1.497456
31.860658531983013	2.2160068	1.4886258
31.878885669009737	2.182078	1.4771858
31.897113634102784	2.1732311	1.4741883
31.91534242783632	2.2645442	1.5048403
31.933572050784694	2.298021	1.5159225
31.951802503522508	2.2985487	1.5160966
31.970033786624548	2.2479477	1.4993157
31.988265900665834	2.202046	1.4839292
32.006498846221575	2.16453	1.4712342
32.02473262386724	2.1854274	1.4783192
32.04296723417845	2.1859338	1.4784904
32.0612026777311	2.1810637	1.4768424
32.07943895510129	2.1415803	1.463414
32.097676066865304	2.164775	1.4713174
32.115914013599685	2.2083528	1.4860528
32.13415279588115	2.2548628	1.50162
32.152392414286666	2.2538576	1.5012853
32.1706328693934	2.1858134	1.4784497
32.18887416177875	2.1845343	1.478017
32.20711629202032	2.1303132	1.4595592
32.225359260695924	2.0950456	1.4474273
32.243603068383614	2.0873086	1.4447521
32.26184771566166	2.0893934	1.4454734
32.28009320310852	2.0973022	1.4482065
32.2983395313029	2.147093	1.4652963
32.31658670082372	2.236578	1.4955193
32.33483471225012	2.2737672	1.5079015
32.35308356616143	2.2569654	1.50232
32.371333263137245	2.215814	1.488561
32.38958380375734	2.1274111	1.4585648
32.407835188601744	2.0200546	1.4212862
32.42608741825067	1.9453294	1.3947507
32.444340493284585	1.9937937	1.4120176
32.46259441428416	2.0055861	1.4161872
32.48084918183028	2.0196273	1.4211359
32.49910479650405	2.0010567	1.4145871
32.51736125888683	2.0682385	1.4381372
32.53561856956014	2.168683	1.4726449
32.5538767291058	2.1652412	1.4714758
32.572135738105764	2.0933638	1.4468461
32.59039559714228	2.0730164	1.4397974
32.608656306797776	2.131275	1.4598887
32.62691786765491	2.0986383	1.4486678
32.645180280296586	2.0291393	1.4244787
32.663443545305896	2.0006151	1.414431
32.68170766326619	2.062324	1.4360794
32.69997263476099	2.0101242	1.4177885
32.7182384603741	1.9080498	1.3813218
32.7365051406895	1.8108376	1.3456737
32.75477267629144	1.8201412	1.3491261
32.77304106776434	1.8399246	1.3564382
32.79131031569289	1.9228116	1.3866549
32.809580420661966	2.0028033	1.4152043
32.827851383256714	2.0647676	1.43693
32.84612320406245	2.0496264	1.4316516
32.86439588366476	1.9531766	1.397561
32.88266942264945	1.8976457	1.3775506
32.9009438216025	1.9027556	1.3794041
32.9192190811102	1.9175347	1.3847507
32.937495201758985	1.9439793	1.3942666
32.95577218413556	1.9678271	1.4027926
32.974050028826866	2.0116239	1.4183173
32.992328736420035	1.9819466	1.4078163
33.010608307502444	1.8942195	1.3763065
33.02888874266169	1.899505	1.3782253
33.047170042485604	1.9773695	1.4061897
33.06545220756225	2.0155025	1.4196839
33.083735238479896	2.011986	1.4184449
33.10201913582707	2.0432885	1.4294364
33.12030390019248	1.955919	1.3985418
33.138589532165135	1.8775711	1.3702449
33.15687603233419	1.9131083	1.3831517
33.17516340128909	1.8899856	1.3747674
33.19345163961947	1.9321312	1.3900112
33.211740747915215	1.9672034	1.4025702
33.23003072676643	1.9832813	1.4082901
33.248321576763466	1.9200823	1.3856703
33.266613298496885	1.8778864	1.37036
33.28490589255747	1.9217033	1.3862551
33.30319935953626	1.947251	1.3954394
33.32149370002451	1.9318187	1.3898988
33.339788914613706	1.90127	1.3788655
33.358085003895575	1.8347394	1.3545256
33.376381968462034	1.8203614	1.3492076
33.39467980890529	1.9096339	1.3818951
33.41297852581774	2.0732214	1.4398686
33.43127811979204	2.047786	1.4310087
33.44957859142105	1.9369749	1.3917525
33.467879941297866	1.9304698	1.3894135
33.486182170015844	1.9969242	1.4131256
33.50448527816853	1.948529	1.3958972
33.522789266349754	1.9513294	1.3968999
33.541094135153514	1.9115998	1.3826061
33.55939988517411	1.9076005	1.3811591
33.57770651700602	1.8998498	1.3783504
33.59601403124398	1.9477128	1.3956048
33.61432242848296	1.9064212	1.380732
33.632631709318154	1.886191	1.3733867
33.650941874344994	1.868745	1.3670205
33.66925292415916	1.9861944	1.409324
33.68756485935654	2.0027766	1.4151949
33.70587768053328	1.9858992	1.4092194
33.724191388285746	1.9883173	1.4100771
33.74250598321054	2.0308774	1.4250885
33.760821465904506	2.026859	1.423678
33.77913783696474	2.020211	1.4213413
33.79745509698852	2.0834997	1.4434333
33.815773246573414	2.1161287	1.454692
33.8340922863172	2.0957427	1.4476681
33.852412216817896	2.0176864	1.4204528
33.87073303867377	1.8754165	1.3694584
33.889054752483304	1.781051	1.3345603
33.907377358845245	1.8781269	1.3704476
33.92570085835853	1.9150053	1.3838372
33.94402525162239	1.8972461	1.3774055
33.96235053923627	1.9675053	1.4026779
33.980676721799824	2.0534856	1.4329988
33.999003799912984	1.8964919	1.3771318
34.01733177417592	1.8012949	1.3421233
34.03566064518901	1.8530513	1.3612683
34.0539904135529	1.9593107	1.3997538
34.07232107986846	1.9727153	1.4045339
34.090652644736785	1.947283	1.3954508
34.108985108759235	1.8613527	1.364314
34.12731847253742	1.7193612	1.3112441
34.14565273667313	1.7330799	1.3164649
34.16398790176847	1.869717	1.367376
34.18232396842574	1.9335222	1.3905115
34.20066093724749	1.8382891	1.3558352
34.21899880883651	1.931912	1.3899324
34.23733758379583	2.093654	1.4469464
34.25567726272874	2.1730075	1.4741124
34.27401784623872	2.0221066	1.4220079
34.29235933492957	2.0048466	1.4159261
34.31070172940526	1.9888327	1.4102598
34.32904503027003	1.9844512	1.4087055
34.347389238128386	1.9408457	1.3931423
34.36573435358502	1.9375455	1.3919574
34.38408037724492	1.9384587	1.3922855
34.402427309713296	2.0021663	1.4149792
34.42077515159559	1.9771245	1.4061025
34.43912390349752	1.9952036	1.4125167
34.45747356602499	1.9685528	1.4030513
34.47582413978423	1.9703553	1.4036934
34.49417562538163	1.9982226	1.4135851
34.51252802342388	2.0794983	1.4420465
34.53088133451789	2.0667825	1.4376309
34.54923555927084	2.0217295	1.4218754
34.567590698290104	2.2380996	1.496028
34.58594675218336	2.26831	1.506091
34.6043037215585	2.0581589	1.4346285
34.62266160702365	1.8684511	1.366913
34.641020409187234	1.7840222	1.335673
34.65938012865785	1.8919052	1.3754654
34.677740766044394	1.9567146	1.3988261
34.69610232195598	1.9401175	1.392881
34.714464797002016	1.9919643	1.4113697
34.73282819179208	1.9329115	1.3902919
34.751192506936064	1.7535548	1.3242185
34.76955774304408	1.7819856	1.3349104
34.7879239007265	1.850477	1.3603224
34.80629098059391	1.9430565	1.3939356
34.824658983257194	2.106912	1.4515206
34.843027909327446	2.1661007	1.4717679
34.86139775941603	1.9969788	1.413145
34.879768534134534	1.8177893	1.3482542
34.89814023409483	1.8882413	1.3741329
34.91651285990901	2.0439136	1.4296551
34.93488641218944	1.9327276	1.3902258
34.95326089154871	1.986802	1.4095396
34.97163629859967	1.9713923	1.4040627
34.99001263395542	1.8567183	1.3626145
35.00838989822934	1.7083449	1.3070368
35.02676809203499	2.0430913	1.4293674
35.04514721598624	2.2331853	1.4943845
35.063527270697215	2.0988197	1.4487303
35.081908256782256	1.8292841	1.3525103
35.10029017485597	1.7175655	1.3105593
35.11867302553321	1.7425412	1.3200535
35.137056809429104	2.1192617	1.4557685
35.155441527159006	2.0817497	1.442827
35.173827179338524	1.742515	1.3200436
35.19221376658354	1.7693268	1.3301605
35.21060128951017	1.9225729	1.3865688
35.2289897487348	1.9231675	1.3867831
35.24737914487405	1.790797	1.3382066
35.26576947854479	1.7634907	1.3279649
35.28416075036418	1.7168016	1.3102678
35.30255296094958	1.8449997	1.3583076
35.32094611091867	1.9299955	1.3892428
35.33934020088932	2.0692773	1.4384983
35.35773523147969	2.4159176	1.5543222
35.3761312033082	2.4755523	1.5733888
35.394528116993506	2.1703932	1.4732255
35.41292597315452	1.973197	1.4047053
35.431324772410434	2.1320007	1.4601372
35.449724515380666	2.2583685	1.5027869
35.46812520268491	2.1540325	1.4676622
35.486526834943106	2.149642	1.4661658
35.504929412775454	2.1980524	1.482583
35.52333293680242	2.140571	1.4630691
35.54173740764471	1.9983411	1.4136269
35.560142825923286	1.482643	1.2176383
35.5785491922594	1.3129516	1.145841
35.59695650727454	1.6697564	1.2921906
35.61536477159042	1.8569168	1.3626873
