0.008763373481513119	0.56609195	0.7523908
0.026290120649546365	0.18888974	0.43461448
0.043816868432600686	0.15100962	0.38859957
0.06134361724069026	0.100116715	0.31641224
0.07887036748382949	0.21033503	0.45862296
0.0963971195720331	0.25660586	0.50656277
0.11392387391531617	0.27722242	0.5265192
0.1314506309236943	0.3177255	0.56367147
0.1489773910071836	0.26392952	0.5137407
0.16650415457580078	0.2883832	0.53701323
0.18403092203956356	0.20014115	0.44737136
0.20155769380849	0.21933135	0.46832827
0.2190844702925996	0.21149589	0.45988682
0.2366112519019124	0.21999899	0.46904048
0.2541380390464497	0.14667034	0.38297564
0.27166483213623416	0.18159463	0.4261392
0.28919163158128947	0.14710483	0.38354248
0.3067184377916406	0.15495135	0.3936386
0.324245251177314	0.14674117	0.38306808
0.34177207214833777	0.15924895	0.39906007
0.3592989011147415	0.15301561	0.3911721
0.37682573848655654	0.14077426	0.37519896
0.39435258467381573	0.17139922	0.41400388
0.41187944008655414	0.20178176	0.44920126
0.42940630513480854	0.19390169	0.4403427
0.446933180228618	0.1848558	0.4299486
0.4644600657780234	0.14934175	0.3864476
0.48198696219306775	0.14608355	0.38220876
0.49951386988379676	0.12712222	0.35654202
0.5170407892602581	0.09897252	0.31459898
0.5345677207325025	0.08639217	0.29392546
0.5520946647105822	0.097390674	0.31207478
0.5696216216045534	0.14770776	0.38432768
0.5871485918244737	0.18152131	0.42605317
0.6046755757804043	0.21082556	0.45915744
0.6222025738824094	0.2230916	0.47232574
0.6397295865405557	0.2044909	0.4522067
0.6572566141649129	0.18792982	0.43350872
0.6747836571655547	0.19664392	0.4434455
0.6923107159525568	0.21171707	0.46012723
0.7098377909359992	0.2132465	0.4617862
0.7273648825259653	0.1938733	0.44031045
0.7448919911325411	0.19038413	0.43633032
0.762419117165817	0.17250355	0.41533548
0.7799462610358868	0.18179548	0.42637482
0.7974734231528482	0.18079078	0.42519498
0.8150006039268024	0.1624539	0.4030557
0.8325278037678551	0.17364714	0.4167099
0.8500550230861152	0.17142168	0.414031
0.8675822622916969	0.19520545	0.44182062
0.8851095217947171	0.20876366	0.45690662
0.9026368020052984	0.21398425	0.46258432
0.9201641033335665	0.21734022	0.4661976
0.9376914261896523	0.25243092	0.502425
0.9552187709836915	0.27404496	0.52349305
0.9727461381258234	0.2758086	0.52517486
0.990273528026193	0.27632093	0.52566236
1.0078009410949496	0.23149623	0.48114055
1.0253283777422473	0.23182341	0.48148045
1.0428558383782454	0.24924394	0.49924338
1.0603833234131086	0.26253757	0.5123842
1.0779108332570058	0.31776944	0.5637104
1.0954383683201119	0.3509213	0.5923861
1.112965929012607	0.40522566	0.6365734
1.1304935157446763	0.53896314	0.7341411
1.1480211289265108	0.54912484	0.74102956
1.1655487689683062	1.3159895	1.1471659
1.1830764362802655	1.5770386	1.255802
1.200604131272596	2.042386	1.4291208
1.2181318543555117	2.5131927	1.5853052
1.235659605939232	2.553243	1.597887
1.253187386433982	4.0471325	2.0117486
1.270715196249994	6.4241962	2.5345998
1.2882430357975057	11.987093	3.462238
1.3057709054867608	16.700699	4.086649
1.3232988057280106	22.61352	4.7553673
1.3408267369315112	27.467203	5.2409163
1.358354699507526	31.157118	5.5818563
1.3758826938663256	35.431454	5.9524326
1.3934107204181858	37.390694	6.114793
1.410938779573391	37.99066	6.1636567
1.4284668717422309	38.126568	6.1746716
1.4459949973350033	37.289745	6.106533
1.4635231567620117	37.381317	6.114026
1.4810513504335687	36.60262	6.0500097
1.4985795787599925	35.89702	5.991412
1.5161078421516088	35.535397	5.9611573
1.5336361410187505	34.86786	5.904901
1.5511644757717598	35.04088	5.9195337
1.5686928468209842	35.67249	5.9726453
1.58622125457678	36.675518	6.0560317
1.6037496994495108	37.742374	6.143482
1.621278181849548	37.390854	6.114806
1.6388067021872719	37.917294	6.157702
1.6563352608730693	37.155033	6.095493
1.673863858317336	36.53999	6.0448318
1.6913924949304753	35.7386	5.978177
1.7089211711228998	34.263306	5.8534865
1.7264498873050296	33.36468	5.776217
1.7439786438872935	32.416985	5.6935916
1.7615074412801288	31.628016	5.623879
1.779036279893981	31.115135	5.578094
1.796565160139305	30.119461	5.48812
1.814094082426564	29.787178	5.457763
1.8316230471662298	29.154566	5.399497
1.849152054768784	28.277723	5.3176804
1.8666811056447168	27.862003	5.278447
1.8842102002045273	26.803984	5.1772566
1.901739338858724	26.347475	5.1329794
1.9192685220178245	25.42091	5.0419154
1.9367977500923557	24.82774	4.982744
1.9543270234928547	24.42607	4.9422736
1.971856342629867	23.92168	4.8909793
1.9893857079139496	23.338673	4.831012
2.006915119755667	22.792538	4.774153
2.0244445785655945	22.123768	4.703591
2.0419740847543175	21.621138	4.6498537
2.0595036387324317	21.339993	4.619523
2.0770332409105414	20.88801	4.57034
2.094562891699263	20.668827	4.546298
2.1120925915092217	20.233608	4.4981785
2.129622340751053	20.064947	4.4793916
2.1471521398354043	188.00352	13.711438
2.1646819891729323	444.30927	21.078646
2.182211889174303	440.24466	20.982008
2.1997418402501974	452.78574	21.278763
2.2172718428113023	432.90765	20.806433
2.234801897268317	320.8151	17.911312
2.2523320040319548	17.071032	4.1317105
2.269862163512935	16.577274	4.07152
2.287392376121992	16.273695	4.0340667
2.304922642269869	16.10257	4.0128007
2.322452962367322	15.866848	3.9833212
2.3399833368251164	15.521706	3.9397595
2.357513766054032	15.324284	3.9146242
2.3750442504648586	15.029627	3.8768063
2.3925747904683963	14.701352	3.8342342
2.410105386475459	14.478987	3.8051264
2.4276360388968707	14.290141	3.7802303
2.445166748143469	14.204318	3.7688615
2.4626975146261025	14.034167	3.7462204
2.4802283387556323	13.758557	3.7092528
2.4977592209429305	13.494225	3.6734486
2.5152901615988825	13.141817	3.6251645
2.5328211611343865	12.79078	3.57642
2.5503522199603523	12.496524	3.5350423
2.5678833384877024	12.40869	3.522597
2.5854145171273712	12.2690935	3.5027266
2.6029457562903064	12.119041	3.4812415
2.620477056387469	11.921878	3.4528072
2.6380084178298326	11.744209	3.4269826
2.655539841028383	11.524614	3.3947923
2.673071326394119	11.383931	3.3740082
2.6906028743380523	11.139897	3.3376484
2.708134485271211	11.004939	3.3173692
2.7256661596046325	10.849121	3.2938004
2.743197897749369	10.666889	3.2660203
2.760729700116486	10.502782	3.2407997
2.778261567117063	10.259148	3.2029905
2.795793499162193	10.16491	3.1882455
2.8133254966629817	10.012	3.1641746
2.830857560030551	9.667131	3.1092012
2.8483896896760337	9.615326	3.100859
2.865921886010578	9.406238	3.066959
2.883454149445347	9.435066	3.0716553
2.9009864803915177	9.379296	3.0625637
2.91851887926028	9.180242	3.0298913
2.9360513464628384	9.215542	3.035711
2.953583882410413	9.041739	3.0069485
2.9711164875142373	8.925579	2.9875708
2.9886491621855606	8.835973	2.9725363
3.0061819068356455	8.72955	2.9545813
3.023714721875769	8.663267	2.943343
3.041247607717225	8.444686	2.9059741
3.0587805647713213	8.453098	2.9074214
3.0763135934493806	8.358942	2.8911836
3.0938466941627407	8.2456875	2.8715305
3.1113798673227544	8.16284	2.8570683
3.1289131133407904	7.9838967	2.825579
3.1464464326282315	8.002959	2.8289502
3.1639798255964786	7.8803825	2.8072019
3.1815132926569443	7.8093734	2.7945256
3.1990468342210603	7.7023425	2.7753096
3.216580450700272	7.5860934	2.7542863
3.2341141425060416	7.4713836	2.7333832
3.251647910049847	7.4606047	2.7314107
3.2691817537431813	7.423272	2.7245681
3.286715673997555	7.325407	2.706549
3.3042496712244938	7.1712565	2.67792
3.32178374583554	7.0263796	2.6507318
3.339317898242251	6.9771867	2.6414366
3.3568521288562034	6.9641557	2.6389687
3.3743864380889876	6.901116	2.6269975
3.3919208263522127	6.7617564	2.6003377
3.4094552940575023	6.6957498	2.5876148
3.4269898416164972	6.5079618	2.5510707
3.444524469440858	6.472261	2.5440638
3.4620591779422587	6.386876	2.527227
3.479593967532391	6.3952675	2.5288866
3.4971288386229658	6.41215	2.5322223
3.5146637916257086	6.396628	2.5291555
3.5321988269523628	6.4133687	2.532463
3.5497339450146903	6.453815	2.540436
3.5672691462244708	6.4533257	2.5403397
3.5848044309934988	6.292368	2.5084593
3.60233979973359	6.1615214	2.4822412
3.619875252856575	6.041655	2.4579778
3.6374107907743034	6.045245	2.458708
3.6549464138986427	6.032348	2.456084
3.6724821226414788	6.0478168	2.459231
3.690017917414714	6.1602	2.481975
3.7075537986302702	6.257954	2.5015903
3.7250897667000857	6.405199	2.5308495
3.7426258220361235	6.5027075	2.5500407
3.7601619650503553	6.7566853	2.5993624
3.777698196154779	7.3248377	2.7064438
3.7952345157614067	8.409184	2.8998594
3.8127709242822716	9.275352	3.0455463
3.830307422129425	11.344745	3.368196
3.847844009714936	30.244902	5.4995365
3.8653806874508954	97.59273	9.878903
3.882917455749409	96.827324	9.840088
3.900454315022606	96.54558	9.825761
3.917991265682631	41.28654	6.4254603
3.9355283081416506	10.971571	3.3123362
3.9530654428118495	8.8676815	2.9778652
3.970602670105433	7.5988855	2.7566075
3.9881399904346244	6.559276	2.5611084
4.005677404211669	6.4011683	2.5300531
4.023214911848827	6.4019628	2.53021
4.0407525137583855	6.4491143	2.5395107
4.058290210352644	6.4874725	2.5470517
4.075828002043927	6.3407373	2.5180821
4.0933658892445814	6.266868	2.5033712
4.110903872366966	6.115607	2.4729753
4.128441951823468	6.066015	2.462928
4.145980128026488	6.0967927	2.4691684
4.163518401388452	6.087351	2.4672558
4.181056772321807	6.108912	2.4716213
4.1985952412390155	6.178304	2.4856195
4.216133808552567	6.0925374	2.4683065
4.233672474674966	6.228474	2.495691
4.251211240018741	6.3891625	2.5276792
4.268750104996445	6.624241	2.57376
4.286289070020643	7.612304	2.7590404
4.303828135503928	9.394907	3.0651112
4.3213673018589125	29.635252	5.443827
4.3389065694982305	90.7693	9.527292
4.356445938834537	165.84755	12.878181
4.3739854102805085	171.66354	13.102043
4.391524984248844	172.61081	13.138144
4.409064661152262	136.84181	11.697941
4.426604441403504	97.09127	9.85349
4.444144325415337	75.75579	8.70378
4.461684313600543	21.69784	4.658094
4.47922440637193	22.001072	4.69053
4.496764604142329	20.486052	4.526152
4.5143049073245916	18.746653	4.3297405
4.531845316331589	16.498028	4.0617766
4.5493858315762195	13.64803	3.694324
4.566926453471405	11.34845	3.368746
4.584467182430081	9.4414215	3.0726895
4.602008018865218	8.231999	2.869146
4.619548963189798	7.4737396	2.733814
4.637090015816834	6.9815516	2.6422627
4.654631177159353	6.760157	2.6000302
4.672172447630417	6.468088	2.5432436
4.689713827643102	6.216155	2.4932218
4.7072553176105085	5.9213004	2.4333723
4.724796917945764	5.764137	2.4008617
4.742338629062015	5.791804	2.4066167
4.759880451372434	5.8346796	2.415508
4.777422385290215	5.8163843	2.4117181
4.794964431228581	5.678429	2.3829455
4.812506589600768	5.6508465	2.377151
4.830048860820047	5.5300283	2.3516011
4.847591245299709	5.5992155	2.3662663
4.8651337434530655	5.611802	2.3689241
4.882676355693457	5.632905	2.3733742
4.900219082434242	5.5941706	2.3651998
4.917761924088813	5.6691937	2.381007
4.935304881070575	5.660612	2.379204
4.952847953792969	5.606512	2.3678074
4.970391142669449	5.5402055	2.353764
4.9879344481135055	5.5077796	2.346866
5.005477870538642	5.513167	2.3480134
5.023021410358394	5.5218773	2.3498676
5.040565067986324	5.4753366	2.3399436
5.05810884383601	5.4718804	2.339205
5.075652738321066	5.4661837	2.3379872
5.09319675185512	5.4076276	2.3254306
5.110740884851836	5.3505187	2.313119
5.128285137724894	5.395535	2.322829
5.145829510888007	5.509415	2.3472142
5.163374004754908	5.5781975	2.3618207
5.1809186197393595	5.514852	2.3483722
5.198463356255145	5.4186015	2.327789
5.216008214716077	5.3336406	2.3094676
5.233553195535998	5.312396	2.3048635
5.251098299128764	5.291503	2.3003268
5.268643525908272	5.241802	2.2894983
5.286188876288432	5.265825	2.2947385
5.3037343506831895	5.2644672	2.2944427
5.32127994950651	5.2867084	2.2992842
5.3388256731723915	5.2809057	2.298022
5.356371522094851	5.2118278	2.2829428
5.373917496687938	5.1969223	2.279676
5.391463597365729	5.174906	2.274842
5.40900982454232	5.193472	2.278919
5.426556178631843	5.1804323	2.2760563
5.444102660048449	5.157409	2.270993
5.4616492692063225	5.1670904	2.2731235
5.479196006519669	5.2264624	2.2861457
5.496742872402727	5.259785	2.2934222
5.514289867269756	5.277523	2.297286
5.531836991535049	5.2294817	2.286806
5.549384245612924	5.156424	2.270776
5.566931629917724	5.0346694	2.2438068
5.584479144863822	4.967634	2.2288191
5.6020267908656205	4.990216	2.233879
5.619574568337545	5.1173763	2.262162
5.637122477694054	5.201982	2.2807853
5.654670519349629	5.2278814	2.286456
5.672218693718784	5.13336	2.265692
5.689767001216059	5.110319	2.2606015
5.707315442256021	5.0733213	2.2524035
5.724864017253266	5.028294	2.2423859
5.7424127266224225	5.0694733	2.251549
5.75996157077814	5.0713387	2.2519634
5.777510550135105	5.1058874	2.2596211
5.795059665108022	5.2069383	2.2818716
5.812608916111639	5.2526975	2.2918763
5.830158303560715	5.385166	2.320596
5.847707827870055	5.367619	2.3168123
5.86525748945448	5.392826	2.3222458
5.8828072887288485	5.463035	2.3373137
5.900357226108044	5.5051827	2.3463125
5.917907302006979	5.6339436	2.3735929
5.9354575168406	6.178277	2.485614
5.9530078710238765	6.7408266	2.5963101
5.970558364971812	7.2117877	2.6854773
5.988108999099438	7.516545	2.7416317
6.005659773821818	7.9892855	2.8265324
6.023210689554039	7.7821965	2.7896588
6.040761746711227	8.255907	2.8733094
6.058312945708531	7.6837983	2.7719665
6.075864286961132	7.2600436	2.6944468
6.093415770884244	6.660575	2.5808089
6.1109673978931065	6.149784	2.4798758
6.128519168402993	5.6200104	2.370656
6.146071082829204	5.42236	2.328596
6.163623141587075	5.255436	2.2924738
6.181175345091969	5.1474547	2.2688003
6.198727693759281	5.1315646	2.2652957
6.216280188004435	5.1398797	2.2671304
6.233832828242885	5.1563134	2.2707517
6.251385614890126	5.209816	2.2825022
6.268938548361669	5.2103844	2.2826266
6.286491629073067	5.1338253	2.2657945
6.304044857439898	5.0832787	2.2546127
6.321598233877777	5.0561423	2.2485867
6.339151758802344	4.9887257	2.2335455
6.356705432629277	4.939816	2.2225697
6.37425925577428	4.8479714	2.2018108
6.391813228653095	4.913917	2.2167356
6.409367351681486	4.975883	2.2306688
6.426921625275259	5.011245	2.238581
6.44447604985025	5.0528	2.2478435
6.46203062582232	5.0185413	2.24021
6.47958535360737	5.0812635	2.254166
6.497140233621328	5.0745625	2.2526789
6.514695266280161	5.055515	2.2484472
6.532250451999859	5.0075474	2.237755
6.549805791196454	4.992933	2.234487
6.567361284286002	5.0202174	2.2405841
6.584916931684597	5.0701723	2.2517042
6.602472733808367	5.1373553	2.2665734
6.6200286910734665	5.146835	2.2686636
6.637584803896092	5.1431766	2.2678573
6.655141072692462	5.144297	2.2681043
6.672697497878842	5.1139884	2.2614129
6.690254079871514	5.0799875	2.253883
6.707810819086808	5.0257673	2.2418222
6.725367715941078	4.9811144	2.231841
6.742924770850719	5.0184703	2.2401943
6.760481984232151	5.036575	2.2442315
6.778039356501836	4.9968424	2.2353618
6.795596888076266	4.9515815	2.225215
6.813154579371963	4.946007	2.223962
6.830712430805492	4.96191	2.2275345
6.84827044279344	4.9646726	2.2281544
6.865828615752445	4.998337	2.235696
6.883386950099159	4.9843607	2.2325683
6.900945446250287	4.9854	2.232801
6.918504104622553	4.9017763	2.2139955
6.936062925632727	4.923601	2.2189188
6.953621909697607	4.9644527	2.2281053
6.971181057234028	5.063581	2.2502403
6.988740368658859	5.18104	2.2761898
7.006299844389007	5.2658854	2.2947516
7.023859484841407	5.3444943	2.3118162
7.041419290433036	5.3929176	2.3222656
7.058979261580902	5.490939	2.3432753
7.0765393987020495	5.6615653	2.3794043
7.094099702213559	6.028033	2.4552052
7.111660172532549	6.443014	2.5383093
7.129220810076164	6.847514	2.6167755
7.146781615261595	7.4677362	2.7327158
7.16434258850606	7.667014	2.7689373
7.181903730226821	8.140993	2.8532426
7.1994650408411704	8.193121	2.8623629
7.217026520766437	8.34909	2.8894792
7.234588170419983	8.534241	2.9213424
7.252149990219215	8.488391	2.9134843
7.269711980581568	8.457845	2.9082375
7.2872741419245175	8.256803	2.8734653
7.304836474665574	7.848073	2.8014412
7.322398979222286	7.421183	2.7241848
7.339961656012233	7.0765595	2.6601803
7.357524505453039	6.8206925	2.6116455
7.375087527962357	6.5798254	2.5651171
7.392650723957886	6.418877	2.5335503
7.410214093857353	6.049343	2.4595413
7.427777638078528	5.7745605	2.4030316
7.445341357039213	5.5612473	2.3582296
7.4629052511572525	5.3652544	2.3163018
7.480469320850524	5.337031	2.3102014
7.498033566536948	5.2792025	2.2976515
7.5155979886344735	5.184688	2.2769911
7.5331625875610975	5.1268287	2.26425
7.550727363734844	5.129914	2.2649312
7.568292317573788	5.1845803	2.2769673
7.585857449496025	5.2306414	2.2870595
7.603422759919705	5.2137465	2.283363
7.620988249263007	5.1492267	2.2691908
7.638553917944147	5.1057763	2.2595966
7.656119766381391	5.1039596	2.2591944
7.673685794993023	5.1549716	2.2704563
7.691252004197388	5.213291	2.2832632
7.70881839441285	5.2168975	2.2840528
7.726384966057826	5.1961617	2.279509
7.743951719550762	5.177945	2.2755098
7.761518655310149	5.2779737	2.297384
7.779085773754511	5.300115	2.302198
7.796653075302419	5.2792325	2.297658
7.814220560372475	5.1943917	2.279121
7.831788229383323	5.114324	2.2614872
7.8493560827536495	5.170571	2.2738888
7.866924120902174	5.2892404	2.299835
7.884492344247663	5.321547	2.3068478
7.9020607532089135	5.267792	2.2951672
7.919629348204771	5.2326035	2.2874885
7.937198129654115	5.322976	2.3071575
7.954767097975865	5.34713	2.3123863
7.972336253588986	5.3945103	2.3226085
7.989905596912472	5.411269	2.3262136
8.007475128365371	5.412555	2.32649
8.025044848366756	5.4922304	2.343551
8.042614757335754	5.594919	2.365358
8.060184855691523	5.6795716	2.3831851
8.07775514385327	5.8357277	2.415725
8.095325622240228	5.8713036	2.4230773
8.112896291271687	5.859959	2.4207354
8.130467151366968	5.862131	2.4211838
8.148038202945436	5.945562	2.4383523
8.165609446426497	6.0197773	2.4535234
8.183180882229594	6.177689	2.4854958
8.200752510774217	6.1477537	2.4794664
8.218324332479893	6.159318	2.4817972
8.235896347766193	6.090779	2.4679503
8.253468557052724	6.041317	2.457909
8.27104096075914	6.0381823	2.4572713
8.288613559305137	6.054834	2.4606571
8.306186353110448	6.133032	2.476496
8.32375934259485	6.283681	2.5067272
8.341332528178162	6.2922354	2.5084329
8.358905910280246	6.279004	2.505794
8.376479489321003	6.2295237	2.4959013
8.394053265720377	6.303301	2.5106375
8.411627239898356	6.3008347	2.5101464
8.42920141227497	6.2793813	2.5058694
8.44677578327029	6.2280984	2.4956157
8.464350353304427	6.191162	2.4882045
8.48192512279754	6.1609073	2.4821174
8.499500092169827	6.0802255	2.4658113
8.51707526184153	6.1035275	2.470532
8.534650632232934	6.133495	2.4765894
8.552226203764365	6.2335787	2.4967136
8.569801976856192	6.20779	2.4915438
8.587377951928834	6.201431	2.4902673
8.60495412940274	6.2402196	2.498043
8.622530509698416	6.340852	2.5181048
8.6401070932364	6.466597	2.5429504
8.657683880437283	6.5971804	2.5684977
8.675260871721695	6.7213044	2.592548
8.692838067510303	6.8458166	2.6164513
8.710415468223834	7.0019155	2.6461132
8.727993074283043	7.15071	2.674081
8.745570886108737	7.1659493	2.676929
8.763148904121765	7.1782374	2.6792233
8.78072712874302	7.1508393	2.6741054
8.798305560393441	7.480404	2.7350328
8.815884199494006	7.68184	2.7716131
8.833463046465745	7.898395	2.8104084
8.851042101729728	7.9658446	2.8223827
8.86862136570707	8.29393	2.8799183
8.886200838818924	8.458988	2.908434
8.903780521486505	8.51661	2.9183233
8.921360414131055	8.640182	2.9394186
8.938940517173874	8.743069	2.9568682
8.956520831036297	8.880343	2.9799905
8.97410135613971	9.015191	3.0025308
8.99168209290554	9.166898	3.0276885
9.009263041755265	9.453132	3.0745945
9.026844203110405	9.686297	3.1122818
9.044425577392525	9.903537	3.1469886
9.062007165023239	10.042411	3.1689763
9.079588966424197	10.277273	3.2058187
9.097170982017108	10.420624	3.228099
9.11475321222372	11.25338	3.3546057
9.132335657465825	12.046179	3.4707606
9.149918318165264	12.122898	3.4817953
9.167501194743924	12.664714	3.5587518
9.18508428762374	12.356039	3.5151157
9.202667597226693	12.266583	3.5023682
9.220251123974803	11.870223	3.445319
9.237834868290143	11.612408	3.4076984
9.255418830594836	11.594426	3.4050589
9.273003011311046	11.130699	3.3362703
9.290587410860985	10.91596	3.303931
9.308172029666911	10.232017	3.1987524
9.32575686815113	10.028963	3.166854
9.343341926735997	8.81942	2.969751
9.360927205843916	8.607773	2.9339006
9.378512705897327	8.404548	2.8990598
9.396098427318728	8.130757	2.8514483
9.413684370530664	8.006919	2.82965
9.431270535955722	7.8839355	2.8078346
9.448856924016539	7.795969	2.7921262
9.466443535135806	7.6899424	2.7730746
9.484030369736251	7.7387342	2.781858
9.501617428240658	7.7735844	2.7881148
9.519204711071852	7.8252645	2.7973673
9.536792218652714	7.7900314	2.7910628
9.55437995140617	7.818587	2.7961736
9.571967909755191	7.8211503	2.796632
9.589556094122802	7.7924223	2.791491
9.60714450493207	7.7872205	2.790559
9.624733142606116	7.814582	2.7954574
9.642322007568108	7.9229865	2.81478
9.659911100241267	7.9755487	2.8241014
9.677500421048851	7.9864297	2.8260272
9.695089970414175	7.969152	2.8229687
9.712679748760609	8.003552	2.829055
9.730269756511557	8.0268955	2.8331776
9.747859994090492	8.075912	2.841815
9.765450461920915	8.18241	2.8604913
9.78304116042639	8.201928	2.863901
9.800632090030527	8.189937	2.8618066
9.81822325115699	8.178055	2.8597298
9.835814644229481	8.22429	2.8678024
9.853406269671762	8.257708	2.8736227
9.870998127907646	8.255728	2.8732781
9.888590219360985	8.235969	2.8698378
9.906182544455698	8.255869	2.8733027
9.923775103615734	8.332287	2.88657
9.941367897265108	8.376945	2.8942952
9.958960925827878	8.463685	2.9092412
9.97655418972816	8.444975	2.906024
9.994147689390106	8.398512	2.8980186
10.011741425237934	8.291074	2.8794224
10.029335397695904	8.260108	2.8740404
10.04692960718833	8.212275	2.8657067
10.06452405413958	8.190669	2.8619344
10.082118738974064	8.209203	2.8651707
10.099713662116246	8.217138	2.8665552
10.117308823990651	8.279132	2.8773482
10.134904225021844	8.305474	2.881922
10.152499865634445	8.331474	2.8864293
10.170095746253125	8.31231	2.8831077
10.18769186730261	8.237714	2.8701417
10.205288229207675	8.248816	2.872075
10.222884832393145	8.225334	2.8679843
10.2404816772839	8.191271	2.8620396
10.258078764304868	8.100283	2.8460996
10.275676093881035	8.01649	2.8313406
10.293273666437438	7.995266	2.8275902
10.310871482399158	8.106702	2.847227
10.32846954219134	8.218888	2.8668604
10.346067846239173	8.212225	2.865698
10.363666394967908	8.21955	2.8669758
10.38126518880283	8.133387	2.8519094
10.398864228169298	8.163702	2.8572192
10.416463513492713	8.176263	2.8594165
10.434063045198531	8.099748	2.8460057
10.451662823712262	8.112974	2.8483284
10.469262849459467	8.126291	2.850665
10.486863122865758	8.08759	2.843869
10.504463644356806	8.130076	2.8513288
10.522064414358338	8.047107	2.8367422
10.539665433296118	7.9516654	2.8198698
10.557266701595987	7.876141	2.8064463
10.574868219683818	7.763011	2.786218
10.592469987985552	7.7119284	2.777036
10.610072006927185	7.620794	2.7605786
10.627674276934751	7.5432787	2.7465029
10.64527679843435	7.3666377	2.714155
10.662879571852143	7.2940135	2.7007432
10.680482597614331	7.1789103	2.679349
10.698085876147173	7.100571	2.6646898
10.715689407876988	7.0289173	2.6512105
10.733293193230146	6.9628468	2.6387208
10.750897232633072	6.86365	2.6198568
10.76850152651225	6.7626452	2.6005087
10.786106075294207	6.64647	2.578075
10.803710879405534	6.5441437	2.5581524
10.821315939272877	6.4134574	2.5324805
10.83892125532294	6.3009806	2.5101755
10.856526827982472	6.2420936	2.4984183
10.874132657678285	6.2346487	2.4969277
10.891738744837243	6.21927	2.4938464
10.909345089886271	6.168344	2.4836152
10.926951693252343	6.094245	2.4686525
10.944558555362494	6.0431957	2.4582913
10.96216567664381	5.972378	2.4438448
10.979773057523436	5.9114842	2.4313545
10.997380698428573	5.826104	2.4137325
11.014988599786477	5.7985716	2.4080224
11.032596762024461	5.7349625	2.3947783
11.050205185569892	5.66339	2.379788
11.067813870850198	5.598053	2.3660204
11.085422818292859	5.4935923	2.3438413
11.10303202832541	5.423861	2.3289185
11.120641501375454	5.353654	2.3137965
11.138251237870636	5.3175263	2.3059762
11.155861238238671	5.2509513	2.2914953
11.173471502907317	5.1516976	2.269735
11.191082032304402	5.065602	2.2506893
11.208692826857805	5.000257	2.2361255
11.226303886995465	4.9917974	2.2342331
11.243915213145371	5.007254	2.2376895
11.261526805735578	4.9286437	2.2200549
11.279138665194196	4.8607674	2.2047148
11.296750791949393	4.8421144	2.2004805
11.314363186429393	4.8684983	2.2064674
11.331975849062479	4.8317776	2.1981304
11.34958878027699	4.7581663	2.181322
11.36720198050133	4.7013903	2.168269
11.384815450163948	4.6635823	2.1595328
11.402429189693366	4.5993137	2.144601
11.420043199518153	4.5331187	2.1291122
11.437657480066942	63.490875	7.9681163
11.455272031768422	85.2322	9.232129
11.472886855051353	107.662636	10.3760605
11.490501950344528	99.23974	9.961914
11.508117318076819	84.561	9.195705
11.52573295867715	45.91049	6.7757277
11.543348872574514	4.2036424	2.0502787
11.560965060197946	4.191102	2.047218
11.57858152197655	4.1803374	2.0445874
11.59619825833949	4.0981646	2.0243924
11.613815269715985	4.0262113	2.0065422
11.631432556535323	38.54116	6.208153
11.649050119226837	83.073875	9.114487
11.666667958219929	93.47765	9.668385
11.68428607394406	107.76159	10.380828
11.701904466828756	82.60938	9.08897
11.719523137303586	65.46141	8.090822
11.737142085798196	4.688593	2.1653159
11.754761312742286	3.7962568	1.9483985
11.772380818565619	3.713583	1.9270658
11.790000603698015	3.6295276	1.9051319
11.80762066856935	3.557053	1.8860152
11.825241013609572	3.5477664	1.8835516
11.842861639248683	3.5584104	1.886375
11.860482545916748	3.5405746	1.8816415
11.878103734043883	3.4752777	1.8642097
11.895725204060282	3.3965032	1.8429605
11.91334695639619	3.3461647	1.8292525
11.930968991481919	3.3102963	1.819422
11.948591309747824	3.2897918	1.8137783
11.966213911624347	3.2890775	1.8135815
11.98383679754198	3.2909222	1.8140899
12.001459967931268	3.2764437	1.810095
12.019083423222835	3.249029	1.8025063
12.036707163847352	3.2013571	1.7892337
12.05433119023556	3.1705863	1.780614
12.071955502818259	3.1593654	1.7774603
12.089580102026313	3.1670547	1.7796221
12.107204988290643	3.1743178	1.7816615
12.12483016204224	3.1236262	1.7673783
12.142455623712152	3.093537	1.7588453
12.16008137373149	3.055784	1.7480801
12.177707412531431	3.008739	1.7345717
12.19533374054321	2.979025	1.7259852
12.212960358198126	2.9907594	1.7293812
12.230587265927545	3.0331702	1.7415999
12.248214464162889	3.0825047	1.7557063
12.265841953335649	3.061261	1.749646
12.283469733877375	3.0186186	1.7374172
12.301097806219685	2.96373	1.7215488
12.31872617079425	2.9558034	1.719245
12.336354828032825	2.9755914	1.7249902
12.353983778367205	3.0109193	1.7352
12.371613022229262	2.9802632	1.7263439
12.389242560050928	2.9766054	1.7252841
12.406872392264201	2.9119582	1.706446
12.424502519301143	2.8908107	1.7002385
12.442132941593874	2.8743722	1.6953974
12.459763659574586	2.907062	1.7050109
12.477394673675532	2.9387608	1.7142814
12.49502598432903	2.912177	1.7065102
12.51265759196746	2.8447814	1.686648
12.530289497023267	2.813292	1.6772871
12.547921699928967	2.808074	1.675731
12.565554201117134	2.845601	1.686891
12.583187001020404	2.80509	1.6748403
12.600820100071486	2.7531466	1.6592609
12.618453498703152	2.709399	1.6460252
12.636087197348235	2.6750743	1.6355654
12.65372119643964	2.7047412	1.6446098
12.671355496410326	2.7561588	1.6601683
12.68899009769333	2.8142867	1.6775836
12.706625000721749	2.848822	1.6878453
12.724260205928752	2.916304	1.707719
12.741895713747551	2.9429445	1.7155012
12.759531524611454	2.9942594	1.7303928
12.777167638953818	2.9695714	1.7232444
12.794804057208072	2.9752355	1.7248871
12.812440779807702	3.0272174	1.7398901
12.830077807186271	3.1794531	1.7831022
12.847715139777405	3.2577755	1.8049309
12.865352778014795	3.4234445	1.8502553
12.882990722332197	3.5308526	1.8790563
12.90062897316344	3.611027	1.9002702
12.918267530942412	3.7282014	1.930855
12.935906396103071	3.6486495	1.9101439
12.953545569079449	3.785101	1.9455336
12.971185050305628	3.5835683	1.8930315
12.988824840215775	3.583189	1.8929313
13.006464939244115	3.5571096	1.8860301
13.024105347824943	3.4136326	1.8476019
13.041746066392617	3.4771314	1.8647068
13.05938709538157	3.3178182	1.8214879
13.077028435226296	3.3559852	1.8319348
13.094670086361363	3.284565	1.8123369
13.112312049221401	3.2015426	1.7892855
13.129954324241112	3.0869565	1.7569736
13.147596911855258	2.8736553	1.6951859
13.165239812498685	2.8721902	1.6947538
13.182883026606293	2.7749312	1.6658125
13.200526554613058	2.7435927	1.6563795
13.218170396954017	2.7388873	1.6549584
13.235814554064284	2.7572474	1.6604961
13.253459026379034	2.7701237	1.6643689
13.271103814333523	2.7235215	1.6503096
13.288748918363058	2.7052135	1.6447533
13.306394338903031	2.6496038	1.6277604
13.32404007638889	2.6873121	1.6393024
13.341686131256164	2.7333715	1.6532911
13.359332503940449	2.738977	1.6549854
13.376979194877402	2.7164958	1.6481795
13.394626204502751	2.7311594	1.652622
13.412273533252307	2.7266665	1.651262
13.429921181561937	2.7068365	1.6452466
13.447569149867581	2.6976724	1.6424593
13.465217438605247	2.6963656	1.6420614
13.482866048211022	2.6780086	1.6364622
13.500514979121052	2.742897	1.6561694
13.518164231771568	2.7513463	1.6587182
13.535813806598844	2.728018	1.6516713
13.553463704039254	2.6580527	1.6303536
13.571113924529229	2.6253178	1.6202832
13.588764468505275	2.6588888	1.63061
13.606415336403956	2.6902623	1.6402019
13.624066528661917	2.7325234	1.6530346
13.641718045715882	2.7990952	1.6730497
13.659369888002635	2.8700738	1.6941292
13.67702205595903	2.9132109	1.7068131
13.694674550021993	2.9558234	1.7192508
13.712327370628532	3.0493572	1.7462409
13.729980518215713	3.1115394	1.7639556
13.747633993220681	3.1775136	1.7825582
13.765287796080647	3.2090113	1.7913713
13.7829419272329	3.2450175	1.8013933
13.800596387114801	3.2790847	1.8108243
13.818251176163775	3.3168778	1.8212298
13.835906294817324	3.379592	1.8383666
13.853561743513023	3.4600952	1.860133
13.871217522688525	3.4681604	1.8622998
13.888873632781538	3.457061	1.8593173
13.906530074229858	3.4264698	1.8510725
13.92418684747135	3.443622	1.8556999
13.941843952943948	3.4482498	1.8569463
13.959501391085665	3.4500718	1.8574369
13.977159162334578	3.394704	1.8424723
13.994817267128846	3.35228	1.8309232
14.012475705906693	3.2725985	1.8090324
14.030134479106424	3.1914773	1.7864707
14.047793587166414	3.1245663	1.7676443
14.065453030525108	3.0696054	1.752029
14.083112809621026	3.0414512	1.7439756
14.100772924892766	2.9930716	1.7300496
14.118433376778997	2.897739	1.7022747
14.136094165718458	2.7882087	1.669793
14.153755292149969	2.7383873	1.6548073
14.171416756512416	2.6990292	1.6428722
14.189078559244768	2.6680326	1.6334114
14.20674070078606	2.6194437	1.6184696
14.224403181575408	2.5846062	1.607671
14.242066002051999	2.525737	1.5892568
14.259729162655093	2.4999576	1.5811254
14.277392663824022	2.496349	1.579984
14.295056505998208	2.4860685	1.5767272
14.312720689617128	2.4632664	1.5694797
14.330385215120348	2.4504662	1.5653964
14.348050082947497	2.4166467	1.5545567
14.3657152935383	2.3831453	1.543744
14.383380847332528	2.365774	1.5381073
14.401046744770051	2.3498554	1.5329238
14.418712986290798	2.3682072	1.5388981
14.436379572334793	2.3746367	1.5409856
14.454046503342123	2.3809085	1.5430193
14.471713779752946	2.3728547	1.5404073
14.489381402007504	2.3471096	1.532028
14.507049370546113	2.3319304	1.527066
14.524717685809168	2.3578858	1.5355409
14.542386348237134	2.3820703	1.5433958
14.560055358270553	2.43566	1.5606601
14.577724716350051	2.5232356	1.5884696
14.595394422916325	2.5359674	1.5924721
14.61306447841015	2.516071	1.5862128
14.63073488327237	2.503163	1.5821388
14.648405637943917	2.5208752	1.5877265
14.6660767428658	2.464007	1.5697155
14.683748198479094	2.4913297	1.5783947
14.701420005224954	2.5509832	1.5971798
14.719092163544628	2.6169655	1.6177038
14.73676467387942	2.6417565	1.6253481
14.754437536670727	2.6428814	1.6256942
14.772110752360014	2.654643	1.6293075
14.78978432138882	2.6395397	1.624666
14.807458244198777	2.6330256	1.62266
14.82513252123159	2.6351533	1.6233156
14.842807152929028	2.6557693	1.6296531
14.860482139732962	2.6784537	1.6365982
14.87815748208531	2.686052	1.6389179
14.8958331804281	2.6724885	1.6347747
14.91350923520342	2.6179044	1.617994
14.931185646853438	2.615692	1.61731
14.948862415820408	2.6180105	1.6180267
14.966539542546656	2.6674283	1.6332263
14.98421702747459	2.676064	1.635868
15.001894871046696	2.6938748	1.6413028
15.019573073705542	2.6679797	1.6333952
15.037251635893766	2.6307995	1.621974
15.054930558054092	2.6101282	1.6155891
15.072609840629323	2.703386	1.6441977
15.090289484062351	2.9172668	1.7080008
15.107969488796124	3.284748	1.8123873
15.125649855273691	3.7165973	1.9278479
15.14333058393817	4.220149	2.0543
15.161011675232768	5.1624503	2.2721026
15.17869312960076	6.4655867	2.5427518
15.196374947485506	8.308617	2.882467
15.214057129330447	11.279539	3.3585026
15.231739675579114	15.862058	3.98272
15.249422586675102	20.73559	4.5536346
15.267105863062092	23.710457	4.8693385
15.284789505183847	23.807985	4.8793426
15.302473513484218	21.53631	4.640723
15.320157888407127	18.02503	4.2455893
15.337842630396578	14.014894	3.743647
15.355527739896656	10.917328	3.304138
15.37321321735153	8.504308	2.9162147
15.39089906320545	6.2849426	2.5069788
15.408585277902748	4.7855406	2.1875877
15.42627186188783	3.724189	1.9298158
15.443958815605198	3.234715	1.7985313
15.461646139499424	2.9590125	1.720178
15.479333834015168	2.8137841	1.6774338
15.497021899597165	2.7262392	1.6511327
15.514710336690234	2.6522498	1.628573
15.53239914573928	2.6099906	1.6155466
15.550088327189297	2.5848038	1.6077325
15.567777881485336	2.5483057	1.5963414
15.58546780907256	2.5292945	1.5903755
15.6031581103962	2.5032551	1.5821679
15.620848785901568	2.4674134	1.5708003
15.638539836034063	2.4350421	1.5604621
15.656231261239173	2.4045558	1.550663
15.673923061962451	2.39534	1.5476886
15.691615238649552	2.3874292	1.5451308
15.709307791746202	2.3689704	1.539146
15.727000721698221	2.3836591	1.5439104
15.744694028951498	2.3980024	1.5485485
15.76238771395202	2.4107394	1.5526556
15.780081777145844	2.4147103	1.5539339
15.797776218979125	2.3820407	1.5433861
15.815471039898094	2.376688	1.541651
15.833166240349064	2.3942118	1.5473241
15.850861820778437	2.3769403	1.5417329
15.868557781632699	2.3394241	1.5295177
15.886254123358412	2.2792416	1.5097157
15.903950846402232	2.2779226	1.5092789
15.921647951210897	2.3133497	1.52097
15.939345438231225	2.2995377	1.5164226
15.957043307910133	2.293573	1.5144546
15.974741560694602	2.3018808	1.5171951
15.992440197031714	2.3511295	1.5333394
16.01013921736862	2.380074	1.5427488
16.02783862215259	2.4215071	1.5561192
16.045538411830933	2.406052	1.5511454
16.06323858685107	2.3835459	1.5438737
16.080939147660512	2.3841116	1.5440569
16.09864009470684	2.370949	1.5397886
16.11634142843774	2.3913617	1.5464028
16.134043149300954	2.4019363	1.5498182
16.15174525774433	2.4249115	1.5572127
16.169447754215817	2.4240181	1.5569259
16.18715063916342	2.399778	1.5491216
16.204853913035244	2.4133801	1.5535058
16.222557576279478	2.4283104	1.5583037
16.240261629344403	22.40909	4.7338243
16.257966072678386	42.934223	6.552421
16.275670906729868	38.03827	6.167517
16.293376131947387	2.5007863	1.5813875
16.31108174877957	2.530018	1.5906031
16.328787757675133	2.5405066	1.5938966
16.34649415908287	2.5225806	1.5882634
16.364200953451657	2.5753536	1.6047908
16.38190814123048	2.6288674	1.6213782
16.39961572286839	2.6823328	1.6377829
16.41732369881455	2.7155628	1.6478965
16.43503206951817	2.7207317	1.6494641
16.45274083542859	2.7531865	1.6592729
16.47044999699522	2.7723866	1.6650485
16.488159554667558	2.826406	1.6811918
16.505869508895184	2.8708642	1.6943625
16.523579860127786	2.8971152	1.7020915
16.541290608815117	2.9032788	1.703901
16.559001755407035	2.9447885	1.7160386
16.57671330035348	3.0236492	1.7388643
16.59442524410448	3.1009905	1.760963
16.61213758711015	3.1892135	1.7858369
16.629850329820705	3.230855	1.7974579
16.647563472686436	3.329339	1.8246477
16.665277016157724	3.3911335	1.841503
16.682990960685053	3.4576464	1.8594748
16.70070530671898	3.47157	1.863215
16.718420054710155	3.492322	1.8687755
16.736135205109335	3.5373604	1.8807871
16.753850758367335	3.5705082	1.8895788
16.771566714935087	3.6112893	1.9003392
16.789283075263597	3.683809	1.9193251
16.80699983980398	3.7645633	1.9402483
16.82471700900741	3.8203638	1.9545751
16.84243458332518	3.904886	1.9760784
16.860152563208665	3.9657583	1.9914212
16.87787094910932	4.0535073	2.0133324
16.89558974147871	4.09723	2.0241616
16.913308940768466	4.158471	2.039233
16.931028547430333	4.1811323	2.0447817
16.94874856191613	4.2255816	2.0556219
16.966468984677785	4.269844	2.06636
16.98418981616729	4.3415537	2.0836396
17.00191105683676	4.400024	2.0976233
17.019632707138374	4.4601727	2.111912
17.03735476752442	4.5120625	2.1241617
17.05507723844728	4.522875	2.1267052
17.072800120359403	4.5330887	2.129105
17.090523413713353	4.5217905	2.1264503
17.108247118961785	4.546687	2.1322963
17.125971236557437	4.617174	2.148761
17.143695766953133	4.679898	2.1633072
17.161420710601806	4.702333	2.1684864
17.179146067956477	4.7010655	2.168194
17.19687183947025	4.696194	2.1670704
17.21459802559634	4.716241	2.1716907
17.232324626788028	4.75026	2.1795092
17.25005164349871	4.7163033	2.1717052
17.267779076181863	4.6421523	2.1545656
17.285506925291074	4.5987263	2.144464
17.30323519127999	4.575514	2.139045
17.320963874602384	4.5491548	2.1328747
17.33869297571211	4.533392	2.1291764
17.356422495063114	4.4823523	2.1171567
17.37415243310944	4.4839983	2.1175454
17.391882790305218	4.4705806	2.1143746
17.40961356710468	4.4700394	2.1142468
17.42734476396215	4.498874	2.121055
17.445076381332044	4.533604	2.1292262
17.462808419668868	4.622557	2.1500132
17.48054087942723	4.754662	2.1805189
17.498273761061835	5.0236382	2.2413473
17.51600706502747	5.5445523	2.3546872
17.533740791779024	6.240859	2.498171
17.551474941771485	7.6018715	2.7571492
17.56920951545993	8.637664	2.9389904
17.586944513299528	10.720552	3.2742255
17.60467993574556	12.291813	3.505968
17.622415783253373	13.852334	3.7218723
17.64015205627843	15.1237	3.88892
17.657888755276293	16.090918	4.0113487
17.675625880702604	16.56556	4.070081
17.69336343301311	16.354559	4.044077
17.71110141266366	15.56998	3.9458814
17.728839820110178	14.704723	3.834674
17.746578655808705	13.954648	3.7355921
17.764317920215372	12.747287	3.5703342
17.7820576137864	11.331117	3.3661723
17.79979773697811	9.403736	3.0665512
17.81753829024692	7.552198	2.7481263
17.835279274049356	5.931214	2.4354084
17.85302068884201	4.8870125	2.2106588
17.870762535081607	4.221791	2.0546997
17.888504813224934	3.923049	1.9806688
17.90624752372891	3.7728384	1.9423796
17.923990667050536	3.6185393	1.9022459
17.941734243646895	3.5153372	1.8749232
17.959478253975185	3.4687104	1.8624474
17.9772226984927	3.455636	1.8589342
17.994967577656833	3.4425604	1.8554138
18.01271289192506	3.4156158	1.8481385
18.030458641754965	3.3731954	1.836626
18.04820482760425	3.308125	1.8188251
18.06595144993067	3.2919188	1.8143646
18.083698509192125	3.2660642	1.8072256
18.101446005846576	3.1950026	1.787457
18.119193940352105	3.172018	1.781016
18.136942313166887	3.1634257	1.7786021
18.1546911247492	3.170901	1.7807024
18.1724403755574	3.1916723	1.7865252
18.19019006604997	3.1677518	1.7798179
18.207940196685467	3.1343012	1.7703958
18.225690767922575	3.0782921	1.7545062
18.243441780220046	3.0179653	1.7372292
18.261193234036764	3.0053663	1.7335992
18.278945129831676	3.0411355	1.7438852
18.29669746806386	3.008724	1.7345674
18.314450249192483	2.9785507	1.7258478
18.3322034736768	2.9712734	1.7237382
18.349957141976184	3.0624259	1.7499788
18.3677112545501	3.0927973	1.758635
18.385465811858108	3.0933502	1.7587923
18.403220814359884	3.0481231	1.7458875
18.420976262515172	3.0790179	1.754713
18.43873215678387	3.1283839	1.7687238
18.456488497625923	3.1614127	1.7780362
18.474245285501407	3.2078264	1.7910405
18.492002520870486	3.21856	1.7940346
18.50976020419343	3.261268	1.8058981
18.527518335930615	3.6030154	1.898161
18.545276916542516	4.245277	2.060407
18.563035946489688	4.492306	2.1195061
18.580795426232832	4.920803	2.2182884
18.598555356232698	4.7845564	2.187363
18.616315736950185	5.0028024	2.2366946
18.63407656884626	4.675375	2.1622615
18.65183785238201	4.903536	2.214393
18.669599588018617	4.7014046	2.1682723
18.68736177621737	4.659494	2.158586
18.705124417439652	4.6612883	2.1590016
18.72288751214696	4.438665	2.106814
18.740651060800886	4.5661693	2.1368597
18.758415063863115	4.296268	2.0727441
18.77617952179546	4.453193	2.110259
18.793944435059814	4.186332	2.046053
18.811709804118184	4.2192464	2.0540805
18.829475629432675	4.2019114	2.0498564
18.8472419114655	4.001191	2.0002978
18.86500865067897	4.061034	2.0152009
18.88277584753551	3.7364798	1.9329976
18.90054350249763	3.7849193	1.9454869
18.918311616027957	3.4863405	1.8671745
18.936080188589226	3.3719816	1.8362956
18.953849220644265	3.071467	1.7525601
18.971618712656007	2.885467	1.6986662
18.9893886650875	2.865209	1.6926929
19.007159078401887	8.014929	2.831065
19.024929953062408	32.897278	5.735615
19.042701289532435	32.873463	5.7335386
19.060473088275405	25.4088	5.0407143
19.07824534975489	2.6602087	1.6310146
19.096018074434568	2.647392	1.6270808
19.113791262778197	2.6671574	1.6331434
19.13156491524966	2.6875114	1.6393632
19.149339032312945	2.650271	1.6279653
19.167113614432136	2.6030946	1.6134108
19.184888662071433	2.5930352	1.6102904
19.202664175695123	2.5884798	1.6088753
19.220440155767623	2.575918	1.6049666
19.238216602753447	2.5268645	1.5896114
19.2559935171172	2.4941266	1.5792804
19.27377089932361	2.4947424	1.5794754
19.291548749837514	2.4647713	1.569959
19.309327069123835	2.4736052	1.5727699
19.32710585764763	2.4665408	1.5705224
19.344885115874032	2.5084949	1.5838228
19.362664844268313	2.5115733	1.5847944
19.380445043295822	2.5156236	1.5860717
19.39822571342203	2.4985888	1.5806925
19.41600685511252	2.4708593	1.5718967
19.43378846883297	2.4432995	1.5631057
19.451570555049173	2.4375002	1.5612496
19.469353114227037	2.466532	1.5705197
19.48713614683254	2.5104165	1.5844294
19.50491965333182	2.507993	1.5836644
19.52270363419109	2.4917696	1.578534
19.540488089876686	2.4428618	1.5629658
19.55827302085503	2.4545722	1.5667075
19.576058427592674	2.486513	1.576868
19.593844310556282	2.5204904	1.5876052
19.611630670212598	2.5415895	1.5942364
19.629417507028506	2.5287755	1.5902123
19.64720482147098	2.5345187	1.5920172
19.6649926140071	2.5042832	1.5824927
19.682780885104084	2.4812226	1.5751897
19.70056963522921	2.5188844	1.5870993
19.718358864849908	2.5368161	1.5927385
19.7361485744337	2.544458	1.5951357
19.753938764448215	2.4712715	1.5720278
19.771729435361202	2.4842575	1.5761527
19.789520587640506	2.5016885	1.5816727
19.807312221754092	2.5555973	1.5986235
19.825104338170043	2.5701063	1.6031551
19.842896937356517	2.546193	1.5956794
19.860690019781824	2.4984663	1.5806538
19.87848358591436	2.5030224	1.5820943
19.896277636222635	2.5235634	1.5885727
19.914072171175278	2.5041735	1.582458
19.931867191241015	2.4845703	1.576252
19.94966269688869	2.5139973	1.585559
19.967458688587264	2.5183933	1.5869446
19.985255166805807	2.4892545	1.5777371
20.00305213201348	2.425155	1.5572909
20.020849584679578	2.418264	1.5550768
20.038647525273507	2.4172366	1.5547465
20.05644595426477	2.4420319	1.5627002
20.07424487212299	2.4355493	1.5606246
20.092044279317903	2.4139872	1.5537012
20.109844176319353	2.3715763	1.5399923
20.127644563597304	2.360649	1.5364404
20.145445441621817	2.3749993	1.5411032
20.16324681086307	2.3997967	1.5491277
20.181048671791373	2.3952565	1.5476617
20.198851024877122	2.3691123	1.5391921
20.216653870590836	2.348541	1.532495
20.234457209403146	2.3876565	1.5452043
20.252261041784802	2.3949964	1.5475776
20.270065368206662	2.3955865	1.5477682
20.287870189139685	2.3993902	1.5489966
20.305675505054968	2.3787858	1.5423313
20.323481316423702	2.3130507	1.5208718
20.341287623717207	2.3041394	1.5179392
20.359094427406884	2.3371382	1.5287702
20.376901727964288	2.3887336	1.5455528
20.39470952586107	2.3409965	1.5300316
20.41251782156899	2.3335514	1.5275966
20.430326615559935	2.3365448	1.528576
20.448135908305886	2.3095074	1.5197064
20.465945700278965	2.3007996	1.5168387
20.483755991951384	2.2832704	1.5110494
20.50156678379548	2.2979352	1.5158942
20.519378076283708	2.3073006	1.5189801
20.537189869888635	2.341222	1.5301052
20.55500216508294	2.3439305	1.53099
20.572814962339415	2.333064	1.5274371
20.59062826213098	2.3184285	1.5226387
20.60844206493066	2.3236022	1.5243367
20.626256371211593	2.308458	1.5193611
20.644071181447032	2.3218846	1.5237732
20.66188649611036	2.3258336	1.5250684
20.67970231567506	2.327852	1.52573
20.697518640614742	2.306871	1.5188386
20.715335471403122	2.2858996	1.5119191
20.73315280851404	2.315602	1.5217103
20.750970652421447	2.3040767	1.5179186
20.768789003599412	2.2908049	1.5135405
20.786607862522136	2.2332268	1.4943985
20.8044272296639	2.2615035	1.5038296
20.82224710549913	2.2768643	1.5089282
20.84006749050237	2.2823653	1.5107499
20.857888385148268	3.846557	1.9612641
20.8757097899116	45.966084	6.779829
20.893531705267254	64.80498	8.050154
20.911354131690224	83.78699	9.153523
20.92917706965566	69.04604	8.309395
20.94700051963877	50.122498	7.0797243
20.96482448211493	29.371647	5.4195614
20.982648957559622	4.1216087	2.0301745
21.00047394644843	2.243422	1.4978057
21.01829944925707	2.2739172	1.5079514
21.036125466461375	2.281564	1.5104847
21.053951998537297	2.2579122	1.5026351
21.071779045960906	2.2366464	1.4955422
21.089606609208378	2.1872177	1.4789245
21.10743468875603	2.1775737	1.4756604
21.12526328508028	2.2021189	1.4839538
21.143092398657675	2.2436671	1.4978876
21.16092202996488	2.2698596	1.5066053
21.17875217947867	2.2654655	1.5051464
21.19658284767596	2.1958578	1.4818426
21.21441403503377	2.17584	1.4750729
21.232245742029225	2.1825287	1.4773384
21.2500779691396	2.200727	1.4834847
21.26791071684227	2.1966815	1.4821206
21.28574398561475	2.154172	1.4677098
21.30357777593465	2.1655982	1.4715972
21.321412088279704	2.1749365	1.4747666
21.339246923127792	2.1511087	1.4666659
21.357082280956888	2.1443741	1.4643682
21.3749181622451	2.096289	1.4478567
21.392754567470647	2.1017926	1.449756
21.41059149711187	2.135337	1.4612793
21.42842895164726	2.1689816	1.4727463
21.446266931555378	2.1576252	1.4688857
21.464105437314945	2.1556017	1.4681967
21.481944469404798	2.1268551	1.4583741
21.49978402830388	2.1076612	1.4517787
21.51762411449127	2.094978	1.4474039
21.53546472844617	2.106351	1.4513273
21.553305870647876	2.0563793	1.4340081
21.571147541575865	2.042522	1.4291682
21.58898974170967	2.04419	1.4297518
21.60683247152899	2.0415592	1.4288315
21.62467573151363	2.0509865	1.4321265
21.642519522143523	2.0531743	1.4328902
21.660363843898722	2.065203	1.4370815
21.6782086972594	2.0339565	1.4261684
21.696054082705864	2.0257194	1.4232777
21.713900000718535	2.0323386	1.4256011
21.73174645177795	2.0434935	1.4295081
21.749593436364794	2.0378413	1.4275298
21.767440954959845	2.049606	1.4316446
21.785289008044032	2.0240495	1.422691
21.803137596098388	1.9889163	1.4102894
21.820986719604086	1.9833301	1.4083076
21.838836379042412	2.0026326	1.4151441
21.85668657489478	2.0192027	1.4209865
21.87453730764273	2.008762	1.417308
21.892388577767914	1.9867568	1.4095236
21.91024038575213	1.9747505	1.4052582
21.928092732077285	1.96388	1.401385
21.945945617225426	1.96119	1.400425
21.963799041678694	1.9663731	1.4022743
21.981653005919398	31.334677	5.5977387
21.999507510429943	78.1767	8.841759
22.01736255569286	73.12101	8.551083
22.035218142190818	4.1727514	2.0427313
22.05307427040661	1.9759921	1.4056998
22.07093094082315	1.9644113	1.4015746
22.088788153923474	1.9777954	1.4063411
22.106645910190746	1.9895209	1.4105037
22.12450421010827	1.9678679	1.4028071
22.142363054159464	1.9415412	1.393392
22.16022244282787	1.9226494	1.3865963
22.178082376597164	1.9408451	1.3931422
22.195942855951145	1.9435103	1.3940984
22.213803881373742	1.9725894	1.404489
22.231665453349002	1.9944948	1.4122659
22.24952757236111	1.978502	1.4065924
22.26739023889438	1.9784862	1.4065868
22.28525345343323	1.9877025	1.4098591
22.30311721646225	1.9844377	1.4087007
22.320981528466113	1.9936666	1.4119726
22.33884638992964	1.9937147	1.4119896
22.356711801337788	1.9916506	1.4112585
22.37457776317561	2.0037348	1.4155334
22.392444275928337	1.995566	1.412645
22.410311340081282	1.991911	1.4113508
22.428178956119904	1.9848294	1.4088397
22.446047124529805	1.9798443	1.4070694
22.46391584579669	1.9670796	1.4025261
22.481785120406414	1.941784	1.3934791
22.49965494884496	1.936403	1.391547
22.51752533159841	1.924012	1.3870876
22.53539626915302	1.967282	1.4025984
22.553267761995137	1.9523177	1.3972536
22.571139810611264	1.9178268	1.3848562
22.589012415488025	1.9133207	1.3832283
22.60688557711216	1.9126253	1.382977
22.624759295970566	1.9249569	1.3874282
22.642633572550263	1.9177897	1.3848429
22.660508407338362	1.9263022	1.3879129
22.67838380082217	1.9023188	1.3792458
22.696259753489077	1.8978322	1.3776183
22.714136265826614	1.8882718	1.3741441
22.73201333832246	1.9035985	1.3797096
22.74989097146439	1.9159285	1.3841707
22.76776916574035	1.9210452	1.3860178
22.785647921638393	1.9072243	1.3810229
22.803527239646712	1.9462445	1.3950787
22.82140712025363	1.9546714	1.3980956
22.839287563947593	1.9597036	1.3998941
22.85716857121719	1.9582117	1.3993611
22.875050142551135	1.94762	1.3955716
22.892932278438277	1.9231588	1.38678
22.910814979367604	1.8764222	1.3698256
22.928698245828222	1.8784748	1.3705746
22.946582078309387	1.9116315	1.3826176
22.96446647730047	1.93476	1.3909565
22.98235144329098	1.9323102	1.3900756
23.000236976770562	1.9171124	1.3845983
23.018123078229	1.8968328	1.3772556
23.03600974815619	1.8847269	1.3728535
23.053896987042194	1.8694925	1.3672938
23.071784795377173	1.8604923	1.3639987
23.08967317365145	1.8798884	1.3710902
23.10756212235546	1.86845	1.3669126
23.125451641979787	1.8670033	1.3663833
23.143341733015134	1.875048	1.369324
23.161232395952357	1.8775083	1.370222
23.179123631282426	1.880197	1.3712028
23.197015439496468	1.9080935	1.3813375
23.214907821085717	1.9393632	1.3926102
23.23280077654157	1.9747782	1.405268
23.250694306355538	1.9614617	1.4005219
23.268588411019277	1.9019729	1.3791203
23.28648309102458	1.8973246	1.377434
23.304378346863356	1.8995018	1.3782241
23.322274179027676	1.9530352	1.3975104
23.340170588009723	1.9222351	1.386447
23.358067574301852	1.8582687	1.3631833
23.37596513839651	1.844526	1.3581333
23.39386328078629	1.8934299	1.3760196
23.411762001963947	1.904893	1.3801786
23.429661302422353	1.9166679	1.3844378
23.4475611826545	1.9284288	1.3886788
23.46546164315356	1.9376653	1.3920004
23.48336268441279	1.9252701	1.387541
23.501264306925638	1.9298722	1.3891984
23.51916651118564	1.907686	1.3811901
23.537069297686497	1.9400463	1.3928554
23.554972666922037	1.9165361	1.3843901
23.57287661938623	1.907494	1.3811206
23.59078115557318	1.8998209	1.3783399
23.608686275977128	1.8817147	1.3717561
23.62659198109246	1.8906372	1.3750044
23.6444982714137	1.8755773	1.3695172
23.66240514743549	1.894142	1.3762783
23.68031260965263	1.9264657	1.3879718
23.698220658560068	1.9123553	1.3828794
23.716129294652845	1.8932766	1.3759639
23.7340385184262	1.8979571	1.3776636
23.75194833037546	1.9601494	1.4000534
23.769858730996123	1.9246154	1.387305
23.78776972078382	1.8837812	1.3725091
23.80568130023431	1.8705132	1.3676671
23.823593469843495	1.8885524	1.3742461
23.841506230107424	1.8762324	1.3697563
23.859419581522275	1.8692594	1.3672086
23.87733352458438	1.8411175	1.3568778
23.89524805979019	1.8642126	1.3653617
23.913163187636318	1.8857136	1.3732128
23.931078908619508	1.9543661	1.3979864
23.948995223236633	1.9948183	1.4123803
23.966912131984735	2.0438154	1.4296207
23.98482963536096	2.0389519	1.4279187
24.002747733862616	2.0061216	1.4163762
24.020666427987155	1.9952474	1.4125322
24.038585718232156	2.0014806	1.414737
24.056505605095353	2.0494478	1.4315892
24.074426089074617	2.0580845	1.4346025
24.092347170667946	2.0498836	1.4317415
24.110268850373515	2.0558922	1.4338382
24.128191128689586	2.037857	1.4275353
24.146114006114626	1.9967458	1.4130626
24.164037483147187	1.99271	1.4116338
24.181961560286005	2.0177913	1.4204898
24.199886238029926	2.0464048	1.430526
24.21781151687797	2.0344713	1.4263489
24.235737397329274	2.0079887	1.4170352
24.253663879883135	2.0333393	1.4259521
24.271590965038975	2.0493517	1.4315557
24.289518653296376	2.0742974	1.4402422
24.30744694515505	2.0813706	1.4426956
24.32537584111486	2.0174384	1.4203656
24.34330534167581	2.0297377	1.4246886
24.361235447338046	2.04406	1.4297062
24.379166158601876	2.0776348	1.4414003
24.39709747596772	2.0468729	1.4306897
24.41502939993615	2.041667	1.4288691
24.432961931007917	1.9910018	1.4110286
24.450895069683856	1.9751122	1.4053868
24.468828816465	1.9783696	1.4065453
24.4867631718525	1.952623	1.3973628
24.504698136347656	1.9809401	1.4074588
24.52263371045192	1.9392395	1.3925658
24.540569894666874	1.935232	1.3911262
24.558506689494266	1.9301745	1.3893071
24.57644409543597	1.9590868	1.3996738
24.594382112994012	1.9571002	1.3989639
24.61232074267057	1.9756773	1.4055879
24.630259984967953	1.9153153	1.3839492
24.64819984038863	1.9292239	1.388965
24.66614030943522	1.9243042	1.387193
24.684081392610462	1.9819467	1.4078163
24.702023090417274	1.9738746	1.4049464
24.7199654033587	1.9906468	1.4109029
24.737908331937927	2.0130413	1.4188168
24.755851876658305	2.0569103	1.4341933
24.773796038023324	2.004684	1.4158686
24.79174081653661	1.9972228	1.4132314
24.809686212701962	2.0109174	1.4180682
24.827632227023294	2.0950792	1.4474388
24.8455788600047	2.1235032	1.4572245
24.8635261121504	2.1105785	1.452783
24.88147398396475	2.0903144	1.445792
24.899422475952303	2.1124463	1.4534258
24.917371588617698	2.126222	1.4581571
24.935321322465768	2.177255	1.4755524
24.953271678001478	2.2894142	1.5130811
24.97122265572994	2.489634	1.5778574
24.989174256156414	2.8145242	1.6776544
25.00712647978632	3.2287838	1.7968817
25.02507932712521	3.6950786	1.9222587
25.043032798678798	4.1263204	2.0313346
25.060986894952933	4.7572927	2.1811218
25.078941616453637	5.4901466	2.3431063
25.096896963687055	6.4312396	2.5359888
25.114852937159508	7.4422207	2.7280433
25.132809537377444	7.9261427	2.8153405
25.150766764847468	8.037745	2.8350918
25.168724620076347	7.5709276	2.7515318
25.186683103570985	6.6290355	2.5746913
25.204642215838426	5.5181932	2.3490834
25.222601957385894	4.2099676	2.0518205
25.24056232872074	3.2291703	1.7969892
25.25852333035048	2.6526692	1.6287017
25.276484962782778	2.2618394	1.5039413
25.294447226525435	2.0644324	1.4368132
25.312410122086423	1.9517479	1.3970497
25.330373649973843	1.927514	1.3883494
25.348337810695988	1.9632257	1.4011515
25.366302604761245	1.9827546	1.4081032
25.384268032678207	1.9563346	1.3986903
25.40223409495558	1.8904274	1.3749281
25.420200792102257	1.8541076	1.3616562
25.438168124627246	1.8536981	1.3615059
25.45613609303974	1.8654265	1.3658062
25.474104697849057	1.8714925	1.3680251
25.492073939564698	1.860072	1.3638445
25.510043818696285	1.8630573	1.3649385
25.528014335753614	1.8939897	1.376223
25.54598549124664	1.9290602	1.3889061
25.56395728568544	1.9323664	1.3900958
25.58192971958028	1.9039427	1.3798343
25.59990279344156	1.8705566	1.3676829
25.617876507779833	1.859673	1.3636982
25.635850863105826	1.8690069	1.3671162
25.653825859930386	1.8251113	1.3509668
25.671801498764548	1.8358144	1.3549223
25.68977778011949	1.8094192	1.3451465
25.707754704506524	1.8062137	1.3439546
25.725732272437153	1.8033762	1.3428985
25.743710484423012	1.8154203	1.3473753
25.761689340975888	1.83591	1.3549576
25.77966884260774	1.8746043	1.369162
25.797648989830662	1.889764	1.3746868
25.815629783156922	1.8317624	1.3534262
25.83361122309895	1.8306069	1.3529992
25.85159331016929	1.8693693	1.3672488
25.869576044880695	1.8707621	1.367758
25.887559427746034	1.8405186	1.3566571
25.90554345927836	1.8506722	1.3603941
25.92352813999086	1.8528931	1.3612101
25.94151347039689	1.844178	1.3580052
25.959499451009965	1.8251656	1.350987
25.97748608234374	1.8443205	1.3580576
25.995473364912062	1.835703	1.3548812
26.013461299228904	1.8765446	1.3698703
26.03144988580839	1.879812	1.3710624
26.04943912516483	1.841536	1.3570321
26.067429017812675	1.7730674	1.3315657
26.085419564266537	1.8274076	1.3518164
26.103410765041186	1.8228407	1.3501261
26.12140262065155	1.8200455	1.3490906
26.139395131612723	1.7805032	1.334355
26.157388298439948	1.7399352	1.319066
26.17538212164861	1.7416552	1.3197179
26.193376601754295	1.7742319	1.332003
26.211371739272714	1.7708381	1.3307284
26.229367534719746	1.7780449	1.3334335
26.247363988611433	1.8184736	1.3485079
26.26536110146397	1.8043928	1.3432769
26.283358873793727	1.7682606	1.3297596
26.301357306117204	1.7086254	1.307144
26.319356398951104	1.686625	1.2987013
26.33735615281224	1.7089256	1.3072588
26.35535656821762	1.7737136	1.3318084
26.373357645684404	1.7945427	1.3396055
26.39135938572991	1.8097974	1.3452871
26.409361788871614	1.7723219	1.3312858
26.427364855627165	1.8033586	1.3428918
26.445368586514352	1.7961726	1.3402137
26.46337298205115	1.7910737	1.33831
26.48137804275568	1.7646652	1.328407
26.499383769146217	1.7406034	1.3193194
26.517390161741215	1.7697662	1.3303256
26.53539722105928	1.8094226	1.3451478
26.553404947619182	1.8240875	1.3505878
26.571413341939856	1.8178056	1.3482603
26.589422404540397	1.8193136	1.3488194
26.60743213594006	1.7812254	1.3346256
26.62544253665827	1.7784944	1.3336021
26.64345360721459	1.7617632	1.3273143
26.66146534812879	1.7979958	1.3408936
26.679477759920758	1.7866068	1.3366401
26.69749084311057	1.7808521	1.3344857
26.71550459821847	1.7551594	1.3248243
26.733519025764842	1.7283379	1.3146627
26.751534126270258	1.734776	1.317109
26.769549900255434	1.8054297	1.3436627
26.787566348241267	1.8460658	1.3587
26.80558347074881	1.8171396	1.3480132
26.823601268299267	1.7715082	1.3309802
26.841619741414036	1.7585785	1.326114
26.85963889061465	1.768077	1.3296906
26.877658716422832	1.765457	1.3287051
26.89567921936045	1.7876472	1.3370292
26.913700399949544	1.8459121	1.3586435
26.93172225871233	1.8958508	1.376899
26.949744796171174	1.8818339	1.3717995
26.967768012848605	1.8252629	1.351023
26.98579190926733	1.8237653	1.3504685
27.003816485950225	1.8446928	1.3581947
27.021841743420318	1.8380545	1.3557487
27.039867682200814	1.8050716	1.3435296
27.057894302815072	1.7960298	1.3401604
27.07592160578664	1.7933034	1.3391428
27.0939495916392	1.7756087	1.3325197
27.111978260896635	1.733424	1.3165956
27.13000761408296	1.71554	1.3097863
27.148037651722397	1.7174431	1.3105125
27.166068374339304	1.8234583	1.3503549
27.184099782458215	1.829985	1.3527694
27.20213187660384	1.7914246	1.3384411
27.22016465730105	1.7779765	1.3334079
27.23819812507487	1.826424	1.3514526
27.256232280450533	1.7746491	1.3321595
27.274267123953383	1.7514932	1.32344
27.292302656108987	1.7769836	1.3330355
27.31033887744306	1.7970822	1.3405529
27.32837578848146	1.7792102	1.3338704
27.34641338975026	1.8023959	1.3425333
27.364451681775673	1.8327745	1.3538
27.382490665084074	1.7944679	1.3395776
27.400530340202046	1.746576	1.3215809
27.41857070765629	1.7242322	1.3131002
27.436611767973726	1.7813122	1.3346581
27.454653521681404	1.8027283	1.3426572
27.472695969306564	1.7976564	1.3407671
27.490739111376627	1.7992548	1.3413631
27.508782948419153	1.8632044	1.3649924
27.526827480961902	1.8913316	1.3752569
27.54487270953279	1.8406416	1.3567024
27.562918634659898	1.7665699	1.3291237
27.580965256871508	1.7738289	1.3318517
27.599012576696026	1.7869204	1.3367574
27.617060594662068	1.7201083	1.311529
27.63510931129842	1.712164	1.3084968
27.65315872713401	1.8172653	1.3480598
27.67120884269797	1.8590806	1.363481
27.68925965851958	1.8248746	1.3508792
27.707311175128307	1.8031226	1.3428041
27.725363393053787	1.8231317	1.3502339
27.74341631282583	1.8441072	1.357979
27.7614699349744	1.8331908	1.3539537
27.77952426002968	2.024217	1.4227498
27.797579288521973	2.1536047	1.4675165
27.815635020981784	2.631164	1.6220863
27.83369145793979	2.6671855	1.633152
27.85174859992682	2.4782066	1.5742321
27.869806447473923	2.3183188	1.5226027
27.887865001112267	2.0022926	1.4150239
27.905924261373233	1.944674	1.3945156
27.92398422878836	1.9352292	1.3911252
27.94204490388936	1.8909656	1.3751239
27.96010628720813	1.8628666	1.3648688
27.978168379276728	1.9486777	1.3959504
27.9962311806274	1.9805385	1.4073161
28.014294691792568	1.8843414	1.3727131
28.0323589133048	1.8117236	1.3460028
28.050423845696887	1.7534738	1.324188
28.068489489501758	1.7454653	1.3211606
28.086555845252523	1.7896135	1.3377644
28.104622913482487	1.823217	1.3502655
28.122690694725115	1.845508	1.3584948
28.14075918951405	1.8729109	1.3685434
28.15882839838312	1.8960539	1.3769727
28.176898321866304	1.8617282	1.3644516
28.1949689604978	1.8848821	1.37291
28.213040314811945	1.9065031	1.3807617
28.23111238534327	1.9190694	1.3853048
28.249185172626493	1.8599838	1.3638122
28.267258677196473	1.7991896	1.3413388
28.285332899588294	1.7995684	1.3414799
28.303407840337172	1.8584485	1.3632493
28.321483499978545	1.88054	1.3713279
28.33955987904799	1.8845096	1.3727744
28.357636978081285	1.9293752	1.3890195
28.37571479761439	2.003379	1.4154078
28.393793338183425	1.9713216	1.4040376
28.41187260032469	1.9247171	1.3873417
28.429952584574686	1.8787885	1.370689
28.448033291470065	1.9154595	1.3840013
28.46611472154769	1.9029093	1.3794597
28.484196875344566	1.9129301	1.3830872
28.502279753397914	1.8961029	1.3769906
28.52036335624511	1.9351422	1.3910939
28.538447684423716	1.9525064	1.3973211
28.556532738471482	1.9954469	1.4126029
28.574618518926325	2.053404	1.4329704
28.59270502632635	2.0410993	1.4286705
28.61079226120985	2.0242462	1.4227601
28.628880224115274	2.0024745	1.4150882
28.646968915581287	2.0011086	1.4146055
28.66505833614671	2.015827	1.4197983
28.68314848635055	2.0522494	1.4325675
28.701239366732004	2.0500965	1.4318159
28.71933097783044	2.0614505	1.4357752
28.737423320185403	2.0530095	1.4328327
28.75551639433665	2.0872278	1.4447241
28.773610200824074	2.1810968	1.4768537
28.791704740187793	2.1531157	1.4673499
28.80980001296809	2.0828497	1.4432081
28.827896019705413	2.091763	1.4462929
28.845992760940433	2.1458242	1.4648632
28.86409023721397	2.1840687	1.4778595
28.88218844906704	2.2473834	1.4991275
28.900287397040845	2.2418778	1.4972901
28.918387081676755	2.2277336	1.4925594
28.936487503516343	2.2601879	1.5033921
28.954588663101365	2.2878637	1.5125686
28.97269056097374	2.3322458	1.5271692
28.990793197675597	2.350284	1.5330637
29.00889657374923	2.2937858	1.5145249
29.027000689737125	2.2652879	1.5050874
29.04510554618196	2.315416	1.5216491
29.06321114362659	2.3673866	1.5386314
29.08131748261405	2.3977017	1.5484514
29.099424563687567	2.3901913	1.5460243
29.11753238739057	2.4456687	1.5638634
29.13564095426663	2.5130618	1.585264
29.15375026485954	2.5344179	1.5919855
29.171860319713275	2.549439	1.5966963
29.18997111937199	2.643023	1.6257377
29.20808266438002	2.726882	1.6513274
29.226194955281898	2.743853	1.656458
29.244307992622335	2.734339	1.6535836
29.26242177694624	2.7728071	1.6651748
29.2805363087987	2.839155	1.6849792
29.29865158872498	2.9106283	1.7060564
29.316767617270557	2.9140399	1.7070559
29.334884394981064	2.9099846	1.7058676
29.353001922402367	2.8957493	1.7016902
29.37112020008047	2.9642863	1.7217103
29.389239228561596	3.119805	1.766297
29.407359008392152	3.3319314	1.8253579
29.42547954011872	3.6803765	1.9184308
29.44360082428809	4.2541275	2.0625536
29.46172286144722	5.2116613	2.2829063
29.479845652143283	6.797372	2.607177
29.497969196923606	8.802315	2.9668696
29.516093496335728	11.101566	3.3319013
29.5342185509274	13.626018	3.6913435
29.55234436124651	15.952806	3.9940965
29.570470927841175	17.433064	4.175292
29.588598251259686	17.048178	4.128944
29.60672633205055	15.70774	3.963299
29.624855170762405	13.694083	3.7005517
29.642984767944146	11.09403	3.3307703
29.66111512414481	8.5017	2.9157674
29.67924623991366	6.504909	2.5504723
29.697378115800138	5.23605	2.2882416
29.71551075235387	4.3438168	2.0841825
29.733644150124675	3.76651	1.9407499
29.751778309662576	3.4963233	1.8698459
29.769913231517766	3.3554409	1.8317863
29.78804891624066	3.2624745	1.8062321
29.806185364381818	3.2601743	1.8055953
29.82432257649206	3.2699964	1.8083131
29.842460553122333	3.2415416	1.8004282
29.86059929482382	3.2357917	1.7988306
29.878738802147872	3.2295144	1.7970849
29.896879075646048	3.2656333	1.8071064
29.915020115870114	3.3318143	1.8253258
29.933161923371976	3.335197	1.8262522
29.951304498703777	3.251709	1.8032496
29.969447842417857	3.2769763	1.810242
29.987591955066733	3.289535	1.8137076
30.005736837203123	3.1992493	1.7886446
30.023882489379943	3.1522603	1.7754606
30.04202891215028	3.1384642	1.7715712
30.060176106067455	3.154983	1.7762272
30.078324071684946	3.154915	1.776208
30.09647280955646	3.1803768	1.7833611
30.114622320235863	3.1444256	1.7732528
30.132772604277257	3.0972192	1.7598919
30.1509236622349	3.078034	1.7544327
30.16907549466328	3.0699747	1.7521343
30.18722810211705	3.0510604	1.7467285
30.205381485151097	3.0693624	1.7519596
30.22353564432045	3.0802083	1.7550522
30.241690580180403	3.0489717	1.7461305
30.25984629328638	3.0212657	1.7381788
30.278002784194037	3.0355015	1.742269
30.296160053459246	3.073385	1.7531072
30.314318101638033	3.0716774	1.7526202
30.332476929286646	3.011345	1.7353227
30.35063653696153	2.9595265	1.7203275
30.368796925219307	2.9449646	1.71609
30.386958094616844	2.9180222	1.7082219
30.40512004571115	2.9415786	1.7151031
30.423282779059463	2.9271066	1.7108788
30.441446295219233	2.8691857	1.6938671
30.459610594748067	2.8318272	1.6828034
30.47777567820382	2.8447423	1.6866363
30.495941546144504	2.8222842	1.6799655
30.51410819912835	2.7706811	1.6645364
30.532275637713795	2.8290017	1.6819637
30.55044386245946	2.872159	1.6947445
30.56861287392416	2.854932	1.6896545
30.586782672666956	2.8511589	1.6885375
30.604953259247047	2.8123925	1.6770189
30.623124634223885	2.7914605	1.6707665
30.641296798157075	2.779695	1.6672417
30.659469751606462	2.7908921	1.6705964
30.677643495132074	2.7771966	1.6664923
30.695818029294152	2.7340155	1.6534859
30.713993354653116	2.7215545	1.6497135
30.73216947176962	2.7223785	1.6499631
30.75034638120448	2.7184823	1.648782
30.768524083518756	2.6912491	1.6405027
30.786702579273673	2.7221005	1.649879
30.80488186903069	2.8567939	1.6902053
30.82306195335144	3.026752	1.7397563
30.841242832797782	3.1753478	1.7819506
30.85942450793176	3.4145322	1.8478453
30.877606979315637	3.719312	1.9285518
30.895790247511883	4.101006	2.025094
30.913974313083134	4.4425063	2.1077254
30.932159176592283	4.6335287	2.1525633
30.95034483860237	4.7158813	2.171608
30.968531299676698	4.5364084	2.1298847
30.98671856037873	4.214102	2.0528278
31.00490662127215	3.9673455	1.9918196
31.023095482920848	3.5346897	1.880077
31.04128514588892	3.0943835	1.759086
31.059475610740662	2.7749512	1.6658185
31.07766687804056	2.612901	1.616447
31.09585894835335	2.5388389	1.5933734
31.11405182224393	2.5504901	1.5970254
31.132245500277417	2.479681	1.5747002
31.15043998301914	2.4586167	1.5679977
31.168635271034628	2.4807298	1.5750333
31.18683136488964	2.4618018	1.569013
31.20502826515008	2.4095807	1.5522825
31.223225972382135	2.3498456	1.5329206
31.241424487152155	2.390472	1.5461152
31.259623810026692	2.4113488	1.5528518
31.27782394157253	2.3921828	1.5466683
31.296024882356644	2.4067047	1.5513557
31.314226632946237	2.4314826	1.5593212
31.332429193908684	2.4499996	1.5652474
31.350632565811598	2.4190903	1.5553424
31.368836749222787	2.363744	1.5374472
31.387041744710295	2.4279594	1.5581911
31.40524755284232	2.506252	1.5831146
31.423454174187317	2.5651517	1.6016091
31.441661609313922	2.5799525	1.6062231
31.459869858791002	2.445539	1.5638219
31.478078923187628	2.3516195	1.5334991
31.496288803073064	2.3291702	1.5261619
31.514499499016807	2.3278875	1.5257416
31.532711011588546	2.3305748	1.526622
31.550923341358178	2.360453	1.5363766
31.56913648889584	2.342148	1.5304078
31.587350454771844	2.3598695	1.5361867
31.605565239556732	2.329459	1.5262566
31.62378084382127	2.318515	1.522667
31.641997268136382	2.3619733	1.5368713
31.660214513073274	2.4066257	1.5513303
31.67843257920331	2.3749084	1.5410738
31.6966514670981	2.3410804	1.530059
31.71487117732944	2.3520343	1.5336343
31.733091710469346	2.3378553	1.5290047
31.751313067090052	2.3148794	1.5214728
31.769535247764008	2.2738492	1.5079288
31.787758253063878	2.2935436	1.514445
31.805982083562526	2.2771595	1.509026
31.824206739833024	2.235983	1.4953203
31.84243222244869	2.211528	1.4871207
31.860658531983013	2.2138035	1.4878856
31.878885669009737	2.196795	1.4821589
31.897113634102784	2.1657066	1.471634
31.91534242783632	2.1358485	1.4614543
31.933572050784694	2.101969	1.449817
31.951802503522508	2.1306753	1.4596833
31.970033786624548	2.1794543	1.4762975
31.988265900665834	2.229928	1.4932944
32.006498846221575	2.2382066	1.4960637
32.02473262386724	2.216226	1.4886994
32.04296723417845	2.203684	1.4844811
32.0612026777311	2.234701	1.4948916
32.07943895510129	2.1858032	1.4784462
32.097676066865304	2.1523182	1.4670781
32.115914013599685	2.120537	1.4562064
32.13415279588115	2.1127384	1.4535261
32.152392414286666	2.1482415	1.4656881
32.1706328693934	2.1588373	1.4692982
32.18887416177875	2.1431842	1.4639618
32.20711629202032	2.067765	1.4379725
32.225359260695924	2.082414	1.4430572
32.243603068383614	2.1155305	1.4544864
32.26184771566166	2.149055	1.4659655
32.28009320310852	2.1878152	1.4791265
32.2983395313029	2.1271381	1.4584712
32.31658670082372	2.1204214	1.4561666
32.33483471225012	2.1028836	1.4501323
32.35308356616143	2.1802256	1.4765587
32.371333263137245	2.136608	1.461714
32.38958380375734	2.0689695	1.4383913
32.407835188601744	2.0240738	1.4226995
32.42608741825067	2.0312834	1.425231
32.444340493284585	2.0650716	1.4370357
32.46259441428416	2.0501513	1.4318349
32.48084918183028	2.0241606	1.42273
32.49910479650405	1.9986403	1.4137328
32.51736125888683	2.1000428	1.4491525
32.53561856956014	2.0810323	1.4425783
32.5538767291058	2.119192	1.4557444
32.572135738105764	2.0678282	1.4379945
32.59039559714228	1.9939895	1.412087
32.608656306797776	2.0022087	1.4149942
32.62691786765491	2.0646641	1.4368939
32.645180280296586	2.1291668	1.4591665
32.663443545305896	2.1669235	1.4720474
32.68170766326619	2.1272464	1.4585083
32.69997263476099	2.0247352	1.4229319
32.7182384603741	2.0006983	1.4144604
32.7365051406895	2.041212	1.42871
32.75477267629144	2.0673506	1.4378284
32.77304106776434	2.087999	1.444991
32.79131031569289	2.030578	1.4249835
32.809580420661966	1.9932371	1.4118205
32.827851383256714	1.9718359	1.4042207
32.84612320406245	1.8910608	1.3751584
32.86439588366476	1.8620504	1.3645697
32.88266942264945	1.8627777	1.3648361
32.9009438216025	1.7940477	1.3394207
32.9192190811102	1.8170078	1.3479643
32.937495201758985	1.8813858	1.3716362
32.95577218413556	1.8551049	1.3620224
32.974050028826866	1.84735	1.3591726
32.992328736420035	1.8229129	1.350153
33.010608307502444	1.8577635	1.362998
33.02888874266169	1.9730321	1.4046466
33.047170042485604	2.0714557	1.4392552
33.06545220756225	2.0454454	1.4301907
33.083735238479896	2.026542	1.4235666
33.10201913582707	2.0082178	1.417116
33.12030390019248	1.9506289	1.3966491
33.138589532165135	1.9090291	1.3816762
33.15687603233419	1.8947266	1.3764907
33.17516340128909	1.8894957	1.3745893
33.19345163961947	1.9681044	1.4028914
33.211740747915215	1.9360952	1.3914363
33.23003072676643	1.8781825	1.370468
33.248321576763466	1.9314011	1.3897486
33.266613298496885	1.9704521	1.4037279
33.28490589255747	1.9878765	1.4099208
33.30319935953626	1.8911237	1.3751813
33.32149370002451	1.8188785	1.3486581
33.339788914613706	1.895143	1.376642
33.358085003895575	1.9761783	1.4057661
33.376381968462034	2.0270948	1.4237608
33.39467980890529	2.003385	1.4154098
33.41297852581774	1.8876495	1.3739176
33.43127811979204	1.7819263	1.3348881
33.44957859142105	1.8012166	1.3420941
33.467879941297866	1.9039351	1.3798316
33.486182170015844	1.9328817	1.3902812
33.50448527816853	1.9059125	1.3805479
33.522789266349754	1.803212	1.3428373
33.541094135153514	1.7698649	1.3303627
33.55939988517411	1.9444858	1.3944482
33.57770651700602	1.970128	1.4036125
33.59601403124398	1.8610543	1.3642046
33.61432242848296	1.9054002	1.3803623
33.632631709318154	1.8788784	1.3707218
33.650941874344994	1.8197633	1.348986
33.66925292415916	1.8029058	1.3427233
33.68756485935654	1.7982854	1.3410016
33.70587768053328	1.8390294	1.3561082
33.724191388285746	1.8781214	1.3704457
33.74250598321054	1.845943	1.3586549
33.760821465904506	1.866553	1.3662184
33.77913783696474	1.9216264	1.3862274
33.79745509698852	1.9607576	1.4002706
33.815773246573414	1.9161876	1.3842643
33.8340922863172	1.8543944	1.3617616
33.852412216817896	1.8158227	1.3475246
33.87073303867377	1.8428819	1.3575279
33.889054752483304	1.8975555	1.3775178
33.907377358845245	1.9721482	1.4043319
33.92570085835853	1.9166574	1.384434
33.94402525162239	1.8575277	1.3629115
33.96235053923627	1.8886067	1.3742659
33.980676721799824	2.015121	1.4195496
33.999003799912984	2.0318024	1.425413
34.01733177417592	1.9960092	1.4128019
34.03566064518901	2.020117	1.4213082
34.0539904135529	2.012806	1.418734
34.07232107986846	2.0042899	1.4157294
34.090652644736785	1.970728	1.4038262
34.108985108759235	1.9314529	1.3897672
34.12731847253742	1.8510575	1.3605357
34.14565273667313	1.9287975	1.3888116
34.16398790176847	2.0667756	1.4376285
34.18232396842574	2.1017075	1.4497267
34.20066093724749	2.1006024	1.4493455
34.21899880883651	2.1064062	1.4513464
34.23733758379583	2.0011654	1.4146255
34.25567726272874	1.9568309	1.3988677
34.27401784623872	1.9661343	1.4021891
34.29235933492957	1.944854	1.3945802
34.31070172940526	2.0373325	1.4273516
34.32904503027003	1.9959782	1.4127909
34.347389238128386	2.0257924	1.4233034
34.36573435358502	2.014737	1.4194143
34.38408037724492	1.9449046	1.3945984
34.402427309713296	1.8705595	1.367684
34.42077515159559	1.9756634	1.4055829
34.43912390349752	1.9973905	1.4132906
34.45747356602499	1.9901114	1.4107131
34.47582413978423	1.8939437	1.3762063
34.49417562538163	1.784307	1.3357795
34.51252802342388	1.705383	1.3059031
34.53088133451789	1.7574111	1.3256738
34.54923555927084	1.8862597	1.3734117
34.567590698290104	1.9901872	1.4107399
34.58594675218336	1.9368695	1.3917146
34.6043037215585	1.9630003	1.4010711
34.62266160702365	1.906821	1.3808769
34.641020409187234	1.9156796	1.3840808
34.65938012865785	2.039608	1.4281485
34.677740766044394	2.045415	1.4301801
34.69610232195598	2.0273855	1.4238628
34.714464797002016	1.9410598	1.3932192
34.73282819179208	1.6640235	1.2899704
34.751192506936064	1.7702496	1.3305073
34.76955774304408	2.0891674	1.4453952
34.7879239007265	2.0988457	1.4487394
34.80629098059391	1.9695619	1.4034108
34.824658983257194	1.9556975	1.3984625
34.843027909327446	2.0575488	1.4344158
34.86139775941603	2.1021795	1.4498895
34.879768534134534	2.203853	1.484538
34.89814023409483	2.247078	1.4990257
34.91651285990901	2.094256	1.4471544
34.93488641218944	2.0102243	1.4178238
34.95326089154871	1.8697923	1.3674035
34.97163629859967	1.812858	1.3464241
34.99001263395542	1.8283033	1.3521477
35.00838989822934	1.8735688	1.3687837
35.02676809203499	1.7789074	1.3337569
35.04514721598624	1.6438396	1.2821231
35.063527270697215	1.5376023	1.240001
35.081908256782256	1.6626079	1.2894216
35.10029017485597	2.0388741	1.4278915
35.11867302553321	2.2604809	1.5034896
35.137056809429104	2.004993	1.4159777
35.155441527159006	1.9021163	1.3791723
35.173827179338524	1.7230542	1.3126516
35.19221376658354	1.6409594	1.2809994
35.21060128951017	1.9006634	1.3786455
35.2289897487348	2.3075628	1.5190665
35.24737914487405	2.3541925	1.5343378
35.26576947854479	2.125522	1.457917
35.28416075036418	1.8457537	1.3585851
35.30255296094958	2.013238	1.4188862
35.32094611091867	2.206529	1.485439
35.33934020088932	2.274827	1.508253
35.35773523147969	2.3958697	1.5478597
35.3761312033082	2.2706046	1.5068525
35.394528116993506	2.255994	1.5019968
35.41292597315452	2.6034536	1.6135222
35.431324772410434	2.6572864	1.6301185
35.449724515380666	2.0649526	1.4369943
35.46812520268491	1.8288022	1.3523321
35.486526834943106	2.0136714	1.4190389
35.504929412775454	1.9194514	1.3854426
35.52333293680242	1.7287428	1.3148167
35.54173740764471	1.9092891	1.3817703
35.560142825923286	1.7971878	1.3405924
35.5785491922594	2.093949	1.4470484
35.59695650727454	2.6542363	1.6291827
35.61536477159042	2.8211615	1.6796314
