0.008763373481513119	0.0	0.0
0.026290120649546365	0.14626539	0.3824466
0.043816868432600686	0.25730166	0.5072491
0.06134361724069026	0.20308761	0.45065242
0.07887036748382949	0.19298321	0.43929854
0.0963971195720331	0.09326613	0.30539504
0.11392387391531617	0.106907666	0.3269674
0.1314506309236943	0.080030754	0.28289708
0.1489773910071836	0.09231204	0.30382895
0.16650415457580078	0.105368	0.3246044
0.18403092203956356	0.1778916	0.42177197
0.20155769380849	0.18737958	0.43287364
0.2190844702925996	0.17074993	0.41321898
0.2366112519019124	0.1438688	0.37930042
0.2541380390464497	0.21398748	0.4625878
0.27166483213623416	0.21048221	0.4587834
0.28919163158128947	0.2448088	0.49478155
0.3067184377916406	0.18309957	0.42790136
0.324245251177314	0.13937274	0.37332657
0.34177207214833777	0.1315799	0.36273944
0.3592989011147415	0.09812419	0.3132478
0.37682573848655654	0.093167394	0.30523333
0.39435258467381573	0.09085055	0.30141425
0.41187944008655414	0.1061332	0.3257809
0.42940630513480854	0.12000956	0.34642395
0.446933180228618	0.13985391	0.37397048
0.4644600657780234	0.13148119	0.36260334
0.48198696219306775	0.13487351	0.36725128
0.49951386988379676	0.16406457	0.40504885
0.5170407892602581	0.18530351	0.43046895
0.5345677207325025	0.20555063	0.45337692
0.5520946647105822	0.21674536	0.46555918
0.5696216216045534	0.22692169	0.47636297
0.5871485918244737	0.22488904	0.4742247
0.6046755757804043	0.15649243	0.39559123
0.6222025738824094	0.11484878	0.33889347
0.6397295865405557	0.098880954	0.31445342
0.6572566141649129	0.16133249	0.40166217
0.6747836571655547	0.16796844	0.40983954
0.6923107159525568	0.17358159	0.41663122
0.7098377909359992	0.18118465	0.4256579
0.7273648825259653	0.2106962	0.45901656
0.7448919911325411	0.2555875	0.5055566
0.762419117165817	0.25536484	0.50533634
0.7799462610358868	0.21840316	0.46733624
0.7974734231528482	0.20193143	0.44936782
0.8150006039268024	0.1686347	0.41065156
0.8325278037678551	0.14373507	0.37912408
0.8500550230861152	0.15718211	0.396462
0.8675822622916969	0.193417	0.439792
0.8851095217947171	0.20334503	0.45093796
0.9026368020052984	0.22057895	0.46965834
0.9201641033335665	0.21325229	0.46179247
0.9376914261896523	0.19955204	0.4467125
0.9552187709836915	0.16836962	0.4103287
0.9727461381258234	0.1979834	0.44495326
0.990273528026193	0.24877684	0.49877533
1.0078009410949496	0.28291693	0.5318994
1.0253283777422473	0.31689063	0.5629304
1.0428558383782454	0.30032566	0.54801977
1.0603833234131086	0.3359468	0.57960916
1.0779108332570058	0.3532282	0.5943301
1.0954383683201119	0.35483643	0.5956815
1.112965929012607	0.33931273	0.5825056
1.1304935157446763	0.46662387	0.68309873
1.1480211289265108	0.5067821	0.7118863
1.1655487689683062	1.3597261	1.166073
1.1830764362802655	1.6923219	1.3008927
1.200604131272596	2.1452827	1.4646784
1.2181318543555117	2.4263308	1.5576683
1.235659605939232	2.4876318	1.5772228
1.253187386433982	4.030156	2.007525
1.270715196249994	6.5299597	2.5553787
1.2882430357975057	12.031492	3.4686441
1.3057709054867608	16.94225	4.1160965
1.3232988057280106	22.469131	4.7401614
1.3408267369315112	27.284782	5.2234836
1.358354699507526	30.741634	5.5445137
1.3758826938663256	34.926044	5.9098263
1.3934107204181858	36.8418	6.0697446
1.410938779573391	37.14143	6.094377
1.4284668717422309	37.705524	6.1404824
1.4459949973350033	37.465363	6.1208954
1.4635231567620117	37.707504	6.1406436
1.4810513504335687	37.067722	6.088327
1.4985795787599925	36.633648	6.0525737
1.5161078421516088	35.984623	5.9987183
1.5336361410187505	35.156284	5.9292736
1.5511644757717598	35.12589	5.9267097
1.5686928468209842	35.396763	5.9495177
1.58622125457678	36.066605	6.005548
1.6037496994495108	37.26239	6.104293
1.621278181849548	37.142406	6.094457
1.6388067021872719	38.064285	6.169626
1.6563352608730693	37.566162	6.129124
1.673863858317336	36.725273	6.060138
1.6913924949304753	35.94563	5.995467
1.7089211711228998	34.32925	5.859117
1.7264498873050296	33.65155	5.800996
1.7439786438872935	32.94626	5.739883
1.7615074412801288	31.829418	5.6417565
1.779036279893981	31.302053	5.594824
1.796565160139305	30.392876	5.5129733
1.814094082426564	29.956564	5.473259
1.8316230471662298	29.216328	5.405213
1.849152054768784	28.523617	5.3407507
1.8666811056447168	28.184689	5.308925
1.8842102002045273	27.477718	5.2419195
1.901739338858724	26.738634	5.1709414
1.9192685220178245	25.800247	5.0793943
1.9367977500923557	24.93242	4.9932375
1.9543270234928547	24.339394	4.933497
1.971856342629867	23.812298	4.8797846
1.9893857079139496	23.473541	4.84495
2.006915119755667	22.630083	4.7571087
2.0244445785655945	22.091015	4.700108
2.0419740847543175	21.609596	4.6486125
2.0595036387324317	21.300398	4.6152353
2.0770332409105414	20.961535	4.578377
2.094562891699263	20.666754	4.54607
2.1120925915092217	20.119877	4.4855185
2.129622340751053	20.135277	4.487235
2.1471521398354043	188.33446	13.7235
2.1646819891729323	444.83865	21.091198
2.182211889174303	441.00687	21.000164
2.1997418402501974	453.19077	21.288279
2.2172718428113023	432.95898	20.807667
2.234801897268317	320.81354	17.911268
2.2523320040319548	17.14026	4.14008
2.269862163512935	16.927849	4.1143465
2.287392376121992	16.506247	4.062788
2.304922642269869	16.28468	4.035428
2.322452962367322	15.972091	3.9965098
2.3399833368251164	15.869922	3.983707
2.357513766054032	15.646102	3.9555154
2.3750442504648586	15.5571375	3.9442537
2.3925747904683963	15.339653	3.9165869
2.410105386475459	15.106042	3.8866491
2.4276360388968707	14.75475	3.8411913
2.445166748143469	14.548354	3.8142304
2.4626975146261025	14.2165985	3.7704904
2.4802283387556323	13.811632	3.7164004
2.4977592209429305	13.514235	3.676171
2.5152901615988825	13.131548	3.6237478
2.5328211611343865	13.07752	3.6162853
2.5503522199603523	12.899723	3.5916185
2.5678833384877024	12.629688	3.5538273
2.5854145171273712	12.421233	3.524377
2.6029457562903064	12.213545	3.4947882
2.620477056387469	12.036501	3.469366
2.6380084178298326	11.901191	3.4498103
2.655539841028383	11.592432	3.404766
2.673071326394119	11.384357	3.3740714
2.6906028743380523	11.206901	3.347671
2.708134485271211	11.136987	3.3372123
2.7256661596046325	10.951874	3.3093615
2.743197897749369	10.621289	3.259032
2.760729700116486	10.534372	3.2456698
2.778261567117063	10.372583	3.2206495
2.795793499162193	10.283971	3.2068632
2.8133254966629817	10.2622595	3.2034762
2.830857560030551	10.077618	3.1745265
2.8483896896760337	10.05183	3.1704621
2.865921886010578	9.681298	3.1114786
2.883454149445347	9.531622	3.0873325
2.9009864803915177	9.341399	3.0563703
2.91851887926028	9.264448	3.0437555
2.9360513464628384	9.254838	3.0421765
2.953583882410413	9.193734	3.0321171
2.9711164875142373	9.010428	3.0017376
2.9886491621855606	8.85193	2.9752192
3.0061819068356455	8.780366	2.9631681
3.023714721875769	8.702109	2.9499338
3.041247607717225	8.590056	2.9308798
3.0587805647713213	8.461932	2.90894
3.0763135934493806	8.409772	2.8999608
3.0938466941627407	8.422434	2.902143
3.1113798673227544	8.33901	2.8877344
3.1289131133407904	8.180848	2.8602183
3.1464464326282315	7.9857163	2.825901
3.1639798255964786	7.827108	2.7976968
3.1815132926569443	7.638254	2.763739
3.1990468342210603	7.575906	2.7524364
3.216580450700272	7.4948797	2.7376778
3.2341141425060416	7.446252	2.7287822
3.251647910049847	7.362173	2.7133324
3.2691817537431813	7.195485	2.68244
3.286715673997555	7.060603	2.6571796
3.3042496712244938	7.193248	2.682023
3.32178374583554	7.2081747	2.6848044
3.339317898242251	7.123813	2.6690474
3.3568521288562034	6.955799	2.637385
3.3743864380889876	6.863648	2.6198564
3.3919208263522127	6.793874	2.606506
3.4094552940575023	6.66882	2.5824058
3.4269898416164972	6.568326	2.5628746
3.444524469440858	6.4700747	2.5436342
3.4620591779422587	6.417991	2.5333755
3.479593967532391	6.4206347	2.5338972
3.4971288386229658	6.412487	2.5322888
3.5146637916257086	6.385964	2.5270464
3.5321988269523628	6.3642373	2.522744
3.5497339450146903	6.3193307	2.5138278
3.5672691462244708	6.3330746	2.51656
3.5848044309934988	6.3842883	2.526715
3.60233979973359	6.4424176	2.5381918
3.619875252856575	6.5096684	2.5514052
3.6374107907743034	6.442532	2.5382144
3.6549464138986427	6.447316	2.5391567
3.6724821226414788	6.3518705	2.5202918
3.690017917414714	6.2980766	2.5095968
3.7075537986302702	6.3384366	2.517625
3.7250897667000857	6.4364767	2.5370212
3.7426258220361235	6.526122	2.5546277
3.7601619650503553	6.8405538	2.6154451
3.777698196154779	7.399366	2.7201777
3.7952345157614067	8.428997	2.9032736
3.8127709242822716	9.323868	3.053501
3.830307422129425	11.385565	3.3742502
3.847844009714936	30.161945	5.491989
3.8653806874508954	97.65264	9.881935
3.882917455749409	97.05864	9.851834
3.900454315022606	96.86635	9.842071
3.917991265682631	41.37916	6.4326634
3.9355283081416506	10.992865	3.315549
3.9530654428118495	8.738245	2.9560523
3.970602670105433	7.47742	2.734487
3.9881399904346244	6.6008463	2.5692112
4.005677404211669	6.4763927	2.5448759
4.023214911848827	6.394979	2.5288296
4.0407525137583855	6.441135	2.537939
4.058290210352644	6.4257693	2.5349102
4.075828002043927	6.383733	2.526605
4.0933658892445814	6.286698	2.5073287
4.110903872366966	6.2351055	2.4970193
4.128441951823468	6.167546	2.4834545
4.145980128026488	6.169237	2.483795
4.163518401388452	6.167261	2.483397
4.181056772321807	6.182654	2.4864943
4.1985952412390155	6.1883793	2.4876454
4.216133808552567	6.178833	2.4857259
4.233672474674966	6.294615	2.508907
4.251211240018741	6.5059342	2.5506732
4.268750104996445	6.7693157	2.601791
4.286289070020643	7.664477	2.768479
4.303828135503928	9.231733	3.0383768
4.3213673018589125	29.464952	5.428163
4.3389065694982305	90.5678	9.516712
4.356445938834537	165.8596	12.878649
4.3739854102805085	171.37518	13.091035
4.391524984248844	172.28844	13.125869
4.409064661152262	136.25565	11.672859
4.426604441403504	96.709564	9.834102
4.444144325415337	75.671616	8.698943
4.461684313600543	21.742458	4.662881
4.47922440637193	22.095297	4.7005634
4.496764604142329	20.583073	4.536857
4.5143049073245916	18.89225	4.3465214
4.531845316331589	16.75062	4.092752
4.5493858315762195	13.77041	3.7108502
4.566926453471405	11.376988	3.3729792
4.584467182430081	9.280743	3.046431
4.602008018865218	8.145145	2.85397
4.619548963189798	7.3545833	2.7119334
4.637090015816834	6.8452706	2.6163468
4.654631177159353	6.5974655	2.5685532
4.672172447630417	6.3515825	2.5202346
4.689713827643102	6.207716	2.4915287
4.7072553176105085	6.0078745	2.4510965
4.724796917945764	5.817147	2.4118762
4.742338629062015	5.7675653	2.4015756
4.759880451372434	5.700337	2.387538
4.777422385290215	5.68834	2.385024
4.794964431228581	5.6121964	2.3690076
4.812506589600768	5.5775375	2.361681
4.830048860820047	5.6323614	2.3732595
4.847591245299709	5.73077	2.3939028
4.8651337434530655	5.6951313	2.3864474
4.882676355693457	5.677962	2.3828473
4.900219082434242	5.758064	2.3995967
4.917761924088813	5.765715	2.4011903
4.935304881070575	5.7143264	2.3904657
4.952847953792969	5.5624747	2.35849
4.970391142669449	5.433176	2.3309174
4.9879344481135055	5.37712	2.3188617
5.005477870538642	5.351366	2.313302
5.023021410358394	5.3624516	2.3156967
5.040565067986324	5.3721566	2.3177912
5.05810884383601	5.4010954	2.3240256
5.075652738321066	5.3908343	2.321817
5.09319675185512	5.371068	2.3175564
5.110740884851836	5.344627	2.3118448
5.128285137724894	5.394245	2.3225515
5.145829510888007	5.3466234	2.3122766
5.163374004754908	5.4344416	2.331189
5.1809186197393595	5.4774737	2.3404002
5.198463356255145	5.4848285	2.3419712
5.216008214716077	5.416005	2.3272312
5.233553195535998	5.274913	2.296718
5.251098299128764	5.2376676	2.2885952
5.268643525908272	5.274228	2.2965689
5.286188876288432	5.300017	2.3021765
5.3037343506831895	5.348445	2.3126705
5.32127994950651	5.348131	2.3126028
5.3388256731723915	5.4144473	2.3268964
5.356371522094851	5.466541	2.3380635
5.373917496687938	5.4255733	2.329286
5.391463597365729	5.3689094	2.3170907
5.40900982454232	5.280593	2.297954
5.426556178631843	5.2645693	2.2944648
5.444102660048449	5.2886314	2.2997024
5.4616492692063225	5.23124	2.2871904
5.479196006519669	5.166751	2.2730489
5.496742872402727	5.0990543	2.2581086
5.514289867269756	5.138618	2.266852
5.531836991535049	5.176505	2.2751935
5.549384245612924	5.2314916	2.2872455
5.566931629917724	5.221125	2.2849782
5.584479144863822	5.2244954	2.2857156
5.6020267908656205	5.2383018	2.2887337
5.619574568337545	5.1595225	2.2714581
5.637122477694054	5.1039996	2.2592032
5.654670519349629	5.153032	2.270029
5.672218693718784	5.1239	2.2636032
5.689767001216059	5.176422	2.275175
5.707315442256021	5.1471343	2.2687297
5.724864017253266	5.1830096	2.2766225
5.7424127266224225	5.249855	2.2912562
5.75996157077814	5.2765827	2.2970812
5.777510550135105	5.3044605	2.3031414
5.795059665108022	5.3122673	2.3048356
5.812608916111639	5.311593	2.3046894
5.830158303560715	5.3392124	2.3106735
5.847707827870055	5.355183	2.314127
5.86525748945448	5.404216	2.324697
5.8828072887288485	5.58218	2.3626637
5.900357226108044	5.635932	2.3740118
5.917907302006979	5.651274	2.377241
5.9354575168406	6.191751	2.488323
5.9530078710238765	6.8258824	2.612639
5.970558364971812	7.520989	2.7424421
5.988108999099438	7.8297725	2.798173
6.005659773821818	8.285513	2.8784566
6.023210689554039	7.942232	2.8181965
6.040761746711227	8.3459635	2.8889382
6.058312945708531	7.793093	2.7916112
6.075864286961132	7.3310084	2.7075834
6.093415770884244	6.6893344	2.5863748
6.1109673978931065	6.1012225	2.4700654
6.128519168402993	5.5213003	2.3497448
6.146071082829204	5.327413	2.308119
6.163623141587075	5.257237	2.2928665
6.181175345091969	5.273674	2.2964482
6.198727693759281	5.285798	2.2990863
6.216280188004435	5.2520423	2.2917335
6.233832828242885	5.18981	2.2781155
6.251385614890126	5.1522408	2.2698548
6.268938548361669	5.124257	2.2636821
6.286491629073067	5.07154	2.252008
6.304044857439898	5.1409397	2.267364
6.321598233877777	5.179647	2.2758837
6.339151758802344	5.162804	2.2721806
6.356705432629277	5.083374	2.254634
6.37425925577428	4.993694	2.2346575
6.391813228653095	4.9714255	2.2296693
6.409367351681486	4.9550495	2.225994
6.426921625275259	5.016068	2.239658
6.44447604985025	5.0311365	2.2430196
6.46203062582232	5.0184307	2.2401855
6.47958535360737	5.0129695	2.2389662
6.497140233621328	4.998493	2.2357311
6.514695266280161	4.967362	2.2287579
6.532250451999859	4.90495	2.2147121
6.549805791196454	4.9078717	2.2153716
6.567361284286002	4.9734282	2.2301185
6.584916931684597	5.066374	2.2508607
6.602472733808367	5.0519967	2.2476647
6.6200286910734665	5.0334163	2.2435277
6.637584803896092	5.0179143	2.24007
6.655141072692462	5.0668383	2.250964
6.672697497878842	5.0975676	2.2577794
6.690254079871514	5.0632906	2.2501757
6.707810819086808	5.0653358	2.2506301
6.725367715941078	5.0255194	2.241767
6.742924770850719	5.0379696	2.2445421
6.760481984232151	5.005369	2.2372682
6.778039356501836	4.9893236	2.2336793
6.795596888076266	5.074458	2.2526557
6.813154579371963	5.106952	2.2598567
6.830712430805492	5.1190877	2.26254
6.84827044279344	5.0561457	2.2485874
6.865828615752445	5.0109324	2.2385113
6.883386950099159	4.985939	2.2329216
6.900945446250287	5.0275593	2.242222
6.918504104622553	5.070403	2.2517555
6.936062925632727	5.117454	2.2621791
6.953621909697607	5.171489	2.2740908
6.971181057234028	5.2497554	2.2912345
6.988740368658859	5.2452955	2.290261
7.006299844389007	5.2338357	2.2877579
7.023859484841407	5.1742887	2.2747064
7.041419290433036	5.3143697	2.3052917
7.058979261580902	5.448879	2.3342834
7.0765393987020495	5.70322	2.3881416
7.094099702213559	6.0519276	2.4600666
7.111660172532549	6.4354997	2.5368288
7.129220810076164	6.8607106	2.6192958
7.146781615261595	7.4698815	2.7331085
7.16434258850606	7.7064853	2.7760558
7.181903730226821	8.138883	2.8528726
7.1994650408411704	8.208156	2.8649879
7.217026520766437	8.288934	2.8790507
7.234588170419983	8.490933	2.9139206
7.252149990219215	8.4340725	2.9041474
7.269711980581568	8.449114	2.906736
7.2872741419245175	8.251544	2.87255
7.304836474665574	7.8967543	2.8101165
7.322398979222286	7.5195518	2.74218
7.339961656012233	7.2090034	2.6849587
7.357524505453039	6.8329134	2.613984
7.375087527962357	6.524635	2.5543365
7.392650723957886	6.29324	2.5086331
7.410214093857353	5.893477	2.4276485
7.427777638078528	5.6928573	2.3859708
7.445341357039213	5.5784597	2.3618762
7.4629052511572525	5.5337143	2.3523848
7.480469320850524	5.4529853	2.3351629
7.498033566536948	5.3507385	2.3131664
7.5155979886344735	5.245427	2.2902896
7.5331625875610975	5.2184205	2.2843862
7.550727363734844	5.2381263	2.2886953
7.568292317573788	5.2088137	2.2822826
7.585857449496025	5.136882	2.266469
7.603422759919705	5.081245	2.2541616
7.620988249263007	5.111474	2.2608569
7.638553917944147	5.170479	2.2738688
7.656119766381391	5.249894	2.2912648
7.673685794993023	5.2708426	2.2958314
7.691252004197388	5.2577252	2.292973
7.70881839441285	5.244214	2.290025
7.726384966057826	5.2086544	2.2822478
7.743951719550762	5.2576413	2.2929547
7.761518655310149	5.24486	2.290166
7.779085773754511	5.2973633	2.3016002
7.796653075302419	5.292992	2.3006504
7.814220560372475	5.3120747	2.3047938
7.831788229383323	5.3186445	2.3062186
7.8493560827536495	5.307308	2.3037596
7.866924120902174	5.3386254	2.3105466
7.884492344247663	5.402276	2.3242798
7.9020607532089135	5.3897943	2.321593
7.919629348204771	5.41616	2.3272645
7.937198129654115	5.408862	2.325696
7.954767097975865	5.421112	2.3283281
7.972336253588986	5.442195	2.3328512
7.989905596912472	5.457958	2.3362274
8.007475128365371	5.524789	2.350487
8.025044848366756	5.551512	2.3561647
8.042614757335754	5.6858563	2.3845034
8.060184855691523	5.8055925	2.4094796
8.07775514385327	5.9530406	2.4398854
8.095325622240228	5.9618998	2.4417002
8.112896291271687	5.98028	2.445461
8.130467151366968	5.979401	2.4452815
8.148038202945436	5.9575844	2.4408164
8.165609446426497	5.884126	2.425722
8.183180882229594	5.9287395	2.4349003
8.200752510774217	5.936461	2.4364853
8.218324332479893	6.0061817	2.4507513
8.235896347766193	5.976869	2.4447637
8.253468557052724	6.0265884	2.454911
8.27104096075914	6.049314	2.4595354
8.288613559305137	6.152204	2.4803636
8.306186353110448	6.2224593	2.4944859
8.32375934259485	6.3269477	2.5153425
8.341332528178162	6.2640853	2.5028155
8.358905910280246	6.2518806	2.500376
8.376479489321003	6.295972	2.5091774
8.394053265720377	6.3918314	2.528207
8.411627239898356	6.4319468	2.5361283
8.42920141227497	6.402618	2.5303395
8.44677578327029	6.3280864	2.5155687
8.464350353304427	6.2735343	2.5047023
8.48192512279754	6.2346025	2.4969187
8.499500092169827	6.203668	2.4907165
8.51707526184153	6.185796	2.487126
8.534650632232934	6.2494597	2.499892
8.552226203764365	6.2629805	2.5025947
8.569801976856192	6.269468	2.5038905
8.587377951928834	6.2402964	2.4980586
8.60495412940274	6.30402	2.5107808
8.622530509698416	6.3459454	2.519116
8.6401070932364	6.475564	2.544713
8.657683880437283	6.5523534	2.5597565
8.675260871721695	6.740051	2.596161
8.692838067510303	6.962876	2.6387262
8.710415468223834	7.1614523	2.676089
8.727993074283043	7.251823	2.692921
8.745570886108737	7.299287	2.7017193
8.763148904121765	7.2796946	2.6980908
8.78072712874302	7.267851	2.6958952
8.798305560393441	7.4419727	2.727998
8.815884199494006	7.5546327	2.7485693
8.833463046465745	7.749326	2.7837613
8.851042101729728	7.979827	2.8248587
8.86862136570707	8.338836	2.8877041
8.886200838818924	8.443231	2.9057238
8.903780521486505	8.415347	2.9009218
8.921360414131055	8.454906	2.9077322
8.938940517173874	8.62065	2.9360943
8.956520831036297	8.719116	2.952815
8.97410135613971	8.961713	2.993612
8.99168209290554	9.094005	3.0156267
9.009263041755265	9.457478	3.0753012
9.026844203110405	9.759427	3.1240082
9.044425577392525	9.995518	3.1615689
9.062007165023239	10.090514	3.176557
9.079588966424197	10.329948	3.2140238
9.097170982017108	10.409837	3.2264278
9.11475321222372	11.381485	3.3736455
9.132335657465825	12.380752	3.5186293
9.149918318165264	12.494139	3.534705
9.167501194743924	12.971205	3.6015558
9.18508428762374	12.561195	3.5441778
9.202667597226693	12.509598	3.536891
9.220251123974803	12.199227	3.4927392
9.237834868290143	11.971255	3.4599502
9.255418830594836	11.805037	3.4358459
9.273003011311046	11.320485	3.3645928
9.290587410860985	11.035238	3.3219328
9.308172029666911	10.451055	3.232809
9.32575686815113	10.128112	3.1824694
9.343341926735997	8.871535	2.9785123
9.360927205843916	8.616856	2.9354482
9.378512705897327	8.380288	2.8948727
9.396098427318728	8.180449	2.8601484
9.413684370530664	8.05043	2.837328
9.431270535955722	8.035776	2.8347445
9.448856924016539	7.966711	2.8225362
9.466443535135806	7.7799373	2.789254
9.484030369736251	7.7592206	2.7855377
9.501617428240658	7.754234	2.7846425
9.519204711071852	7.7935967	2.7917013
9.536792218652714	7.8059006	2.793904
9.55437995140617	7.8250175	2.7973232
9.571967909755191	7.8761244	2.8064435
9.589556094122802	7.920296	2.814302
9.60714450493207	7.8958526	2.809956
9.624733142606116	7.8834295	2.8077445
9.642322007568108	7.8994784	2.810601
9.659911100241267	7.957037	2.820822
9.677500421048851	8.066121	2.8400917
9.695089970414175	8.117777	2.8491712
9.712679748760609	8.073519	2.8413937
9.730269756511557	8.056183	2.8383415
9.747859994090492	8.074821	2.841623
9.765450461920915	8.203113	2.8641076
9.78304116042639	8.268622	2.8755212
9.800632090030527	8.309192	2.882567
9.81822325115699	8.2900915	2.879252
9.835814644229481	8.338554	2.8876555
9.853406269671762	8.369068	2.892934
9.870998127907646	8.3917465	2.896851
9.888590219360985	8.399755	2.898233
9.906182544455698	8.361546	2.8916337
9.923775103615734	8.394731	2.897366
9.941367897265108	8.400572	2.898374
9.958960925827878	8.4472685	2.9064186
9.97655418972816	8.468396	2.9100509
9.994147689390106	8.539168	2.9221857
10.011741425237934	8.486965	2.9132397
10.029335397695904	8.379622	2.8947577
10.04692960718833	8.300469	2.8810534
10.06452405413958	8.226637	2.8682115
10.082118738974064	8.22409	2.8677673
10.099713662116246	8.27059	2.8758633
10.117308823990651	8.2646885	2.8748372
10.134904225021844	8.26813	2.8754356
10.152499865634445	8.26188	2.8743486
10.170095746253125	8.283278	2.8780684
10.18769186730261	8.297448	2.8805292
10.205288229207675	8.313039	2.883234
10.222884832393145	8.3584795	2.8911035
10.2404816772839	8.32168	2.8847322
10.258078764304868	8.3492985	2.8895152
10.275676093881035	8.278338	2.8772101
10.293273666437438	8.219897	2.8670363
10.310871482399158	8.192148	2.8621929
10.32846954219134	8.11612	2.8488805
10.346067846239173	8.099278	2.8459232
10.363666394967908	8.017592	2.8315353
10.38126518880283	8.1068945	2.847261
10.398864228169298	8.2177	2.8666532
10.416463513492713	8.284737	2.878322
10.434063045198531	8.280104	2.877517
10.451662823712262	8.265135	2.8749146
10.469262849459467	8.351818	2.8899512
10.486863122865758	8.279514	2.8774145
10.504463644356806	8.200661	2.8636796
10.522064414358338	8.064353	2.8397803
10.539665433296118	7.986927	2.8261151
10.557266701595987	7.9434776	2.8184175
10.574868219683818	7.8979053	2.8103213
10.592469987985552	7.7796826	2.7892082
10.610072006927185	7.737218	2.7815855
10.627674276934751	7.611386	2.758874
10.64527679843435	7.4479575	2.7290947
10.662879571852143	7.3168836	2.704974
10.680482597614331	7.218951	2.6868105
10.698085876147173	7.165887	2.6769173
10.715689407876988	7.0702744	2.6589987
10.733293193230146	6.9664383	2.6394012
10.750897232633072	6.825635	2.6125915
10.76850152651225	6.7347407	2.5951378
10.786106075294207	6.5510297	2.5594978
10.803710879405534	6.495144	2.5485573
10.821315939272877	6.428932	2.535534
10.83892125532294	6.3758354	2.5250416
10.856526827982472	6.2577124	2.501542
10.874132657678285	6.2365875	2.4973161
10.891738744837243	6.2308683	2.4961708
10.909345089886271	6.2019315	2.4903677
10.926951693252343	6.110588	2.4719603
10.944558555362494	6.0491867	2.4595094
10.96216567664381	5.950179	2.4392989
10.979773057523436	5.944883	2.438213
10.997380698428573	5.8778777	2.4244335
11.014988599786477	5.8053885	2.4094374
11.032596762024461	5.649866	2.3769448
11.050205185569892	5.5552545	2.3569586
11.067813870850198	5.517183	2.3488684
11.085422818292859	5.50777	2.346864
11.10303202832541	5.473687	2.3395913
11.120641501375454	5.454878	2.335568
11.138251237870636	5.434338	2.3311667
11.155861238238671	5.3852863	2.320622
11.173471502907317	5.247161	2.2906682
11.191082032304402	5.1398897	2.2671325
11.208692826857805	5.074457	2.2526555
11.226303886995465	5.00998	2.2382984
11.243915213145371	4.9521813	2.2253497
11.261526805735578	4.866464	2.2060063
11.279138665194196	4.903167	2.2143095
11.296750791949393	4.9382734	2.2222226
11.314363186429393	4.92366	2.2189322
11.331975849062479	4.863132	2.205251
11.34958878027699	4.801205	2.1911652
11.36720198050133	4.734078	2.1757936
11.384815450163948	4.625763	2.1507587
11.402429189693366	4.561546	2.1357775
11.420043199518153	4.492937	2.119655
11.437657480066942	63.456253	7.9659433
11.455272031768422	85.20386	9.230594
11.472886855051353	107.59892	10.37299
11.490501950344528	99.16729	9.958278
11.508117318076819	84.46424	9.190443
11.52573295867715	45.854614	6.7716036
11.543348872574514	4.202389	2.0499728
11.560965060197946	4.1697273	2.041991
11.57858152197655	4.1520247	2.0376518
11.59619825833949	4.0975747	2.0242467
11.613815269715985	4.067004	2.0166814
11.631432556535323	38.54719	6.2086387
11.649050119226837	83.055084	9.113456
11.666667958219929	93.44521	9.666706
11.68428607394406	107.73146	10.379376
11.701904466828756	82.5687	9.086732
11.719523137303586	65.4421	8.089629
11.737142085798196	4.6684794	2.1606665
11.754761312742286	3.783707	1.9451753
11.772380818565619	3.7046435	1.9247451
11.790000603698015	3.6506355	1.9106636
11.80762066856935	3.630495	1.9053859
11.825241013609572	3.6082993	1.8995523
11.842861639248683	3.644088	1.9089495
11.860482545916748	3.6242101	1.9037359
11.878103734043883	3.584215	1.8932023
11.895725204060282	3.4847555	1.86675
11.91334695639619	3.4524775	1.8580843
11.930968991481919	3.388861	1.8408859
11.948591309747824	3.352928	1.8311002
11.966213911624347	3.3067658	1.8184515
11.98383679754198	3.2883244	1.8133738
12.001459967931268	3.3171282	1.8212985
12.019083423222835	3.259449	1.8053944
12.036707163847352	3.2227802	1.7952104
12.05433119023556	3.182079	1.7838383
12.071955502818259	3.141038	1.7722974
12.089580102026313	3.155789	1.776454
12.107204988290643	3.153903	1.7759231
12.12483016204224	3.1417837	1.7725078
12.142455623712152	3.1070247	1.7626754
12.16008137373149	3.0758297	1.7538043
12.177707412531431	3.0464773	1.745416
12.19533374054321	3.0118506	1.7354684
12.212960358198126	2.9949377	1.7305888
12.230587265927545	3.0056238	1.7336735
12.248214464162889	2.9947486	1.7305342
12.265841953335649	2.9960883	1.7309213
12.283469733877375	2.9924717	1.7298762
12.301097806219685	2.9739578	1.7245166
12.31872617079425	2.953463	1.7185643
12.336354828032825	2.9161315	1.7076684
12.353983778367205	2.9079783	1.7052796
12.371613022229262	2.9004724	1.7030773
12.389242560050928	2.9008288	1.703182
12.406872392264201	2.8782105	1.6965289
12.424502519301143	2.838808	1.6848763
12.442132941593874	2.8535407	1.6892426
12.459763659574586	2.8938966	1.7011456
12.477394673675532	2.9147232	1.7072561
12.49502598432903	2.9143207	1.7071382
12.51265759196746	2.8952336	1.7015386
12.530289497023267	2.8200493	1.6793002
12.547921699928967	2.776229	1.666202
12.565554201117134	2.801576	1.6737909
12.583187001020404	2.8365848	1.6842164
12.600820100071486	2.8204436	1.6794176
12.618453498703152	2.8115075	1.6767551
12.636087197348235	2.8146935	1.6777048
12.65372119643964	2.8449433	1.6866959
12.671355496410326	2.8397486	1.6851554
12.68899009769333	2.802071	1.6739388
12.706625000721749	2.7932303	1.671296
12.724260205928752	2.855001	1.6896749
12.741895713747551	2.9111655	1.7062138
12.759531524611454	2.9874494	1.728424
12.777167638953818	3.0137577	1.7360178
12.794804057208072	3.0224001	1.7385051
12.812440779807702	3.0587778	1.7489362
12.830077807186271	3.225221	1.79589
12.847715139777405	3.2732732	1.809219
12.865352778014795	3.5085783	1.87312
12.882990722332197	3.6034505	1.8982757
12.90062897316344	3.6791754	1.9181176
12.918267530942412	3.7463365	1.9355456
12.935906396103071	3.6396873	1.9077965
12.953545569079449	3.8332129	1.9578593
12.971185050305628	3.660217	1.9131694
12.988824840215775	3.6665497	1.9148237
13.006464939244115	3.6617713	1.9135755
13.024105347824943	3.472055	1.8633451
13.041746066392617	3.522835	1.8769217
13.05938709538157	3.3210678	1.8223797
13.077028435226296	3.4144711	1.8478287
13.094670086361363	3.3588183	1.8327079
13.112312049221401	3.2637014	1.8065717
13.129954324241112	3.1188238	1.7660192
13.147596911855258	2.9385912	1.714232
13.165239812498685	2.9103045	1.7059615
13.182883026606293	2.8302531	1.6823356
13.200526554613058	2.7409859	1.6555923
13.218170396954017	2.6744893	1.6353866
13.235814554064284	2.6798174	1.6370147
13.253459026379034	2.695364	1.6417564
13.271103814333523	2.6808927	1.6373432
13.288748918363058	2.660644	1.6311481
13.306394338903031	2.6293626	1.6215309
13.32404007638889	2.6743863	1.6353551
13.341686131256164	2.6709821	1.634314
13.359332503940449	2.657294	1.6301209
13.376979194877402	2.6246295	1.6200708
13.394626204502751	2.698481	1.6427054
13.412273533252307	2.7561142	1.6601549
13.429921181561937	2.736101	1.6541164
13.447569149867581	2.7369277	1.6543663
13.465217438605247	2.7254117	1.6508821
13.482866048211022	2.7239003	1.6504242
13.500514979121052	2.7113793	1.6466266
13.518164231771568	2.6809123	1.6373491
13.535813806598844	2.651997	1.6284953
13.553463704039254	2.654758	1.6293428
13.571113924529229	2.6536648	1.6290073
13.588764468505275	2.6907647	1.640355
13.606415336403956	2.7150195	1.6477317
13.624066528661917	2.7306383	1.6524643
13.641718045715882	2.7990139	1.6730254
13.659369888002635	2.8672688	1.6933012
13.67702205595903	2.945851	1.7163482
13.694674550021993	3.0007777	1.7322752
13.712327370628532	3.0064044	1.7338986
13.729980518215713	3.0461016	1.7453084
13.747633993220681	3.1317058	1.7696626
13.765287796080647	3.203959	1.7899606
13.7829419272329	3.297054	1.8157792
13.800596387114801	3.3438768	1.828627
13.818251176163775	3.3695335	1.8356289
13.835906294817324	3.404057	1.8450087
13.853561743513023	3.3994932	1.8437715
13.871217522688525	3.4431016	1.8555597
13.888873632781538	3.5002687	1.8709005
13.906530074229858	3.5333416	1.8797185
13.92418684747135	3.5520809	1.8846965
13.941843952943948	3.500614	1.8709928
13.959501391085665	3.440687	1.8549088
13.977159162334578	3.379429	1.8383224
13.994817267128846	3.3258326	1.8236866
14.012475705906693	3.269905	1.8082879
14.030134479106424	3.1774814	1.7825491
14.047793587166414	3.0721972	1.7527684
14.065453030525108	3.0186348	1.7374219
14.083112809621026	3.0040607	1.7332226
14.100772924892766	2.9607575	1.7206851
14.118433376778997	2.9411285	1.7149719
14.136094165718458	2.8783326	1.6965649
14.153755292149969	2.8405364	1.685389
14.171416756512416	2.741932	1.655878
14.189078559244768	2.6615481	1.6314251
14.20674070078606	2.586702	1.6083227
14.224403181575408	2.54111	1.5940859
14.242066002051999	2.5292015	1.5903463
14.259729162655093	2.4941087	1.5792748
14.277392663824022	2.529386	1.5904044
14.295056505998208	2.5341067	1.5918878
14.312720689617128	2.5434046	1.5948055
14.330385215120348	2.4836278	1.575953
14.348050082947497	2.4698553	1.5715773
14.3657152935383	2.496684	1.5800899
14.383380847332528	2.470073	1.5716466
14.401046744770051	2.4441535	1.5633789
14.418712986290798	2.4124422	1.5532038
14.436379572334793	2.4074624	1.5516
14.454046503342123	2.401586	1.5497051
14.471713779752946	2.4127178	1.5532926
14.489381402007504	2.4244769	1.5570731
14.507049370546113	2.4145586	1.553885
14.524717685809168	2.414495	1.5538645
14.542386348237134	2.4033983	1.5502898
14.560055358270553	2.4357593	1.560692
14.577724716350051	2.4440813	1.5633558
14.595394422916325	2.457987	1.5677968
14.61306447841015	2.4836688	1.575966
14.63073488327237	2.493671	1.5791361
14.648405637943917	2.5159614	1.5861782
14.6660767428658	2.5025039	1.5819304
14.683748198479094	2.5432124	1.5947453
14.701420005224954	2.5831811	1.6072278
14.719092163544628	2.6584222	1.6304668
14.73676467387942	2.7169478	1.6483166
14.754437536670727	2.7814648	1.6677724
14.772110752360014	2.7590413	1.6610363
14.78978432138882	2.723821	1.6504003
14.807458244198777	2.6989517	1.6428486
14.82513252123159	2.6986756	1.6427647
14.842807152929028	2.7358756	1.6540482
14.860482139732962	2.7515132	1.6587685
14.87815748208531	2.7298424	1.6522235
14.8958331804281	2.6761894	1.6359063
14.91350923520342	2.6008937	1.6127287
14.931185646853438	2.5841281	1.6075224
14.948862415820408	2.6039233	1.6136676
14.966539542546656	2.6492524	1.6276524
14.98421702747459	2.6449797	1.6263393
15.001894871046696	2.632099	1.6223744
15.019573073705542	2.6581857	1.6303943
15.037251635893766	2.664455	1.6323159
15.054930558054092	2.721195	1.6496044
15.072609840629323	2.7532148	1.6592814
15.090289484062351	2.8518655	1.6887467
15.107969488796124	3.111639	1.7639838
15.125649855273691	3.5319688	1.8793533
15.14333058393817	4.0527086	2.013134
15.161011675232768	5.029771	2.2427151
15.17869312960076	6.4558563	2.5408378
15.196374947485506	8.38355	2.895436
15.214057129330447	11.559093	3.3998666
15.231739675579114	16.36725	4.0456457
15.249422586675102	21.412992	4.6274176
15.267105863062092	24.400312	4.939667
15.284789505183847	24.441187	4.943803
15.302473513484218	22.165703	4.7080464
15.320157888407127	18.608389	4.313744
15.337842630396578	14.44745	3.80098
15.355527739896656	11.182136	3.34397
15.37321321735153	8.650125	2.9411094
15.39089906320545	6.305485	2.5110724
15.408585277902748	4.7425313	2.1777353
15.42627186188783	3.741694	1.9343458
15.443958815605198	3.2418656	1.8005182
15.461646139499424	2.9800274	1.7262756
15.479333834015168	2.8168747	1.6783547
15.497021899597165	2.734852	1.6537389
15.514710336690234	2.6739824	1.6352316
15.53239914573928	2.6074827	1.6147702
15.550088327189297	2.5449402	1.5952868
15.567777881485336	2.5088737	1.5839424
15.58546780907256	2.4946568	1.5794482
15.6031581103962	2.4911506	1.5783379
15.620848785901568	2.4566622	1.5673743
15.638539836034063	2.4745245	1.5730622
15.656231261239173	2.4727316	1.5724921
15.673923061962451	2.4517245	1.5657984
15.691615238649552	2.4475572	1.5644671
15.709307791746202	2.4129322	1.5533615
15.727000721698221	2.435837	1.5607169
15.744694028951498	2.436481	1.5609231
15.76238771395202	2.4280972	1.5582353
15.780081777145844	2.399359	1.5489864
15.797776218979125	2.3969495	1.5482085
15.815471039898094	2.405031	1.5508162
15.833166240349064	2.3861244	1.5447085
15.850861820778437	2.3848503	1.544296
15.868557781632699	2.3515394	1.533473
15.886254123358412	2.3431537	1.5307363
15.903950846402232	2.3073518	1.518997
15.921647951210897	2.3319473	1.5270715
15.939345438231225	2.3418114	1.5302979
15.957043307910133	2.352938	1.5339289
15.974741560694602	2.353344	1.5340613
15.992440197031714	2.3742025	1.5408447
16.01013921736862	2.3940232	1.5472631
16.02783862215259	2.3808236	1.5429918
16.045538411830933	2.4167745	1.5545979
16.06323858685107	2.4195747	1.5554982
16.080939147660512	2.4438841	1.5632927
16.09864009470684	2.4423387	1.5627984
16.11634142843774	2.4560885	1.5671912
16.134043149300954	2.4275346	1.5580547
16.15174525774433	2.4019928	1.5498364
16.169447754215817	2.3827841	1.5436269
16.18715063916342	2.3979535	1.5485327
16.204853913035244	2.4008636	1.5494721
16.222557576279478	2.4215965	1.5561479
16.240261629344403	22.40965	4.7338834
16.257966072678386	42.99634	6.5571594
16.275670906729868	38.13736	6.175545
16.293376131947387	2.5853834	1.6079128
16.31108174877957	2.601853	1.613026
16.328787757675133	2.6174061	1.6178399
16.34649415908287	2.6266615	1.6206979
16.364200953451657	2.6493344	1.6276776
16.38190814123048	2.6238973	1.6198448
16.39961572286839	2.6367464	1.6238061
16.41732369881455	2.7077918	1.6455369
16.43503206951817	2.782352	1.6680384
16.45274083542859	2.8267047	1.6812807
16.47044999699522	2.8454692	1.6868519
16.488159554667558	2.8176372	1.678582
16.505869508895184	2.8423126	1.685916
16.523579860127786	2.8717055	1.6946107
16.541290608815117	2.963344	1.7214366
16.559001755407035	3.0261836	1.7395929
16.57671330035348	3.0173957	1.7370653
16.59442524410448	3.083183	1.7558995
16.61213758711015	3.1384978	1.7715806
16.629850329820705	3.2251189	1.7958616
16.647563472686436	3.3019404	1.8171242
16.665277016157724	3.3532662	1.8311926
16.682990960685053	3.4201648	1.8493688
16.70070530671898	3.4410083	1.8549955
16.718420054710155	3.4383254	1.8542722
16.736135205109335	3.4683466	1.8623497
16.753850758367335	3.5734277	1.8903512
16.771566714935087	3.7042959	1.9246547
16.789283075263597	3.7487876	1.9361786
16.80699983980398	3.7930884	1.9475852
16.82471700900741	3.8319654	1.9575406
16.84243458332518	3.9319708	1.9829198
16.860152563208665	4.0425057	2.0105984
16.87787094910932	4.114468	2.0284152
16.89558974147871	4.0836387	2.0208015
16.913308940768466	4.1028037	2.025538
16.931028547430333	4.1753893	2.043377
16.94874856191613	4.310409	2.0761526
16.966468984677785	4.3754773	2.0917642
16.98418981616729	4.407047	2.0992968
17.00191105683676	4.4551616	2.1107254
17.019632707138374	4.470867	2.1144426
17.03735476752442	4.5082064	2.1232538
17.05507723844728	4.536849	2.129988
17.072800120359403	4.5906982	2.1425915
17.090523413713353	4.592672	2.143052
17.108247118961785	4.5946436	2.143512
17.125971236557437	4.5863233	2.1415703
17.143695766953133	4.6502414	2.156442
17.161420710601806	4.7223916	2.1731064
17.179146067956477	4.7702446	2.184089
17.19687183947025	4.73719	2.1765087
17.21459802559634	4.6634836	2.1595101
17.232324626788028	4.6200376	2.1494272
17.25005164349871	4.6355205	2.1530259
17.267779076181863	4.651586	2.1567535
17.285506925291074	4.650878	2.1565895
17.30323519127999	4.5908017	2.1426156
17.320963874602384	4.606555	2.1462886
17.33869297571211	4.5687466	2.1374626
17.356422495063114	4.551049	2.133319
17.37415243310944	4.4926057	2.1195767
17.391882790305218	4.4850645	2.1177971
17.40961356710468	4.465245	2.1131127
17.42734476396215	4.4900904	2.1189833
17.445076381332044	4.4758525	2.115621
17.462808419668868	4.5615993	2.13579
17.48054087942723	4.736338	2.176313
17.498273761061835	5.041093	2.2452378
17.51600706502747	5.5081134	2.346937
17.533740791779024	6.216943	2.4933798
17.551474941771485	7.8089404	2.7944481
17.56920951545993	8.968014	2.9946642
17.586944513299528	11.1314535	3.3363833
17.60467993574556	12.760133	3.5721328
17.622415783253373	14.395585	3.7941515
17.64015205627843	15.700069	3.9623313
17.657888755276293	16.720404	4.089059
17.675625880702604	17.238895	4.1519747
17.69336343301311	17.129395	4.1387672
17.71110141266366	16.408173	4.0507
17.728839820110178	15.522597	3.9398727
17.746578655808705	14.69438	3.833325
17.764317920215372	13.192082	3.6320906
17.7820576137864	11.596722	3.405396
17.79979773697811	9.464427	3.0764308
17.81753829024692	7.548752	2.7474992
17.835279274049356	5.878472	2.424556
17.85302068884201	4.8436866	2.2008376
17.870762535081607	4.232157	2.0572207
17.888504813224934	3.9192455	1.9797084
17.90624752372891	3.7436957	1.9348632
17.923990667050536	3.638328	1.9074402
17.941734243646895	3.5406914	1.8816725
17.959478253975185	3.534371	1.8799922
17.9772226984927	3.509311	1.8733155
17.994967577656833	3.4521182	1.8579876
18.01271289192506	3.4044738	1.8451216
18.030458641754965	3.377088	1.8376855
18.04820482760425	3.3592608	1.8328286
18.06595144993067	3.3302293	1.8248916
18.083698509192125	3.3341289	1.8259597
18.101446005846576	3.3637757	1.83406
18.119193940352105	3.3677313	1.835138
18.136942313166887	3.2965686	1.8156455
18.1546911247492	3.2235894	1.7954357
18.1724403755574	3.1671052	1.7796363
18.19019006604997	3.1027615	1.7614657
18.207940196685467	3.0567462	1.7483553
18.225690767922575	3.0312185	1.7410395
18.243441780220046	3.0389612	1.7432617
18.261193234036764	3.0589104	1.7489741
18.278945129831676	3.0922635	1.7584833
18.29669746806386	3.078692	1.7546202
18.314450249192483	3.031224	1.7410411
18.3322034736768	3.012423	1.7356334
18.349957141976184	3.0379887	1.7429827
18.3677112545501	3.0439627	1.7446955
18.385465811858108	3.0890923	1.7575814
18.403220814359884	3.1086419	1.7631341
18.420976262515172	3.1580162	1.7770808
18.43873215678387	3.1807058	1.7834533
18.456488497625923	3.2242932	1.7956318
18.474245285501407	3.263065	1.8063956
18.492002520870486	3.2718563	1.8088273
18.50976020419343	3.317005	1.8212646
18.527518335930615	3.638104	1.9073814
18.545276916542516	4.2346697	2.0578313
18.563035946489688	4.4444723	2.1081917
18.580795426232832	4.951584	2.2252154
18.598555356232698	4.895242	2.2125194
18.616315736950185	5.230124	2.2869465
18.63407656884626	4.816242	2.194594
18.65183785238201	4.9852505	2.2327673
18.669599588018617	4.7100954	2.1702754
18.68736177621737	4.718449	2.1721992
18.705124417439652	4.722022	2.1730213
18.72288751214696	4.547028	2.1323762
18.740651060800886	4.7420106	2.177616
18.758415063863115	4.429216	2.1045702
18.77617952179546	4.620476	2.1495292
18.793944435059814	4.33338	2.0816772
18.811709804118184	4.3729954	2.0911708
18.829475629432675	4.303467	2.0744798
18.8472419114655	4.0889263	2.0221093
18.86500865067897	4.124527	2.030893
18.88277584753551	3.785453	1.9456241
18.90054350249763	3.7864995	1.9458929
18.918311616027957	3.5266967	1.8779501
18.936080188589226	3.3867545	1.8403137
18.953849220644265	3.090705	1.7580401
18.971618712656007	2.869799	1.694048
18.9893886650875	2.8226788	1.6800829
19.007159078401887	7.9934187	2.8272634
19.024929953062408	32.874985	5.733671
19.042701289532435	32.824085	5.729231
19.060473088275405	25.383493	5.0382032
19.07824534975489	2.654382	1.6292274
19.096018074434568	2.6453314	1.6264474
19.113791262778197	2.652502	1.6286504
19.13156491524966	2.6286643	1.6213156
19.149339032312945	2.5754218	1.604812
19.167113614432136	2.5573995	1.5991871
19.184888662071433	2.5728605	1.6040139
19.202664175695123	2.544387	1.5951135
19.220440155767623	2.5045445	1.5825753
19.238216602753447	2.4959316	1.5798517
19.2559935171172	2.5216112	1.5879582
19.27377089932361	2.5069761	1.5833434
19.291548749837514	2.4976764	1.5804038
19.309327069123835	2.5295868	1.5904675
19.32710585764763	2.5472345	1.5960058
19.344885115874032	2.5426998	1.5945846
19.362664844268313	2.5135598	1.585421
19.380445043295822	2.5119772	1.5849218
19.39822571342203	2.5280576	1.5899867
19.41600685511252	2.5331388	1.5915837
19.43378846883297	2.4785736	1.5743486
19.451570555049173	2.4405074	1.5622123
19.469353114227037	2.443225	1.5630819
19.48713614683254	2.4974816	1.5803423
19.50491965333182	2.511627	1.5848113
19.52270363419109	2.5092123	1.5840493
19.540488089876686	2.51079	1.5845473
19.55827302085503	2.5370655	1.5928168
19.576058427592674	2.5255427	1.5891956
19.593844310556282	2.4775214	1.5740144
19.611630670212598	2.4703522	1.5717354
19.629417507028506	2.5206172	1.5876452
19.64720482147098	2.5691724	1.6028638
19.6649926140071	2.5551996	1.5984992
19.682780885104084	2.5288103	1.5902233
19.70056963522921	2.4906077	1.5781659
19.718358864849908	2.5085604	1.5838436
19.7361485744337	2.5003724	1.5812566
19.753938764448215	2.5053847	1.5828407
19.771729435361202	2.4808867	1.575083
19.789520587640506	2.4942849	1.5793306
19.807312221754092	2.4766755	1.5737457
19.825104338170043	2.466204	1.5704153
19.842896937356517	2.4709685	1.5719315
19.860690019781824	2.4378104	1.5613489
19.87848358591436	2.482106	1.5754701
19.896277636222635	2.5223973	1.5882057
19.914072171175278	2.5521522	1.5975456
19.931867191241015	2.5665247	1.6020377
19.94966269688869	2.5821517	1.6069075
19.967458688587264	2.5466266	1.5958153
19.985255166805807	2.4928563	1.5788782
20.00305213201348	2.486027	1.576714
20.020849584679578	2.524284	1.5887995
20.038647525273507	2.4918532	1.5785605
20.05644595426477	2.4698925	1.5715891
20.07424487212299	2.457496	1.5676402
20.092044279317903	2.4345016	1.5602889
20.109844176319353	2.4231415	1.5566443
20.127644563597304	2.428682	1.5584229
20.145445441621817	2.4339666	1.5601175
20.16324681086307	2.443177	1.5630665
20.181048671791373	2.4140112	1.5537089
20.198851024877122	2.421668	1.556171
20.216653870590836	2.4119623	1.5530493
20.234457209403146	2.3954184	1.5477139
20.252261041784802	2.4042702	1.550571
20.270065368206662	2.4101017	1.5524502
20.287870189139685	2.4392588	1.5618126
20.305675505054968	2.4166546	1.5545592
20.323481316423702	2.398554	1.5487266
20.341287623717207	2.3874366	1.5451332
20.359094427406884	2.3646514	1.5377424
20.376901727964288	2.3223677	1.5239316
20.39470952586107	2.2968454	1.5155348
20.41251782156899	2.2973304	1.5156947
20.430326615559935	2.3301265	1.5264752
20.448135908305886	2.3108373	1.5201439
20.465945700278965	2.2960434	1.5152701
20.483755991951384	2.2494655	1.4998218
20.50156678379548	2.2730727	1.5076712
20.519378076283708	2.3271055	1.5254854
20.537189869888635	2.3370957	1.5287563
20.55500216508294	2.3121355	1.5205708
20.572814962339415	2.3096085	1.5197396
20.59062826213098	2.3260126	1.525127
20.60844206493066	2.344725	1.5312494
20.626256371211593	2.332317	1.5271926
20.644071181447032	2.3512578	1.5333812
20.66188649611036	2.3467638	1.5319151
20.67970231567506	2.358385	1.5357034
20.697518640614742	2.352112	1.5336597
20.715335471403122	2.335929	1.5283746
20.73315280851404	2.3209546	1.5234679
20.750970652421447	2.3260894	1.5251522
20.768789003599412	2.3118842	1.5204881
20.786607862522136	2.3263357	1.525233
20.8044272296639	2.3388405	1.5293268
20.82224710549913	2.3320866	1.5271171
20.84006749050237	2.2848208	1.5115623
20.857888385148268	3.8119874	1.9524312
20.8757097899116	45.942303	6.778075
20.893531705267254	64.80206	8.049973
20.911354131690224	83.79194	9.153793
20.92917706965566	69.04247	8.30918
20.94700051963877	50.10115	7.0782166
20.96482448211493	29.369835	5.4193945
20.982648957559622	4.127322	2.0315812
21.00047394644843	2.2695956	1.5065178
21.01829944925707	2.277755	1.5092233
21.036125466461375	2.2305217	1.4934931
21.053951998537297	2.2348685	1.4949477
21.071779045960906	2.2530537	1.5010176
21.089606609208378	2.2902222	1.513348
21.10743468875603	2.2509694	1.500323
21.12526328508028	2.193213	1.48095
21.143092398657675	2.201152	1.483628
21.16092202996488	2.2056468	1.485142
21.17875217947867	2.1884692	1.4793476
21.19658284767596	2.158466	1.4691719
21.21441403503377	2.1874127	1.4789904
21.232245742029225	2.2093177	1.4863774
21.2500779691396	2.206061	1.4852815
21.26791071684227	2.1842654	1.477926
21.28574398561475	2.1795352	1.4763249
21.30357777593465	2.1872663	1.478941
21.321412088279704	2.138886	1.4624931
21.339246923127792	2.1370552	1.461867
21.357082280956888	2.1445663	1.4644338
21.3749181622451	2.1698887	1.4730542
21.392754567470647	2.1661205	1.4717746
21.41059149711187	2.1880677	1.4792118
21.42842895164726	2.1444383	1.46439
21.446266931555378	2.1111596	1.452983
21.464105437314945	2.0712426	1.4391812
21.481944469404798	2.112374	1.4534009
21.49978402830388	2.150819	1.4665672
21.51762411449127	2.1401842	1.4629369
21.53546472844617	2.0988946	1.4487562
21.553305870647876	2.0832982	1.4433635
21.571147541575865	2.0964484	1.4479117
21.58898974170967	2.1169052	1.4549588
21.60683247152899	2.0982628	1.4485382
21.62467573151363	2.0885785	1.4451915
21.642519522143523	2.1015704	1.4496794
21.660363843898722	2.0920715	1.4463995
21.6782086972594	2.0830972	1.4432939
21.696054082705864	2.076879	1.4411381
21.713900000718535	2.093688	1.4469582
21.73174645177795	2.0719757	1.4394358
21.749593436364794	2.062157	1.4360212
21.767440954959845	2.0639784	1.4366553
21.785289008044032	2.074515	1.4403177
21.803137596098388	2.0517836	1.4324049
21.820986719604086	2.0866117	1.4445109
21.838836379042412	2.0944066	1.4472065
21.85668657489478	2.0710628	1.4391187
21.87453730764273	2.0227206	1.4222238
21.892388577767914	1.9941422	1.412141
21.91024038575213	2.000981	1.4145604
21.928092732077285	1.991873	1.4113374
21.945945617225426	1.994537	1.4122808
21.963799041678694	1.9676026	1.4027126
21.981653005919398	31.294214	5.5941234
21.999507510429943	78.13557	8.839433
22.01736255569286	73.11746	8.550875
22.035218142190818	4.201913	2.049857
22.05307427040661	2.0019188	1.4148918
22.07093094082315	1.9652543	1.4018753
22.088788153923474	1.965345	1.4019077
22.106645910190746	1.990152	1.4107275
22.12450421010827	2.0151083	1.4195452
22.142363054159464	1.9973677	1.4132826
22.16022244282787	1.9872035	1.409682
22.178082376597164	1.9789643	1.4067566
22.195942855951145	1.9732839	1.4047363
22.213803881373742	1.9730351	1.4046477
22.231665453349002	1.9848837	1.408859
22.24952757236111	1.972657	1.4045131
22.26739023889438	1.967811	1.4027869
22.28525345343323	1.9706433	1.4037961
22.30311721646225	2.0010355	1.4145796
22.320981528466113	2.0191832	1.4209796
22.33884638992964	2.0065286	1.4165199
22.356711801337788	1.967399	1.40264
22.37457776317561	1.9632858	1.401173
22.392444275928337	1.9653525	1.4019103
22.410311340081282	1.9326282	1.39019
22.428178956119904	1.923808	1.387014
22.446047124529805	1.9487592	1.3959796
22.46391584579669	1.953337	1.3976183
22.481785120406414	1.9271239	1.3882089
22.49965494884496	1.9063262	1.3806977
22.51752533159841	1.9501489	1.3964773
22.53539626915302	1.9627043	1.4009655
22.553267761995137	1.9618502	1.4006606
22.571139810611264	1.9231869	1.3867902
22.589012415488025	1.9096073	1.3818854
22.60688557711216	1.934851	1.3909892
22.624759295970566	1.9377445	1.3920289
22.642633572550263	1.9035072	1.3796765
22.660508407338362	1.9066614	1.3808191
22.67838380082217	1.9668826	1.4024559
22.696259753489077	2.0065436	1.4165252
22.714136265826614	1.9844123	1.4086916
22.73201333832246	1.9759883	1.4056985
22.74989097146439	1.9794269	1.406921
22.76776916574035	1.9676172	1.4027178
22.785647921638393	1.9446404	1.3945036
22.803527239646712	1.9316152	1.3898256
22.82140712025363	1.9595757	1.3998485
22.839287563947593	1.9538037	1.3977853
22.85716857121719	1.9611967	1.4004273
22.875050142551135	1.9247319	1.3873471
22.892932278438277	1.938506	1.3923024
22.910814979367604	1.950068	1.3964484
22.928698245828222	1.9603362	1.40012
22.946582078309387	1.9481529	1.3957624
22.96446647730047	1.9264172	1.3879544
22.98235144329098	1.8928647	1.3758142
23.000236976770562	1.9301078	1.3892832
23.018123078229	1.9558014	1.3984997
23.03600974815619	1.9327255	1.390225
23.053896987042194	1.8565036	1.3625357
23.071784795377173	1.8586016	1.3633053
23.08967317365145	1.9050364	1.3802305
23.10756212235546	1.9225525	1.3865614
23.125451641979787	1.9194858	1.3854551
23.143341733015134	1.9147199	1.3837341
23.161232395952357	1.9165273	1.384387
23.179123631282426	1.8929285	1.3758373
23.197015439496468	1.91761	1.384778
23.214907821085717	1.9444174	1.3944237
23.23280077654157	1.9709285	1.4038976
23.250694306355538	2.013688	1.4190447
23.268588411019277	2.0111153	1.418138
23.28648309102458	2.0121276	1.4184948
23.304378346863356	1.9525661	1.3973426
23.322274179027676	1.9267387	1.3880701
23.340170588009723	1.9066008	1.3807971
23.358067574301852	1.9284279	1.3886784
23.37596513839651	1.9324406	1.3901225
23.39386328078629	1.9293528	1.3890114
23.411762001963947	1.9536307	1.3977234
23.429661302422353	1.9623913	1.4008538
23.4475611826545	1.979932	1.4071006
23.46546164315356	1.9836175	1.4084096
23.48336268441279	1.9477847	1.3956306
23.501264306925638	1.9034076	1.3796403
23.51916651118564	1.912418	1.382902
23.537069297686497	1.9494201	1.3962164
23.554972666922037	1.9429487	1.3938969
23.57287661938623	1.9087412	1.381572
23.59078115557318	1.9123976	1.3828946
23.608686275977128	1.9151348	1.383884
23.62659198109246	1.9043812	1.3799932
23.6444982714137	1.88918	1.3744744
23.66240514743549	1.9104958	1.3822068
23.68031260965263	1.9012232	1.3788486
23.698220658560068	1.964056	1.4014478
23.716129294652845	1.9664648	1.4023069
23.7340385184262	1.9397653	1.3927546
23.75194833037546	1.8721169	1.3682532
23.769858730996123	1.8806295	1.3713604
23.78776972078382	1.907733	1.3812071
23.80568130023431	1.9335574	1.3905241
23.823593469843495	1.9293395	1.3890066
23.841506230107424	1.9223323	1.386482
23.859419581522275	1.8747364	1.3692101
23.87733352458438	1.8523748	1.3610197
23.89524805979019	1.8593822	1.3635917
23.913163187636318	1.8749567	1.3692906
23.931078908619508	1.9231457	1.3867753
23.948995223236633	1.968057	1.4028746
23.966912131984735	2.0184143	1.420709
23.98482963536096	2.0832725	1.4433546
24.002747733862616	2.113865	1.4539137
24.020666427987155	2.1307995	1.4597259
24.038585718232156	2.061644	1.4358426
24.056505605095353	2.039393	1.4280732
24.074426089074617	2.0738678	1.440093
24.092347170667946	2.0817618	1.4428312
24.110268850373515	2.092494	1.4465456
24.128191128689586	2.118732	1.4555864
24.146114006114626	2.1072092	1.451623
24.164037483147187	2.0486615	1.4313146
24.181961560286005	2.0233862	1.4224578
24.199886238029926	2.0753791	1.4406177
24.21781151687797	2.1008108	1.4494174
24.235737397329274	2.1243458	1.4575136
24.253663879883135	2.1101193	1.452625
24.271590965038975	2.123309	1.4571579
24.289518653296376	2.1102965	1.452686
24.30744694515505	2.0892107	1.4454103
24.32537584111486	2.0550473	1.4335436
24.34330534167581	2.033568	1.4260322
24.361235447338046	2.0154471	1.4196645
24.379166158601876	2.034386	1.426319
24.39709747596772	2.0620198	1.4359735
24.41502939993615	2.086878	1.4446031
24.432961931007917	2.0520365	1.4324931
24.450895069683856	2.01869	1.4208062
24.468828816465	1.968887	1.4031703
24.4867631718525	1.9770205	1.4060656
24.504698136347656	1.9930259	1.4117457
24.52263371045192	2.0460873	1.430415
24.540569894666874	2.0416565	1.4288654
24.558506689494266	1.9779676	1.4064023
24.57644409543597	1.941805	1.3934866
24.594382112994012	1.9250901	1.3874762
24.61232074267057	1.9512409	1.3968682
24.630259984967953	2.0063546	1.4164585
24.64819984038863	2.0070877	1.4167172
24.66614030943522	1.9763645	1.4058323
24.684081392610462	1.919836	1.3855815
24.702023090417274	1.9718517	1.4042264
24.7199654033587	1.9740824	1.4050204
24.737908331937927	1.9310777	1.3896322
24.755851876658305	1.9295539	1.3890839
24.773796038023324	2.0368772	1.4271921
24.79174081653661	2.0850394	1.4439665
24.809686212701962	2.1253252	1.4578495
24.827632227023294	2.1291254	1.4591522
24.8455788600047	2.1574726	1.4688338
24.8635261121504	2.163925	1.4710286
24.88147398396475	2.1703584	1.4732137
24.899422475952303	2.173659	1.4743334
24.917371588617698	2.1668084	1.4720082
24.935321322465768	2.2175152	1.4891324
24.953271678001478	2.353062	1.5339693
24.97122265572994	2.5411658	1.5941035
24.989174256156414	2.8521507	1.6888312
25.00712647978632	3.3052788	1.8180425
25.02507932712521	3.9021306	1.9753811
25.043032798678798	4.4021697	2.0981348
25.060986894952933	4.989301	2.2336743
25.078941616453637	5.6484222	2.376641
25.096896963687055	6.666235	2.5819054
25.114852937159508	7.8090534	2.7944684
25.132809537377444	8.289732	2.8791895
25.150766764847468	8.230329	2.868855
25.168724620076347	7.6292005	2.7621007
25.186683103570985	6.5818925	2.5655198
25.204642215838426	5.432068	2.3306797
25.222601957385894	4.0889864	2.0221243
25.24056232872074	3.0994365	1.7605217
25.25852333035048	2.5374227	1.592929
25.276484962782778	2.192364	1.4806633
25.294447226525435	1.9910551	1.4110476
25.312410122086423	1.9033676	1.3796259
25.330373649973843	1.8912412	1.375224
25.348337810695988	1.9078469	1.3812484
25.366302604761245	1.9607611	1.4002718
25.384268032678207	1.9800074	1.4071274
25.40223409495558	1.993748	1.4120014
25.420200792102257	2.0047734	1.4159002
25.438168124627246	1.9951317	1.4124913
25.45613609303974	1.9337872	1.3906068
25.474104697849057	1.8581173	1.3631278
25.492073939564698	1.8621134	1.3645928
25.510043818696285	1.9043865	1.3799951
25.528014335753614	1.9019026	1.3790948
25.54598549124664	1.8875431	1.3738788
25.56395728568544	1.8596039	1.363673
25.58192971958028	1.9041728	1.3799176
25.59990279344156	1.91224	1.3828377
25.617876507779833	1.8668357	1.3663219
25.635850863105826	1.828902	1.3523691
25.653825859930386	1.8811847	1.3715628
25.671801498764548	1.9396716	1.3927209
25.68977778011949	1.9345262	1.3908725
25.707754704506524	1.9044589	1.3800213
25.725732272437153	1.9133369	1.3832343
25.743710484423012	1.9161397	1.384247
25.761689340975888	1.8694395	1.3672745
25.77966884260774	1.8449445	1.3582873
25.797648989830662	1.85135	1.3606433
25.815629783156922	1.8634676	1.3650888
25.83361122309895	1.8423543	1.3573335
25.85159331016929	1.8054721	1.3436786
25.869576044880695	1.8398832	1.3564229
25.887559427746034	1.8716973	1.3680999
25.90554345927836	1.9124862	1.3829267
25.92352813999086	1.9349598	1.3910283
25.94151347039689	1.9187313	1.3851827
25.959499451009965	1.8659207	1.3659871
25.97748608234374	1.8744223	1.3690954
25.995473364912062	1.8834854	1.3724014
26.013461299228904	1.8310049	1.3531463
26.03144988580839	1.7969652	1.3405093
26.04943912516483	1.7834178	1.3354467
26.067429017812675	1.8175529	1.3481665
26.085419564266537	1.817043	1.3479774
26.103410765041186	1.8055664	1.3437136
26.12140262065155	1.8207475	1.3493508
26.139395131612723	1.8652806	1.3657528
26.157388298439948	1.8530667	1.3612739
26.17538212164861	1.8367656	1.3552732
26.193376601754295	1.8193129	1.3488191
26.211371739272714	1.7632109	1.3278595
26.229367534719746	1.7125736	1.3086534
26.247363988611433	1.769883	1.3303695
26.26536110146397	1.8182026	1.3484074
26.283358873793727	1.843596	1.3577908
26.301357306117204	1.8359556	1.3549744
26.319356398951104	1.796922	1.3404932
26.33735615281224	1.7753747	1.3324319
26.35535656821762	1.7910985	1.3383193
26.373357645684404	1.8524349	1.3610418
26.39135938572991	1.8447689	1.3582227
26.409361788871614	1.8436257	1.3578018
26.427364855627165	1.8318465	1.3534572
26.445368586514352	1.8113021	1.3458462
26.46337298205115	1.7732534	1.3316356
26.48137804275568	1.7983522	1.3410265
26.499383769146217	1.8151635	1.34728
26.517390161741215	1.806348	1.3440044
26.53539722105928	1.7697043	1.3303024
26.553404947619182	1.8147285	1.3471186
26.571413341939856	1.7658532	1.3288541
26.589422404540397	1.7361742	1.3176396
26.60743213594006	1.8105693	1.3455739
26.62544253665827	1.8387711	1.356013
26.64345360721459	1.8162796	1.3476942
26.66146534812879	1.8121014	1.3461431
26.679477759920758	1.8173485	1.3480906
26.69749084311057	1.8433852	1.3577132
26.71550459821847	1.8356864	1.3548751
26.733519025764842	1.8104411	1.3455263
26.751534126270258	1.7963653	1.3402855
26.769549900255434	1.8424875	1.3573825
26.787566348241267	1.8053223	1.3436228
26.80558347074881	1.7255455	1.3136002
26.823601268299267	1.703692	1.3052555
26.841619741414036	1.7286005	1.3147625
26.85963889061465	1.764268	1.3282576
26.877658716422832	1.7983193	1.3410143
26.89567921936045	1.8381107	1.3557694
26.913700399949544	1.8404619	1.3566362
26.93172225871233	1.8490347	1.3597921
26.949744796171174	1.8551193	1.3620276
26.967768012848605	1.8327336	1.3537849
26.98579190926733	1.8037558	1.3430398
27.003816485950225	1.7982904	1.3410035
27.021841743420318	1.8278859	1.3519933
27.039867682200814	1.820565	1.3492831
27.057894302815072	1.8178526	1.3482777
27.07592160578664	1.802916	1.3427271
27.0939495916392	1.8244486	1.3507215
27.111978260896635	1.8676512	1.3666204
27.13000761408296	1.883179	1.3722897
27.148037651722397	1.8337792	1.354171
27.166068374339304	1.7969047	1.3404868
27.184099782458215	1.8207489	1.3493513
27.20213187660384	1.7991022	1.3413061
27.22016465730105	1.7944186	1.3395591
27.23819812507487	1.7603446	1.3267798
27.256232280450533	1.7926998	1.3389174
27.274267123953383	1.8368707	1.355312
27.292302656108987	1.8727142	1.3684715
27.31033887744306	1.8725889	1.3684257
27.32837578848146	1.8718114	1.3681415
27.34641338975026	1.8571411	1.3627696
27.364451681775673	1.7998233	1.3415749
27.382490665084074	1.7617149	1.3272961
27.400530340202046	1.7805306	1.3343652
27.41857070765629	1.8220409	1.3498299
27.436611767973726	1.811717	1.3460004
27.454653521681404	1.7700427	1.3304296
27.472695969306564	1.7645408	1.3283602
27.490739111376627	1.7838345	1.3356026
27.508782948419153	1.8386406	1.3559648
27.526827480961902	1.813824	1.3467828
27.54487270953279	1.8380778	1.3557572
27.562918634659898	1.8032987	1.3428696
27.580965256871508	1.82564	1.3511624
27.599012576696026	1.8196024	1.3489264
27.617060594662068	1.8262665	1.3513943
27.63510931129842	1.8246806	1.3508074
27.65315872713401	1.8049208	1.3434734
27.67120884269797	1.8094634	1.345163
27.68925965851958	1.8169744	1.3479519
27.707311175128307	1.8154444	1.3473842
27.725363393053787	1.8182962	1.3484421
27.74341631282583	1.8539922	1.3616139
27.7614699349744	1.8482969	1.3595208
27.77952426002968	2.0580325	1.4345845
27.797579288521973	2.1944962	1.4813832
27.815635020981784	2.683584	1.6381649
27.83369145793979	2.7007284	1.6433893
27.85174859992682	2.4489484	1.5649116
27.869806447473923	2.248193	1.4993975
27.887865001112267	1.9597234	1.3999012
27.905924261373233	1.9067448	1.3808494
27.92398422878836	1.8897805	1.3746929
27.94204490388936	1.8787212	1.3706645
27.96010628720813	1.8227723	1.3501009
27.978168379276728	1.8553933	1.3621283
27.9962311806274	1.8840101	1.3725924
28.014294691792568	1.9004918	1.3785833
28.0323589133048	1.873751	1.3688502
28.050423845696887	1.8830649	1.372248
28.068489489501758	1.9298445	1.3891884
28.086555845252523	1.9396704	1.3927205
28.104622913482487	1.8904413	1.3749332
28.122690694725115	1.8798525	1.3710772
28.14075918951405	1.914328	1.3835924
28.15882839838312	1.8927029	1.3757554
28.176898321866304	1.8950503	1.3766083
28.1949689604978	1.89589	1.3769132
28.213040314811945	1.8517771	1.3608001
28.23111238534327	1.7943704	1.3395411
28.249185172626493	1.8264451	1.3514603
28.267258677196473	1.8435279	1.3577658
28.285332899588294	1.8356006	1.3548434
28.303407840337172	1.8517764	1.3607999
28.321483499978545	1.9047884	1.3801407
28.33955987904799	1.9641095	1.401467
28.357636978081285	1.9964693	1.4129647
28.37571479761439	1.9544142	1.3980037
28.393793338183425	1.9018427	1.3790731
28.41187260032469	1.9302193	1.3893234
28.429952584574686	1.9637455	1.401337
28.448033291470065	1.9925252	1.4115684
28.46611472154769	1.9518988	1.3971037
28.484196875344566	1.9270192	1.3881712
28.502279753397914	1.9746717	1.4052302
28.52036335624511	2.0000389	1.4142272
28.538447684423716	2.0007794	1.4144892
28.556532738471482	1.9573731	1.3990616
28.574618518926325	1.9286997	1.3887763
28.59270502632635	1.9683471	1.402978
28.61079226120985	1.9798014	1.4070542
28.628880224115274	2.0068438	1.4166311
28.646968915581287	2.0453887	1.4301709
28.66505833614671	2.0648375	1.4369543
28.68314848635055	1.9949948	1.4124428
28.701239366732004	2.0031402	1.4153234
28.71933097783044	2.0765219	1.4410142
28.737423320185403	2.1270845	1.4584528
28.75551639433665	2.16518	1.4714551
28.773610200824074	2.1619914	1.4703711
28.791704740187793	2.0943491	1.4471866
28.80980001296809	2.0936406	1.4469419
28.827896019705413	2.1331372	1.4605263
28.845992760940433	2.149338	1.4660621
28.86409023721397	2.1750686	1.4748114
28.88218844906704	2.1485593	1.4657965
28.900287397040845	2.150859	1.4665807
28.918387081676755	2.1854925	1.4783411
28.936487503516343	2.237456	1.4958129
28.954588663101365	2.2862704	1.5120418
28.97269056097374	2.3194458	1.5229727
28.990793197675597	2.3740356	1.5407906
29.00889657374923	2.3556788	1.5348221
29.027000689737125	2.3426592	1.5305748
29.04510554618196	2.4079807	1.551767
29.06321114362659	2.448354	1.5647217
29.08131748261405	2.438449	1.5615534
29.099424563687567	2.480321	1.5749035
29.11753238739057	2.50612	1.5830729
29.13564095426663	2.5988386	1.6120914
29.15375026485954	2.6426263	1.6256157
29.171860319713275	2.6501582	1.6279306
29.18997111937199	2.6474273	1.6270916
29.20808266438002	2.7534227	1.6593441
29.226194955281898	2.8388722	1.6848953
29.244307992622335	2.8477054	1.6875145
29.26242177694624	2.8618245	1.6916928
29.2805363087987	2.8959396	1.701746
29.29865158872498	2.9013476	1.7033342
29.316767617270557	2.9453428	1.7162001
29.334884394981064	2.99353	1.730182
29.353001922402367	2.9822004	1.7269049
29.37112020008047	2.99211	1.7297716
29.389239228561596	3.1623826	1.7783089
29.407359008392152	3.460856	1.8603376
29.42547954011872	3.840217	1.9596472
29.44360082428809	4.4279714	2.1042745
29.46172286144722	5.4783316	2.3405836
29.479845652143283	7.1602063	2.675856
29.497969196923606	9.356882	3.058902
29.516093496335728	11.877271	3.4463418
29.5342185509274	14.549826	3.8144233
29.55234436124651	16.717583	4.088714
29.570470927841175	17.94939	4.236672
29.588598251259686	17.619518	4.197561
29.60672633205055	16.143059	4.017843
29.624855170762405	13.913787	3.730119
29.642984767944146	11.087974	3.329861
29.66111512414481	8.304859	2.8818152
29.67924623991366	6.281905	2.506373
29.697378115800138	4.9234743	2.2188904
29.71551075235387	4.1352367	2.033528
29.733644150124675	3.6968954	1.9227313
29.751778309662576	3.4189062	1.8490285
29.769913231517766	3.3233535	1.8230067
29.78804891624066	3.3641906	1.834173
29.806185364381818	3.3243964	1.8232927
29.82432257649206	3.3051312	1.818002
29.842460553122333	3.2698913	1.808284
29.86059929482382	3.2586594	1.8051757
29.878738802147872	3.2961848	1.8155398
29.896879075646048	3.3220453	1.8226479
29.915020115870114	3.302921	1.817394
29.933161923371976	3.2740018	1.8094203
29.951304498703777	3.2205057	1.7945768
29.969447842417857	3.2057073	1.7904489
29.987591955066733	3.190665	1.7862433
30.005736837203123	3.19043	1.7861775
30.023882489379943	3.1764505	1.78226
30.04202891215028	3.1965144	1.7878798
30.060176106067455	3.222025	1.795
30.078324071684946	3.2099402	1.7916306
30.09647280955646	3.1733692	1.7813953
30.114622320235863	3.153858	1.7759105
30.132772604277257	3.1233997	1.7673143
30.1509236622349	3.1329222	1.7700063
30.16907549466328	3.136261	1.7709491
30.18722810211705	3.215516	1.7931861
30.205381485151097	3.2341306	1.7983689
30.22353564432045	3.0796137	1.7548828
30.241690580180403	2.946686	1.7165914
30.25984629328638	2.988043	1.7285957
30.278002784194037	3.0407877	1.7437855
30.296160053459246	3.0172312	1.7370179
30.314318101638033	2.960578	1.720633
30.332476929286646	2.9358108	1.7134207
30.35063653696153	2.963393	1.7214508
30.368796925219307	2.9964004	1.7310114
30.386958094616844	2.9465606	1.7165549
30.40512004571115	2.9095953	1.7057536
30.423282779059463	2.9006197	1.7031206
30.441446295219233	2.88129	1.6974363
30.459610594748067	2.8546362	1.6895669
30.47777567820382	2.810249	1.6763798
30.495941546144504	2.8318834	1.6828201
30.51410819912835	2.8315544	1.6827223
30.532275637713795	2.839499	1.6850812
30.55044386245946	2.7764413	1.6662657
30.56861287392416	2.777042	1.6664459
30.586782672666956	2.7986543	1.672918
30.604953259247047	2.8084373	1.6758393
30.623124634223885	2.8617709	1.691677
30.641296798157075	2.8531857	1.6891376
30.659469751606462	2.8567495	1.6901921
30.677643495132074	2.8126261	1.6770886
30.695818029294152	2.7635975	1.6624072
30.713993354653116	2.6915295	1.6405882
30.73216947176962	2.6649184	1.6324577
30.75034638120448	2.670108	1.6340466
30.768524083518756	2.6995187	1.6430212
30.786702579273673	2.769291	1.6641186
30.80488186903069	2.8534167	1.6892059
30.82306195335144	3.0032616	1.732992
30.841242832797782	3.1778758	1.7826598
30.85942450793176	3.4340868	1.8531289
30.877606979315637	3.779042	1.9439758
30.895790247511883	4.039541	2.009861
30.913974313083134	4.366187	2.0895424
30.932159176592283	4.738038	2.1767035
30.95034483860237	4.8370585	2.1993313
30.968531299676698	4.5780764	2.139644
30.98671856037873	4.2451324	2.0603719
31.00490662127215	3.7850544	1.9455216
31.023095482920848	3.3160114	1.8209919
31.04128514588892	2.955643	1.7191983
31.059475610740662	2.761164	1.6616751
31.07766687804056	2.595409	1.6110272
31.09585894835335	2.484443	1.5762116
31.11405182224393	2.4848325	1.5763352
31.132245500277417	2.451876	1.5658467
31.15043998301914	2.4193888	1.5554384
31.168635271034628	2.4041958	1.5505469
31.18683136488964	2.4032722	1.5502491
31.20502826515008	2.4252625	1.5573254
31.223225972382135	2.4545007	1.5666846
31.241424487152155	2.4418528	1.5626429
31.259623810026692	2.432352	1.5596
31.27782394157253	2.352282	1.5337151
31.296024882356644	2.3638022	1.5374662
31.314226632946237	2.431559	1.5593457
31.332429193908684	2.49417	1.5792941
31.350632565811598	2.428064	1.5582247
31.368836749222787	2.3941567	1.5473063
31.387041744710295	2.4261978	1.5576257
31.40524755284232	2.5178595	1.5867765
31.423454174187317	2.5855992	1.6079799
31.441661609313922	2.5606341	1.6001981
31.459869858791002	2.4991202	1.5808606
31.478078923187628	2.522536	1.5882493
31.496288803073064	2.512444	1.5850691
31.514499499016807	2.4280941	1.5582343
31.532711011588546	2.406807	1.5513887
31.550923341358178	2.4343042	1.5602257
31.56913648889584	2.3922558	1.5466919
31.587350454771844	2.3619149	1.5368522
31.605565239556732	2.390055	1.5459802
31.62378084382127	2.4077435	1.5516905
31.641997268136382	2.4042659	1.5505695
31.660214513073274	2.2963	1.5153548
31.67843257920331	2.2249434	1.4916245
31.6966514670981	2.2234604	1.4911273
31.71487117732944	2.242632	1.4975419
31.733091710469346	2.2092168	1.4863435
31.751313067090052	2.2245686	1.4914988
31.769535247764008	2.216778	1.4888848
31.787758253063878	2.3247364	1.5247086
31.805982083562526	2.3650327	1.5378662
31.824206739833024	2.3356545	1.5282848
31.84243222244869	2.3214285	1.5236235
31.860658531983013	2.407338	1.5515598
31.878885669009737	2.375415	1.5412382
31.897113634102784	2.3146665	1.5214028
31.91534242783632	2.2546048	1.5015341
31.933572050784694	2.226365	1.492101
31.951802503522508	2.2000027	1.4832406
31.970033786624548	2.16247	1.470534
31.988265900665834	2.138399	1.4623265
32.006498846221575	2.105414	1.4510045
32.02473262386724	2.134051	1.4608392
32.04296723417845	2.1477497	1.4655203
32.0612026777311	2.1427197	1.4638032
32.07943895510129	2.1498122	1.4662238
32.097676066865304	2.2159522	1.4886074
32.115914013599685	2.2494476	1.4998158
32.13415279588115	2.2409656	1.4969856
32.152392414286666	2.173354	1.4742299
32.1706328693934	2.1287472	1.4590226
32.18887416177875	2.1520963	1.4670025
32.20711629202032	2.1458032	1.464856
32.225359260695924	2.047477	1.4309008
32.243603068383614	2.11341	1.4537572
32.26184771566166	2.2266333	1.4921907
32.28009320310852	2.1778393	1.4757504
32.2983395313029	2.093109	1.446758
32.31658670082372	2.090484	1.4458506
32.33483471225012	2.1061509	1.4512584
32.35308356616143	2.1523128	1.4670763
32.371333263137245	2.164722	1.4712994
32.38958380375734	2.1563938	1.4684665
32.407835188601744	2.0576065	1.434436
32.42608741825067	2.0089753	1.4173832
32.444340493284585	2.033995	1.4261819
32.46259441428416	2.0993707	1.4489205
32.48084918183028	2.0643513	1.4367851
32.49910479650405	1.9624139	1.4008619
32.51736125888683	1.9699122	1.4035356
32.53561856956014	2.0404942	1.4284587
32.5538767291058	2.0627015	1.4362108
32.572135738105764	2.0268638	1.4236797
32.59039559714228	2.0354435	1.4266897
32.608656306797776	2.014105	1.4191917
32.62691786765491	1.9675754	1.4027029
32.645180280296586	1.9168878	1.3845172
32.663443545305896	1.9808887	1.4074405
32.68170766326619	2.0321887	1.4255486
32.69997263476099	2.0337944	1.4261116
32.7182384603741	1.9410168	1.3932037
32.7365051406895	1.8908461	1.3750805
32.75477267629144	2.028637	1.4243022
32.77304106776434	2.0329242	1.4258065
32.79131031569289	1.9069573	1.3809263
32.809580420661966	1.8763225	1.3697892
32.827851383256714	1.9445021	1.394454
32.84612320406245	1.9442899	1.394378
32.86439588366476	1.9625176	1.4008988
32.88266942264945	2.0409958	1.4286343
32.9009438216025	2.0452902	1.4301364
32.9192190811102	2.0086865	1.4172814
32.937495201758985	1.9920397	1.4113964
32.95577218413556	2.03557	1.426734
32.974050028826866	2.0187416	1.4208243
32.992328736420035	1.946966	1.3953372
33.010608307502444	1.9745	1.405169
33.02888874266169	2.046262	1.4304762
33.047170042485604	2.1475585	1.465455
33.06545220756225	2.1997297	1.4831486
33.083735238479896	2.1589959	1.4693522
33.10201913582707	2.0333352	1.4259506
33.12030390019248	1.9032071	1.3795677
33.138589532165135	1.8323938	1.3536594
33.15687603233419	1.8857567	1.3732285
33.17516340128909	1.96146	1.4005213
33.19345163961947	1.9866444	1.4094837
33.211740747915215	2.0458157	1.4303201
33.23003072676643	1.9930575	1.4117569
33.248321576763466	1.8784101	1.370551
33.266613298496885	1.864057	1.3653047
33.28490589255747	1.9334475	1.3904846
33.30319935953626	1.8763002	1.3697811
33.32149370002451	1.851215	1.3605937
33.339788914613706	1.9195788	1.3854886
33.358085003895575	2.0075088	1.4168658
33.376381968462034	2.0734725	1.4399557
33.39467980890529	2.004747	1.4158908
33.41297852581774	1.914077	1.3835018
33.43127811979204	1.8728184	1.3685095
33.44957859142105	1.8921366	1.3755496
33.467879941297866	1.9908122	1.4109614
33.486182170015844	1.9816684	1.4077175
33.50448527816853	1.8584075	1.3632342
33.522789266349754	1.8456782	1.3585573
33.541094135153514	1.88231	1.371973
33.55939988517411	1.9785368	1.4066048
33.57770651700602	1.9188263	1.3852171
33.59601403124398	1.8655571	1.365854
33.61432242848296	1.8856272	1.3731813
33.632631709318154	1.980755	1.407393
33.650941874344994	1.9724004	1.4044217
33.66925292415916	1.8893583	1.3745393
33.68756485935654	1.8272736	1.3517668
33.70587768053328	1.942072	1.3935825
33.724191388285746	2.0037668	1.4155447
33.74250598321054	1.9846529	1.4087771
33.760821465904506	1.9337597	1.3905969
33.77913783696474	1.8923241	1.3756177
33.79745509698852	1.8788496	1.3707113
33.815773246573414	1.9314839	1.3897784
33.8340922863172	1.9577078	1.3991811
33.852412216817896	1.9698056	1.4034976
33.87073303867377	2.0644405	1.4368161
33.889054752483304	1.9274696	1.3883334
33.907377358845245	1.8763411	1.369796
33.92570085835853	1.9100144	1.3820328
33.94402525162239	1.9552253	1.3982937
33.96235053923627	1.9449036	1.394598
33.980676721799824	1.9749447	1.4053273
33.999003799912984	1.990673	1.4109122
34.01733177417592	1.9556135	1.3984325
34.03566064518901	1.9575131	1.3991115
34.0539904135529	2.0501623	1.4318388
34.07232107986846	2.0681736	1.4381146
34.090652644736785	1.9806219	1.4073457
34.108985108759235	1.9713554	1.4040496
34.12731847253742	2.0559745	1.433867
34.14565273667313	2.045297	1.4301388
34.16398790176847	1.8834047	1.3723719
34.18232396842574	1.8305247	1.3529688
34.20066093724749	1.8640465	1.3653009
34.21899880883651	1.8701032	1.3675172
34.23733758379583	1.9086343	1.3815333
34.25567726272874	2.0432773	1.4294325
34.27401784623872	2.076269	1.4409264
34.29235933492957	1.9955258	1.4126308
34.31070172940526	1.9538999	1.3978196
34.32904503027003	2.0041614	1.4156841
34.347389238128386	1.9472355	1.3954338
34.36573435358502	1.9681169	1.4028959
34.38408037724492	2.0370235	1.4272434
34.402427309713296	1.9880242	1.4099731
34.42077515159559	1.9312172	1.3896824
34.43912390349752	2.0477026	1.4309796
34.45747356602499	2.0751975	1.4405546
34.47582413978423	1.946508	1.3951731
34.49417562538163	1.860998	1.364184
34.51252802342388	1.8384054	1.3558781
34.53088133451789	1.9281367	1.3885736
34.54923555927084	1.9823979	1.4079765
34.567590698290104	2.0071826	1.4167507
34.58594675218336	2.0341585	1.4262393
34.6043037215585	2.0051095	1.416019
34.62266160702365	1.8116741	1.3459845
34.641020409187234	1.7347872	1.3171132
34.65938012865785	1.7553414	1.324893
34.677740766044394	1.9022309	1.3792138
34.69610232195598	1.8398963	1.3564278
34.714464797002016	1.897633	1.377546
34.73282819179208	1.8966503	1.3771893
34.751192506936064	1.7838314	1.3356014
34.76955774304408	1.826225	1.3513789
34.7879239007265	1.9080862	1.3813349
34.80629098059391	1.9069175	1.3809118
34.824658983257194	1.9495215	1.3962526
34.843027909327446	1.8883111	1.3741584
34.86139775941603	1.9345797	1.3908917
34.879768534134534	1.8865085	1.3735023
34.89814023409483	1.8365678	1.3552003
34.91651285990901	1.8203281	1.3491954
34.93488641218944	1.9487768	1.395986
34.95326089154871	2.1586542	1.4692359
34.97163629859967	2.2321627	1.4940424
34.99001263395542	1.9000666	1.378429
35.00838989822934	1.6138775	1.2703848
35.02676809203499	1.6238438	1.2743013
35.04514721598624	1.7523154	1.3237505
35.063527270697215	1.7639002	1.328119
35.081908256782256	1.9389654	1.3924674
35.10029017485597	2.044091	1.4297171
35.11867302553321	2.2972417	1.5156654
35.137056809429104	2.2408638	1.4969515
35.155441527159006	1.9616077	1.4005741
35.173827179338524	1.9442251	1.3943547
35.19221376658354	2.0150895	1.4195385
35.21060128951017	1.8397115	1.3563597
35.2289897487348	1.9822325	1.4079177
35.24737914487405	2.0419118	1.4289548
35.26576947854479	1.8974416	1.3774766
35.28416075036418	1.9104308	1.3821833
35.30255296094958	1.9134498	1.383275
35.32094611091867	1.83438	1.3543929
35.33934020088932	1.9094706	1.3818359
35.35773523147969	1.9623535	1.4008403
35.3761312033082	1.7208754	1.3118213
35.394528116993506	1.5784405	1.25636
35.41292597315452	1.8070744	1.3442746
35.431324772410434	1.9694337	1.4033651
35.449724515380666	2.1086328	1.4521133
35.46812520268491	2.179166	1.4761999
35.486526834943106	2.2421525	1.4973818
35.504929412775454	1.9873991	1.4097514
35.52333293680242	1.5936444	1.2623963
35.54173740764471	1.3671281	1.1692425
35.560142825923286	1.4466978	1.2027875
35.5785491922594	1.4695917	1.2122672
35.59695650727454	1.1726199	1.0828757
35.61536477159042	0.6898081	0.83054686
