0.008763373481513119	0.0	0.0
0.026290120649546365	0.14626539	0.3824466
0.043816868432600686	0.1255995	0.3544002
0.06134361724069026	0.08669658	0.29444283
0.07887036748382949	0.07658005	0.276731
0.0963971195720331	0.10960925	0.3310729
0.11392387391531617	0.089830354	0.29971713
0.1314506309236943	0.10344805	0.3216334
0.1489773910071836	0.053588614	0.23149215
0.16650415457580078	0.07041997	0.2653676
0.18403092203956356	0.13564122	0.368295
0.20155769380849	0.19574553	0.4424314
0.2190844702925996	0.21916607	0.46815175
0.2366112519019124	0.21236971	0.46083587
0.2541380390464497	0.115123875	0.33929908
0.27166483213623416	0.08959286	0.29932067
0.28919163158128947	0.08779509	0.29630238
0.3067184377916406	0.098132014	0.3132603
0.324245251177314	0.108731434	0.3297445
0.34177207214833777	0.11720237	0.3423483
0.3592989011147415	0.11308742	0.33628473
0.37682573848655654	0.07801914	0.27931908
0.39435258467381573	0.1193646	0.34549183
0.41187944008655414	0.13436076	0.36655253
0.42940630513480854	0.15462354	0.393222
0.446933180228618	0.13082956	0.3617037
0.4644600657780234	0.1813622	0.4258664
0.48198696219306775	0.19707285	0.44392887
0.49951386988379676	0.20125383	0.44861323
0.5170407892602581	0.18502733	0.43014804
0.5345677207325025	0.115999505	0.340587
0.5520946647105822	0.1266906	0.35593623
0.5696216216045534	0.09008492	0.30014148
0.5871485918244737	0.075642616	0.275032
0.6046755757804043	0.08365983	0.2892401
0.6222025738824094	0.115318894	0.33958635
0.6397295865405557	0.14080936	0.37524572
0.6572566141649129	0.17579755	0.4192822
0.6747836571655547	0.1781288	0.42205307
0.6923107159525568	0.1946884	0.44123507
0.7098377909359992	0.16927414	0.41142938
0.7273648825259653	0.17197195	0.414695
0.7448919911325411	0.16577987	0.40716076
0.762419117165817	0.24612832	0.4961132
0.7799462610358868	0.22174491	0.47089797
0.7974734231528482	0.23053968	0.48014548
0.8150006039268024	0.21894054	0.46791083
0.8325278037678551	0.22891861	0.4784544
0.8500550230861152	0.22861211	0.47813398
0.8675822622916969	0.21122739	0.45959482
0.8851095217947171	0.19972274	0.4469035
0.9026368020052984	0.21972159	0.4687447
0.9201641033335665	0.21454385	0.4631888
0.9376914261896523	0.23351738	0.48323637
0.9552187709836915	0.25236487	0.50235933
0.9727461381258234	0.23462473	0.48438078
0.990273528026193	0.22516553	0.4745161
1.0078009410949496	0.21301506	0.46153554
1.0253283777422473	0.25192124	0.50191754
1.0428558383782454	0.28117657	0.53026086
1.0603833234131086	0.32419515	0.56938136
1.0779108332570058	0.3515678	0.5929315
1.0954383683201119	0.38276988	0.618684
1.112965929012607	0.43449447	0.6591619
1.1304935157446763	0.55265874	0.7434102
1.1480211289265108	0.5807045	0.7620397
1.1655487689683062	1.4260931	1.1941915
1.1830764362802655	1.7184576	1.3108995
1.200604131272596	2.0797982	1.4421506
1.2181318543555117	2.2541962	1.5013981
1.235659605939232	2.2539046	1.5013009
1.253187386433982	3.9403775	1.9850384
1.270715196249994	6.421902	2.5341473
1.2882430357975057	11.882418	3.4470882
1.3057709054867608	16.453062	4.056237
1.3232988057280106	22.107708	4.7018833
1.3408267369315112	27.21812	5.2170987
1.358354699507526	30.630522	5.534485
1.3758826938663256	34.995724	5.9157186
1.3934107204181858	36.67931	6.0563445
1.410938779573391	37.1307	6.0934963
1.4284668717422309	37.811214	6.149082
1.4459949973350033	37.40122	6.1156535
1.4635231567620117	37.626484	6.134043
1.4810513504335687	37.01057	6.0836315
1.4985795787599925	35.93269	5.994388
1.5161078421516088	35.631615	5.969222
1.5336361410187505	34.48355	5.8722696
1.5511644757717598	34.813175	5.900269
1.5686928468209842	35.520847	5.9599366
1.58622125457678	36.27834	6.0231504
1.6037496994495108	37.50337	6.1239996
1.621278181849548	37.55124	6.127907
1.6388067021872719	38.694294	6.220474
1.6563352608730693	38.282284	6.187268
1.673863858317336	37.311356	6.108302
1.6913924949304753	36.233994	6.019468
1.7089211711228998	34.90755	5.9082613
1.7264498873050296	34.076702	5.8375254
1.7439786438872935	33.38061	5.7775955
1.7615074412801288	32.50698	5.7014894
1.779036279893981	31.623724	5.6234975
1.796565160139305	30.41355	5.514848
1.814094082426564	29.58999	5.439668
1.8316230471662298	28.755234	5.3623905
1.849152054768784	28.061514	5.297312
1.8666811056447168	27.77844	5.2705255
1.8842102002045273	27.065247	5.202427
1.901739338858724	26.673124	5.164603
1.9192685220178245	25.831644	5.0824842
1.9367977500923557	25.13231	5.0132136
1.9543270234928547	24.820724	4.9820404
1.971856342629867	24.238712	4.9232826
1.9893857079139496	23.668694	4.865048
2.006915119755667	22.871244	4.782389
2.0244445785655945	22.29065	4.7212973
2.0419740847543175	22.04538	4.695251
2.0595036387324317	21.666115	4.6546874
2.0770332409105414	21.245775	4.609314
2.094562891699263	20.854904	4.566717
2.1120925915092217	20.299835	4.5055337
2.129622340751053	20.118565	4.485372
2.1471521398354043	188.32506	13.723158
2.1646819891729323	444.83057	21.091007
2.182211889174303	440.93887	20.998545
2.1997418402501974	453.10428	21.286245
2.2172718428113023	433.05786	20.810041
2.234801897268317	321.1046	17.919392
2.2523320040319548	17.53358	4.1873116
2.269862163512935	16.97898	4.120556
2.287392376121992	16.49642	4.0615783
2.304922642269869	16.365099	4.04538
2.322452962367322	16.040583	4.0050697
2.3399833368251164	15.868639	3.983546
2.357513766054032	15.416762	3.9264185
2.3750442504648586	15.137101	3.890643
2.3925747904683963	14.943991	3.8657458
2.410105386475459	14.836336	3.8517964
2.4276360388968707	14.396597	3.7942848
2.445166748143469	14.052147	3.7486193
2.4626975146261025	13.769027	3.710664
2.4802283387556323	13.559809	3.6823645
2.4977592209429305	13.341299	3.6525743
2.5152901615988825	13.254623	3.6406898
2.5328211611343865	13.041173	3.6112564
2.5503522199603523	12.821129	3.5806603
2.5678833384877024	12.594032	3.5488071
2.5854145171273712	12.293034	3.5061424
2.6029457562903064	11.995821	3.4634984
2.620477056387469	11.911384	3.4512873
2.6380084178298326	11.823546	3.4385383
2.655539841028383	11.587679	3.404068
2.673071326394119	11.422315	3.3796916
2.6906028743380523	11.118651	3.334464
2.708134485271211	10.840031	3.2924201
2.7256661596046325	10.681101	3.2681954
2.743197897749369	10.722331	3.274497
2.760729700116486	10.92866	3.3058524
2.778261567117063	10.834347	3.2915568
2.795793499162193	10.469818	3.23571
2.8133254966629817	10.31686	3.211987
2.830857560030551	10.012647	3.1642766
2.8483896896760337	9.762914	3.124566
2.865921886010578	9.618995	3.1014504
2.883454149445347	9.591734	3.0970526
2.9009864803915177	9.582407	3.0955462
2.91851887926028	9.4351	3.0716608
2.9360513464628384	9.191039	3.0316727
2.953583882410413	8.95055	2.991747
2.9711164875142373	8.784876	2.9639292
2.9886491621855606	8.590821	2.9310102
3.0061819068356455	8.555803	2.9250305
3.023714721875769	8.560744	2.925875
3.041247607717225	8.430059	2.9034564
3.0587805647713213	8.217285	2.8665807
3.0763135934493806	8.16126	2.8567917
3.0938466941627407	8.100207	2.8460863
3.1113798673227544	8.05094	2.8374178
3.1289131133407904	7.932146	2.8164065
3.1464464326282315	7.810197	2.794673
3.1639798255964786	7.719836	2.7784593
3.1815132926569443	7.613436	2.7592456
3.1990468342210603	7.4950466	2.7377083
3.216580450700272	7.364965	2.713847
3.2341141425060416	7.281027	2.6983378
3.251647910049847	7.206978	2.6845815
3.2691817537431813	7.0565724	2.656421
3.286715673997555	6.965186	2.639164
3.3042496712244938	6.9368644	2.6337929
3.32178374583554	6.964546	2.6390426
3.339317898242251	7.028116	2.6510594
3.3568521288562034	7.016292	2.6488285
3.3743864380889876	7.004157	2.6465368
3.3919208263522127	6.798849	2.6074603
3.4094552940575023	6.6086965	2.5707386
3.4269898416164972	6.540067	2.5573554
3.444524469440858	6.491028	2.5477495
3.4620591779422587	6.442716	2.5382507
3.479593967532391	6.347698	2.5194638
3.4971288386229658	6.2217855	2.4943507
3.5146637916257086	6.348768	2.5196762
3.5321988269523628	6.45277	2.5402303
3.5497339450146903	6.51167	2.5517974
3.5672691462244708	6.4631777	2.542278
3.5848044309934988	6.321945	2.5143478
3.60233979973359	6.3330865	2.5165625
3.619875252856575	6.359366	2.5217783
3.6374107907743034	6.325689	2.5150921
3.6549464138986427	6.275643	2.5051234
3.6724821226414788	6.2175403	2.4934995
3.690017917414714	6.3037543	2.510728
3.7075537986302702	6.364862	2.522868
3.7250897667000857	6.539639	2.5572717
3.7426258220361235	6.777788	2.6034186
3.7601619650503553	7.1043963	2.6654074
3.777698196154779	7.5298696	2.7440608
3.7952345157614067	8.381748	2.895125
3.8127709242822716	9.111716	3.0185618
3.830307422129425	11.328762	3.3658226
3.847844009714936	12.803307	3.5781708
3.8653806874508954	16.303707	4.037785
3.882917455749409	15.794051	3.974173
3.900454315022606	15.792128	3.973931
3.917991265682631	12.585324	3.54758
3.9355283081416506	10.668373	3.2662475
3.9530654428118495	8.522402	2.9193153
3.970602670105433	7.367794	2.714368
3.9881399904346244	6.61191	2.5713634
4.005677404211669	6.5748515	2.5641472
4.023214911848827	6.4536505	2.5404036
4.0407525137583855	6.3630347	2.5225058
4.058290210352644	6.4342465	2.5365818
4.075828002043927	6.372712	2.5244231
4.0933658892445814	6.355108	2.5209339
4.110903872366966	6.3535566	2.5206263
4.128441951823468	6.394127	2.528661
4.145980128026488	6.3601193	2.5219276
4.163518401388452	6.2445493	2.4989097
4.181056772321807	6.224603	2.4949155
4.1985952412390155	6.2056336	2.491111
4.216133808552567	6.238025	2.497604
4.233672474674966	6.2687964	2.5037565
4.251211240018741	6.4038024	2.5305736
4.268750104996445	6.664492	2.5815678
4.286289070020643	7.6051874	2.7577505
4.303828135503928	9.186929	3.0309947
4.3213673018589125	29.52364	5.433566
4.3389065694982305	90.71816	9.524609
4.356445938834537	165.97247	12.883031
4.3739854102805085	171.60237	13.099709
4.391524984248844	172.36739	13.128876
4.409064661152262	136.32257	11.675726
4.426604441403504	96.63314	9.830215
4.444144325415337	75.53015	8.690808
4.461684313600543	21.787327	4.66769
4.47922440637193	22.121094	4.7033067
4.496764604142329	20.485664	4.526109
4.5143049073245916	18.660667	4.3197994
4.531845316331589	16.609722	4.075503
4.5493858315762195	13.937046	3.7332354
4.566926453471405	11.571759	3.4017289
4.584467182430081	9.458231	3.0754237
4.602008018865218	8.233195	2.8693545
4.619548963189798	7.532712	2.7445786
4.637090015816834	7.046869	2.654594
4.654631177159353	6.826871	2.6128283
4.672172447630417	6.494951	2.5485194
4.689713827643102	6.2664065	2.5032792
4.7072553176105085	6.005084	2.4505272
4.724796917945764	5.7481756	2.3975353
4.742338629062015	5.7033787	2.3881748
4.759880451372434	5.6324396	2.3732762
4.777422385290215	5.621687	2.3710096
4.794964431228581	5.6550136	2.3780272
4.812506589600768	5.711059	2.3897822
4.830048860820047	5.705171	2.38855
4.847591245299709	5.681505	2.383591
4.8651337434530655	5.6532073	2.3776474
4.882676355693457	5.598514	2.366118
4.900219082434242	5.619943	2.370642
4.917761924088813	5.656304	2.3782985
4.935304881070575	5.675856	2.3824055
4.952847953792969	5.591135	2.3645582
4.970391142669449	5.4822545	2.3414214
4.9879344481135055	5.473324	2.3395135
5.005477870538642	5.458821	2.336412
5.023021410358394	5.508221	2.34696
5.040565067986324	5.5000587	2.3452203
5.05810884383601	5.44258	2.332934
5.075652738321066	5.416349	2.327305
5.09319675185512	5.363885	2.3160062
5.110740884851836	5.388274	2.3212657
5.128285137724894	5.4085145	2.3256214
5.145829510888007	5.358306	2.3148015
5.163374004754908	5.380858	2.3196676
5.1809186197393595	5.360938	2.31537
5.198463356255145	5.4851875	2.3420477
5.216008214716077	5.4532065	2.33521
5.233553195535998	5.4126124	2.326502
5.251098299128764	5.3696275	2.3172457
5.268643525908272	5.313042	2.3050036
5.286188876288432	5.3382225	2.3104594
5.3037343506831895	5.3336415	2.3094678
5.32127994950651	5.299029	2.301962
5.3388256731723915	5.2830253	2.2984834
5.356371522094851	5.2968407	2.3014867
5.373917496687938	5.256869	2.2927864
5.391463597365729	5.23421	2.2878397
5.40900982454232	5.1853848	2.277144
5.426556178631843	5.228535	2.2865992
5.444102660048449	5.2264977	2.2861536
5.4616492692063225	5.1875434	2.277618
5.479196006519669	5.2113667	2.2828417
5.496742872402727	5.1935005	2.2789252
5.514289867269756	5.1993384	2.2802057
5.531836991535049	5.18435	2.2769167
5.549384245612924	5.191857	2.2785647
5.566931629917724	5.2620296	2.2939115
5.584479144863822	5.270146	2.2956798
5.6020267908656205	5.2147317	2.2835786
5.619574568337545	5.180861	2.2761505
5.637122477694054	5.1589565	2.2713337
5.654670519349629	5.201121	2.2805965
5.672218693718784	5.2511835	2.291546
5.689767001216059	5.300219	2.3022203
5.707315442256021	5.32263	2.3070827
5.724864017253266	5.310773	2.3045113
5.7424127266224225	5.260703	2.2936223
5.75996157077814	5.220986	2.2849476
5.777510550135105	5.2084775	2.282209
5.795059665108022	5.227559	2.2863855
5.812608916111639	5.3567214	2.314459
5.830158303560715	5.512524	2.3478765
5.847707827870055	5.4908895	2.3432648
5.86525748945448	5.4698386	2.3387687
5.8828072887288485	5.5204616	2.3495662
5.900357226108044	5.555834	2.3570817
5.917907302006979	5.6702757	2.3812342
5.9354575168406	6.246127	2.4992254
5.9530078710238765	6.888732	2.6246395
5.970558364971812	7.3758173	2.7158456
5.988108999099438	7.652384	2.7662942
6.005659773821818	8.22074	2.8671834
6.023210689554039	7.903051	2.8112366
6.040761746711227	8.358811	2.891161
6.058312945708531	7.7340236	2.7810113
6.075864286961132	7.3050566	2.702787
6.093415770884244	6.644601	2.5777123
6.1109673978931065	6.0968184	2.4691737
6.128519168402993	5.5092025	2.347169
6.146071082829204	5.3654623	2.3163466
6.163623141587075	5.2774844	2.2972777
6.181175345091969	5.204593	2.2813578
6.198727693759281	5.201568	2.2806947
6.216280188004435	5.2074995	2.2819946
6.233832828242885	5.2660303	2.2947834
6.251385614890126	5.320787	2.306683
6.268938548361669	5.3111405	2.3045912
6.286491629073067	5.2134404	2.2832959
6.304044857439898	5.1849723	2.2770534
6.321598233877777	5.1174793	2.2621846
6.339151758802344	5.0454717	2.2462127
6.356705432629277	4.9911118	2.2340796
6.37425925577428	4.9784226	2.231238
6.391813228653095	5.079914	2.2538664
6.409367351681486	5.163822	2.2724044
6.426921625275259	5.1760197	2.2750866
6.44447604985025	5.0785365	2.2535608
6.46203062582232	4.99439	2.2348132
6.47958535360737	4.9616175	2.2274687
6.497140233621328	5.027554	2.2422209
6.514695266280161	5.069902	2.2516444
6.532250451999859	5.118123	2.262327
6.549805791196454	5.008601	2.2379904
6.567361284286002	4.9682727	2.2289622
6.584916931684597	4.9485598	2.224536
6.602472733808367	5.0031104	2.2367635
6.6200286910734665	5.0625	2.25
6.637584803896092	5.0511084	2.247467
6.655141072692462	5.0208864	2.2407334
6.672697497878842	4.93863	2.222303
6.690254079871514	4.9192157	2.2179306
6.707810819086808	4.9147043	2.2169132
6.725367715941078	4.981595	2.2319486
6.742924770850719	5.000944	2.236279
6.760481984232151	4.9896955	2.2337627
6.778039356501836	4.986303	2.2330031
6.795596888076266	4.9859605	2.2329264
6.813154579371963	4.963145	2.2278116
6.830712430805492	4.9464912	2.2240708
6.84827044279344	5.009999	2.2383027
6.865828615752445	4.987913	2.2333636
6.883386950099159	5.0581727	2.2490382
6.900945446250287	5.0255227	2.241768
6.918504104622553	5.040571	2.2451217
6.936062925632727	5.050094	2.2472415
6.953621909697607	5.08195	2.2543182
6.971181057234028	5.125256	2.263903
6.988740368658859	5.19129	2.2784402
7.006299844389007	5.213859	2.2833877
7.023859484841407	5.3044033	2.303129
7.041419290433036	5.40685	2.3252635
7.058979261580902	5.5176826	2.3489747
7.0765393987020495	5.7063856	2.3888042
7.094099702213559	6.047637	2.4591944
7.111660172532549	6.4615927	2.5419662
7.129220810076164	6.8313203	2.6136794
7.146781615261595	7.467017	2.7325842
7.16434258850606	7.7285023	2.7800183
7.181903730226821	8.13321	2.8518784
7.1994650408411704	8.186518	2.8612092
7.217026520766437	8.276014	2.8768063
7.234588170419983	8.530764	2.920747
7.252149990219215	8.513271	2.917751
7.269711980581568	8.360514	2.8914552
7.2872741419245175	8.151542	2.8550904
7.304836474665574	7.7028008	2.775392
7.322398979222286	7.3933444	2.7190704
7.339961656012233	7.0971355	2.6640449
7.357524505453039	6.754733	2.5989869
7.375087527962357	6.52075	2.553576
7.392650723957886	6.2829013	2.5065715
7.410214093857353	5.995413	2.4485533
7.427777638078528	5.781618	2.4044995
7.445341357039213	5.622581	2.3711982
7.4629052511572525	5.4066463	2.3252196
7.480469320850524	5.300451	2.302271
7.498033566536948	5.1911407	2.2784076
7.5155979886344735	5.190972	2.2783704
7.5331625875610975	5.1691027	2.273566
7.550727363734844	5.170627	2.2739012
7.568292317573788	5.2010612	2.2805836
7.585857449496025	5.185101	2.2770817
7.603422759919705	5.149401	2.2692292
7.620988249263007	5.1981077	2.2799358
7.638553917944147	5.1897492	2.2781022
7.656119766381391	5.23148	2.287243
7.673685794993023	5.2247806	2.2857778
7.691252004197388	5.249514	2.2911818
7.70881839441285	5.243894	2.2899551
7.726384966057826	5.184071	2.2768555
7.743951719550762	5.196891	2.279669
7.761518655310149	5.2547	2.2923133
7.779085773754511	5.333877	2.3095188
7.796653075302419	5.3746014	2.3183186
7.814220560372475	5.3739285	2.3181736
7.831788229383323	5.357289	2.3145819
7.8493560827536495	5.319066	2.30631
7.866924120902174	5.2970066	2.3015227
7.884492344247663	5.314937	2.3054147
7.9020607532089135	5.3555098	2.3141975
7.919629348204771	5.388856	2.3213909
7.937198129654115	5.389283	2.321483
7.954767097975865	5.402397	2.3243058
7.972336253588986	5.3683853	2.3169777
7.989905596912472	5.3811364	2.3197277
8.007475128365371	5.417329	2.3275156
8.025044848366756	5.536828	2.3530467
8.042614757335754	5.720513	2.3917594
8.060184855691523	5.788732	2.4059784
8.07775514385327	5.9128923	2.431644
8.095325622240228	5.899832	2.428957
8.112896291271687	5.91865	2.4328277
8.130467151366968	5.9059043	2.4302065
8.148038202945436	5.952497	2.439774
8.165609446426497	6.008528	2.45123
8.183180882229594	6.1292934	2.475741
8.200752510774217	6.13049	2.4759827
8.218324332479893	6.1388845	2.4776773
8.235896347766193	6.0655513	2.462834
8.253468557052724	6.0871754	2.46722
8.27104096075914	6.0824766	2.4662678
8.288613559305137	6.1058965	2.4710112
8.306186353110448	6.175281	2.4850113
8.32375934259485	6.255994	2.5011985
8.341332528178162	6.351034	2.5201259
8.358905910280246	6.365377	2.52297
8.376479489321003	6.3241887	2.5147939
8.394053265720377	6.330722	2.5160925
8.411627239898356	6.342109	2.5183544
8.42920141227497	6.338017	2.517542
8.44677578327029	6.372451	2.5243714
8.464350353304427	6.3081517	2.5116034
8.48192512279754	6.2773924	2.5054724
8.499500092169827	6.266861	2.5033698
8.51707526184153	6.27435	2.5048654
8.534650632232934	6.292741	2.5085337
8.552226203764365	6.254581	2.500916
8.569801976856192	6.206491	2.491283
8.587377951928834	6.2416315	2.4983258
8.60495412940274	6.2850776	2.5070057
8.622530509698416	6.3138704	2.5127416
8.6401070932364	6.4070272	2.5312107
8.657683880437283	6.555494	2.56037
8.675260871721695	6.7415867	2.5964565
8.692838067510303	6.9133234	2.62932
8.710415468223834	7.0694704	2.6588476
8.727993074283043	7.2331576	2.6894531
8.745570886108737	7.2513347	2.6928303
8.763148904121765	7.2895	2.6999075
8.78072712874302	7.245119	2.691676
8.798305560393441	7.4444513	2.7284522
8.815884199494006	7.627741	2.7618365
8.833463046465745	7.801406	2.7930996
8.851042101729728	7.9542823	2.8203337
8.86862136570707	8.206545	2.8647068
8.886200838818924	8.354847	2.8904753
8.903780521486505	8.465804	2.9096055
8.921360414131055	8.540385	2.9223938
8.938940517173874	8.695205	2.9487634
8.956520831036297	8.842495	2.9736333
8.97410135613971	9.176723	3.0293105
8.99168209290554	9.407147	3.0671074
9.009263041755265	9.630701	3.103337
9.026844203110405	9.742857	3.121355
9.044425577392525	9.813186	3.1326005
9.062007165023239	9.889203	3.1447103
9.079588966424197	10.260357	3.2031791
9.097170982017108	10.412427	3.2268293
9.11475321222372	11.3568325	3.3699899
9.132335657465825	12.2334585	3.497636
9.149918318165264	12.325137	3.5107174
9.167501194743924	12.889819	3.5902395
9.18508428762374	12.614262	3.5516562
9.202667597226693	12.538169	3.5409276
9.220251123974803	12.140112	3.4842663
9.237834868290143	11.837527	3.4405708
9.255418830594836	11.64415	3.4123526
9.273003011311046	11.193843	3.34572
9.290587410860985	10.960962	3.3107345
9.308172029666911	10.388897	3.2231812
9.32575686815113	10.089201	3.1763504
9.343341926735997	8.786597	2.9642196
9.360927205843916	8.544562	2.9231083
9.378512705897327	8.429093	2.90329
9.396098427318728	8.244803	2.8713765
9.413684370530664	8.149494	2.8547318
9.431270535955722	7.9682956	2.8228168
9.448856924016539	7.8756022	2.8063502
9.466443535135806	7.824041	2.7971487
9.484030369736251	7.8538113	2.8024652
9.501617428240658	7.856403	2.8029275
9.519204711071852	7.85706	2.8030448
9.536792218652714	7.8471446	2.8012755
9.55437995140617	7.878025	2.806782
9.571967909755191	7.8637805	2.8042433
9.589556094122802	7.875975	2.8064167
9.60714450493207	7.9592443	2.8212132
9.624733142606116	8.032106	2.8340971
9.642322007568108	8.134146	2.8520424
9.659911100241267	8.161719	2.8568723
9.677500421048851	8.14096	2.8532367
9.695089970414175	8.086598	2.8436944
9.712679748760609	8.119363	2.8494496
9.730269756511557	8.159534	2.85649
9.747859994090492	8.173316	2.8589013
9.765450461920915	8.144727	2.8538969
9.78304116042639	8.1894245	2.861717
9.800632090030527	8.255481	2.8732352
9.81822325115699	8.247993	2.871932
9.835814644229481	8.294983	2.8801012
9.853406269671762	8.306079	2.882027
9.870998127907646	8.353198	2.89019
9.888590219360985	8.345933	2.888933
9.906182544455698	8.411235	2.900213
9.923775103615734	8.45116	2.907088
9.941367897265108	8.443214	2.905721
9.958960925827878	8.363314	2.8919394
9.97655418972816	8.198781	2.8633513
9.994147689390106	8.255293	2.8732026
10.011741425237934	8.321347	2.8846745
10.029335397695904	8.4098015	2.8999658
10.04692960718833	8.3747835	2.8939219
10.06452405413958	8.3758135	2.8940997
10.082118738974064	8.375948	2.894123
10.099713662116246	8.293036	2.8797634
10.117308823990651	8.276483	2.8768876
10.134904225021844	8.235025	2.8696735
10.152499865634445	8.341254	2.888123
10.170095746253125	8.396357	2.8976467
10.18769186730261	8.301625	2.8812542
10.205288229207675	8.1461315	2.854143
10.222884832393145	8.126258	2.8506591
10.2404816772839	8.14146	2.8533244
10.258078764304868	8.231294	2.869023
10.275676093881035	8.213833	2.8659785
10.293273666437438	8.107542	2.8473747
10.310871482399158	8.103805	2.8467183
10.32846954219134	8.095094	2.845188
10.346067846239173	8.169052	2.8581555
10.363666394967908	8.126447	2.8506923
10.38126518880283	8.201777	2.8638744
10.398864228169298	8.202023	2.8639174
10.416463513492713	8.220564	2.8671527
10.434063045198531	8.199252	2.8634336
10.451662823712262	8.2273655	2.8683383
10.469262849459467	8.263339	2.8746023
10.486863122865758	8.194797	2.8626554
10.504463644356806	8.176654	2.859485
10.522064414358338	8.017737	2.8315609
10.539665433296118	7.958049	2.8210013
10.557266701595987	7.895842	2.8099542
10.574868219683818	7.842592	2.8004627
10.592469987985552	7.8031693	2.7934153
10.610072006927185	7.700461	2.7749705
10.627674276934751	7.4978013	2.7382114
10.64527679843435	7.355511	2.7121046
10.662879571852143	7.2183886	2.6867058
10.680482597614331	7.1434216	2.672718
10.698085876147173	7.06118	2.657288
10.715689407876988	6.991133	2.6440752
10.733293193230146	6.9490733	2.6361096
10.750897232633072	6.8332615	2.6140509
10.76850152651225	6.7641354	2.600795
10.786106075294207	6.767867	2.6015124
10.803710879405534	6.684978	2.5855324
10.821315939272877	6.5570006	2.5606642
10.83892125532294	6.4230976	2.534383
10.856526827982472	6.3058925	2.5111537
10.874132657678285	6.289029	2.5077937
10.891738744837243	6.2447824	2.4989562
10.909345089886271	6.226374	2.4952703
10.926951693252343	6.203772	2.4907372
10.944558555362494	6.1701345	2.4839756
10.96216567664381	6.129146	2.4757113
10.979773057523436	6.0348682	2.4565969
10.997380698428573	5.892267	2.4273992
11.014988599786477	5.796218	2.4075336
11.032596762024461	5.731596	2.3940752
11.050205185569892	5.6475143	2.37645
11.067813870850198	5.5713296	2.3603663
11.085422818292859	5.46736	2.3382387
11.10303202832541	5.415136	2.3270445
11.120641501375454	5.3711357	2.3175712
11.138251237870636	5.3629675	2.315808
11.155861238238671	5.324852	2.307564
11.173471502907317	5.2568107	2.2927735
11.191082032304402	5.1844263	2.2769334
11.208692826857805	5.057181	2.2488177
11.226303886995465	4.9785604	2.231269
11.243915213145371	4.939877	2.2225835
11.261526805735578	4.8986917	2.2132988
11.279138665194196	4.8844085	2.21007
11.296750791949393	4.850467	2.2023776
11.314363186429393	4.8130655	2.19387
11.331975849062479	4.7570586	2.1810682
11.34958878027699	4.7424626	2.1777196
11.36720198050133	4.698305	2.1675575
11.384815450163948	4.610257	2.147151
11.402429189693366	4.4963202	2.120453
11.420043199518153	4.4415793	2.1075056
11.437657480066942	63.39626	7.962177
11.455272031768422	85.15628	9.228016
11.472886855051353	107.556854	10.370962
11.490501950344528	99.1474	9.957279
11.508117318076819	84.452614	9.189811
11.52573295867715	45.85681	6.7717657
11.543348872574514	4.186771	2.04616
11.560965060197946	4.1499853	2.0371513
11.57858152197655	4.0461397	2.0115018
11.59619825833949	3.9890463	1.9972597
11.613815269715985	3.985823	1.9964526
11.631432556535323	38.56805	6.210318
11.649050119226837	83.12379	9.117225
11.666667958219929	93.52211	9.670683
11.68428607394406	107.75947	10.380726
11.701904466828756	82.54864	9.0856285
11.719523137303586	65.37784	8.085656
11.737142085798196	4.612508	2.147675
11.754761312742286	3.7201962	1.928781
11.772380818565619	3.6504529	1.9106158
11.790000603698015	3.6395924	1.9077716
11.80762066856935	3.610324	1.9000852
11.825241013609572	3.6111603	1.9003053
11.842861639248683	3.5807686	1.8922919
11.860482545916748	3.5419104	1.8819964
11.878103734043883	3.4838917	1.8665186
11.895725204060282	3.4094222	1.846462
11.91334695639619	3.3837278	1.8394911
11.930968991481919	3.3241582	1.8232274
11.948591309747824	3.3502078	1.8303573
11.966213911624347	3.3286655	1.8244631
11.98383679754198	3.344515	1.8288015
12.001459967931268	3.3328652	1.8256136
12.019083423222835	3.3131423	1.8202039
12.036707163847352	3.2483463	1.8023169
12.05433119023556	3.2080579	1.7911053
12.071955502818259	3.1616044	1.7780901
12.089580102026313	3.1600554	1.7776544
12.107204988290643	3.167364	1.779709
12.12483016204224	3.1736622	1.7814776
12.142455623712152	3.1069224	1.7626464
12.16008137373149	3.0759542	1.7538399
12.177707412531431	3.0713282	1.7525206
12.19533374054321	3.1174548	1.7656316
12.212960358198126	3.1073036	1.7627546
12.230587265927545	3.0960696	1.7595651
12.248214464162889	3.017831	1.7371906
12.265841953335649	2.9901752	1.7292123
12.283469733877375	2.9849093	1.727689
12.301097806219685	3.0087938	1.7345876
12.31872617079425	3.003776	1.7331405
12.336354828032825	2.9872842	1.7283762
12.353983778367205	2.9586878	1.7200837
12.371613022229262	2.9719276	1.723928
12.389242560050928	2.943053	1.7155329
12.406872392264201	2.9361248	1.7135124
12.424502519301143	2.9025695	1.7036929
12.442132941593874	2.8998	1.7028799
12.459763659574586	2.9351554	1.7132295
12.477394673675532	2.9000075	1.7029408
12.49502598432903	2.8687358	1.6937343
12.51265759196746	2.832626	1.6830407
12.530289497023267	2.8424258	1.6859496
12.547921699928967	2.8772826	1.6962554
12.565554201117134	2.8820987	1.6976745
12.583187001020404	2.8697326	1.6940285
12.600820100071486	2.8721588	1.6947445
12.618453498703152	2.8886604	1.699606
12.636087197348235	2.9311237	1.7120525
12.65372119643964	2.9506094	1.7177339
12.671355496410326	2.9293592	1.7115371
12.68899009769333	2.8693912	1.6939278
12.706625000721749	2.8478336	1.6875526
12.724260205928752	2.89558	1.7016404
12.741895713747551	2.906002	1.7047
12.759531524611454	2.973841	1.7244828
12.777167638953818	3.005766	1.7337145
12.794804057208072	3.0571907	1.7484823
12.812440779807702	3.0944588	1.7591074
12.830077807186271	3.245141	1.8014275
12.847715139777405	3.251423	1.8031702
12.865352778014795	3.4763272	1.8644911
12.882990722332197	3.566946	1.888636
12.90062897316344	3.6707594	1.9159226
12.918267530942412	3.7577345	1.9384876
12.935906396103071	3.6333995	1.9061478
12.953545569079449	3.760963	1.9393202
12.971185050305628	3.555512	1.8856065
12.988824840215775	3.5949876	1.8960452
13.006464939244115	3.6273584	1.9045625
13.024105347824943	3.4716735	1.8632427
13.041746066392617	3.5596862	1.886713
13.05938709538157	3.368215	1.8352698
13.077028435226296	3.4153242	1.8480595
13.094670086361363	3.3029158	1.8173926
13.112312049221401	3.197345	1.7881122
13.129954324241112	3.125092	1.7677929
13.147596911855258	2.9409046	1.7149066
13.165239812498685	2.9233322	1.7097754
13.182883026606293	2.8045	1.6746641
13.200526554613058	2.7275627	1.6515335
13.218170396954017	2.681169	1.6374276
13.235814554064284	2.687155	1.6392545
13.253459026379034	2.6877017	1.6394211
13.271103814333523	2.7064133	1.645118
13.288748918363058	2.7366216	1.6542737
13.306394338903031	2.7280881	1.6516925
13.32404007638889	2.6788738	1.6367265
13.341686131256164	2.6668053	1.6330355
13.359332503940449	2.6427875	1.6256652
13.376979194877402	2.6772015	1.6362156
13.394626204502751	2.7049434	1.6446712
13.412273533252307	2.723249	1.650227
13.429921181561937	2.7308786	1.652537
13.447569149867581	2.7849476	1.6688162
13.465217438605247	2.7995396	1.6731825
13.482866048211022	2.7607315	1.6615449
13.500514979121052	2.7070222	1.645303
13.518164231771568	2.6585283	1.6304994
13.535813806598844	2.6746483	1.6354352
13.553463704039254	2.692714	1.6409491
13.571113924529229	2.6895204	1.6399757
13.588764468505275	2.6956058	1.64183
13.606415336403956	2.7214422	1.6496794
13.624066528661917	2.787597	1.6696098
13.641718045715882	2.8723009	1.6947864
13.659369888002635	2.8920667	1.7006078
13.67702205595903	2.9342477	1.7129647
13.694674550021993	2.9869964	1.728293
13.712327370628532	3.0372539	1.7427719
13.729980518215713	3.1188834	1.766036
13.747633993220681	3.2325609	1.7979324
13.765287796080647	3.283867	1.8121443
13.7829419272329	3.2983918	1.8161476
13.800596387114801	3.2926803	1.8145744
13.818251176163775	3.3342435	1.8259912
13.835906294817324	3.3965905	1.8429841
13.853561743513023	3.446482	1.8564703
13.871217522688525	3.4847147	1.866739
13.888873632781538	3.505899	1.8724046
13.906530074229858	3.4801235	1.8655089
13.92418684747135	3.4801555	1.8655175
13.941843952943948	3.45992	1.860086
13.959501391085665	3.4819613	1.8660014
13.977159162334578	3.46213	1.86068
13.994817267128846	3.4215708	1.8497488
14.012475705906693	3.300611	1.8167584
14.030134479106424	3.1662612	1.7793992
14.047793587166414	3.0896692	1.7577455
14.065453030525108	3.0611415	1.7496119
14.083112809621026	3.0429597	1.7444081
14.100772924892766	2.996219	1.7309589
14.118433376778997	2.9467075	1.7165977
14.136094165718458	2.837683	1.6845424
14.153755292149969	2.792104	1.670959
14.171416756512416	2.746674	1.6573093
14.189078559244768	2.6807895	1.6373117
14.20674070078606	2.6263933	1.6206151
14.224403181575408	2.592054	1.6099857
14.242066002051999	2.569125	1.602849
14.259729162655093	2.520512	1.587612
14.277392663824022	2.4999268	1.5811157
14.295056505998208	2.4641454	1.5697597
14.312720689617128	2.4438221	1.563273
14.330385215120348	2.404374	1.5506043
14.348050082947497	2.4247432	1.5571587
14.3657152935383	2.4476783	1.5645058
14.383380847332528	2.4420943	1.5627202
14.401046744770051	2.419881	1.5555967
14.418712986290798	2.4288788	1.5584861
14.436379572334793	2.429551	1.5587016
14.454046503342123	2.4128175	1.5533247
14.471713779752946	2.3362193	1.5284696
14.489381402007504	2.3317878	1.5270193
14.507049370546113	2.3610613	1.5365746
14.524717685809168	2.4214327	1.5560954
14.542386348237134	2.4285648	1.5583854
14.560055358270553	2.428697	1.5584278
14.577724716350051	2.4635162	1.5695592
14.595394422916325	2.4601254	1.5684787
14.61306447841015	2.4767957	1.5737839
14.63073488327237	2.4804702	1.5749508
14.648405637943917	2.529238	1.5903578
14.6660767428658	2.5475721	1.5961115
14.683748198479094	2.5557828	1.5986816
14.701420005224954	2.5859592	1.6080918
14.719092163544628	2.6427424	1.6256514
14.73676467387942	2.6501071	1.627915
14.754437536670727	2.641601	1.6253003
14.772110752360014	2.6399393	1.624789
14.78978432138882	2.7051895	1.6447461
14.807458244198777	2.7103896	1.6463261
14.82513252123159	2.7300448	1.6522847
14.842807152929028	2.74196	1.6558865
14.860482139732962	2.7112963	1.6466014
14.87815748208531	2.6776655	1.6363574
14.8958331804281	2.6847255	1.6385132
14.91350923520342	2.6874306	1.6393385
14.931185646853438	2.7191732	1.6489916
14.948862415820408	2.66158	1.631435
14.966539542546656	2.655237	1.6294898
14.98421702747459	2.645992	1.6266506
15.001894871046696	2.7067914	1.6452329
15.019573073705542	2.7673094	1.6635232
15.037251635893766	2.7168102	1.6482749
15.054930558054092	2.6942298	1.641411
15.072609840629323	2.714295	1.6475117
15.090289484062351	2.8548362	1.6896261
15.107969488796124	3.1613972	1.7780318
15.125649855273691	3.5741367	1.8905387
15.14333058393817	4.03528	2.0088007
15.161011675232768	5.016081	2.239661
15.17869312960076	6.4325676	2.5362506
15.196374947485506	8.262731	2.8744967
15.214057129330447	11.399992	3.3763874
15.231739675579114	16.13479	4.0168133
15.249422586675102	21.313614	4.616667
15.267105863062092	24.301756	4.9296813
15.284789505183847	24.390095	4.938633
15.302473513484218	22.128159	4.7040577
15.320157888407127	18.575817	4.309967
15.337842630396578	14.479959	3.805254
15.355527739896656	11.237439	3.3522289
15.37321321735153	8.738119	2.956031
15.39089906320545	6.394204	2.5286763
15.408585277902748	4.7716107	2.1844018
15.42627186188783	3.7203505	1.928821
15.443958815605198	3.2200522	1.7944504
15.461646139499424	2.9596853	1.7203736
15.479333834015168	2.8011842	1.6736739
15.497021899597165	2.6905391	1.6402863
15.514710336690234	2.6663947	1.6329099
15.53239914573928	2.6245847	1.620057
15.550088327189297	2.6212175	1.6190175
15.567777881485336	2.5752878	1.6047703
15.58546780907256	2.5017724	1.5816993
15.6031581103962	2.4537792	1.5664543
15.620848785901568	2.4435267	1.5631784
15.638539836034063	2.451738	1.5658027
15.656231261239173	2.4582174	1.5678704
15.673923061962451	2.4612577	1.5688396
15.691615238649552	2.4647112	1.5699399
15.709307791746202	2.386879	1.5449528
15.727000721698221	2.3734574	1.5406029
15.744694028951498	2.345096	1.5313706
15.76238771395202	2.356663	1.5351427
15.780081777145844	2.361691	1.5367794
15.797776218979125	2.386948	1.5449752
15.815471039898094	2.3924556	1.5467565
15.833166240349064	2.3823793	1.5434958
15.850861820778437	2.3829775	1.5436896
15.868557781632699	2.3999841	1.5491883
15.886254123358412	2.3805711	1.54291
15.903950846402232	2.3717225	1.5400398
15.921647951210897	2.3647485	1.5377738
15.939345438231225	2.3488538	1.5325971
15.957043307910133	2.3569233	1.5352274
15.974741560694602	2.3906918	1.5461862
15.992440197031714	2.3991673	1.5489246
16.01013921736862	2.37383	1.5407239
16.02783862215259	2.3663726	1.5383018
16.045538411830933	2.3830361	1.5437086
16.06323858685107	2.3636749	1.5374248
16.080939147660512	2.3531625	1.5340022
16.09864009470684	2.3544235	1.5344131
16.11634142843774	2.3651774	1.5379133
16.134043149300954	2.3646252	1.5377338
16.15174525774433	2.414598	1.5538976
16.169447754215817	2.4514854	1.565722
16.18715063916342	2.4631329	1.5694371
16.204853913035244	2.4561543	1.5672123
16.222557576279478	2.4776087	1.5740422
16.240261629344403	22.434818	4.736541
16.257966072678386	42.966087	6.554852
16.275670906729868	38.073353	6.170361
16.293376131947387	2.5003886	1.5812618
16.31108174877957	2.5116763	1.584827
16.328787757675133	2.4942791	1.5793287
16.34649415908287	2.5353277	1.5922712
16.364200953451657	2.5757356	1.6049098
16.38190814123048	2.645067	1.6263661
16.39961572286839	2.6876307	1.6393995
16.41732369881455	2.7083285	1.6457
16.43503206951817	2.7307727	1.652505
16.45274083542859	2.7525117	1.6590695
16.47044999699522	2.788117	1.6697656
16.488159554667558	2.8423421	1.6859248
16.505869508895184	2.8820972	1.697674
16.523579860127786	2.943353	1.7156203
16.541290608815117	2.965879	1.7221727
16.559001755407035	2.9811015	1.7265867
16.57671330035348	3.0418289	1.744084
16.59442524410448	3.1300116	1.7691839
16.61213758711015	3.2155147	1.7931856
16.629850329820705	3.2368205	1.7991166
16.647563472686436	3.2829745	1.811898
16.665277016157724	3.3584783	1.8326151
16.682990960685053	3.4306784	1.8522091
16.70070530671898	3.495711	1.8696821
16.718420054710155	3.5275056	1.8781655
16.736135205109335	3.5667417	1.8885819
16.753850758367335	3.634249	1.9063706
16.771566714935087	3.6653292	1.914505
16.789283075263597	3.699851	1.9234997
16.80699983980398	3.7471194	1.9357477
16.82471700900741	3.8201892	1.9545305
16.84243458332518	3.9300187	1.9824275
16.860152563208665	3.9737628	1.9934299
16.87787094910932	4.0472093	2.0117676
16.89558974147871	4.089651	2.0222886
16.913308940768466	4.2296553	2.0566125
16.931028547430333	4.3242636	2.0794864
16.94874856191613	4.3784885	2.0924838
16.966468984677785	4.4407864	2.1073174
16.98418981616729	4.4869533	2.118243
17.00191105683676	4.5281167	2.127937
17.019632707138374	4.4746666	2.1153407
17.03735476752442	4.558536	2.135073
17.05507723844728	4.6206994	2.1495812
17.072800120359403	4.6736984	2.1618738
17.090523413713353	4.694502	2.1666799
17.108247118961785	4.6572323	2.1580622
17.125971236557437	4.682021	2.1637979
17.143695766953133	4.655618	2.1576881
17.161420710601806	4.6376905	2.15353
17.179146067956477	4.6341524	2.152708
17.19687183947025	4.6327744	2.152388
17.21459802559634	4.665482	2.1599727
17.232324626788028	4.6838474	2.1642199
17.25005164349871	4.6832547	2.1640828
17.267779076181863	4.6802545	2.1633897
17.285506925291074	4.6538024	2.1572673
17.30323519127999	4.6394935	2.1539483
17.320963874602384	4.633317	2.1525142
17.33869297571211	4.567839	2.1372504
17.356422495063114	4.516239	2.1251445
17.37415243310944	4.5212092	2.1263134
17.391882790305218	4.5187693	2.1257398
17.40961356710468	4.476406	2.115752
17.42734476396215	4.4730854	2.114967
17.445076381332044	4.5207467	2.1262047
17.462808419668868	4.6344233	2.152771
17.48054087942723	4.7724504	2.184594
17.498273761061835	5.050485	2.2473285
17.51600706502747	5.5206385	2.349604
17.533740791779024	6.26695	2.5033877
17.551474941771485	7.7527475	2.7843757
17.56920951545993	8.932226	2.988683
17.586944513299528	11.118689	3.3344698
17.60467993574556	12.703226	3.5641584
17.622415783253373	14.381247	3.7922614
17.64015205627843	15.860705	3.9825501
17.657888755276293	16.838343	4.103455
17.675625880702604	17.184837	4.1454597
17.69336343301311	16.88671	4.109344
17.71110141266366	16.13369	4.0166764
17.728839820110178	15.241018	3.9039748
17.746578655808705	14.367285	3.79042
17.764317920215372	12.910554	3.5931258
17.7820576137864	11.342235	3.3678234
17.79979773697811	9.282441	3.0467098
17.81753829024692	7.420335	2.724029
17.835279274049356	5.824303	2.4133594
17.85302068884201	4.824731	2.196527
17.870762535081607	4.1962357	2.0484715
17.888504813224934	3.887702	1.9717256
17.90624752372891	3.7252984	1.9301032
17.923990667050536	3.6738224	1.9167218
17.941734243646895	3.5571342	1.8860366
17.959478253975185	3.4951987	1.8695451
17.9772226984927	3.4474869	1.856741
17.994967577656833	3.4410133	1.8549968
18.01271289192506	3.452008	1.8579581
18.030458641754965	3.4224563	1.8499882
18.04820482760425	3.3763857	1.8374944
18.06595144993067	3.3041477	1.8177315
18.083698509192125	3.276763	1.8101832
18.101446005846576	3.2573712	1.8048189
18.119193940352105	3.2652478	1.8069997
18.136942313166887	3.2245889	1.795714
18.1546911247492	3.2393909	1.7998308
18.1724403755574	3.2082045	1.7911462
18.19019006604997	3.151488	1.775243
18.207940196685467	3.1186035	1.7659568
18.225690767922575	3.0961635	1.7595918
18.243441780220046	3.0829241	1.7558258
18.261193234036764	3.0590262	1.7490072
18.278945129831676	3.0569768	1.7484212
18.29669746806386	3.0538092	1.7475151
18.314450249192483	3.046472	1.7454146
18.3322034736768	3.032994	1.7415494
18.349957141976184	3.0228536	1.7386355
18.3677112545501	3.0638435	1.7503839
18.385465811858108	3.076279	1.7539325
18.403220814359884	3.0683823	1.7516799
18.420976262515172	3.0751996	1.7536247
18.43873215678387	3.0797346	1.7549173
18.456488497625923	3.12353	1.7673512
18.474245285501407	3.2257388	1.7960342
18.492002520870486	3.3283691	1.8243818
18.50976020419343	3.3988812	1.8436055
18.527518335930615	3.7364795	1.9329976
18.545276916542516	4.320021	2.078466
18.563035946489688	4.5330586	2.1290982
18.580795426232832	4.965579	2.228358
18.598555356232698	4.801469	2.1912255
18.616315736950185	5.090957	2.256315
18.63407656884626	4.777958	2.185854
18.65183785238201	4.98086	2.231784
18.669599588018617	4.7834597	2.187112
18.68736177621737	4.7644687	2.1827662
18.705124417439652	4.6926026	2.1662416
18.72288751214696	4.4842114	2.1175957
18.740651060800886	4.663772	2.159577
18.758415063863115	4.426393	2.1038995
18.77617952179546	4.6101	2.1471143
18.793944435059814	4.3582582	2.087644
18.811709804118184	4.3454585	2.0845764
18.829475629432675	4.216618	2.0534406
18.8472419114655	3.9474118	1.9868095
18.86500865067897	4.0356402	2.0088904
18.88277584753551	3.7301242	1.931353
18.90054350249763	3.7370334	1.9331408
18.918311616027957	3.4036512	1.8448987
18.936080188589226	3.296546	1.8156393
18.953849220644265	3.0058293	1.7337328
18.971618712656007	2.8314543	1.6826925
18.9893886650875	2.7924235	1.6710546
19.007159078401887	8.0265	2.8331077
19.024929953062408	32.954437	5.7405953
19.042701289532435	32.86563	5.7328553
19.060473088275405	25.37539	5.037399
19.07824534975489	2.6635933	1.6320518
19.096018074434568	2.6693628	1.6338185
19.113791262778197	2.6454992	1.626499
19.13156491524966	2.6161983	1.6174667
19.149339032312945	2.595352	1.6110096
19.167113614432136	2.5954611	1.6110435
19.184888662071433	2.5968833	1.6114848
19.202664175695123	2.6372643	1.6239656
19.220440155767623	2.6274905	1.6209536
19.238216602753447	2.613894	1.6167542
19.2559935171172	2.5962472	1.6112875
19.27377089932361	2.5501034	1.5969043
19.291548749837514	2.5119276	1.5849062
19.309327069123835	2.5070877	1.5833786
19.32710585764763	2.5085015	1.583825
19.344885115874032	2.5254066	1.5891528
19.362664844268313	2.516412	1.5863203
19.380445043295822	2.528858	1.5902383
19.39822571342203	2.5061872	1.5830942
19.41600685511252	2.4715075	1.5721029
19.43378846883297	2.483786	1.5760032
19.451570555049173	2.515391	1.5859984
19.469353114227037	2.5747209	1.6045936
19.48713614683254	2.5395355	1.593592
19.50491965333182	2.5061631	1.5830866
19.52270363419109	2.501416	1.5815865
19.540488089876686	2.5133178	1.5853447
19.55827302085503	2.5436718	1.5948893
19.576058427592674	2.520223	1.587521
19.593844310556282	2.4841561	1.5761206
19.611630670212598	2.4607828	1.5686883
19.629417507028506	2.4443502	1.5634418
19.64720482147098	2.4543362	1.5666322
19.6649926140071	2.4820023	1.5754372
19.682780885104084	2.5167727	1.586434
19.70056963522921	2.5362794	1.5925701
19.718358864849908	2.5403748	1.5938553
19.7361485744337	2.5314565	1.5910552
19.753938764448215	2.5385652	1.5932876
19.771729435361202	2.5582151	1.5994421
19.789520587640506	2.5433598	1.5947914
19.807312221754092	2.5357182	1.5923939
19.825104338170043	2.5263143	1.5894383
19.842896937356517	2.5216439	1.5879685
19.860690019781824	2.5115986	1.5848024
19.87848358591436	2.4857957	1.5766406
19.896277636222635	2.4916894	1.5785086
19.914072171175278	2.4997563	1.5810617
19.931867191241015	2.5212476	1.5878437
19.94966269688869	2.4970741	1.5802133
19.967458688587264	2.4855978	1.5765779
19.985255166805807	2.4993315	1.5809274
20.00305213201348	2.4877949	1.5772746
20.020849584679578	2.4899297	1.5779511
20.038647525273507	2.5086093	1.583859
20.05644595426477	2.5231705	1.5884491
20.07424487212299	2.5110304	1.5846231
20.092044279317903	2.473699	1.5727998
20.109844176319353	2.4640722	1.5697364
20.127644563597304	2.4631398	1.5694393
20.145445441621817	2.4919796	1.5786005
20.16324681086307	2.4647348	1.5699474
20.181048671791373	2.4240708	1.5569428
20.198851024877122	2.3851187	1.5443829
20.216653870590836	2.3723783	1.5402527
20.234457209403146	2.3527832	1.5338784
20.252261041784802	2.3873863	1.5451169
20.270065368206662	2.3944077	1.5473874
20.287870189139685	2.383243	1.5437756
20.305675505054968	2.3509982	1.5332965
20.323481316423702	2.3231933	1.5242025
20.341287623717207	2.3232775	1.5242301
20.359094427406884	2.3458662	1.531622
20.376901727964288	2.3585832	1.5357679
20.39470952586107	2.3596098	1.5361022
20.41251782156899	2.326497	1.525286
20.430326615559935	2.3209414	1.5234636
20.448135908305886	2.300461	1.5167271
20.465945700278965	2.2978432	1.5158639
20.483755991951384	2.3129666	1.520844
20.50156678379548	2.3158445	1.5217899
20.519378076283708	2.309134	1.5195835
20.537189869888635	2.3179872	1.5224937
20.55500216508294	2.3278258	1.5257214
20.572814962339415	2.3556588	1.5348155
20.59062826213098	2.3480542	1.5323362
20.60844206493066	2.3457248	1.5315759
20.626256371211593	2.3111746	1.5202549
20.644071181447032	2.337922	1.5290265
20.66188649611036	2.335616	1.5282723
20.67970231567506	2.3358252	1.5283407
20.697518640614742	2.3152251	1.5215864
20.715335471403122	2.3458807	1.5316268
20.73315280851404	2.3508155	1.533237
20.750970652421447	2.30326	1.5176495
20.768789003599412	2.2892747	1.5130349
20.786607862522136	2.3256776	1.5250173
20.8044272296639	2.3499775	1.5329636
20.82224710549913	2.3395693	1.5295651
20.84006749050237	2.3248818	1.5247563
20.857888385148268	3.8521802	1.9626971
20.8757097899116	45.9507	6.7786946
20.893531705267254	64.80172	8.049952
20.911354131690224	83.80372	9.154437
20.92917706965566	69.05837	8.310137
20.94700051963877	50.106846	7.078619
20.96482448211493	29.421637	5.4241714
20.982648957559622	4.1672916	2.0413945
21.00047394644843	2.2516892	1.5005629
21.01829944925707	2.2239969	1.4913071
21.036125466461375	2.254294	1.5014306
21.053951998537297	2.2714596	1.5071362
21.071779045960906	2.2422168	1.4974034
21.089606609208378	2.2061265	1.4853035
21.10743468875603	2.222417	1.4907774
21.12526328508028	2.226549	1.4921625
21.143092398657675	2.2254975	1.4918101
21.16092202996488	2.2680829	1.5060155
21.17875217947867	2.2951899	1.5149884
21.19658284767596	2.2220755	1.4906628
21.21441403503377	2.1795876	1.4763427
21.232245742029225	2.1921158	1.4805795
21.2500779691396	2.1971784	1.4822882
21.26791071684227	2.208466	1.4860909
21.28574398561475	2.2165504	1.4888084
21.30357777593465	2.2144911	1.4881166
21.321412088279704	2.2038002	1.4845202
21.339246923127792	2.1927652	1.4807988
21.357082280956888	2.1478937	1.4655694
21.3749181622451	2.116237	1.4547292
21.392754567470647	2.1136925	1.4538543
21.41059149711187	2.1404166	1.4630163
21.42842895164726	2.10666	1.4514338
21.446266931555378	2.088334	1.445107
21.464105437314945	2.1074429	1.4517034
21.481944469404798	2.1281557	1.45882
21.49978402830388	2.138605	1.4623971
21.51762411449127	2.143032	1.4639099
21.53546472844617	2.144292	1.4643402
21.553305870647876	2.1203296	1.4561352
21.571147541575865	2.1209798	1.4563584
21.58898974170967	2.1582885	1.4691114
21.60683247152899	2.155383	1.4681224
21.62467573151363	2.1091728	1.4522991
21.642519522143523	2.0733862	1.4399258
21.660363843898722	2.0563698	1.4340048
21.6782086972594	2.0336761	1.4260702
21.696054082705864	2.025438	1.4231789
21.713900000718535	2.0639246	1.4366366
21.73174645177795	2.0532455	1.4329151
21.749593436364794	2.0398164	1.4282213
21.767440954959845	2.0288074	1.4243621
21.785289008044032	2.0562503	1.4339632
21.803137596098388	2.0696704	1.4386349
21.820986719604086	2.0639577	1.4366481
21.838836379042412	2.0451386	1.4300834
21.85668657489478	2.0682962	1.4381572
21.87453730764273	2.0707264	1.4390019
21.892388577767914	2.065109	1.4370487
21.91024038575213	2.0323563	1.4256073
21.928092732077285	2.0148635	1.4194589
21.945945617225426	2.0290623	1.4244516
21.963799041678694	2.0302777	1.4248781
21.981653005919398	31.358416	5.5998588
21.999507510429943	78.0994	8.837387
22.01736255569286	73.0177	8.545039
22.035218142190818	4.108742	2.0270033
22.05307427040661	1.9662981	1.4022475
22.07093094082315	1.9849719	1.4088902
22.088788153923474	2.0234687	1.4224868
22.106645910190746	2.0272572	1.4238179
22.12450421010827	2.0028856	1.4152334
22.142363054159464	1.9885896	1.4101737
22.16022244282787	2.0154593	1.4196687
22.178082376597164	2.0124543	1.41861
22.195942855951145	1.9690726	1.4032365
22.213803881373742	1.9802889	1.4072274
22.231665453349002	1.9913783	1.411162
22.24952757236111	2.0228152	1.4222571
22.26739023889438	2.0178235	1.4205011
22.28525345343323	1.9755348	1.4055372
22.30311721646225	1.9407507	1.3931082
22.320981528466113	1.9356234	1.3912668
22.33884638992964	1.992715	1.4116355
22.356711801337788	2.011868	1.4184034
22.37457776317561	1.9944036	1.4122336
22.392444275928337	1.9893157	1.410431
22.410311340081282	2.0075178	1.416869
22.428178956119904	2.0318122	1.4254165
22.446047124529805	2.007549	1.41688
22.46391584579669	2.0083385	1.4171586
22.481785120406414	1.9730141	1.4046402
22.49965494884496	1.970914	1.4038924
22.51752533159841	1.9321439	1.3900158
22.53539626915302	1.9325631	1.3901665
22.553267761995137	1.9415663	1.393401
22.571139810611264	1.9521692	1.3972005
22.589012415488025	1.9606423	1.4002293
22.60688557711216	1.9662393	1.4022266
22.624759295970566	2.0025601	1.4151185
22.642633572550263	1.9881208	1.4100074
22.660508407338362	1.9814951	1.407656
22.67838380082217	1.9375267	1.3919507
22.696259753489077	1.9369056	1.3917276
22.714136265826614	1.9387511	1.3923904
22.73201333832246	1.8952178	1.376669
22.74989097146439	1.8597984	1.3637443
22.76776916574035	1.8735247	1.3687676
22.785647921638393	1.9001491	1.378459
22.803527239646712	1.9203779	1.385777
22.82140712025363	1.9159926	1.3841939
22.839287563947593	1.9306763	1.3894877
22.85716857121719	1.9664245	1.4022926
22.875050142551135	1.986955	1.4095939
22.892932278438277	1.9660459	1.4021575
22.910814979367604	1.9384379	1.392278
22.928698245828222	1.9428153	1.3938491
22.946582078309387	1.9456812	1.3948767
22.96446647730047	1.9130821	1.3831421
22.98235144329098	1.8962386	1.3770398
23.000236976770562	1.8888575	1.3743571
23.018123078229	1.8942744	1.3763264
23.03600974815619	1.8963735	1.3770888
23.053896987042194	1.8902448	1.3748617
23.071784795377173	1.8815289	1.3716884
23.08967317365145	1.8625687	1.3647596
23.10756212235546	1.8859961	1.3733157
23.125451641979787	1.9081887	1.3813721
23.143341733015134	1.9029182	1.3794631
23.161232395952357	1.8981403	1.3777301
23.179123631282426	1.9597386	1.3999066
23.197015439496468	1.9697683	1.4034843
23.214907821085717	1.9787588	1.4066836
23.23280077654157	1.9854928	1.4090751
23.250694306355538	1.9868183	1.4095454
23.268588411019277	1.9634869	1.4012448
23.28648309102458	1.9355078	1.3912252
23.304378346863356	1.9234195	1.386874
23.322274179027676	1.9270277	1.3881742
23.340170588009723	1.9447695	1.39455
23.358067574301852	1.9390383	1.3924936
23.37596513839651	1.9373803	1.3918982
23.39386328078629	1.9413228	1.3933136
23.411762001963947	1.9498911	1.396385
23.429661302422353	1.9385104	1.392304
23.4475611826545	1.9534435	1.3976564
23.46546164315356	1.91584	1.3841387
23.48336268441279	1.9103667	1.3821602
23.501264306925638	1.8946084	1.3764478
23.51916651118564	1.8810829	1.3715258
23.537069297686497	1.8666728	1.3662623
23.554972666922037	1.8850327	1.3729649
23.57287661938623	1.9170352	1.3845704
23.59078115557318	1.9620558	1.4007341
23.608686275977128	1.9850435	1.4089158
23.62659198109246	1.9739618	1.4049776
23.6444982714137	1.9471852	1.3954158
23.66240514743549	1.9345355	1.3908758
23.68031260965263	1.9063578	1.3807092
23.698220658560068	1.9239135	1.387052
23.716129294652845	1.9436997	1.3941664
23.7340385184262	1.9486489	1.3959402
23.75194833037546	1.9081376	1.3813535
23.769858730996123	1.8954234	1.3767438
23.78776972078382	1.8724537	1.3683763
23.80568130023431	1.8785819	1.3706137
23.823593469843495	1.8708445	1.3677882
23.841506230107424	1.852392	1.361026
23.859419581522275	1.8550314	1.3619953
23.87733352458438	1.883912	1.3725567
23.89524805979019	1.934261	1.3907771
23.913163187636318	1.940122	1.3928826
23.931078908619508	1.932719	1.3902227
23.948995223236633	1.9303693	1.3893772
23.966912131984735	1.9734857	1.404808
23.98482963536096	2.0404577	1.4284459
24.002747733862616	2.0451756	1.4300964
24.020666427987155	2.039889	1.4282469
24.038585718232156	2.0374951	1.4274086
24.056505605095353	2.024573	1.4228749
24.074426089074617	2.0539975	1.4331775
24.092347170667946	2.092649	1.4465991
24.110268850373515	2.1233885	1.4571851
24.128191128689586	2.0824301	1.4430628
24.146114006114626	2.0342896	1.4262853
24.164037483147187	1.9849461	1.4088812
24.181961560286005	2.0169556	1.4201956
24.199886238029926	2.0259252	1.42335
24.21781151687797	2.0688622	1.438354
24.235737397329274	2.0581691	1.4346321
24.253663879883135	2.0756764	1.4407208
24.271590965038975	2.0505066	1.431959
24.289518653296376	2.0070221	1.416694
24.30744694515505	1.9973241	1.4132671
24.32537584111486	2.0432951	1.4294387
24.34330534167581	2.0217264	1.4218743
24.361235447338046	2.0200727	1.4212927
24.379166158601876	2.0417309	1.4288915
24.39709747596772	2.0724802	1.4396111
24.41502939993615	2.0747478	1.4403985
24.432961931007917	2.0270302	1.4237381
24.450895069683856	1.9712154	1.4039998
24.468828816465	1.9519224	1.3971121
24.4867631718525	1.9399183	1.3928095
24.504698136347656	1.9301631	1.3893031
24.52263371045192	1.9112772	1.3824894
24.540569894666874	1.9399155	1.3928086
24.558506689494266	1.9990107	1.4138638
24.57644409543597	2.0040896	1.4156587
24.594382112994012	1.9785554	1.4066113
24.61232074267057	1.9231535	1.3867781
24.630259984967953	1.9348422	1.3909861
24.64819984038863	1.9661322	1.4021883
24.66614030943522	1.9682385	1.4029392
24.684081392610462	1.9350047	1.3910445
24.702023090417274	1.99263	1.4116055
24.7199654033587	2.0559778	1.4338682
24.737908331937927	2.0336144	1.4260485
24.755851876658305	1.9872266	1.4096903
24.773796038023324	1.981329	1.4075968
24.79174081653661	2.0128286	1.418742
24.809686212701962	2.0538237	1.4331168
24.827632227023294	2.08261	1.443125
24.8455788600047	2.0722523	1.4395319
24.8635261121504	2.0874958	1.4448168
24.88147398396475	2.1220148	1.4567137
24.899422475952303	2.122396	1.4568446
24.917371588617698	2.1462147	1.4649965
24.935321322465768	2.1614816	1.4701978
24.953271678001478	2.2469776	1.4989922
24.97122265572994	2.4647312	1.5699463
24.989174256156414	2.8554583	1.6898102
25.00712647978632	3.323281	1.8229868
25.02507932712521	3.8724372	1.9678509
25.043032798678798	4.3589487	2.0878096
25.060986894952933	5.0005636	2.236194
25.078941616453637	5.685988	2.384531
25.096896963687055	6.6456404	2.577914
25.114852937159508	7.8054395	2.7938216
25.132809537377444	8.196516	2.8629558
25.150766764847468	8.100433	2.846126
25.168724620076347	7.45046	2.729553
25.186683103570985	6.5541763	2.5601125
25.204642215838426	5.4667172	2.3381011
25.222601957385894	4.1129293	2.0280359
25.24056232872074	3.0759902	1.7538501
25.25852333035048	2.5991166	1.6121776
25.276484962782778	2.3011184	1.5169438
25.294447226525435	2.1105344	1.4527678
25.312410122086423	1.9876587	1.4098436
25.330373649973843	1.9541478	1.3979083
25.348337810695988	1.9287108	1.3887804
25.366302604761245	1.9041634	1.3799143
25.384268032678207	1.9317595	1.3898776
25.40223409495558	1.9069974	1.3809408
25.420200792102257	1.8874245	1.3738357
25.438168124627246	1.8776467	1.3702725
25.45613609303974	1.935052	1.3910614
25.474104697849057	1.9295837	1.3890946
25.492073939564698	1.8987777	1.3779614
25.510043818696285	1.8731816	1.3686422
25.528014335753614	1.8787154	1.3706625
25.54598549124664	1.9300044	1.389246
25.56395728568544	1.91883	1.3852184
25.58192971958028	1.8643928	1.3654277
25.59990279344156	1.8139861	1.346843
25.617876507779833	1.8121856	1.3461745
25.635850863105826	1.8650249	1.3656591
25.653825859930386	1.8730476	1.3685933
25.671801498764548	1.8798815	1.3710877
25.68977778011949	1.8550885	1.3620163
25.707754704506524	1.8284519	1.3522027
25.725732272437153	1.8621778	1.3646164
25.743710484423012	1.924886	1.3874027
25.761689340975888	1.936931	1.3917367
25.77966884260774	1.8942859	1.3763306
25.797648989830662	1.8526587	1.361124
25.815629783156922	1.8580441	1.3631009
25.83361122309895	1.8631896	1.364987
25.85159331016929	1.8587766	1.3633696
25.869576044880695	1.8335803	1.3540976
25.887559427746034	1.8077375	1.3445213
25.90554345927836	1.7829559	1.3352737
25.92352813999086	1.8058892	1.3438338
25.94151347039689	1.8208021	1.349371
25.959499451009965	1.8041394	1.3431826
25.97748608234374	1.785831	1.3363498
25.995473364912062	1.8184522	1.3485
26.013461299228904	1.8202477	1.3491656
26.03144988580839	1.7923898	1.3388016
26.04943912516483	1.7780976	1.3334533
26.067429017812675	1.7834091	1.3354434
26.085419564266537	1.8115966	1.3459556
26.103410765041186	1.8352361	1.3547089
26.12140262065155	1.8166155	1.3478187
26.139395131612723	1.7880683	1.3371867
26.157388298439948	1.7851983	1.3361131
26.17538212164861	1.800387	1.3417851
26.193376601754295	1.7944697	1.3395782
26.211371739272714	1.7737087	1.3318065
26.229367534719746	1.7972672	1.340622
26.247363988611433	1.8207288	1.3493438
26.26536110146397	1.7852547	1.3361342
26.283358873793727	1.7744932	1.3321011
26.301357306117204	1.8225752	1.3500278
26.319356398951104	1.8438876	1.3578982
26.33735615281224	1.8171614	1.3480213
26.35535656821762	1.8098512	1.3453071
26.373357645684404	1.8334898	1.3540642
26.39135938572991	1.8244641	1.3507272
26.409361788871614	1.8084444	1.3447841
26.427364855627165	1.8137913	1.3467706
26.445368586514352	1.7950243	1.3397852
26.46337298205115	1.7802483	1.3342595
26.48137804275568	1.8457232	1.3585739
26.499383769146217	1.9013034	1.3788776
26.517390161741215	1.9049581	1.3802022
26.53539722105928	1.830347	1.3529031
26.553404947619182	1.8161258	1.347637
26.571413341939856	1.8293984	1.3525525
26.589422404540397	1.8643681	1.3654187
26.60743213594006	1.8374577	1.3555286
26.62544253665827	1.8074245	1.3444049
26.64345360721459	1.7770061	1.3330439
26.66146534812879	1.7330784	1.3164643
26.679477759920758	1.7154623	1.3097566
26.69749084311057	1.7526402	1.3238732
26.71550459821847	1.7582314	1.3259832
26.733519025764842	1.7581979	1.3259705
26.751534126270258	1.775214	1.3323716
26.769549900255434	1.7400025	1.3190916
26.787566348241267	1.6809407	1.2965109
26.80558347074881	1.6960775	1.3023354
26.823601268299267	1.7453928	1.3211331
26.841619741414036	1.7825222	1.3351113
26.85963889061465	1.8284096	1.3521869
26.877658716422832	1.8444338	1.3580993
26.89567921936045	1.8270497	1.3516841
26.913700399949544	1.8825098	1.3720459
26.93172225871233	1.8867979	1.3736076
26.949744796171174	1.8696017	1.3673338
26.967768012848605	1.8121986	1.3461792
26.98579190926733	1.7595792	1.3264914
27.003816485950225	1.7452855	1.3210925
27.021841743420318	1.6982802	1.3031808
27.039867682200814	1.693806	1.301463
27.057894302815072	1.7662153	1.3289903
27.07592160578664	1.8254989	1.3511102
27.0939495916392	1.8423262	1.3573232
27.111978260896635	1.8346359	1.3544873
27.13000761408296	1.8438771	1.3578943
27.148037651722397	1.8709899	1.3678414
27.166068374339304	1.8341959	1.3543248
27.184099782458215	1.8060577	1.3438965
27.20213187660384	1.8151344	1.3472693
27.22016465730105	1.836324	1.3551103
27.23819812507487	1.8341241	1.3542984
27.256232280450533	1.8489813	1.3597726
27.274267123953383	1.9202559	1.385733
27.292302656108987	1.9070928	1.3809754
27.31033887744306	1.8522189	1.3609625
27.32837578848146	1.848733	1.3596812
27.34641338975026	1.8265733	1.3515078
27.364451681775673	1.7592722	1.3263756
27.382490665084074	1.7580473	1.3259138
27.400530340202046	1.79649	1.340332
27.41857070765629	1.789449	1.3377029
27.436611767973726	1.7783183	1.333536
27.454653521681404	1.7781532	1.3334742
27.472695969306564	1.7903297	1.338032
27.490739111376627	1.8087621	1.3449023
27.508782948419153	1.8007164	1.3419077
27.526827480961902	1.8031341	1.3428082
27.54487270953279	1.8147417	1.3471235
27.562918634659898	1.8155515	1.347424
27.580965256871508	1.8650316	1.3656616
27.599012576696026	1.8687174	1.3670104
27.617060594662068	1.834421	1.354408
27.63510931129842	1.8100412	1.3453777
27.65315872713401	1.8320922	1.353548
27.67120884269797	1.858152	1.3631405
27.68925965851958	1.8281159	1.3520783
27.707311175128307	1.8617417	1.3644565
27.725363393053787	1.8829432	1.3722037
27.74341631282583	1.8943963	1.3763707
27.7614699349744	1.8856764	1.3731993
27.77952426002968	2.125332	1.4578519
27.797579288521973	2.196293	1.4819896
27.815635020981784	2.6187735	1.6182625
27.83369145793979	2.6377892	1.6241273
27.85174859992682	2.481647	1.5753244
27.869806447473923	2.365186	1.5379161
27.887865001112267	2.015605	1.41972
27.905924261373233	1.9394424	1.3926387
27.92398422878836	1.912175	1.3828142
27.94204490388936	1.8761417	1.3697232
27.96010628720813	1.8466021	1.3588973
27.978168379276728	1.8648375	1.3655906
27.9962311806274	1.90562	1.3804419
28.014294691792568	1.8769358	1.3700131
28.0323589133048	1.8751525	1.3693621
28.050423845696887	1.8476894	1.3592974
28.068489489501758	1.8280278	1.3520458
28.086555845252523	1.8489512	1.3597615
28.104622913482487	1.9048449	1.3801612
28.122690694725115	1.9683565	1.4029813
28.14075918951405	1.9334773	1.3904953
28.15882839838312	1.898632	1.3779086
28.176898321866304	1.8973045	1.3774267
28.1949689604978	1.9156452	1.3840684
28.213040314811945	1.944257	1.3943661
28.23111238534327	1.9479116	1.395676
28.249185172626493	1.9403548	1.3929662
28.267258677196473	1.9447604	1.3945466
28.285332899588294	1.9493251	1.3961823
28.303407840337172	1.9398575	1.3927877
28.321483499978545	1.911404	1.3825353
28.33955987904799	1.9168878	1.3845172
28.357636978081285	1.980121	1.4071677
28.37571479761439	2.0163708	1.4199897
28.393793338183425	1.9742261	1.4050716
28.41187260032469	1.9486548	1.3959422
28.429952584574686	1.960177	1.4000632
28.448033291470065	1.9634253	1.4012228
28.46611472154769	1.938491	1.392297
28.484196875344566	1.9174777	1.3847302
28.502279753397914	1.9446099	1.3944927
28.52036335624511	1.9226171	1.3865846
28.538447684423716	1.9101566	1.3820841
28.556532738471482	1.9615353	1.4005482
28.574618518926325	1.9870725	1.4096355
28.59270502632635	1.9900411	1.4106882
28.61079226120985	1.9664077	1.4022865
28.628880224115274	1.9405823	1.3930478
28.646968915581287	1.9219506	1.3863443
28.66505833614671	1.976511	1.4058844
28.68314848635055	2.0777133	1.4414275
28.701239366732004	2.0989149	1.4487633
28.71933097783044	2.0958483	1.4477046
28.737423320185403	2.0538769	1.4331354
28.75551639433665	2.032825	1.4257717
28.773610200824074	2.1275573	1.4586148
28.791704740187793	2.2108688	1.486899
28.80980001296809	2.200487	1.4834038
28.827896019705413	2.1866908	1.4787464
28.845992760940433	2.1194093	1.4558191
28.86409023721397	2.1079967	1.4518942
28.88218844906704	2.1893675	1.4796511
28.900287397040845	2.2429268	1.4976404
28.918387081676755	2.2764401	1.5087876
28.936487503516343	2.2837067	1.5111938
28.954588663101365	2.3056357	1.518432
28.97269056097374	2.3177502	1.5224159
28.990793197675597	2.3504925	1.5331316
29.00889657374923	2.3274186	1.5255879
29.027000689737125	2.3806338	1.5429302
29.04510554618196	2.4355984	1.5606403
29.06321114362659	2.422833	1.5565453
29.08131748261405	2.3948646	1.547535
29.099424563687567	2.4165063	1.5545115
29.11753238739057	2.5400293	1.5937469
29.13564095426663	2.5773492	1.6054125
29.15375026485954	2.6485126	1.6274252
29.171860319713275	2.6925979	1.6409137
29.18997111937199	2.6934109	1.6411614
29.20808266438002	2.701666	1.6436746
29.226194955281898	2.7812016	1.6676935
29.244307992622335	2.8310304	1.6825666
29.26242177694624	2.8879154	1.6993867
29.2805363087987	2.929782	1.7116606
29.29865158872498	2.9251463	1.7103059
29.316767617270557	2.873069	1.695013
29.334884394981064	2.892927	1.7008606
29.353001922402367	2.9671915	1.7225537
29.37112020008047	3.0788465	1.7546642
29.389239228561596	3.173966	1.7815628
29.407359008392152	3.3907435	1.8413972
29.42547954011872	3.775722	1.9431217
29.44360082428809	4.4323	2.1053028
29.46172286144722	5.4833555	2.3416567
29.479845652143283	7.0642853	2.6578724
29.497969196923606	9.091237	3.015168
29.516093496335728	11.509316	3.3925383
29.5342185509274	14.250018	3.7749195
29.55234436124651	16.524172	4.0649934
29.570470927841175	17.709486	4.208264
29.588598251259686	17.22503	4.150305
29.60672633205055	15.975214	3.9969006
29.624855170762405	13.890504	3.7269967
29.642984767944146	11.20045	3.3467073
29.66111512414481	8.700772	2.9497073
29.67924623991366	6.5668254	2.5625818
29.697378115800138	5.016036	2.239651
29.71551075235387	4.0277753	2.0069318
29.733644150124675	3.593146	1.8955595
29.751778309662576	3.485208	1.8668712
29.769913231517766	3.4191391	1.8490914
29.78804891624066	3.3545778	1.8315506
29.806185364381818	3.2788138	1.8107495
29.82432257649206	3.291489	1.814246
29.842460553122333	3.3626094	1.8337419
29.86059929482382	3.440989	1.8549902
29.878738802147872	3.4432838	1.8556087
29.896879075646048	3.3997397	1.8438383
29.915020115870114	3.281027	1.8113606
29.933161923371976	3.270702	1.8085082
29.951304498703777	3.2873428	1.8131031
29.969447842417857	3.2211585	1.7947587
29.987591955066733	3.2164094	1.7934351
30.005736837203123	3.202271	1.789489
30.023882489379943	3.2204247	1.7945541
30.04202891215028	3.2433293	1.8009245
30.060176106067455	3.2412899	1.8003583
30.078324071684946	3.2885568	1.8134378
30.09647280955646	3.2830641	1.8119228
30.114622320235863	3.1882055	1.7855546
30.132772604277257	3.1383853	1.7715489
30.1509236622349	3.1206894	1.7665473
30.16907549466328	3.149164	1.7745883
30.18722810211705	3.1422586	1.7726417
30.205381485151097	3.0790951	1.7547351
30.22353564432045	3.054041	1.7475815
30.241690580180403	3.0883038	1.757357
30.25984629328638	3.1051502	1.7621436
30.278002784194037	3.0551004	1.7478845
30.296160053459246	2.9708972	1.7236291
30.314318101638033	2.8939235	1.7011536
30.332476929286646	2.8665345	1.6930844
30.35063653696153	2.9130254	1.7067587
30.368796925219307	2.9274185	1.71097
30.386958094616844	2.9049635	1.7043953
30.40512004571115	2.9354813	1.7133247
30.423282779059463	2.918481	1.7083563
30.441446295219233	2.8943884	1.7012902
30.459610594748067	2.8213556	1.6796892
30.47777567820382	2.7847238	1.6687492
30.495941546144504	2.83645	1.6841764
30.51410819912835	2.7808573	1.6675903
30.532275637713795	2.812058	1.6769192
30.55044386245946	2.8057303	1.6750314
30.56861287392416	2.8069634	1.6753995
30.586782672666956	2.794003	1.6715271
30.604953259247047	2.7752402	1.6659052
30.623124634223885	2.7853363	1.6689327
30.641296798157075	2.8175347	1.6785513
30.659469751606462	2.7806032	1.6675141
30.677643495132074	2.7473783	1.6575217
30.695818029294152	2.7463045	1.6571978
30.713993354653116	2.7782912	1.6668206
30.73216947176962	2.6766593	1.6360499
30.75034638120448	2.6636837	1.6320796
30.768524083518756	2.728387	1.651783
30.786702579273673	2.8285902	1.6818413
30.80488186903069	2.8613517	1.691553
30.82306195335144	2.9487848	1.7172027
30.841242832797782	3.147042	1.7739904
30.85942450793176	3.442712	1.8554547
30.877606979315637	3.7914398	1.947162
30.895790247511883	4.093586	2.0232613
30.913974313083134	4.441022	2.1073732
30.932159176592283	4.718206	2.1721432
30.95034483860237	4.817175	2.1948063
30.968531299676698	4.7258706	2.1739068
30.98671856037873	4.3442173	2.0842786
31.00490662127215	3.8808365	1.9699839
31.023095482920848	3.4654243	1.861565
31.04128514588892	3.030439	1.7408156
31.059475610740662	2.7188988	1.6489084
31.07766687804056	2.5948021	1.610839
31.09585894835335	2.5491297	1.5965995
31.11405182224393	2.4902632	1.5780568
31.132245500277417	2.4869921	1.57702
31.15043998301914	2.46408	1.5697389
31.168635271034628	2.422309	1.5563768
31.18683136488964	2.4311688	1.5592206
31.20502826515008	2.4460664	1.5639905
31.223225972382135	2.4607148	1.5686666
31.241424487152155	2.4479694	1.5645988
31.259623810026692	2.4024	1.5499678
31.27782394157253	2.3526518	1.5338356
31.296024882356644	2.334967	1.5280598
31.314226632946237	2.2927847	1.5141944
31.332429193908684	2.3063474	1.5186663
31.350632565811598	2.3716853	1.5400277
31.368836749222787	2.4232614	1.5566828
31.387041744710295	2.4875283	1.57719
31.40524755284232	2.4811697	1.5751729
31.423454174187317	2.4792566	1.5745655
31.441661609313922	2.4302826	1.5589364
31.459869858791002	2.4243627	1.5570365
31.478078923187628	2.3957121	1.5478088
31.496288803073064	2.338875	1.5293381
31.514499499016807	2.354654	1.5344882
31.532711011588546	2.3872042	1.545058
31.550923341358178	2.409902	1.5523859
31.56913648889584	2.3917277	1.5465212
31.587350454771844	2.4164538	1.5544947
31.605565239556732	2.4005244	1.5493625
31.62378084382127	2.3526354	1.5338303
31.641997268136382	2.323784	1.5243963
31.660214513073274	2.3210695	1.5235057
31.67843257920331	2.345283	1.5314317
31.6966514670981	2.4278364	1.5581516
31.71487117732944	2.3656056	1.5380526
31.733091710469346	2.2993999	1.5163772
31.751313067090052	2.252235	1.5007448
31.769535247764008	2.2781544	1.5093557
31.787758253063878	2.3043125	1.5179962
31.805982083562526	2.3855274	1.5445153
31.824206739833024	2.4209807	1.55595
31.84243222244869	2.348212	1.5323877
31.860658531983013	2.2683098	1.5060909
31.878885669009737	2.2624474	1.5041434
31.897113634102784	2.2170148	1.4889643
31.91534242783632	2.230874	1.4936111
31.933572050784694	2.2605925	1.5035267
31.951802503522508	2.2532113	1.50107
31.970033786624548	2.249769	1.499923
31.988265900665834	2.227515	1.4924861
32.006498846221575	2.212503	1.4874485
32.02473262386724	2.1690078	1.4727552
32.04296723417845	2.1305354	1.4596354
32.0612026777311	2.1589568	1.4693389
32.07943895510129	2.2078729	1.4858912
32.097676066865304	2.2035968	1.4844517
32.115914013599685	2.1459336	1.4649005
32.13415279588115	2.1643	1.471156
32.152392414286666	2.2090318	1.4862812
32.1706328693934	2.2151594	1.4883412
32.18887416177875	2.1417933	1.4634867
32.20711629202032	2.13625	1.4615916
32.225359260695924	2.1096418	1.4524606
32.243603068383614	2.0791051	1.4419103
32.26184771566166	2.088496	1.445163
32.28009320310852	2.1723573	1.4738919
32.2983395313029	2.1860301	1.478523
32.31658670082372	2.1648564	1.4713451
32.33483471225012	2.120917	1.4563369
32.35308356616143	2.098415	1.4485906
32.371333263137245	2.0799325	1.4421971
32.38958380375734	2.1465945	1.4651262
32.407835188601744	2.17295	1.474093
32.42608741825067	2.1599832	1.469688
32.444340493284585	2.1651092	1.471431
32.46259441428416	2.1622362	1.4704545
32.48084918183028	2.1936643	1.4811023
32.49910479650405	2.1365125	1.4616814
32.51736125888683	2.0812054	1.4426383
32.53561856956014	2.1208098	1.4563
32.5538767291058	2.1487367	1.465857
32.572135738105764	2.1174302	1.4551393
32.59039559714228	2.135105	1.4611998
32.608656306797776	2.1320324	1.4601481
32.62691786765491	2.1487398	1.4658581
32.645180280296586	2.1612682	1.4701252
32.663443545305896	2.08994	1.4456625
32.68170766326619	1.9967138	1.4130512
32.69997263476099	1.9440507	1.3942921
32.7182384603741	1.9077547	1.381215
32.7365051406895	1.9090933	1.3816994
32.75477267629144	2.0559149	1.4338462
32.77304106776434	2.0136058	1.4190158
32.79131031569289	2.0305707	1.424981
32.809580420661966	2.0640934	1.4366953
32.827851383256714	2.0534377	1.4329821
32.84612320406245	2.0414302	1.4287863
32.86439588366476	2.0584211	1.4347199
32.88266942264945	2.0245068	1.4228517
32.9009438216025	1.9760214	1.4057103
32.9192190811102	2.034209	1.426257
32.937495201758985	2.0586135	1.4347869
32.95577218413556	2.068286	1.4381536
32.974050028826866	1.9860585	1.4092759
32.992328736420035	1.9030124	1.3794972
33.010608307502444	1.9666009	1.4023554
33.02888874266169	2.01347	1.418968
33.047170042485604	2.0131102	1.4188411
33.06545220756225	1.9962859	1.4128999
33.083735238479896	1.9748851	1.4053061
33.10201913582707	1.9454592	1.3947972
33.12030390019248	1.9289253	1.3888575
33.138589532165135	1.943565	1.394118
33.15687603233419	2.0066075	1.4165478
33.17516340128909	2.0921998	1.4464438
33.19345163961947	2.0876842	1.444882
33.211740747915215	1.9522501	1.3972294
33.23003072676643	1.9505752	1.3966299
33.248321576763466	1.98687	1.4095638
33.266613298496885	2.00321	1.415348
33.28490589255747	1.951997	1.3971388
33.30319935953626	1.9794126	1.406916
33.32149370002451	2.0265732	1.4235775
33.339788914613706	1.9631649	1.4011298
33.358085003895575	1.8631926	1.3649881
33.376381968462034	1.854727	1.3618836
33.39467980890529	1.8815758	1.3717054
33.41297852581774	1.813577	1.3466911
33.43127811979204	1.8347418	1.3545264
33.44957859142105	1.8874044	1.3738284
33.467879941297866	1.8654106	1.3658004
33.486182170015844	1.8831964	1.372296
33.50448527816853	1.9532834	1.3975992
33.522789266349754	1.8799253	1.3711036
33.541094135153514	1.7912228	1.3383657
33.55939988517411	1.9018692	1.3790827
33.57770651700602	2.0588725	1.4348772
33.59601403124398	2.025307	1.4231328
33.61432242848296	1.9158722	1.3841504
33.632631709318154	1.9260801	1.3878329
33.650941874344994	1.9366502	1.3916358
33.66925292415916	2.0776162	1.4413939
33.68756485935654	2.0707884	1.4390234
33.70587768053328	2.009118	1.4174336
33.724191388285746	2.002336	1.4150392
33.74250598321054	1.9715813	1.4041301
33.760821465904506	1.9174339	1.3847144
33.77913783696474	1.9290161	1.3888903
33.79745509698852	1.9385867	1.3923314
33.815773246573414	1.9639305	1.4014031
33.8340922863172	2.0217042	1.4218664
33.852412216817896	1.9825686	1.4080372
33.87073303867377	1.9372445	1.3918493
33.889054752483304	1.9551929	1.3982822
33.907377358845245	1.9226359	1.3865914
33.92570085835853	1.8512536	1.3606079
33.94402525162239	1.8163965	1.3477376
33.96235053923627	1.8337005	1.354142
33.980676721799824	1.8472155	1.3591231
33.999003799912984	1.8612549	1.3642782
34.01733177417592	1.9478675	1.3956603
34.03566064518901	1.8542193	1.3616972
34.0539904135529	1.9150194	1.3838422
34.07232107986846	1.9749507	1.4053293
34.090652644736785	1.9178375	1.3848602
34.108985108759235	2.0839665	1.4435949
34.12731847253742	2.101596	1.4496883
34.14565273667313	1.8293464	1.3525333
34.16398790176847	1.6232097	1.2740525
34.18232396842574	1.8201926	1.3491452
34.20066093724749	1.9076275	1.3811688
34.21899880883651	1.8730788	1.3686047
34.23733758379583	1.9866823	1.4094971
34.25567726272874	2.061394	1.4357555
34.27401784623872	1.949545	1.3962611
34.29235933492957	1.9599314	1.3999755
34.31070172940526	2.0508745	1.4320874
34.32904503027003	2.1403835	1.463005
34.347389238128386	2.1191757	1.4557389
34.36573435358502	1.9964883	1.4129715
34.38408037724492	1.9723767	1.4044133
34.402427309713296	2.00455	1.4158213
34.42077515159559	1.9115839	1.3826004
34.43912390349752	1.7529525	1.3239911
34.45747356602499	1.7270817	1.3141848
34.47582413978423	1.7704836	1.3305953
34.49417562538163	1.841038	1.3568486
34.51252802342388	1.8530711	1.3612756
34.53088133451789	1.9138023	1.3834025
34.54923555927084	1.9897085	1.4105703
34.567590698290104	2.1226108	1.4569182
34.58594675218336	2.2664568	1.5054756
34.6043037215585	2.1407409	1.4631271
34.62266160702365	2.0502846	1.4318815
34.641020409187234	2.104436	1.4506674
34.65938012865785	2.0915654	1.4462246
34.677740766044394	1.9272224	1.3882444
34.69610232195598	1.9255078	1.3876266
34.714464797002016	1.8265429	1.3514966
34.73282819179208	1.8226368	1.3500507
34.751192506936064	2.0131664	1.4188609
34.76955774304408	2.2531598	1.5010529
34.7879239007265	2.1148822	1.4542634
34.80629098059391	1.9122348	1.3828357
34.824658983257194	1.8136735	1.346727
34.843027909327446	1.6890994	1.2996535
34.86139775941603	1.7349362	1.3171698
34.879768534134534	1.9325374	1.3901573
34.89814023409483	2.0251439	1.4230754
34.91651285990901	2.0319395	1.4254612
34.93488641218944	2.0520108	1.4324841
34.95326089154871	1.9919171	1.411353
34.97163629859967	1.8615272	1.364378
34.99001263395542	1.7612062	1.3271044
35.00838989822934	1.751821	1.3235638
35.02676809203499	1.7291203	1.3149601
35.04514721598624	1.831822	1.3534482
35.063527270697215	2.0104902	1.4179176
35.081908256782256	2.1962883	1.481988
35.10029017485597	2.292811	1.5142031
35.11867302553321	2.0673263	1.43782
35.137056809429104	1.8078878	1.3445772
35.155441527159006	1.6882823	1.2993392
35.173827179338524	1.7814945	1.3347263
35.19221376658354	1.9048291	1.3801554
35.21060128951017	2.0147545	1.4194205
35.2289897487348	2.1525052	1.4671419
35.24737914487405	2.2268984	1.4922796
35.26576947854479	2.0615556	1.4358119
35.28416075036418	2.0677657	1.4379728
35.30255296094958	2.2444146	1.498137
35.32094611091867	2.2820394	1.510642
35.33934020088932	2.4226491	1.5564861
35.35773523147969	2.9455686	1.7162659
35.3761312033082	2.7215686	1.6497177
35.394528116993506	2.0741575	1.4401935
35.41292597315452	2.1322079	1.4602082
35.431324772410434	2.232035	1.4939996
35.449724515380666	2.2106228	1.4868163
35.46812520268491	2.6246939	1.6200907
35.486526834943106	2.4663227	1.570453
35.504929412775454	1.8859217	1.3732886
35.52333293680242	1.8142003	1.3469225
35.54173740764471	1.611846	1.269585
35.560142825923286	1.8488753	1.3597336
35.5785491922594	1.7449772	1.3209759
35.59695650727454	1.4913687	1.2212161
35.61536477159042	0.8177855	0.90431494
