0.008763373481513119	0.0	0.0
0.026290120649546365	0.0	0.0
0.043816868432600686	0.09025038	0.300417
0.06134361724069026	0.25408033	0.5040638
0.07887036748382949	0.2662614	0.5160052
0.0963971195720331	0.35572067	0.5964232
0.11392387391531617	0.29707864	0.5450492
0.1314506309236943	0.24217944	0.49211732
0.1489773910071836	0.14045386	0.37477174
0.16650415457580078	0.09838952	0.31367105
0.18403092203956356	0.100855604	0.31757772
0.20155769380849	0.1642293	0.40525216
0.2190844702925996	0.2009376	0.44826064
0.2366112519019124	0.1835156	0.4283872
0.2541380390464497	0.1584181	0.3980177
0.27166483213623416	0.10378275	0.3221533
0.28919163158128947	0.09375365	0.3061922
0.3067184377916406	0.1069165	0.3269809
0.324245251177314	0.12334748	0.3512086
0.34177207214833777	0.139344	0.3732881
0.3592989011147415	0.14836	0.3851753
0.37682573848655654	0.13954774	0.37356088
0.39435258467381573	0.10858897	0.32952842
0.41187944008655414	0.09775979	0.3126656
0.42940630513480854	0.08792551	0.29652235
0.446933180228618	0.11395876	0.3375778
0.4644600657780234	0.10592471	0.32546076
0.48198696219306775	0.11574065	0.34020677
0.49951386988379676	0.09514452	0.30845505
0.5170407892602581	0.115255795	0.33949345
0.5345677207325025	0.10749596	0.32786578
0.5520946647105822	0.13761054	0.37095895
0.5696216216045534	0.15211202	0.39001542
0.5871485918244737	0.14353305	0.37885755
0.6046755757804043	0.15204388	0.38992804
0.6222025738824094	0.13727479	0.3705061
0.6397295865405557	0.16789411	0.40974885
0.6572566141649129	0.19469279	0.44124007
0.6747836571655547	0.20291276	0.45045838
0.6923107159525568	0.18326566	0.42809537
0.7098377909359992	0.17353272	0.4165726
0.7273648825259653	0.18834205	0.43398392
0.7448919911325411	0.19490214	0.4414772
0.762419117165817	0.24392653	0.49388918
0.7799462610358868	0.24653593	0.49652386
0.7974734231528482	0.23117325	0.4808048
0.8150006039268024	0.20285837	0.45039803
0.8325278037678551	0.1537028	0.3920495
0.8500550230861152	0.13598078	0.36875573
0.8675822622916969	0.1283792	0.35830042
0.8851095217947171	0.14374131	0.3791323
0.9026368020052984	0.17556195	0.41900113
0.9201641033335665	0.22136375	0.4704931
0.9376914261896523	0.28516725	0.5340105
0.9552187709836915	0.32215026	0.56758285
0.9727461381258234	0.2995109	0.5472759
0.990273528026193	0.2646652	0.5144562
1.0078009410949496	0.22189684	0.47105926
1.0253283777422473	0.2445029	0.49447235
1.0428558383782454	0.23464401	0.48440066
1.0603833234131086	0.25319514	0.503185
1.0779108332570058	0.2851305	0.53397614
1.0954383683201119	0.2945506	0.54272515
1.112965929012607	0.37235776	0.61021125
1.1304935157446763	0.48846525	0.6989029
1.1480211289265108	0.51474273	0.71745574
1.1655487689683062	1.3580128	1.165338
1.1830764362802655	1.6497042	1.2844081
1.200604131272596	2.0756788	1.4407216
1.2181318543555117	2.338583	1.5292426
1.235659605939232	2.3771257	1.541793
1.253187386433982	3.905799	1.9763094
1.270715196249994	6.366754	2.5232427
1.2882430357975057	11.821223	3.4382005
1.3057709054867608	16.46667	4.0579143
1.3232988057280106	22.305122	4.72283
1.3408267369315112	27.579994	5.251666
1.358354699507526	31.530039	5.6151614
1.3758826938663256	35.800747	5.9833727
1.3934107204181858	37.48936	6.1228557
1.410938779573391	37.66738	6.137376
1.4284668717422309	37.75544	6.1445456
1.4459949973350033	36.935986	6.0774984
1.4635231567620117	36.917442	6.0759726
1.4810513504335687	36.848804	6.0703216
1.4985795787599925	36.56023	6.0465055
1.5161078421516088	36.567154	6.047078
1.5336361410187505	35.509228	5.958962
1.5511644757717598	35.293434	5.940828
1.5686928468209842	35.79391	5.9828014
1.58622125457678	35.846664	5.9872084
1.6037496994495108	36.824802	6.068344
1.621278181849548	36.832245	6.0689573
1.6388067021872719	38.135475	6.1753926
1.6563352608730693	37.92611	6.1584177
1.673863858317336	36.81882	6.0678515
1.6913924949304753	35.96664	5.9972196
1.7089211711228998	34.64456	5.885963
1.7264498873050296	33.980698	5.8292966
1.7439786438872935	33.14342	5.7570324
1.7615074412801288	32.294407	5.682817
1.779036279893981	31.31713	5.596171
1.796565160139305	30.425604	5.5159407
1.814094082426564	29.786312	5.4576836
1.8316230471662298	29.19926	5.403634
1.849152054768784	28.369673	5.3263187
1.8666811056447168	27.838419	5.2762127
1.8842102002045273	26.80415	5.1772723
1.901739338858724	26.21606	5.120162
1.9192685220178245	25.453032	5.0450997
1.9367977500923557	24.96177	4.9961753
1.9543270234928547	24.504393	4.950191
1.971856342629867	24.117363	4.910943
1.9893857079139496	23.347553	4.8319306
2.006915119755667	22.685366	4.7629156
2.0244445785655945	22.267637	4.7188597
2.0419740847543175	21.948551	4.684928
2.0595036387324317	21.680574	4.6562405
2.0770332409105414	21.119762	4.5956244
2.094562891699263	20.925535	4.574444
2.1120925915092217	20.52941	4.530939
2.129622340751053	20.325335	4.508363
2.1471521398354043	188.29704	13.7221365
2.1646819891729323	444.3838	21.080412
2.182211889174303	440.50922	20.988312
2.1997418402501974	452.95105	21.282646
2.2172718428113023	432.8802	20.805773
2.234801897268317	320.74094	17.90924
2.2523320040319548	17.237465	4.1518025
2.269862163512935	16.99169	4.1220975
2.287392376121992	16.67191	4.083125
2.304922642269869	16.14059	4.017535
2.322452962367322	15.79502	3.974295
2.3399833368251164	15.417409	3.9265008
2.357513766054032	15.381499	3.9219255
2.3750442504648586	15.206935	3.899607
2.3925747904683963	14.88096	3.8575847
2.410105386475459	14.729943	3.8379607
2.4276360388968707	14.265835	3.777014
2.445166748143469	14.017966	3.7440574
2.4626975146261025	13.792735	3.7138572
2.4802283387556323	13.446516	3.666949
2.4977592209429305	13.1163845	3.621655
2.5152901615988825	12.826493	3.5814095
2.5328211611343865	12.705015	3.5644095
2.5503522199603523	12.558364	3.5437782
2.5678833384877024	12.344891	3.5135295
2.5854145171273712	12.003398	3.464592
2.6029457562903064	11.900057	3.449646
2.620477056387469	11.773729	3.4312868
2.6380084178298326	11.644802	3.4124482
2.655539841028383	11.549453	3.3984485
2.673071326394119	11.398958	3.3762343
2.6906028743380523	11.326084	3.3654249
2.708134485271211	11.047068	3.3237128
2.7256661596046325	10.963655	3.311141
2.743197897749369	10.729686	3.27562
2.760729700116486	10.64863	3.263224
2.778261567117063	10.360924	3.218839
2.795793499162193	10.2721815	3.2050245
2.8133254966629817	10.033674	3.1675975
2.830857560030551	9.896235	3.1458282
2.8483896896760337	9.828745	3.135083
2.865921886010578	9.661025	3.108219
2.883454149445347	9.426261	3.0702217
2.9009864803915177	9.326506	3.053933
2.91851887926028	9.271236	3.0448706
2.9360513464628384	9.2366905	3.0391924
2.953583882410413	9.243812	3.0403638
2.9711164875142373	9.017179	3.0028617
2.9886491621855606	8.733848	2.9553084
3.0061819068356455	8.628933	2.9375045
3.023714721875769	8.597287	2.9321132
3.041247607717225	8.502578	2.915918
3.0587805647713213	8.328858	2.885976
3.0763135934493806	8.241808	2.8708549
3.0938466941627407	8.187705	2.8614166
3.1113798673227544	8.177128	2.8595679
3.1289131133407904	8.005078	2.8293247
3.1464464326282315	7.8462186	2.8011103
3.1639798255964786	7.7771163	2.7887483
3.1815132926569443	7.603429	2.7574315
3.1990468342210603	7.4443192	2.728428
3.216580450700272	7.347404	2.7106094
3.2341141425060416	7.316426	2.7048893
3.251647910049847	7.444027	2.7283745
3.2691817537431813	7.3600965	2.7129498
3.286715673997555	7.3807297	2.71675
3.3042496712244938	7.323227	2.7061462
3.32178374583554	7.201585	2.6835768
3.339317898242251	6.9990363	2.645569
3.3568521288562034	6.8680744	2.620701
3.3743864380889876	6.7110248	2.5905645
3.3919208263522127	6.6456637	2.5779185
3.4094552940575023	6.6704326	2.5827181
3.4269898416164972	6.6639404	2.581461
3.444524469440858	6.630155	2.5749087
3.4620591779422587	6.540176	2.5573769
3.479593967532391	6.528753	2.5551424
3.4971288386229658	6.4322033	2.5361788
3.5146637916257086	6.4062157	2.5310502
3.5321988269523628	6.3922215	2.5282843
3.5497339450146903	6.389207	2.527688
3.5672691462244708	6.3960714	2.5290456
3.5848044309934988	6.3118067	2.512331
3.60233979973359	6.247689	2.4995377
3.619875252856575	6.2310514	2.4962075
3.6374107907743034	6.2214437	2.4942822
3.6549464138986427	6.2717586	2.504348
3.6724821226414788	6.250355	2.500071
3.690017917414714	6.237747	2.4975483
3.7075537986302702	6.244266	2.498853
3.7250897667000857	6.2972474	2.5094316
3.7426258220361235	6.5260754	2.5546184
3.7601619650503553	6.80244	2.6081488
3.777698196154779	7.320573	2.7056558
3.7952345157614067	8.395106	2.897431
3.8127709242822716	9.365589	3.060325
3.830307422129425	11.579395	3.402851
3.847844009714936	30.369106	5.510817
3.8653806874508954	97.77022	9.887882
3.882917455749409	97.10043	9.853955
3.900454315022606	96.92913	9.84526
3.917991265682631	41.512215	6.4429975
3.9355283081416506	11.035522	3.3219757
3.9530654428118495	8.751904	2.9583616
3.970602670105433	7.5044346	2.7394223
3.9881399904346244	6.6433783	2.577475
4.005677404211669	6.5681176	2.5628338
4.023214911848827	6.4663153	2.542895
4.0407525137583855	6.4998364	2.5494776
4.058290210352644	6.524428	2.554296
4.075828002043927	6.5023623	2.549973
4.0933658892445814	6.45901	2.5414584
4.110903872366966	6.336775	2.5172951
4.128441951823468	6.268312	2.5036597
4.145980128026488	6.190676	2.488107
4.163518401388452	6.1337337	2.4766376
4.181056772321807	6.0705843	2.4638555
4.1985952412390155	6.0506907	2.4598153
4.216133808552567	6.1143637	2.472724
4.233672474674966	6.1999817	2.4899762
4.251211240018741	6.4244213	2.5346441
4.268750104996445	6.661351	2.5809593
4.286289070020643	7.594458	2.7558045
4.303828135503928	9.202125	3.0335004
4.3213673018589125	29.469374	5.4285703
4.3389065694982305	90.62296	9.519609
4.356445938834537	165.93977	12.881762
4.3739854102805085	171.67459	13.102465
4.391524984248844	172.54773	13.135742
4.409064661152262	136.63521	11.689106
4.426604441403504	96.90422	9.843994
4.444144325415337	75.820885	8.707519
4.461684313600543	21.958412	4.6859803
4.47922440637193	22.230644	4.7149386
4.496764604142329	20.526802	4.5306516
4.5143049073245916	18.750298	4.3301616
4.531845316331589	16.629044	4.0778723
4.5493858315762195	13.75655	3.7089822
4.566926453471405	11.482062	3.3885193
4.584467182430081	9.528658	3.0868523
4.602008018865218	8.350278	2.8896847
4.619548963189798	7.599384	2.756698
4.637090015816834	7.0501876	2.6552188
4.654631177159353	6.8356776	2.614513
4.672172447630417	6.604631	2.5699477
4.689713827643102	6.330214	2.5159917
4.7072553176105085	6.0427065	2.4581916
4.724796917945764	5.8579364	2.4203174
4.742338629062015	5.807167	2.4098065
4.759880451372434	5.747435	2.3973808
4.777422385290215	5.6603584	2.3791509
4.794964431228581	5.7024174	2.3879735
4.812506589600768	5.689693	2.3853078
4.830048860820047	5.653884	2.3777897
4.847591245299709	5.619936	2.3706405
4.8651337434530655	5.553966	2.3566854
4.882676355693457	5.5754137	2.3612313
4.900219082434242	5.616552	2.3699265
4.917761924088813	5.7092423	2.3894022
4.935304881070575	5.691234	2.3856308
4.952847953792969	5.7566695	2.399306
4.970391142669449	5.6695976	2.3810916
4.9879344481135055	5.6423903	2.3753717
5.005477870538642	5.5098805	2.3473134
5.023021410358394	5.459599	2.3365784
5.040565067986324	5.443973	2.3332324
5.05810884383601	5.4385147	2.3320622
5.075652738321066	5.42839	2.3298905
5.09319675185512	5.342531	2.3113916
5.110740884851836	5.3178253	2.306041
5.128285137724894	5.336299	2.310043
5.145829510888007	5.3944945	2.3226051
5.163374004754908	5.4054894	2.324971
5.1809186197393595	5.3559575	2.314294
5.198463356255145	5.3710384	2.3175502
5.216008214716077	5.318166	2.306115
5.233553195535998	5.305266	2.3033164
5.251098299128764	5.352209	2.3134842
5.268643525908272	5.3772097	2.318881
5.286188876288432	5.3877296	2.3211484
5.3037343506831895	5.369383	2.3171928
5.32127994950651	5.318157	2.306113
5.3388256731723915	5.3208165	2.3066895
5.356371522094851	5.3321056	2.3091352
5.373917496687938	5.2240415	2.2856162
5.391463597365729	5.136834	2.2664585
5.40900982454232	5.101668	2.2586873
5.426556178631843	5.167403	2.2731924
5.444102660048449	5.2058825	2.2816403
5.4616492692063225	5.185775	2.2772295
5.479196006519669	5.1183634	2.2623801
5.496742872402727	5.078275	2.2535028
5.514289867269756	5.1277785	2.2644598
5.531836991535049	5.2025757	2.2809155
5.549384245612924	5.201344	2.2806456
5.566931629917724	5.1316266	2.2653093
5.584479144863822	5.0817738	2.254279
5.6020267908656205	5.1071253	2.259895
5.619574568337545	5.139013	2.2669392
5.637122477694054	5.18024	2.276014
5.654670519349629	5.1549582	2.2704532
5.672218693718784	5.0995603	2.2582207
5.689767001216059	5.1306806	2.2651005
5.707315442256021	5.2190623	2.2845268
5.724864017253266	5.232444	2.2874537
5.7424127266224225	5.1631126	2.2722483
5.75996157077814	5.169916	2.273745
5.777510550135105	5.1529365	2.270008
5.795059665108022	5.1684604	2.2734249
5.812608916111639	5.242809	2.2897182
5.830158303560715	5.286613	2.2992635
5.847707827870055	5.268762	2.2953784
5.86525748945448	5.349431	2.3128836
5.8828072887288485	5.508191	2.3469536
5.900357226108044	5.675751	2.3823836
5.917907302006979	5.840015	2.4166124
5.9354575168406	6.3882766	2.527504
5.9530078710238765	6.9003153	2.6268451
5.970558364971812	7.3465457	2.7104511
5.988108999099438	7.654769	2.7667253
6.005659773821818	8.272218	2.8761463
6.023210689554039	8.071044	2.8409584
6.040761746711227	8.472447	2.9107468
6.058312945708531	7.7854805	2.7902474
6.075864286961132	7.2539444	2.6933148
6.093415770884244	6.597158	2.5684934
6.1109673978931065	6.0882196	2.4674318
6.128519168402993	5.511903	2.3477442
6.146071082829204	5.4228573	2.328703
6.163623141587075	5.345854	2.3121102
6.181175345091969	5.278249	2.2974439
6.198727693759281	5.185381	2.2771432
6.216280188004435	5.107465	2.2599702
6.233832828242885	5.0816073	2.2542422
6.251385614890126	5.144984	2.2682557
6.268938548361669	5.11569	2.261789
6.286491629073067	5.110466	2.260634
6.304044857439898	5.0768685	2.2531908
6.321598233877777	5.0737076	2.252489
6.339151758802344	5.0618525	2.249856
6.356705432629277	5.044199	2.2459295
6.37425925577428	5.041102	2.2452397
6.391813228653095	5.0578237	2.2489605
6.409367351681486	5.080818	2.254067
6.426921625275259	5.076707	2.253155
6.44447604985025	5.09278	2.2567189
6.46203062582232	5.0821714	2.254367
6.47958535360737	5.021168	2.2407963
6.497140233621328	4.9910035	2.2340553
6.514695266280161	4.964492	2.228114
6.532250451999859	5.031728	2.2431514
6.549805791196454	5.1111913	2.2607944
6.567361284286002	5.0843945	2.2548602
6.584916931684597	5.044704	2.2460418
6.602472733808367	5.0255623	2.2417767
6.6200286910734665	5.106239	2.2596989
6.637584803896092	5.144403	2.2681277
6.655141072692462	5.0941005	2.2570114
6.672697497878842	5.040506	2.2451072
6.690254079871514	5.0597157	2.2493813
6.707810819086808	5.055968	2.248548
6.725367715941078	5.041305	2.245285
6.742924770850719	5.026168	2.2419116
6.760481984232151	5.0011015	2.2363143
6.778039356501836	5.012981	2.2389686
6.795596888076266	5.0265546	2.241998
6.813154579371963	5.0543156	2.2481804
6.830712430805492	5.081403	2.2541966
6.84827044279344	5.090537	2.2562218
6.865828615752445	5.0839086	2.2547524
6.883386950099159	5.110097	2.2605524
6.900945446250287	5.073895	2.2525308
6.918504104622553	5.020694	2.2406905
6.936062925632727	4.995932	2.2351582
6.953621909697607	4.96929	2.2291903
6.971181057234028	5.0311484	2.2430222
6.988740368658859	5.0975437	2.257774
7.006299844389007	5.184964	2.2770517
7.023859484841407	5.251156	2.2915401
7.041419290433036	5.3155537	2.3055484
7.058979261580902	5.4166183	2.327363
7.0765393987020495	5.692386	2.3858721
7.094099702213559	6.081988	2.4661686
7.111660172532549	6.469384	2.5434985
7.129220810076164	6.80602	2.608835
7.146781615261595	7.3831644	2.717198
7.16434258850606	7.601682	2.757115
7.181903730226821	8.046246	2.8365905
7.1994650408411704	8.211859	2.8656342
7.217026520766437	8.3313	2.886399
7.234588170419983	8.505165	2.9163616
7.252149990219215	8.471766	2.91063
7.269711980581568	8.406164	2.8993385
7.2872741419245175	8.220337	2.8671129
7.304836474665574	7.7805057	2.7893558
7.322398979222286	7.4135513	2.7227838
7.339961656012233	7.191383	2.6816754
7.357524505453039	6.871726	2.6213977
7.375087527962357	6.595673	2.5682042
7.392650723957886	6.3293853	2.515827
7.410214093857353	5.9769406	2.4447782
7.427777638078528	5.810916	2.4105842
7.445341357039213	5.5883694	2.3639731
7.4629052511572525	5.428685	2.329954
7.480469320850524	5.320489	2.3066185
7.498033566536948	5.1956463	2.279396
7.5155979886344735	5.141332	2.2674506
7.5331625875610975	5.089384	2.2559664
7.550727363734844	5.1102095	2.2605772
7.568292317573788	5.189873	2.2781293
7.585857449496025	5.260853	2.293655
7.603422759919705	5.30349	2.3029308
7.620988249263007	5.305694	2.3034093
7.638553917944147	5.2459435	2.2904024
7.656119766381391	5.225074	2.285842
7.673685794993023	5.2063885	2.2817512
7.691252004197388	5.2066736	2.2818136
7.70881839441285	5.2317767	2.2873077
7.726384966057826	5.2523007	2.2917898
7.743951719550762	5.236458	2.2883308
7.761518655310149	5.27626	2.2970111
7.779085773754511	5.3299003	2.3086576
7.796653075302419	5.398507	2.3234687
7.814220560372475	5.449977	2.3345187
7.831788229383323	5.4155645	2.3271365
7.8493560827536495	5.3294144	2.3085525
7.866924120902174	5.283254	2.298533
7.884492344247663	5.2571626	2.2928503
7.9020607532089135	5.29957	2.3020794
7.919629348204771	5.357974	2.3147297
7.937198129654115	5.4157176	2.3271694
7.954767097975865	5.396915	2.323126
7.972336253588986	5.409415	2.325815
7.989905596912472	5.3703523	2.3174021
8.007475128365371	5.424441	2.329043
8.025044848366756	5.4496627	2.3344512
8.042614757335754	5.5265036	2.3508518
8.060184855691523	5.54786	2.3553896
8.07775514385327	5.699548	2.3873725
8.095325622240228	5.8225303	2.412992
8.112896291271687	5.9212546	2.4333627
8.130467151366968	5.9306626	2.435295
8.148038202945436	5.930619	2.4352863
8.165609446426497	5.8451056	2.4176652
8.183180882229594	5.8816705	2.4252155
8.200752510774217	5.9349995	2.4361854
8.218324332479893	6.0069885	2.4509158
8.235896347766193	5.974381	2.4442546
8.253468557052724	5.944549	2.4381447
8.27104096075914	5.9355845	2.4363055
8.288613559305137	6.0433054	2.4583135
8.306186353110448	6.1718464	2.4843202
8.32375934259485	6.232043	2.496406
8.341332528178162	6.251928	2.5003855
8.358905910280246	6.2500286	2.5000057
8.376479489321003	6.257425	2.5014846
8.394053265720377	6.240345	2.4980683
8.411627239898356	6.2378273	2.4975643
8.42920141227497	6.2495494	2.4999099
8.44677578327029	6.2966146	2.5093057
8.464350353304427	6.3459873	2.5191243
8.48192512279754	6.3240333	2.514763
8.499500092169827	6.2723575	2.5044675
8.51707526184153	6.224446	2.494884
8.534650632232934	6.253162	2.5006323
8.552226203764365	6.250341	2.5000682
8.569801976856192	6.2644634	2.502891
8.587377951928834	6.2707014	2.5041368
8.60495412940274	6.310216	2.5120144
8.622530509698416	6.3135386	2.5126755
8.6401070932364	6.3621783	2.5223358
8.657683880437283	6.4491363	2.539515
8.675260871721695	6.6323323	2.5753314
8.692838067510303	6.846623	2.6166053
8.710415468223834	6.9814568	2.6422446
8.727993074283043	7.0777497	2.660404
8.745570886108737	7.0487432	2.654947
8.763148904121765	7.142407	2.6725283
8.78072712874302	7.238279	2.690405
8.798305560393441	7.444584	2.7284765
8.815884199494006	7.552378	2.7481592
8.833463046465745	7.7521095	2.784261
8.851042101729728	7.9691544	2.822969
8.86862136570707	8.247122	2.8717802
8.886200838818924	8.3551035	2.8905196
8.903780521486505	8.364597	2.8921614
8.921360414131055	8.388531	2.896296
8.938940517173874	8.511143	2.9173863
8.956520831036297	8.719445	2.9528706
8.97410135613971	9.095389	3.0158563
8.99168209290554	9.252671	3.0418203
9.009263041755265	9.5001745	3.0822353
9.026844203110405	9.719603	3.1176276
9.044425577392525	9.951643	3.1546226
9.062007165023239	10.06442	3.172447
9.079588966424197	10.321509	3.2127106
9.097170982017108	10.433139	3.230037
9.11475321222372	11.417725	3.3790123
9.132335657465825	12.252892	3.500413
9.149918318165264	12.2957	3.5065224
9.167501194743924	12.749387	3.5706284
9.18508428762374	12.4677305	3.5309675
9.202667597226693	12.504337	3.5361474
9.220251123974803	12.287515	3.5053551
9.237834868290143	12.014358	3.4661734
9.255418830594836	11.732308	3.4252458
9.273003011311046	11.210077	3.3481452
9.290587410860985	10.972262	3.3124406
9.308172029666911	10.414873	3.2272081
9.32575686815113	10.16401	3.1881044
9.343341926735997	8.882516	2.980355
9.360927205843916	8.590777	2.9310029
9.378512705897327	8.376383	2.8941982
9.396098427318728	8.154091	2.855537
9.413684370530664	8.068164	2.8404512
9.431270535955722	7.9523473	2.8199906
9.448856924016539	7.8416047	2.8002865
9.466443535135806	7.7017584	2.7752042
9.484030369736251	7.7435226	2.7827187
9.501617428240658	7.772495	2.7879195
9.519204711071852	7.7082734	2.7763777
9.536792218652714	7.6965165	2.7742596
9.55437995140617	7.7424474	2.7825253
9.571967909755191	7.870215	2.8053904
9.589556094122802	7.9375176	2.8173602
9.60714450493207	7.951494	2.8198395
9.624733142606116	7.9622736	2.8217502
9.642322007568108	8.096752	2.8454792
9.659911100241267	8.172569	2.8587706
9.677500421048851	8.148306	2.8545237
9.695089970414175	8.081837	2.8428571
9.712679748760609	8.006358	2.829551
9.730269756511557	8.023797	2.8326309
9.747859994090492	8.098145	2.8457239
9.765450461920915	8.103017	2.8465798
9.78304116042639	8.177299	2.8595977
9.800632090030527	8.1752205	2.8592343
9.81822325115699	8.2507515	2.8724122
9.835814644229481	8.258607	2.8737793
9.853406269671762	8.250173	2.8723114
9.870998127907646	8.210551	2.865406
9.888590219360985	8.243118	2.871083
9.906182544455698	8.3084	2.8824296
9.923775103615734	8.412651	2.9004571
9.941367897265108	8.436259	2.9045238
9.958960925827878	8.4525	2.9073184
9.97655418972816	8.379001	2.8946505
9.994147689390106	8.391208	2.896758
10.011741425237934	8.376438	2.8942077
10.029335397695904	8.362579	2.8918126
10.04692960718833	8.267841	2.8753855
10.06452405413958	8.221759	2.867361
10.082118738974064	8.263168	2.8745728
10.099713662116246	8.29211	2.8796024
10.117308823990651	8.248595	2.8720367
10.134904225021844	8.204147	2.8642883
10.152499865634445	8.217171	2.8665607
10.170095746253125	8.297137	2.8804753
10.18769186730261	8.261011	2.8741975
10.205288229207675	8.227697	2.8683963
10.222884832393145	8.182737	2.8605485
10.2404816772839	8.206499	2.864699
10.258078764304868	8.215364	2.8662457
10.275676093881035	8.177205	2.8595812
10.293273666437438	8.125322	2.850495
10.310871482399158	8.142863	2.8535702
10.32846954219134	8.090742	2.844423
10.346067846239173	8.077187	2.842039
10.363666394967908	8.099388	2.8459425
10.38126518880283	8.143674	2.8537123
10.398864228169298	8.239673	2.870483
10.416463513492713	8.337847	2.887533
10.434063045198531	8.257196	2.8735337
10.451662823712262	8.270986	2.8759322
10.469262849459467	8.189512	2.8617325
10.486863122865758	8.134109	2.8520358
10.504463644356806	8.130215	2.8513532
10.522064414358338	8.070377	2.840841
10.539665433296118	8.004423	2.8292089
10.557266701595987	7.881956	2.8074822
10.574868219683818	7.7959647	2.7921255
10.592469987985552	7.6911716	2.773296
10.610072006927185	7.6069674	2.758073
10.627674276934751	7.501424	2.7388728
10.64527679843435	7.3449254	2.7101524
10.662879571852143	7.2138023	2.6858523
10.680482597614331	7.0854583	2.6618524
10.698085876147173	7.058401	2.6567652
10.715689407876988	7.034387	2.652242
10.733293193230146	6.9849906	2.6429133
10.750897232633072	6.852891	2.6178026
10.76850152651225	6.730776	2.594374
10.786106075294207	6.6656046	2.5817833
10.803710879405534	6.657505	2.5802143
10.821315939272877	6.563766	2.5619848
10.83892125532294	6.4618206	2.542011
10.856526827982472	6.3312306	2.5161936
10.874132657678285	6.358554	2.5216174
10.891738744837243	6.2790294	2.505799
10.909345089886271	6.196368	2.4892504
10.926951693252343	6.080806	2.465929
10.944558555362494	6.0768633	2.4651294
10.96216567664381	6.0223994	2.4540577
10.979773057523436	5.9652786	2.4423919
10.997380698428573	5.894453	2.4278495
11.014988599786477	5.7858152	2.4053721
11.032596762024461	5.7328215	2.3943312
11.050205185569892	5.674442	2.3821087
11.067813870850198	5.616967	2.3700142
11.085422818292859	5.5589433	2.357741
11.10303202832541	5.564788	2.3589802
11.120641501375454	5.5715494	2.360413
11.138251237870636	5.5023894	2.3457172
11.155861238238671	5.42886	2.3299913
11.173471502907317	5.290458	2.3000996
11.191082032304402	5.2003345	2.280424
11.208692826857805	5.143667	2.2679656
11.226303886995465	5.102141	2.258792
11.243915213145371	5.0510874	2.2474625
11.261526805735578	4.94743	2.224282
11.279138665194196	4.885837	2.210393
11.296750791949393	4.842346	2.2005332
11.314363186429393	4.802863	2.1915436
11.331975849062479	4.759703	2.1816745
11.34958878027699	4.676105	2.1624303
11.36720198050133	4.625534	2.1507056
11.384815450163948	4.5615788	2.1357853
11.402429189693366	4.533601	2.1292255
11.420043199518153	4.5599694	2.1354084
11.437657480066942	63.48725	7.967889
11.455272031768422	85.19456	9.23009
11.472886855051353	107.512146	10.368807
11.490501950344528	99.130424	9.956427
11.508117318076819	84.476395	9.191104
11.52573295867715	45.880745	6.773533
11.543348872574514	4.1480727	2.036682
11.560965060197946	4.082738	2.0205786
11.57858152197655	4.037724	2.009409
11.59619825833949	3.9861162	1.996526
11.613815269715985	3.9926069	1.9981508
11.631432556535323	38.53543	6.207691
11.649050119226837	83.06866	9.114201
11.666667958219929	93.43736	9.666301
11.68428607394406	107.68375	10.377078
11.701904466828756	82.49736	9.082806
11.719523137303586	65.32736	8.082535
11.737142085798196	4.5391483	2.1305277
11.754761312742286	3.6729567	1.9164959
11.772380818565619	3.6801693	1.9183768
11.790000603698015	3.6286812	1.9049097
11.80762066856935	3.5835066	1.8930153
11.825241013609572	3.5753536	1.8908606
11.842861639248683	3.5615842	1.887216
11.860482545916748	3.5057857	1.8723743
11.878103734043883	3.4371667	1.8539597
11.895725204060282	3.4015834	1.8443382
11.91334695639619	3.4461827	1.8563898
11.930968991481919	3.4465432	1.8564868
11.948591309747824	3.421622	1.8497627
11.966213911624347	3.3855202	1.8399783
11.98383679754198	3.3596685	1.8329399
12.001459967931268	3.3246205	1.8233542
12.019083423222835	3.3002367	1.8166554
12.036707163847352	3.2586873	1.8051834
12.05433119023556	3.2666326	1.8073828
12.071955502818259	3.2157233	1.7932438
12.089580102026313	3.1561244	1.7765484
12.107204988290643	3.17043	1.7805701
12.12483016204224	3.1408107	1.7722332
12.142455623712152	3.1604257	1.7777586
12.16008137373149	3.1204562	1.7664813
12.177707412531431	3.138978	1.7717161
12.19533374054321	3.1612647	1.7779945
12.212960358198126	3.1155913	1.7651038
12.230587265927545	3.074549	1.7534392
12.248214464162889	3.0636952	1.7503414
12.265841953335649	3.06036	1.7493885
12.283469733877375	3.0249276	1.739232
12.301097806219685	2.9831502	1.7271799
12.31872617079425	2.9607882	1.7206941
12.336354828032825	2.9452167	1.7161634
12.353983778367205	2.9206023	1.708977
12.371613022229262	2.9302287	1.711791
12.389242560050928	2.9508572	1.7178059
12.406872392264201	2.958029	1.7198921
12.424502519301143	2.9455204	1.7162519
12.442132941593874	2.8775287	1.696328
12.459763659574586	2.856378	1.6900823
12.477394673675532	2.8207283	1.6795024
12.49502598432903	2.8306894	1.6824653
12.51265759196746	2.806077	1.6751349
12.530289497023267	2.8197963	1.679225
12.547921699928967	2.8095572	1.6761733
12.565554201117134	2.807838	1.6756605
12.583187001020404	2.784569	1.6687028
12.600820100071486	2.7810178	1.6676384
12.618453498703152	2.7274563	1.6515012
12.636087197348235	2.7307556	1.6524998
12.65372119643964	2.740653	1.6554918
12.671355496410326	2.7655692	1.6630001
12.68899009769333	2.8038218	1.6744616
12.706625000721749	2.8210437	1.6795963
12.724260205928752	2.907112	1.7050254
12.741895713747551	2.9493527	1.717368
12.759531524611454	3.0178478	1.7371954
12.777167638953818	3.0268536	1.7397856
12.794804057208072	3.0220985	1.7384185
12.812440779807702	3.0307567	1.7409068
12.830077807186271	3.211308	1.7920123
12.847715139777405	3.2379463	1.7994294
12.865352778014795	3.4261074	1.8509747
12.882990722332197	3.5274355	1.8781469
12.90062897316344	3.6149757	1.9013089
12.918267530942412	3.6915598	1.9213432
12.935906396103071	3.5726502	1.8901455
12.953545569079449	3.7766223	1.9433534
12.971185050305628	3.642712	1.908589
12.988824840215775	3.6792185	1.918129
13.006464939244115	3.6426446	1.9085714
13.024105347824943	3.4643223	1.861269
13.041746066392617	3.5711782	1.8897561
13.05938709538157	3.3893535	1.8410197
13.077028435226296	3.4196098	1.8492187
13.094670086361363	3.3242385	1.8232495
13.112312049221401	3.2122464	1.7922741
13.129954324241112	3.1095297	1.7633859
13.147596911855258	2.9217603	1.7093158
13.165239812498685	2.8968935	1.7020262
13.182883026606293	2.8525472	1.6889485
13.200526554613058	2.8075063	1.6755615
13.218170396954017	2.8001635	1.6733689
13.235814554064284	2.7659867	1.6631256
13.253459026379034	2.7692266	1.6640993
13.271103814333523	2.7094326	1.6460354
13.288748918363058	2.7683237	1.663828
13.306394338903031	2.8272243	1.6814352
13.32404007638889	2.7721677	1.6649828
13.341686131256164	2.7487078	1.6579227
13.359332503940449	2.6467927	1.6268966
13.376979194877402	2.6931548	1.6410835
13.394626204502751	2.7305813	1.6524471
13.412273533252307	2.772092	1.6649601
13.429921181561937	2.7381341	1.6547308
13.447569149867581	2.7433033	1.6562921
13.465217438605247	2.7283916	1.6517844
13.482866048211022	2.687825	1.6394588
13.500514979121052	2.675688	1.635753
13.518164231771568	2.6414306	1.6252478
13.535813806598844	2.6807244	1.6372918
13.553463704039254	2.687589	1.6393868
13.571113924529229	2.7397063	1.6552058
13.588764468505275	2.7751255	1.6658708
13.606415336403956	2.7800004	1.6673334
13.624066528661917	2.7821643	1.6679821
13.641718045715882	2.8007784	1.6735526
13.659369888002635	2.8487813	1.6878333
13.67702205595903	2.9211862	1.7091478
13.694674550021993	2.9704525	1.7235001
13.712327370628532	3.0452485	1.745064
13.729980518215713	3.1294546	1.7690265
13.747633993220681	3.226084	1.7961303
13.765287796080647	3.2805946	1.8112411
13.7829419272329	3.3175356	1.8214103
13.800596387114801	3.337499	1.8268822
13.818251176163775	3.3366983	1.8266631
13.835906294817324	3.3629394	1.8338319
13.853561743513023	3.4148657	1.8479356
13.871217522688525	3.44863	1.8570487
13.888873632781538	3.461853	1.8606056
13.906530074229858	3.469294	1.8626041
13.92418684747135	3.4528356	1.8581808
13.941843952943948	3.4584126	1.8596808
13.959501391085665	3.4594712	1.8599653
13.977159162334578	3.3947268	1.8424784
13.994817267128846	3.3326988	1.8255681
14.012475705906693	3.2277172	1.7965848
14.030134479106424	3.1983764	1.7884005
14.047793587166414	3.1320658	1.7697643
14.065453030525108	3.08937	1.7576604
14.083112809621026	3.0281901	1.7401695
14.100772924892766	2.9792712	1.7260566
14.118433376778997	2.936521	1.713628
14.136094165718458	2.865569	1.6927992
14.153755292149969	2.7864633	1.6692703
14.171416756512416	2.6630409	1.6318827
14.189078559244768	2.605396	1.614124
14.20674070078606	2.6337585	1.6228858
14.224403181575408	2.6493924	1.6276954
14.242066002051999	2.5902088	1.6094126
14.259729162655093	2.531475	1.591061
14.277392663824022	2.5082262	1.5837381
14.295056505998208	2.4911222	1.578329
14.312720689617128	2.470126	1.5716634
14.330385215120348	2.4096043	1.55229
14.348050082947497	2.3842525	1.5441025
14.3657152935383	2.3622854	1.5369728
14.383380847332528	2.38713	1.5450339
14.401046744770051	2.39653	1.5480729
14.418712986290798	2.4323056	1.5595851
14.436379572334793	2.4068534	1.5514036
14.454046503342123	2.3942032	1.5473213
14.471713779752946	2.399183	1.5489297
14.489381402007504	2.4146872	1.5539263
14.507049370546113	2.3952866	1.5476713
14.524717685809168	2.360912	1.536526
14.542386348237134	2.322222	1.5238838
14.560055358270553	2.3332038	1.5274829
14.577724716350051	2.379721	1.5426344
14.595394422916325	2.423353	1.5567123
14.61306447841015	2.440978	1.562363
14.63073488327237	2.469499	1.5714641
14.648405637943917	2.472888	1.5725418
14.6660767428658	2.4672225	1.5707395
14.683748198479094	2.5006962	1.5813589
14.701420005224954	2.5665164	1.602035
14.719092163544628	2.6569664	1.6300204
14.73676467387942	2.6971989	1.6423151
14.754437536670727	2.6998465	1.643121
14.772110752360014	2.694177	1.6413949
14.78978432138882	2.7043056	1.6444774
14.807458244198777	2.7124772	1.64696
14.82513252123159	2.6759095	1.6358207
14.842807152929028	2.6793149	1.6368613
14.860482139732962	2.671072	1.6343415
14.87815748208531	2.6976244	1.6424446
14.8958331804281	2.7042434	1.6444584
14.91350923520342	2.6532586	1.6288826
14.931185646853438	2.6450582	1.6263635
14.948862415820408	2.6206367	1.6188381
14.966539542546656	2.6139352	1.6167669
14.98421702747459	2.603809	1.6136323
15.001894871046696	2.6093757	1.6153562
15.019573073705542	2.6019893	1.6130682
15.037251635893766	2.5729113	1.6040297
15.054930558054092	2.6058607	1.6142678
15.072609840629323	2.6891968	1.6398771
15.090289484062351	2.8701751	1.6941592
15.107969488796124	3.159272	1.7774341
15.125649855273691	3.580132	1.8921237
15.14333058393817	4.1163864	2.028888
15.161011675232768	5.1146216	2.2615528
15.17869312960076	6.3923583	2.5283113
15.196374947485506	8.106931	2.8472672
15.214057129330447	11.102888	3.3320997
15.231739675579114	15.823379	3.9778612
15.249422586675102	20.891785	4.570753
15.267105863062092	24.007929	4.899789
15.284789505183847	24.37545	4.93715
15.302473513484218	22.378962	4.730641
15.320157888407127	18.88009	4.345123
15.337842630396578	14.772266	3.8434706
15.355527739896656	11.478861	3.3880467
15.37321321735153	8.918507	2.9863868
15.39089906320545	6.547662	2.55884
15.408585277902748	4.9682336	2.2289534
15.42627186188783	3.8309534	1.9572822
15.443958815605198	3.2537751	1.8038224
15.461646139499424	2.8739028	1.695259
15.479333834015168	2.7406535	1.655492
15.497021899597165	2.718709	1.6488508
15.514710336690234	2.7129228	1.6470953
15.53239914573928	2.6506329	1.6280764
15.550088327189297	2.5388498	1.5933769
15.567777881485336	2.472778	1.5725069
15.58546780907256	2.4301128	1.5588819
15.6031581103962	2.4308872	1.5591303
15.620848785901568	2.4384658	1.5615588
15.638539836034063	2.4418764	1.5626504
15.656231261239173	2.4395893	1.5619185
15.673923061962451	2.393789	1.5471874
15.691615238649552	2.4176905	1.5548924
15.709307791746202	2.4181476	1.5550394
15.727000721698221	2.4429219	1.562985
15.744694028951498	2.4414384	1.5625103
15.76238771395202	2.4374707	1.5612401
15.780081777145844	2.4351249	1.5604887
15.797776218979125	2.4164317	1.5544876
15.815471039898094	2.418576	1.5551772
15.833166240349064	2.3948941	1.5475446
15.850861820778437	2.3668506	1.5384573
15.868557781632699	2.3644147	1.5376654
15.886254123358412	2.3443975	1.5311426
15.903950846402232	2.363869	1.5374879
15.921647951210897	2.3958929	1.5478672
15.939345438231225	2.4241388	1.5569646
15.957043307910133	2.419152	1.5553623
15.974741560694602	2.3900988	1.5459944
15.992440197031714	2.4143093	1.5538048
16.01013921736862	2.4045513	1.5506616
16.02783862215259	2.410055	1.5524352
16.045538411830933	2.3830743	1.543721
16.06323858685107	2.4005203	1.5493612
16.080939147660512	2.3857887	1.5445999
16.09864009470684	2.380721	1.5429585
16.11634142843774	2.324587	1.5246596
16.134043149300954	2.3688734	1.5391145
16.15174525774433	2.427044	1.5578973
16.169447754215817	2.4733908	1.5727018
16.18715063916342	2.482974	1.5757456
16.204853913035244	2.46897	1.5712956
16.222557576279478	2.4760458	1.5735456
16.240261629344403	22.418262	4.7347927
16.257966072678386	42.93939	6.5528154
16.275670906729868	38.053036	6.168714
16.293376131947387	2.4925067	1.5787674
16.31108174877957	2.546946	1.5959154
16.328787757675133	2.5610228	1.6003196
16.34649415908287	2.56552	1.601724
16.364200953451657	2.5493615	1.5966719
16.38190814123048	2.6032453	1.6134576
16.39961572286839	2.6258461	1.6204463
16.41732369881455	2.6654212	1.6326118
16.43503206951817	2.7118673	1.6467748
16.45274083542859	2.7637556	1.6624547
16.47044999699522	2.798239	1.6727937
16.488159554667558	2.7897367	1.6702505
16.505869508895184	2.8654933	1.6927768
16.523579860127786	2.922606	1.7095631
16.541290608815117	2.978205	1.7257477
16.559001755407035	3.0052578	1.733568
16.57671330035348	3.038029	1.7429943
16.59442524410448	3.102765	1.7614667
16.61213758711015	3.151731	1.7753115
16.629850329820705	3.2040908	1.7899975
16.647563472686436	3.3031006	1.8174434
16.665277016157724	3.4030576	1.8447378
16.682990960685053	3.4811327	1.8657794
16.70070530671898	3.5103998	1.8736061
16.718420054710155	3.5650508	1.8881342
16.736135205109335	3.6408784	1.9081086
16.753850758367335	3.6862173	1.9199524
16.771566714935087	3.6969655	1.9227494
16.789283075263597	3.7227588	1.9294451
16.80699983980398	3.7575755	1.9384466
16.82471700900741	3.7999897	1.9493562
16.84243458332518	3.876947	1.9689964
16.860152563208665	3.9483168	1.9870372
16.87787094910932	4.0591183	2.0147254
16.89558974147871	4.1280065	2.0317495
16.913308940768466	4.2112274	2.0521276
16.931028547430333	4.214488	2.0529218
16.94874856191613	4.3140745	2.077035
16.966468984677785	4.352053	2.0861576
16.98418981616729	4.3977456	2.0970802
17.00191105683676	4.380352	2.0929291
17.019632707138374	4.406319	2.0991235
17.03735476752442	4.4441023	2.108104
17.05507723844728	4.477049	2.1159039
17.072800120359403	4.4934473	2.1197753
17.090523413713353	4.54139	2.1310537
17.108247118961785	4.6057444	2.1460998
17.125971236557437	4.6567965	2.1579611
17.143695766953133	4.7091923	2.1700673
17.161420710601806	4.6712265	2.161302
17.179146067956477	4.6598372	2.1586657
17.19687183947025	4.6588	2.1584253
17.21459802559634	4.641245	2.1543548
17.232324626788028	4.6760054	2.1624074
17.25005164349871	4.6612434	2.1589913
17.267779076181863	4.6864643	2.1648242
17.285506925291074	4.6032033	2.1455078
17.30323519127999	4.528965	2.1281364
17.320963874602384	4.4694242	2.1141012
17.33869297571211	4.4699874	2.1142344
17.356422495063114	4.522645	2.126651
17.37415243310944	4.524815	2.1271613
17.391882790305218	4.497312	2.1206868
17.40961356710468	4.4979906	2.1208467
17.42734476396215	4.515786	2.125038
17.445076381332044	4.525224	2.1272573
17.462808419668868	4.567516	2.1371748
17.48054087942723	4.690859	2.165839
17.498273761061835	4.9643726	2.2280872
17.51600706502747	5.4719343	2.3392167
17.533740791779024	6.1749444	2.4849436
17.551474941771485	7.617655	2.76001
17.56920951545993	8.696091	2.9489136
17.586944513299528	10.86658	3.2964497
17.60467993574556	12.523212	3.538815
17.622415783253373	14.243182	3.774014
17.64015205627843	15.617358	3.9518805
17.657888755276293	16.642561	4.0795293
17.675625880702604	17.099094	4.135105
17.69336343301311	16.844183	4.1041665
17.71110141266366	16.0965	4.0120444
17.728839820110178	15.137454	3.8906882
17.746578655808705	14.209258	3.769517
17.764317920215372	12.645788	3.5560918
17.7820576137864	11.187783	3.3448143
17.79979773697811	9.276924	3.0458043
17.81753829024692	7.479845	2.7349305
17.835279274049356	5.8470464	2.4180667
17.85302068884201	4.832974	2.1984026
17.870762535081607	4.2583423	2.063575
17.888504813224934	3.935596	1.9838337
17.90624752372891	3.7384615	1.9335102
17.923990667050536	3.6267676	1.9044074
17.941734243646895	3.5248551	1.8774598
17.959478253975185	3.4937286	1.8691518
17.9772226984927	3.4463809	1.856443
17.994967577656833	3.4655945	1.8616108
18.01271289192506	3.4308045	1.8522431
18.030458641754965	3.3836987	1.8394833
18.04820482760425	3.289255	1.8136303
18.06595144993067	3.27918	1.8108506
18.083698509192125	3.3030446	1.817428
18.101446005846576	3.302377	1.8172443
18.119193940352105	3.2404923	1.8001368
18.136942313166887	3.178705	1.7828923
18.1546911247492	3.1578786	1.7770422
18.1724403755574	3.1678748	1.7798525
18.19019006604997	3.1443176	1.7732223
18.207940196685467	3.1233425	1.7672981
18.225690767922575	3.1328845	1.7699956
18.243441780220046	3.1316953	1.7696596
18.261193234036764	3.11249	1.764225
18.278945129831676	3.0602334	1.7493522
18.29669746806386	3.0007992	1.7322814
18.314450249192483	2.9878738	1.7285467
18.3322034736768	3.0213661	1.7382077
18.349957141976184	3.0596836	1.7491951
18.3677112545501	3.0773532	1.7542386
18.385465811858108	3.0989823	1.7603927
18.403220814359884	3.082669	1.7557532
18.420976262515172	3.0849044	1.7563896
18.43873215678387	3.125947	1.7680348
18.456488497625923	3.113858	1.7646127
18.474245285501407	3.2053354	1.7903451
18.492002520870486	3.2544641	1.8040134
18.50976020419343	3.3400798	1.8275886
18.527518335930615	3.681771	1.9187942
18.545276916542516	4.3322887	2.0814152
18.563035946489688	4.546496	2.1322513
18.580795426232832	4.964546	2.228126
18.598555356232698	4.838729	2.199711
18.616315736950185	5.123756	2.2635715
18.63407656884626	4.7495265	2.1793408
18.65183785238201	4.901644	2.2139657
18.669599588018617	4.6713233	2.1613245
18.68736177621737	4.715072	2.1714218
18.705124417439652	4.7574635	2.181161
18.72288751214696	4.5418577	2.1311634
18.740651060800886	4.69205	2.166114
18.758415063863115	4.3645253	2.0891447
18.77617952179546	4.5315785	2.1287506
18.793944435059814	4.208453	2.0514514
18.811709804118184	4.261921	2.064442
18.829475629432675	4.205282	2.0506785
18.8472419114655	4.039297	2.0098002
18.86500865067897	4.0848374	2.0210981
18.88277584753551	3.7230072	1.9295095
18.90054350249763	3.7063706	1.9251937
18.918311616027957	3.4272218	1.8512757
18.936080188589226	3.3746467	1.8370211
18.953849220644265	3.147068	1.7739978
18.971618712656007	3.0021007	1.7326571
18.9893886650875	2.9085684	1.7054526
19.007159078401887	8.047747	2.8368552
19.024929953062408	32.859665	5.732335
19.042701289532435	32.770493	5.7245517
19.060473088275405	25.326672	5.0325613
19.07824534975489	2.6271632	1.6208526
19.096018074434568	2.61593	1.6173837
19.113791262778197	2.6303797	1.6218445
19.13156491524966	2.6130943	1.6165068
19.149339032312945	2.5501046	1.5969048
19.167113614432136	2.521406	1.5878936
19.184888662071433	2.544642	1.5951934
19.202664175695123	2.5629067	1.600908
19.220440155767623	2.543025	1.5946865
19.238216602753447	2.5210235	1.5877731
19.2559935171172	2.5244427	1.5888494
19.27377089932361	2.5553725	1.5985533
19.291548749837514	2.561775	1.6005546
19.309327069123835	2.556874	1.5990229
19.32710585764763	2.5545282	1.5982891
19.344885115874032	2.5346591	1.5920613
19.362664844268313	2.5236192	1.5885903
19.380445043295822	2.5215297	1.5879325
19.39822571342203	2.5345135	1.5920155
19.41600685511252	2.5119684	1.5849191
19.43378846883297	2.5118585	1.5848844
19.451570555049173	2.4834838	1.5759073
19.469353114227037	2.505474	1.5828689
19.48713614683254	2.4704888	1.5717789
19.50491965333182	2.4979153	1.5804794
19.52270363419109	2.5052755	1.5828062
19.540488089876686	2.5233963	1.5885202
19.55827302085503	2.4961348	1.5799161
19.576058427592674	2.4964085	1.5800027
19.593844310556282	2.4805028	1.5749612
19.611630670212598	2.4616976	1.5689797
19.629417507028506	2.456639	1.567367
19.64720482147098	2.4720335	1.5722702
19.6649926140071	2.5071788	1.5834073
19.682780885104084	2.5092778	1.58407
19.70056963522921	2.5102637	1.5843812
19.718358864849908	2.4850478	1.5764035
19.7361485744337	2.480947	1.5751022
19.753938764448215	2.4759502	1.5735153
19.771729435361202	2.4769905	1.5738457
19.789520587640506	2.4874518	1.5771657
19.807312221754092	2.487648	1.577228
19.825104338170043	2.5061486	1.583082
19.842896937356517	2.5507722	1.5971137
19.860690019781824	2.5908494	1.6096115
19.87848358591436	2.5879078	1.6086975
19.896277636222635	2.5505362	1.5970398
19.914072171175278	2.5090163	1.5839875
19.931867191241015	2.4976795	1.5804049
19.94966269688869	2.499828	1.5810845
19.967458688587264	2.51207	1.584951
19.985255166805807	2.507422	1.5834842
20.00305213201348	2.4440367	1.5633415
20.020849584679578	2.4221864	1.5563375
20.038647525273507	2.4209275	1.555933
20.05644595426477	2.4581304	1.5678426
20.07424487212299	2.4399514	1.5620344
20.092044279317903	2.4119585	1.5530481
20.109844176319353	2.3932939	1.5470275
20.127644563597304	2.422126	1.5563182
20.145445441621817	2.4181988	1.5550559
20.16324681086307	2.406858	1.5514052
20.181048671791373	2.3924909	1.5467678
20.198851024877122	2.3902342	1.5460383
20.216653870590836	2.4113517	1.5528527
20.234457209403146	2.4575536	1.5676587
20.252261041784802	2.4223218	1.556381
20.270065368206662	2.40885	1.552047
20.287870189139685	2.386711	1.5448984
20.305675505054968	2.365555	1.5380361
20.323481316423702	2.3358533	1.5283499
20.341287623717207	2.3108003	1.5201317
20.359094427406884	2.3625522	1.5370595
20.376901727964288	2.382666	1.5435888
20.39470952586107	2.4127073	1.5532892
20.41251782156899	2.389463	1.5457888
20.430326615559935	2.352446	1.5337685
20.448135908305886	2.3006313	1.5167832
20.465945700278965	2.2983716	1.5160381
20.483755991951384	2.3288364	1.5260526
20.50156678379548	2.340542	1.529883
20.519378076283708	2.3221464	1.523859
20.537189869888635	2.2857294	1.5118629
20.55500216508294	2.309861	1.5198227
20.572814962339415	2.3358903	1.5283619
20.59062826213098	2.3724859	1.5402876
20.60844206493066	2.3757849	1.5413581
20.626256371211593	2.3592863	1.5359968
20.644071181447032	2.3534622	1.5340998
20.66188649611036	2.3747053	1.5410079
20.67970231567506	2.3487344	1.5325581
20.697518640614742	2.379236	1.5424773
20.715335471403122	2.3915339	1.5464585
20.73315280851404	2.374927	1.5410799
20.750970652421447	2.3525784	1.5338117
20.768789003599412	2.3042734	1.5179833
20.786607862522136	2.2819436	1.5106103
20.8044272296639	2.2983828	1.5160418
20.82224710549913	2.2838047	1.5112262
20.84006749050237	2.262121	1.5040349
20.857888385148268	3.7897112	1.9467181
20.8757097899116	45.871944	6.772883
20.893531705267254	64.72842	8.045397
20.911354131690224	83.79725	9.154083
20.92917706965566	69.08325	8.311633
20.94700051963877	50.171967	7.083217
20.96482448211493	29.422659	5.424266
20.982648957559622	4.190755	2.0471334
21.00047394644843	2.281481	1.5104573
21.01829944925707	2.2630694	1.5043502
21.036125466461375	2.1998506	1.4831893
21.053951998537297	2.1835754	1.4776926
21.071779045960906	2.1929111	1.4808481
21.089606609208378	2.2464194	1.498806
21.10743468875603	2.2805135	1.510137
21.12526328508028	2.2888296	1.5128878
21.143092398657675	2.2716222	1.5071901
21.16092202996488	2.2346551	1.4948763
21.17875217947867	2.2078402	1.4858803
21.19658284767596	2.178614	1.4760128
21.21441403503377	2.1814556	1.4769752
21.232245742029225	2.1980894	1.4825954
21.2500779691396	2.164191	1.4711189
21.26791071684227	2.1804457	1.4766332
21.28574398561475	2.1800323	1.4764932
21.30357777593465	2.2006009	1.4834422
21.321412088279704	2.2018373	1.483859
21.339246923127792	2.2094786	1.4864315
21.357082280956888	2.1904833	1.4800282
21.3749181622451	2.1678643	1.4723669
21.392754567470647	2.1761448	1.4751762
21.41059149711187	2.1676676	1.4723002
21.42842895164726	2.1205127	1.4561981
21.446266931555378	2.1156635	1.454532
21.464105437314945	2.1248164	1.457675
21.481944469404798	2.146757	1.4651815
21.49978402830388	2.1144743	1.4541233
21.51762411449127	2.090882	1.4459883
21.53546472844617	2.1074288	1.4516985
21.553305870647876	2.1229408	1.4570315
21.571147541575865	2.1041694	1.4505755
21.58898974170967	2.0968392	1.4480467
21.60683247152899	2.0968137	1.4480379
21.62467573151363	2.0975199	1.4482816
21.642519522143523	2.088234	1.4450723
21.660363843898722	2.0627043	1.4362118
21.6782086972594	2.0586555	1.4348016
21.696054082705864	2.0646527	1.4368899
21.713900000718535	2.0859485	1.4442813
21.73174645177795	2.069511	1.4385794
21.749593436364794	2.023408	1.4224654
21.767440954959845	1.9747101	1.4052438
21.785289008044032	1.9603206	1.4001145
21.803137596098388	1.9891312	1.4103656
21.820986719604086	2.030007	1.4247831
21.838836379042412	2.050582	1.4319853
21.85668657489478	2.0585213	1.4347547
21.87453730764273	2.0398476	1.4282323
21.892388577767914	2.031738	1.4253905
21.91024038575213	1.9936953	1.4119828
21.928092732077285	1.959983	1.3999939
21.945945617225426	1.9673799	1.4026332
21.963799041678694	2.0165176	1.4200414
21.981653005919398	31.351124	5.5992074
21.999507510429943	78.15579	8.840576
22.01736255569286	73.08758	8.549128
22.035218142190818	4.178885	2.0442321
22.05307427040661	1.9657102	1.4020379
22.07093094082315	1.9676945	1.4027454
22.088788153923474	1.9649732	1.401775
22.106645910190746	1.9674805	1.4026691
22.12450421010827	1.9998453	1.4141588
22.142363054159464	2.0288851	1.4243894
22.16022244282787	2.033913	1.4261532
22.178082376597164	2.0320044	1.425484
22.195942855951145	1.9959288	1.4127734
22.213803881373742	1.9679372	1.4028319
22.231665453349002	1.9454598	1.3947974
22.24952757236111	1.9665091	1.4023228
22.26739023889438	1.9865726	1.4094583
22.28525345343323	1.969718	1.4034665
22.30311721646225	1.9560593	1.3985919
22.320981528466113	1.9357505	1.3913125
22.33884638992964	1.9270691	1.3881891
22.356711801337788	1.9653007	1.4018918
22.37457776317561	1.9699097	1.4035347
22.392444275928337	1.982135	1.4078832
22.410311340081282	1.9598716	1.3999542
22.428178956119904	1.9595593	1.3998426
22.446047124529805	1.9548223	1.3981496
22.46391584579669	1.9890037	1.4103204
22.481785120406414	1.9855487	1.409095
22.49965494884496	1.9486638	1.3959455
22.51752533159841	1.9534173	1.397647
22.53539626915302	1.9585298	1.3994749
22.553267761995137	1.935232	1.3911262
22.571139810611264	1.8827565	1.3721358
22.589012415488025	1.8814207	1.3716489
22.60688557711216	1.9114052	1.3825358
22.624759295970566	1.9461206	1.3950343
22.642633572550263	1.9750155	1.4053525
22.660508407338362	1.9955555	1.4126413
22.67838380082217	1.975597	1.4055593
22.696259753489077	1.9627397	1.4009781
22.714136265826614	1.9453199	1.3947473
22.73201333832246	1.9291499	1.3889384
22.74989097146439	1.9416109	1.393417
22.76776916574035	1.9345256	1.3908722
22.785647921638393	1.8847517	1.3728626
22.803527239646712	1.8349178	1.3545914
22.82140712025363	1.8507485	1.3604221
22.839287563947593	1.9028773	1.3794482
22.85716857121719	1.9219837	1.3863562
22.875050142551135	1.9167331	1.3844613
22.892932278438277	1.9283495	1.3886503
22.910814979367604	1.93719	1.3918297
22.928698245828222	1.9307264	1.3895059
22.946582078309387	1.9293009	1.3889928
22.96446647730047	1.9156854	1.3840829
22.98235144329098	1.8856484	1.3731891
23.000236976770562	1.8932573	1.3759569
23.018123078229	1.9188032	1.3852087
23.03600974815619	1.9612135	1.4004333
23.053896987042194	1.9591208	1.399686
23.071784795377173	1.9390956	1.3925141
23.08967317365145	1.9300702	1.3892697
23.10756212235546	1.9336557	1.3905596
23.125451641979787	1.9476236	1.3955729
23.143341733015134	1.9844177	1.4086936
23.161232395952357	1.9878086	1.4098966
23.179123631282426	1.96039	1.4001392
23.197015439496468	1.9157084	1.3840911
23.214907821085717	1.9038236	1.3797911
23.23280077654157	1.9013002	1.3788764
23.250694306355538	1.8935349	1.3760577
23.268588411019277	1.9076802	1.3811879
23.28648309102458	1.9211714	1.3860633
23.304378346863356	1.9030156	1.3794984
23.322274179027676	1.8900856	1.3748038
23.340170588009723	1.8782662	1.3704985
23.358067574301852	1.8785157	1.3705895
23.37596513839651	1.88767	1.3739251
23.39386328078629	1.8854642	1.3731221
23.411762001963947	1.9053918	1.3803593
23.429661302422353	1.921083	1.3860314
23.4475611826545	1.9167482	1.3844668
23.46546164315356	1.9236375	1.3869526
23.48336268441279	1.9043053	1.3799657
23.501264306925638	1.8866793	1.3735645
23.51916651118564	1.8648642	1.3656003
23.537069297686497	1.8846459	1.3728241
23.554972666922037	1.9397899	1.3927634
23.57287661938623	1.9402196	1.3929176
23.59078115557318	1.9291006	1.3889207
23.608686275977128	1.9033142	1.3796066
23.62659198109246	1.9161471	1.3842497
23.6444982714137	1.9397063	1.3927335
23.66240514743549	1.9553915	1.3983531
23.68031260965263	1.9187162	1.3851774
23.698220658560068	1.9083512	1.3814309
23.716129294652845	1.8938184	1.3761607
23.7340385184262	1.9030484	1.3795102
23.75194833037546	1.9604024	1.4001437
23.769858730996123	1.9612709	1.4004538
23.78776972078382	1.8956125	1.3768125
23.80568130023431	1.902131	1.3791777
23.823593469843495	1.9371088	1.3918005
23.841506230107424	1.9364473	1.3915629
23.859419581522275	1.8545411	1.3618153
23.87733352458438	1.8560483	1.3623687
23.89524805979019	1.879842	1.3710734
23.913163187636318	1.9242166	1.3871614
23.931078908619508	1.9320573	1.3899846
23.948995223236633	1.9030262	1.3795022
23.966912131984735	1.9120554	1.3827709
23.98482963536096	1.9421715	1.3936181
24.002747733862616	1.9701697	1.4036273
24.020666427987155	2.003882	1.4155854
24.038585718232156	2.0507116	1.4320306
24.056505605095353	2.0888896	1.4452991
24.074426089074617	2.0898066	1.4456164
24.092347170667946	2.0638523	1.4366114
24.110268850373515	2.0633905	1.4364506
24.128191128689586	2.0925405	1.4465616
24.146114006114626	2.1155732	1.454501
24.164037483147187	2.1088326	1.452182
24.181961560286005	2.0698895	1.438711
24.199886238029926	2.0217376	1.4218782
24.21781151687797	2.027977	1.4240706
24.235737397329274	2.0715802	1.4392985
24.253663879883135	2.0942914	1.4471667
24.271590965038975	2.0975213	1.4482822
24.289518653296376	2.059048	1.4349383
24.30744694515505	2.037647	1.4274617
24.32537584111486	2.0192845	1.4210153
24.34330534167581	2.005701	1.4162278
24.361235447338046	2.0153644	1.4196353
24.379166158601876	2.034709	1.4264323
24.39709747596772	2.0557168	1.4337771
24.41502939993615	2.0865476	1.4444886
24.432961931007917	2.0527806	1.4327528
24.450895069683856	2.0297027	1.4246763
24.468828816465	1.9945711	1.4122928
24.4867631718525	1.9588248	1.3995802
24.504698136347656	1.9592203	1.3997215
24.52263371045192	1.9833628	1.4083191
24.540569894666874	1.9893059	1.4104276
24.558506689494266	1.945435	1.3947885
24.57644409543597	1.9250665	1.3874676
24.594382112994012	1.9311621	1.3896626
24.61232074267057	1.9448175	1.3945671
24.630259984967953	1.9173905	1.3846987
24.64819984038863	1.9447281	1.3945351
24.66614030943522	1.9841443	1.4085966
24.684081392610462	2.0262792	1.4234743
24.702023090417274	1.9997234	1.4141158
24.7199654033587	2.004218	1.4157041
24.737908331937927	2.0060506	1.4163512
24.755851876658305	2.0287113	1.4243283
24.773796038023324	2.037518	1.4274166
24.79174081653661	2.059034	1.4349335
24.809686212701962	2.0781255	1.4415705
24.827632227023294	2.0534809	1.4329971
24.8455788600047	2.1086414	1.4521161
24.8635261121504	2.1609218	1.4700074
24.88147398396475	2.1856174	1.4783834
24.899422475952303	2.1247709	1.4576594
24.917371588617698	2.113882	1.4539195
24.935321322465768	2.1388295	1.4624738
24.953271678001478	2.2259128	1.4919493
24.97122265572994	2.4285972	1.5583957
24.989174256156414	2.7424176	1.6560246
25.00712647978632	3.1931026	1.7869254
25.02507932712521	3.7372308	1.9331919
25.043032798678798	4.324178	2.0794659
25.060986894952933	4.960428	2.227202
25.078941616453637	5.716256	2.3908694
25.096896963687055	6.630615	2.5749981
25.114852937159508	7.7909727	2.7912314
25.132809537377444	8.207432	2.8648615
25.150766764847468	8.193288	2.862392
25.168724620076347	7.692402	2.7735178
25.186683103570985	6.746853	2.5974705
25.204642215838426	5.623594	2.3714118
25.222601957385894	4.2106724	2.0519922
25.24056232872074	3.2508857	1.8030213
25.25852333035048	2.7288144	1.6519123
25.276484962782778	2.3821776	1.5434304
25.294447226525435	2.15344	1.4674604
25.312410122086423	2.0439603	1.4296714
25.330373649973843	1.9734467	1.4047942
25.348337810695988	1.8940907	1.3762597
25.366302604761245	1.8461322	1.3587245
25.384268032678207	1.8661143	1.3660579
25.40223409495558	1.9252315	1.3875271
25.420200792102257	1.9235165	1.386909
25.438168124627246	1.8945901	1.3764411
25.45613609303974	1.8453891	1.358451
25.474104697849057	1.841094	1.3568692
25.492073939564698	1.8362832	1.3550953
25.510043818696285	1.8420393	1.3572176
25.528014335753614	1.8487232	1.3596776
25.54598549124664	1.8618386	1.364492
25.56395728568544	1.8399585	1.3564507
25.58192971958028	1.8600712	1.3638443
25.59990279344156	1.8470851	1.3590751
25.617876507779833	1.8475161	1.3592336
25.635850863105826	1.8533192	1.3613666
25.653825859930386	1.8420229	1.3572115
25.671801498764548	1.8404793	1.3566426
25.68977778011949	1.8189468	1.3486834
25.707754704506524	1.8358186	1.3549238
25.725732272437153	1.8276069	1.3518901
25.743710484423012	1.8239487	1.3505365
25.761689340975888	1.8425702	1.357413
25.77966884260774	1.8509686	1.3605031
25.797648989830662	1.890034	1.3747851
25.815629783156922	1.8820451	1.3718765
25.83361122309895	1.8716397	1.3680788
25.85159331016929	1.8538351	1.3615562
25.869576044880695	1.8542417	1.3617054
25.887559427746034	1.8383777	1.3558679
25.90554345927836	1.8122222	1.3461881
25.92352813999086	1.8385235	1.3559216
25.94151347039689	1.8626252	1.3647803
25.959499451009965	1.8474263	1.3592006
25.97748608234374	1.8194897	1.3488846
25.995473364912062	1.8400638	1.3564895
26.013461299228904	1.844999	1.3583074
26.03144988580839	1.828224	1.3521184
26.04943912516483	1.7572062	1.3255966
26.067429017812675	1.7401084	1.3191317
26.085419564266537	1.7668636	1.3292342
26.103410765041186	1.8537874	1.3615386
26.12140262065155	1.8699116	1.3674471
26.139395131612723	1.8319649	1.353501
26.157388298439948	1.8338012	1.3541791
26.17538212164861	1.8439976	1.3579388
26.193376601754295	1.8663408	1.3661408
26.211371739272714	1.8570666	1.3627423
26.229367534719746	1.8140838	1.3468792
26.247363988611433	1.7938157	1.339334
26.26536110146397	1.8612348	1.3642708
26.283358873793727	1.8443626	1.3580731
26.301357306117204	1.7936406	1.3392687
26.319356398951104	1.7123578	1.3085709
26.33735615281224	1.7356745	1.31745
26.35535656821762	1.7475398	1.3219454
26.373357645684404	1.7598447	1.3265914
26.39135938572991	1.755587	1.3249856
26.409361788871614	1.7575283	1.325718
26.427364855627165	1.7855579	1.3362477
26.445368586514352	1.8133146	1.3465937
26.46337298205115	1.8205259	1.3492687
26.48137804275568	1.8927562	1.3757747
26.499383769146217	1.9450003	1.3946327
26.517390161741215	1.902229	1.3792132
26.53539722105928	1.8325465	1.3537158
26.553404947619182	1.817229	1.3480464
26.571413341939856	1.8261571	1.3513538
26.589422404540397	1.8206005	1.3492963
26.60743213594006	1.8109788	1.3457261
26.62544253665827	1.8068542	1.3441927
26.64345360721459	1.8197844	1.3489939
26.66146534812879	1.7897053	1.3377987
26.679477759920758	1.7443293	1.3207306
26.69749084311057	1.8068221	1.3441808
26.71550459821847	1.8317466	1.3534204
26.733519025764842	1.8102124	1.3454413
26.751534126270258	1.7772905	1.3331506
26.769549900255434	1.8333174	1.3540006
26.787566348241267	1.8500932	1.3601813
26.80558347074881	1.869625	1.3673424
26.823601268299267	1.7843326	1.3357891
26.841619741414036	1.7545288	1.3245863
26.85963889061465	1.7854011	1.336189
26.877658716422832	1.788231	1.3372476
26.89567921936045	1.7482586	1.3222173
26.913700399949544	1.7540841	1.3244184
26.93172225871233	1.7409699	1.3194581
26.949744796171174	1.7829671	1.3352779
26.967768012848605	1.8153033	1.3473319
26.98579190926733	1.8299662	1.3527625
27.003816485950225	1.77992	1.3341364
27.021841743420318	1.7787443	1.3336958
27.039867682200814	1.8099054	1.3453273
27.057894302815072	1.8672411	1.3664703
27.07592160578664	1.8634604	1.3650862
27.0939495916392	1.7911394	1.3383346
27.111978260896635	1.7430056	1.3202294
27.13000761408296	1.760802	1.3269521
27.148037651722397	1.7868057	1.3367145
27.166068374339304	1.7863469	1.3365428
27.184099782458215	1.8268423	1.3516073
27.20213187660384	1.8071048	1.344286
27.22016465730105	1.7880226	1.3371696
27.23819812507487	1.7862629	1.3365115
27.256232280450533	1.8163519	1.347721
27.274267123953383	1.8022289	1.3424712
27.292302656108987	1.7989694	1.3412566
27.31033887744306	1.820725	1.3493425
27.32837578848146	1.8373003	1.3554705
27.34641338975026	1.8451831	1.3583752
27.364451681775673	1.8610097	1.3641883
27.382490665084074	1.8699784	1.3674716
27.400530340202046	1.807123	1.3442928
27.41857070765629	1.8157283	1.3474896
27.436611767973726	1.7965491	1.3403541
27.454653521681404	1.7592399	1.3263634
27.472695969306564	1.7447594	1.3208934
27.490739111376627	1.7414618	1.3196446
27.508782948419153	1.8041384	1.3431822
27.526827480961902	1.8713605	1.3679768
27.54487270953279	1.8764699	1.369843
27.562918634659898	1.8518246	1.3608177
27.580965256871508	1.8585484	1.3632859
27.599012576696026	1.8561448	1.362404
27.617060594662068	1.8534311	1.3614078
27.63510931129842	1.8256507	1.3511664
27.65315872713401	1.800071	1.3416673
27.67120884269797	1.8131117	1.3465184
27.68925965851958	1.8306966	1.3530324
27.707311175128307	1.8669336	1.3663578
27.725363393053787	1.8393174	1.3562144
27.74341631282583	1.8046712	1.3433805
27.7614699349744	1.7976292	1.340757
27.77952426002968	1.9753114	1.4054577
27.797579288521973	2.074221	1.4402156
27.815635020981784	2.5627897	1.6008716
27.83369145793979	2.6262667	1.620576
27.85174859992682	2.464227	1.5697856
27.869806447473923	2.2919848	1.5139302
27.887865001112267	2.0195217	1.4210988
27.905924261373233	1.9719976	1.4042783
27.92398422878836	1.951655	1.3970165
27.94204490388936	1.8900123	1.3747772
27.96010628720813	1.8915507	1.3753365
27.978168379276728	1.872037	1.368224
27.9962311806274	1.8505236	1.3603395
28.014294691792568	1.8450639	1.3583313
28.0323589133048	1.9474179	1.3954991
28.050423845696887	2.006806	1.4166178
28.068489489501758	1.9351128	1.3910834
28.086555845252523	1.8551494	1.3620387
28.104622913482487	1.8442745	1.3580407
28.122690694725115	1.8721726	1.3682736
28.14075918951405	1.8697357	1.3673828
28.15882839838312	1.8348972	1.3545837
28.176898321866304	1.8530942	1.361284
28.1949689604978	1.8803715	1.3712664
28.213040314811945	1.9061108	1.3806196
28.23111238534327	1.9278616	1.3884746
28.249185172626493	1.9308016	1.3895329
28.267258677196473	1.9304683	1.389413
28.285332899588294	1.9522592	1.3972327
28.303407840337172	1.981217	1.4075571
28.321483499978545	1.9878896	1.4099255
28.33955987904799	1.9392452	1.3925679
28.357636978081285	1.8850402	1.3729676
28.37571479761439	1.8708993	1.3678082
28.393793338183425	1.896166	1.3770134
28.41187260032469	1.960409	1.4001461
28.429952584574686	1.9877294	1.4098686
28.448033291470065	1.9810394	1.4074941
28.46611472154769	1.9595672	1.3998454
28.484196875344566	1.991073	1.4110539
28.502279753397914	2.0460336	1.4303963
28.52036335624511	2.0833101	1.4433676
28.538447684423716	2.029619	1.424647
28.556532738471482	1.9408509	1.3931442
28.574618518926325	1.9204264	1.3857945
28.59270502632635	1.9673505	1.4026227
28.61079226120985	2.0017526	1.4148331
28.628880224115274	2.000324	1.4143281
28.646968915581287	2.0139012	1.4191198
28.66505833614671	2.02264	1.4221954
28.68314848635055	2.009744	1.4176544
28.701239366732004	1.9999374	1.4141915
28.71933097783044	1.9917123	1.4112804
28.737423320185403	2.0610056	1.4356203
28.75551639433665	2.1211743	1.4564252
28.773610200824074	2.149016	1.4659522
28.791704740187793	2.110567	1.452779
28.80980001296809	2.0805168	1.4423996
28.827896019705413	2.1102173	1.4526587
28.845992760940433	2.0742567	1.440228
28.86409023721397	2.1069713	1.451541
28.88218844906704	2.184423	1.4779793
28.900287397040845	2.2288	1.4929166
28.918387081676755	2.187333	1.4789635
28.936487503516343	2.160514	1.4698688
28.954588663101365	2.1402175	1.4629482
28.97269056097374	2.1486914	1.4658415
28.990793197675597	2.2041295	1.4846311
29.00889657374923	2.2727137	1.5075523
29.027000689737125	2.3025975	1.5174313
29.04510554618196	2.3561196	1.5349656
29.06321114362659	2.3670678	1.5385278
29.08131748261405	2.4420753	1.5627141
29.099424563687567	2.504288	1.5824943
29.11753238739057	2.4944313	1.5793768
29.13564095426663	2.5150497	1.5858908
29.15375026485954	2.542483	1.5945165
29.171860319713275	2.5944467	1.6107286
29.18997111937199	2.6379004	1.6241615
29.20808266438002	2.6864476	1.6390387
29.226194955281898	2.7156327	1.6479176
29.244307992622335	2.820898	1.6795529
29.26242177694624	2.9288816	1.7113975
29.2805363087987	2.8787065	1.6966751
29.29865158872498	2.777024	1.6664405
29.316767617270557	2.8201516	1.6793307
29.334884394981064	2.8829057	1.6979122
29.353001922402367	2.975809	1.7250533
29.37112020008047	3.0765972	1.7540232
29.389239228561596	3.237103	1.799195
29.407359008392152	3.4330437	1.8528475
29.42547954011872	3.6895425	1.9208182
29.44360082428809	4.2882404	2.0708067
29.46172286144722	5.2910604	2.3002305
29.479845652143283	6.829186	2.6132712
29.497969196923606	8.895886	2.9825974
29.516093496335728	11.337337	3.3670962
29.5342185509274	14.073348	3.751446
29.55234436124651	16.38763	4.048164
29.570470927841175	17.863472	4.22652
29.588598251259686	17.748951	4.21295
29.60672633205055	16.440271	4.0546603
29.624855170762405	14.321339	3.7843544
29.642984767944146	11.652692	3.413604
29.66111512414481	8.895154	2.9824746
29.67924623991366	6.612284	2.5714362
29.697378115800138	5.162289	2.272067
29.71551075235387	4.3147817	2.0772052
29.733644150124675	3.845529	1.9610021
29.751778309662576	3.525774	1.8777045
29.769913231517766	3.3813238	1.8388376
29.78804891624066	3.3722522	1.8363693
29.806185364381818	3.3732219	1.8366333
29.82432257649206	3.3337417	1.8258537
29.842460553122333	3.3030615	1.8174326
29.86059929482382	3.334667	1.826107
29.878738802147872	3.3130522	1.8201791
29.896879075646048	3.2784734	1.8106555
29.915020115870114	3.2922173	1.8144468
29.933161923371976	3.2889624	1.8135496
29.951304498703777	3.1834917	1.7842342
29.969447842417857	3.19121	1.7863958
29.987591955066733	3.2147148	1.7929626
30.005736837203123	3.1759834	1.7821289
30.023882489379943	3.174838	1.7818075
30.04202891215028	3.1825182	1.7839614
30.060176106067455	3.168131	1.7799245
30.078324071684946	3.181955	1.7838036
30.09647280955646	3.1340172	1.7703155
30.114622320235863	3.0672545	1.7513579
30.132772604277257	3.0825984	1.755733
30.1509236622349	3.1547594	1.7761643
30.16907549466328	3.1226993	1.7671161
30.18722810211705	3.0247576	1.7391831
30.205381485151097	2.9922075	1.7297999
30.22353564432045	2.9703703	1.7234762
30.241690580180403	2.9412863	1.7150179
30.25984629328638	2.9574997	1.7197382
30.278002784194037	2.9971952	1.731241
30.296160053459246	2.971342	1.7237581
30.314318101638033	2.968316	1.7228801
30.332476929286646	2.9693117	1.7231691
30.35063653696153	2.9910088	1.7294533
30.368796925219307	2.9839833	1.727421
30.386958094616844	3.0053892	1.7336059
30.40512004571115	2.974696	1.7247307
30.423282779059463	2.9154327	1.7074639
30.441446295219233	2.8867881	1.6990551
30.459610594748067	2.8863618	1.6989297
30.47777567820382	2.8888803	1.6996707
30.495941546144504	2.8822277	1.6977124
30.51410819912835	2.8796117	1.6969419
30.532275637713795	2.8283162	1.6817598
30.55044386245946	2.80381	1.674458
30.56861287392416	2.8333156	1.6832455
30.586782672666956	2.7868695	1.669392
30.604953259247047	2.7700784	1.6643553
30.623124634223885	2.8342223	1.6835148
30.641296798157075	2.83478	1.6836805
30.659469751606462	2.8348963	1.683715
30.677643495132074	2.8438568	1.6863738
30.695818029294152	2.793156	1.6712737
30.713993354653116	2.7796044	1.6672146
30.73216947176962	2.767802	1.6636713
30.75034638120448	2.7569861	1.6604174
30.768524083518756	2.7500558	1.6583292
30.786702579273673	2.726454	1.6511978
30.80488186903069	2.7948527	1.6717813
30.82306195335144	2.945788	1.7163298
30.841242832797782	3.14942	1.7746606
30.85942450793176	3.3766303	1.837561
30.877606979315637	3.6525245	1.9111578
30.895790247511883	3.976492	1.9941143
30.913974313083134	4.4614067	2.1122043
30.932159176592283	4.849914	2.2022521
30.95034483860237	4.9186487	2.2178028
30.968531299676698	4.674584	2.1620786
30.98671856037873	4.400418	2.0977173
31.00490662127215	4.0414805	2.0103433
31.023095482920848	3.644128	1.90896
31.04128514588892	3.151916	1.7753637
31.059475610740662	2.7270427	1.651376
31.07766687804056	2.5529647	1.5977999
31.09585894835335	2.5271587	1.589704
31.11405182224393	2.5142643	1.5856432
31.132245500277417	2.4541008	1.566557
31.15043998301914	2.3402634	1.529792
31.168635271034628	2.3369286	1.5287017
31.18683136488964	2.389574	1.5458248
31.20502826515008	2.3998933	1.5491589
31.223225972382135	2.463773	1.569641
31.241424487152155	2.5857875	1.6080384
31.259623810026692	2.5938857	1.6105545
31.27782394157253	2.5057745	1.5829638
31.296024882356644	2.356677	1.5351472
31.314226632946237	2.3442237	1.5310858
31.332429193908684	2.3668103	1.5384442
31.350632565811598	2.454812	1.566784
31.368836749222787	2.4841464	1.5761175
31.387041744710295	2.4566693	1.5673766
31.40524755284232	2.5285704	1.590148
31.423454174187317	2.5661616	1.6019243
31.441661609313922	2.507611	1.5835438
31.459869858791002	2.4604294	1.5685756
31.478078923187628	2.4165843	1.5545367
31.496288803073064	2.4034903	1.5503194
31.514499499016807	2.3414807	1.5301898
31.532711011588546	2.3223934	1.5239401
31.550923341358178	2.3563051	1.5350261
31.56913648889584	2.3436875	1.5309107
31.587350454771844	2.3200746	1.523179
31.605565239556732	2.3180501	1.5225145
31.62378084382127	2.324162	1.5245203
31.641997268136382	2.3671436	1.5385524
31.660214513073274	2.3390017	1.5293795
31.67843257920331	2.2935877	1.5144595
31.6966514670981	2.3022037	1.5173014
31.71487117732944	2.3689022	1.5391239
31.733091710469346	2.3396943	1.5296059
31.751313067090052	2.3099647	1.5198568
31.769535247764008	2.316166	1.5218955
31.787758253063878	2.2706625	1.5068718
31.805982083562526	2.1760516	1.4751446
31.824206739833024	2.2654302	1.5051346
31.84243222244869	2.377499	1.5419141
31.860658531983013	2.3371139	1.5287622
31.878885669009737	2.2385416	1.4961756
31.897113634102784	2.256328	1.5021079
31.91534242783632	2.211845	1.4872272
31.933572050784694	2.2533653	1.5011213
31.951802503522508	2.3242164	1.524538
31.970033786624548	2.2622745	1.5040859
31.988265900665834	2.2358444	1.4952741
32.006498846221575	2.2298522	1.493269
32.02473262386724	2.2738724	1.5079365
32.04296723417845	2.2217517	1.4905542
32.0612026777311	2.1904144	1.4800049
32.07943895510129	2.161664	1.4702598
32.097676066865304	2.1900458	1.4798803
32.115914013599685	2.1785235	1.4759822
32.13415279588115	2.1424506	1.4637113
32.152392414286666	2.1249647	1.4577259
32.1706328693934	2.1269584	1.4584095
32.18887416177875	2.160271	1.469786
32.20711629202032	2.2005892	1.4834383
32.225359260695924	2.145098	1.4646153
32.243603068383614	2.2051382	1.4849708
32.26184771566166	2.271884	1.507277
32.28009320310852	2.1955652	1.4817439
32.2983395313029	2.0752895	1.4405866
32.31658670082372	2.0351977	1.4266036
32.33483471225012	2.0322874	1.4255831
32.35308356616143	2.1026998	1.4500688
32.371333263137245	2.1648932	1.4713576
32.38958380375734	2.1693892	1.4728847
32.407835188601744	2.125907	1.458049
32.42608741825067	2.0869036	1.4446119
32.444340493284585	2.0145233	1.4193391
32.46259441428416	2.0293705	1.4245598
32.48084918183028	1.9956583	1.4126776
32.49910479650405	2.0155594	1.419704
32.51736125888683	2.04762	1.4309508
32.53561856956014	2.0733252	1.4399046
32.5538767291058	2.052904	1.4327959
32.572135738105764	2.089419	1.4454823
32.59039559714228	2.173076	1.4741356
32.608656306797776	2.0826483	1.4431384
32.62691786765491	2.0110614	1.418119
32.645180280296586	2.0118876	1.4184102
32.663443545305896	2.078145	1.4415773
32.68170766326619	2.0087774	1.4173135
32.69997263476099	1.9260409	1.3878187
32.7182384603741	1.9583355	1.3994054
32.7365051406895	1.9594114	1.3997898
32.75477267629144	2.0120604	1.4184711
32.77304106776434	2.044237	1.4297681
32.79131031569289	2.0811076	1.4426044
32.809580420661966	2.0816748	1.442801
32.827851383256714	2.022494	1.4221442
32.84612320406245	2.0468404	1.4306784
32.86439588366476	1.942426	1.3937094
32.88266942264945	1.8492597	1.3598748
32.9009438216025	1.9218558	1.3863101
32.9192190811102	2.03465	1.4264116
32.937495201758985	2.0019038	1.4148865
32.95577218413556	1.9934366	1.4118911
32.974050028826866	1.9459856	1.3949859
32.992328736420035	1.9159304	1.3841714
33.010608307502444	1.92331	1.3868345
33.02888874266169	1.9773902	1.4061971
33.047170042485604	2.0549717	1.4335172
33.06545220756225	2.108409	1.4520361
33.083735238479896	2.09393	1.4470419
33.10201913582707	2.123164	1.457108
33.12030390019248	2.108253	1.4519825
33.138589532165135	2.0213664	1.4217477
33.15687603233419	1.8856591	1.373193
33.17516340128909	1.7836282	1.3355254
33.19345163961947	1.8285376	1.3522342
33.211740747915215	1.8265738	1.351508
33.23003072676643	1.9769397	1.4060369
33.248321576763466	2.0641391	1.4367112
33.266613298496885	2.0503452	1.4319026
33.28490589255747	1.9779987	1.4064134
33.30319935953626	1.994721	1.4123459
33.32149370002451	2.0260506	1.4233941
33.339788914613706	1.9044666	1.3800242
33.358085003895575	1.8398061	1.3563945
33.376381968462034	1.8921506	1.3755547
33.39467980890529	2.1229439	1.4570326
33.41297852581774	2.1288664	1.4590635
33.43127811979204	1.9617709	1.4006323
33.44957859142105	1.8541319	1.3616651
33.467879941297866	1.826854	1.3516116
33.486182170015844	1.8734977	1.3687577
33.50448527816853	2.0047421	1.4158891
33.522789266349754	2.0563107	1.4339842
33.541094135153514	2.0637417	1.4365729
33.55939988517411	2.0357234	1.4267879
33.57770651700602	1.8832735	1.3723241
33.59601403124398	1.8504794	1.3603233
33.61432242848296	1.798415	1.3410499
33.632631709318154	1.8601458	1.3638716
33.650941874344994	1.9166348	1.3844258
33.66925292415916	1.803793	1.3430536
33.68756485935654	1.7435098	1.3204203
33.70587768053328	1.8279915	1.3520323
33.724191388285746	1.9203949	1.3857831
33.74250598321054	2.0217962	1.4218988
33.760821465904506	1.9719958	1.4042777
33.77913783696474	1.8492807	1.3598826
33.79745509698852	1.8081523	1.3446755
33.815773246573414	1.8441061	1.3579787
33.8340922863172	1.8632617	1.3650135
33.852412216817896	1.8427039	1.3574623
33.87073303867377	1.9192518	1.3853706
33.889054752483304	1.8269318	1.3516405
33.907377358845245	1.8058124	1.3438052
33.92570085835853	1.8553908	1.3621273
33.94402525162239	1.914854	1.3837825
33.96235053923627	1.9437824	1.394196
33.980676721799824	1.9929707	1.4117261
33.999003799912984	2.0102582	1.4178357
34.01733177417592	1.9322022	1.3900368
34.03566064518901	1.8831551	1.372281
34.0539904135529	1.8171881	1.3480312
34.07232107986846	1.8210917	1.3494782
34.090652644736785	1.8895895	1.3746234
34.108985108759235	2.0067787	1.4166082
34.12731847253742	2.0508125	1.4320658
34.14565273667313	2.0615945	1.4358253
34.16398790176847	1.910167	1.382088
34.18232396842574	1.8087547	1.3448995
34.20066093724749	1.9208813	1.3859586
34.21899880883651	1.8862123	1.3733945
34.23733758379583	1.8506558	1.3603882
34.25567726272874	1.8936023	1.3760822
34.27401784623872	1.9653504	1.4019096
34.29235933492957	1.9826986	1.4080833
34.31070172940526	1.9117898	1.3826748
34.32904503027003	1.9133843	1.3832513
34.347389238128386	1.9910834	1.4110576
34.36573435358502	1.980338	1.4072448
34.38408037724492	1.8349147	1.3545902
34.402427309713296	1.8450108	1.3583118
34.42077515159559	1.9086092	1.3815242
34.43912390349752	1.9946514	1.4123213
34.45747356602499	1.973999	1.4049908
34.47582413978423	1.8802735	1.3712306
34.49417562538163	1.8124207	1.3462617
34.51252802342388	1.7889479	1.3375156
34.53088133451789	2.015035	1.4195193
34.54923555927084	2.1629102	1.4706836
34.567590698290104	2.0850737	1.4439784
34.58594675218336	2.0741918	1.4402055
34.6043037215585	2.0155022	1.4196838
34.62266160702365	1.9413166	1.3933114
34.641020409187234	1.9534549	1.3976605
34.65938012865785	1.9885055	1.4101437
34.677740766044394	2.0374832	1.4274044
34.69610232195598	1.8783342	1.3705233
34.714464797002016	1.883316	1.3723396
34.73282819179208	1.888131	1.3740928
34.751192506936064	1.8716071	1.3680669
34.76955774304408	1.8677424	1.3666537
34.7879239007265	2.0542867	1.4332783
34.80629098059391	2.1747935	1.4747181
34.824658983257194	2.1835623	1.4776882
34.843027909327446	2.2562685	1.5020881
34.86139775941603	2.334618	1.5279458
34.879768534134534	2.1931682	1.4809349
34.89814023409483	2.2195969	1.4898312
34.91651285990901	2.4467168	1.5641985
34.93488641218944	2.378899	1.542368
34.95326089154871	2.195139	1.4816002
34.97163629859967	2.033681	1.4260719
34.99001263395542	1.8959088	1.3769201
35.00838989822934	1.8031635	1.3428192
35.02676809203499	2.021594	1.4218277
35.04514721598624	2.165386	1.4715251
35.063527270697215	2.1239567	1.45738
35.081908256782256	1.9414082	1.3933443
35.10029017485597	1.828649	1.3522755
35.11867302553321	1.7142746	1.3093032
35.137056809429104	1.7492827	1.3226045
35.155441527159006	1.753571	1.3242247
35.173827179338524	1.850394	1.3602918
35.19221376658354	1.972601	1.4044932
35.21060128951017	1.9202977	1.385748
35.2289897487348	1.9123698	1.3828846
35.24737914487405	1.9424105	1.3937038
35.26576947854479	1.7584157	1.3260527
35.28416075036418	1.7987033	1.3411574
35.30255296094958	1.9302207	1.3893238
35.32094611091867	2.2461476	1.4987153
35.33934020088932	2.1969268	1.4822034
35.35773523147969	1.9348123	1.3909754
35.3761312033082	1.9826937	1.4080815
35.394528116993506	2.0084357	1.4171929
35.41292597315452	2.1408947	1.4631796
35.431324772410434	2.1832006	1.4775658
35.449724515380666	1.9046952	1.3801069
35.46812520268491	1.9408648	1.3931493
35.486526834943106	2.0134025	1.4189441
35.504929412775454	1.9237165	1.3869811
35.52333293680242	1.6898434	1.2999398
35.54173740764471	1.6370316	1.2794653
35.560142825923286	1.6885861	1.2994561
35.5785491922594	2.0240602	1.4226947
35.59695650727454	2.1386511	1.4624128
35.61536477159042	1.9318032	1.3898933
