0.008763373481513119	0.0	0.0
0.026290120649546365	0.0	0.0
0.043816868432600686	0.0	0.0
0.06134361724069026	0.04474922	0.21154012
0.07887036748382949	0.071105964	0.26665702
0.0963971195720331	0.22107925	0.47019064
0.11392387391531617	0.28144628	0.53051513
0.1314506309236943	0.29244193	0.540779
0.1489773910071836	0.17360422	0.4166584
0.16650415457580078	0.10554268	0.32487333
0.18403092203956356	0.08478605	0.29118043
0.20155769380849	0.07485974	0.27360508
0.2190844702925996	0.07335025	0.2708325
0.2366112519019124	0.026608702	0.16312174
0.2541380390464497	0.03352686	0.18310341
0.27166483213623416	0.04458513	0.21115191
0.28919163158128947	0.07998259	0.28281194
0.3067184377916406	0.12094876	0.3477769
0.324245251177314	0.11882062	0.34470367
0.34177207214833777	0.13601482	0.36880186
0.3592989011147415	0.1520496	0.38993537
0.37682573848655654	0.13470219	0.36701798
0.39435258467381573	0.1271394	0.35656613
0.41187944008655414	0.12317686	0.35096562
0.42940630513480854	0.118995495	0.34495723
0.446933180228618	0.1437938	0.37920153
0.4644600657780234	0.14363581	0.37899315
0.48198696219306775	0.15423566	0.39272848
0.49951386988379676	0.19502802	0.44161978
0.5170407892602581	0.1965165	0.44330183
0.5345677207325025	0.17132825	0.41391817
0.5520946647105822	0.16011983	0.40014976
0.5696216216045534	0.13693741	0.37005055
0.5871485918244737	0.1413574	0.37597528
0.6046755757804043	0.13649806	0.36945644
0.6222025738824094	0.114348605	0.3381547
0.6397295865405557	0.10663786	0.32655454
0.6572566141649129	0.09024533	0.3004086
0.6747836571655547	0.10624463	0.32595187
0.6923107159525568	0.13043721	0.36116093
0.7098377909359992	0.19294757	0.43925798
0.7273648825259653	0.21348692	0.46204644
0.7448919911325411	0.19368266	0.4400939
0.762419117165817	0.18389522	0.42883006
0.7799462610358868	0.18705823	0.43250227
0.7974734231528482	0.21335919	0.46190822
0.8150006039268024	0.21630427	0.46508524
0.8325278037678551	0.20348565	0.45109385
0.8500550230861152	0.19270119	0.43897745
0.8675822622916969	0.18274824	0.42749062
0.8851095217947171	0.199992	0.44720465
0.9026368020052984	0.18365593	0.42855096
0.9201641033335665	0.17386538	0.41697168
0.9376914261896523	0.19851643	0.4455518
0.9552187709836915	0.20712438	0.4551092
0.9727461381258234	0.22041887	0.46948788
0.990273528026193	0.20801847	0.45609042
1.0078009410949496	0.20423827	0.45192727
1.0253283777422473	0.23946247	0.489349
1.0428558383782454	0.26087788	0.51076204
1.0603833234131086	0.24248074	0.49242333
1.0779108332570058	0.26001358	0.5099153
1.0954383683201119	0.24145648	0.4913822
1.112965929012607	0.28549114	0.5343137
1.1304935157446763	0.4073698	0.6382553
1.1480211289265108	0.45987552	0.67814124
1.1655487689683062	1.3809781	1.1751503
1.1830764362802655	1.6816715	1.2967927
1.200604131272596	2.0671349	1.4377534
1.2181318543555117	2.2464359	1.4988115
1.235659605939232	2.2938304	1.5145397
1.253187386433982	4.0178022	2.0044456
1.270715196249994	6.430333	2.5358102
1.2882430357975057	11.472743	3.3871439
1.3057709054867608	15.986718	3.9983394
1.3232988057280106	21.593052	4.6468325
1.3408267369315112	26.767933	5.173774
1.358354699507526	30.92305	5.5608497
1.3758826938663256	34.755287	5.8953614
1.3934107204181858	36.597088	6.049553
1.410938779573391	36.68099	6.0564833
1.4284668717422309	37.37143	6.113218
1.4459949973350033	37.01878	6.0843062
1.4635231567620117	37.427444	6.1177974
1.4810513504335687	36.49516	6.0411224
1.4985795787599925	35.76162	5.980102
1.5161078421516088	35.062	5.9213176
1.5336361410187505	34.051304	5.8353496
1.5511644757717598	34.00741	5.8315873
1.5686928468209842	34.70845	5.891388
1.58622125457678	35.74399	5.978628
1.6037496994495108	37.17265	6.0969377
1.621278181849548	36.823475	6.068235
1.6388067021872719	37.108974	6.0917134
1.6563352608730693	36.529858	6.0439935
1.673863858317336	35.92442	5.993698
1.6913924949304753	35.267284	5.9386263
1.7089211711228998	34.479313	5.8719087
1.7264498873050296	33.655006	5.8012934
1.7439786438872935	32.570183	5.7070293
1.7615074412801288	31.36575	5.6005135
1.779036279893981	30.686829	5.5395694
1.796565160139305	29.745562	5.453949
1.814094082426564	29.101336	5.3945656
1.8316230471662298	28.30779	5.3205066
1.849152054768784	27.450092	5.2392836
1.8666811056447168	26.993584	5.195535
1.8842102002045273	26.021072	5.101085
1.901739338858724	25.366625	5.036529
1.9192685220178245	24.96855	4.996854
1.9367977500923557	24.428165	4.942486
1.9543270234928547	24.24422	4.923842
1.971856342629867	23.571747	4.8550744
1.9893857079139496	23.116968	4.808011
2.006915119755667	22.592293	4.753135
2.0244445785655945	21.946201	4.684677
2.0419740847543175	21.648724	4.6528187
2.0595036387324317	21.154488	4.599401
2.0770332409105414	20.496212	4.527274
2.094562891699263	20.229084	4.4976754
2.1120925915092217	19.50268	4.416184
2.129622340751053	19.220123	4.384076
2.1471521398354043	187.38531	13.688875
2.1646819891729323	443.84003	21.06751
2.182211889174303	439.90735	20.973969
2.1997418402501974	452.30743	21.26752
2.2172718428113023	432.1664	20.788612
2.234801897268317	320.31277	17.897284
2.2523320040319548	16.67761	4.083823
2.269862163512935	16.301987	4.037572
2.287392376121992	16.176506	4.0220027
2.304922642269869	15.978118	3.997264
2.322452962367322	15.823329	3.9778547
2.3399833368251164	15.62176	3.9524372
2.357513766054032	15.383654	3.9222002
2.3750442504648586	14.9804945	3.8704643
2.3925747904683963	14.436935	3.7995968
2.410105386475459	14.101913	3.7552514
2.4276360388968707	13.825708	3.7182937
2.445166748143469	13.701059	3.7014942
2.4626975146261025	13.378919	3.6577203
2.4802283387556323	13.227002	3.6368945
2.4977592209429305	13.06526	3.61459
2.5152901615988825	12.840652	3.5833857
2.5328211611343865	12.776008	3.5743542
2.5503522199603523	12.440543	3.5271153
2.5678833384877024	12.2558155	3.5008307
2.5854145171273712	11.940396	3.455488
2.6029457562903064	11.709378	3.421897
2.620477056387469	11.556432	3.3994753
2.6380084178298326	11.315755	3.36389
2.655539841028383	11.310335	3.363084
2.673071326394119	11.23146	3.351337
2.6906028743380523	11.088685	3.3299677
2.708134485271211	10.698152	3.270803
2.7256661596046325	10.505271	3.2411835
2.743197897749369	10.445663	3.231975
2.760729700116486	10.494343	3.2394974
2.778261567117063	10.193567	3.1927366
2.795793499162193	10.03889	3.1684208
2.8133254966629817	9.84962	3.1384103
2.830857560030551	9.847232	3.13803
2.8483896896760337	9.754775	3.1232636
2.865921886010578	9.499415	3.082112
2.883454149445347	9.29648	3.049013
2.9009864803915177	9.068778	3.0114412
2.91851887926028	8.849595	2.9748268
2.9360513464628384	8.732413	2.9550657
2.953583882410413	8.693265	2.9484344
2.9711164875142373	8.609398	2.9341776
2.9886491621855606	8.4279375	2.903091
3.0061819068356455	8.283927	2.8781812
3.023714721875769	8.23179	2.8691096
3.041247607717225	8.215155	2.866209
3.0587805647713213	8.21861	2.8668118
3.0763135934493806	8.209263	2.8651812
3.0938466941627407	8.143923	2.853756
3.1113798673227544	8.043142	2.8360434
3.1289131133407904	7.7880588	2.7907093
3.1464464326282315	7.5329976	2.7446306
3.1639798255964786	7.4544606	2.730286
3.1815132926569443	7.4570794	2.7307653
3.1990468342210603	7.4427886	2.7281475
3.216580450700272	7.3232927	2.7061584
3.2341141425060416	7.2123833	2.6855881
3.251647910049847	7.257224	2.6939235
3.2691817537431813	7.173284	2.6782987
3.286715673997555	7.119186	2.6681802
3.3042496712244938	6.98395	2.6427164
3.32178374583554	6.916787	2.6299787
3.339317898242251	6.8598256	2.6191268
3.3568521288562034	6.7840667	2.604624
3.3743864380889876	6.7083497	2.5900483
3.3919208263522127	6.625639	2.5740316
3.4094552940575023	6.503337	2.550164
3.4269898416164972	6.428013	2.5353527
3.444524469440858	6.450623	2.5398076
3.4620591779422587	6.480244	2.5456324
3.479593967532391	6.507418	2.550964
3.4971288386229658	6.4379325	2.5373082
3.5146637916257086	6.356425	2.5211952
3.5321988269523628	6.3187456	2.5137115
3.5497339450146903	6.392126	2.5282655
3.5672691462244708	6.399634	2.5297499
3.5848044309934988	6.3344717	2.5168376
3.60233979973359	6.305246	2.511025
3.619875252856575	6.214761	2.492942
3.6374107907743034	6.202143	2.4904103
3.6549464138986427	6.258182	2.5016358
3.6724821226414788	6.219453	2.4938831
3.690017917414714	6.273861	2.5047677
3.7075537986302702	6.1571507	2.4813607
3.7250897667000857	6.1724625	2.4844441
3.7426258220361235	6.3321476	2.5163758
3.7601619650503553	6.7229075	2.5928571
3.777698196154779	7.2061243	2.6844225
3.7952345157614067	8.270868	2.8759117
3.8127709242822716	9.040211	3.0066943
3.830307422129425	11.212246	3.3484693
3.847844009714936	12.539925	3.5411756
3.8653806874508954	15.998328	3.999791
3.882917455749409	15.519934	3.9395347
3.900454315022606	15.605077	3.9503262
3.917991265682631	12.601425	3.5498486
3.9355283081416506	10.73258	3.2760618
3.9530654428118495	8.792791	2.965264
3.970602670105433	7.5734906	2.7519975
3.9881399904346244	6.58895	2.566895
4.005677404211669	6.4590364	2.5414634
4.023214911848827	6.3355055	2.517043
4.0407525137583855	6.2737017	2.504736
4.058290210352644	6.308331	2.511639
4.075828002043927	6.273322	2.5046601
4.0933658892445814	6.220754	2.494144
4.110903872366966	6.0861993	2.4670224
4.128441951823468	6.0051804	2.450547
4.145980128026488	5.991149	2.4476824
4.163518401388452	5.9975905	2.448998
4.181056772321807	6.07217	2.4641774
4.1985952412390155	6.1043887	2.4707062
4.216133808552567	6.0777936	2.4653182
4.233672474674966	6.080644	2.4658961
4.251211240018741	6.20257	2.490496
4.268750104996445	6.3913193	2.528106
4.286289070020643	7.240188	2.6907597
4.303828135503928	8.930089	2.9883254
4.3213673018589125	29.322062	5.4149847
4.3389065694982305	90.6347	9.520226
4.356445938834537	165.82304	12.87723
4.3739854102805085	170.91821	13.073569
4.391524984248844	171.74208	13.105041
4.409064661152262	135.75067	11.651209
4.426604441403504	96.23498	9.809943
4.444144325415337	75.463646	8.686981
4.461684313600543	21.604225	4.6480346
4.47922440637193	22.107918	4.7019057
4.496764604142329	20.197947	4.4942126
4.5143049073245916	18.153313	4.2606707
4.531845316331589	16.042057	4.005254
4.5493858315762195	13.190688	3.6318986
4.566926453471405	11.10949	3.3330903
4.584467182430081	9.0486145	3.0080914
4.602008018865218	7.959431	2.8212464
4.619548963189798	7.240761	2.6908662
4.637090015816834	6.735747	2.5953317
4.654631177159353	6.422096	2.5341854
4.672172447630417	6.1628637	2.4825115
4.689713827643102	6.0464344	2.4589498
4.7072553176105085	5.8318458	2.4149215
4.724796917945764	5.732173	2.3941958
4.742338629062015	5.705363	2.38859
4.759880451372434	5.735874	2.3949685
4.777422385290215	5.755161	2.3989916
4.794964431228581	5.6634097	2.379792
4.812506589600768	5.5918636	2.3647122
4.830048860820047	5.4929395	2.343702
4.847591245299709	5.489222	2.3429089
4.8651337434530655	5.5524926	2.3563728
4.882676355693457	5.5416017	2.3540606
4.900219082434242	5.5950594	2.3653877
4.917761924088813	5.4965343	2.3444688
4.935304881070575	5.3748226	2.3183663
4.952847953792969	5.2463417	2.2904894
4.970391142669449	5.3063674	2.3035555
4.9879344481135055	5.3868	2.3209481
5.005477870538642	5.4491897	2.3343499
5.023021410358394	5.473554	2.339563
5.040565067986324	5.4088826	2.3257005
5.05810884383601	5.374868	2.318376
5.075652738321066	5.354245	2.3139243
5.09319675185512	5.3499694	2.3130002
5.110740884851836	5.284191	2.2987368
5.128285137724894	5.203223	2.2810576
5.145829510888007	5.196002	2.279474
5.163374004754908	5.19958	2.280259
5.1809186197393595	5.198422	2.2800047
5.198463356255145	5.196549	2.279594
5.216008214716077	5.136562	2.2663984
5.233553195535998	5.1208286	2.262925
5.251098299128764	5.121676	2.263112
5.268643525908272	5.1734495	2.2745218
5.286188876288432	5.141995	2.2675967
5.3037343506831895	5.136347	2.266351
5.32127994950651	5.088159	2.2556949
5.3388256731723915	5.059907	2.2494237
5.356371522094851	5.089811	2.2560608
5.373917496687938	5.0990987	2.2581184
5.391463597365729	5.145776	2.2684302
5.40900982454232	5.1325765	2.2655191
5.426556178631843	5.090062	2.2561166
5.444102660048449	5.0947366	2.2571523
5.4616492692063225	5.100065	2.2583325
5.479196006519669	5.089407	2.2559714
5.496742872402727	5.0693264	2.2515166
5.514289867269756	5.0600867	2.2494636
5.531836991535049	5.0259914	2.2418723
5.549384245612924	5.071489	2.2519968
5.566931629917724	5.0865984	2.255349
5.584479144863822	5.104229	2.259254
5.6020267908656205	4.992916	2.2344835
5.619574568337545	4.990995	2.2340534
5.637122477694054	4.9851036	2.2327344
5.654670519349629	4.988466	2.2334874
5.672218693718784	4.9926615	2.2344265
5.689767001216059	4.9131722	2.2165678
5.707315442256021	4.92451	2.2191236
5.724864017253266	5.0221524	2.241016
5.7424127266224225	5.0586834	2.2491517
5.75996157077814	5.0692425	2.2514977
5.777510550135105	5.0768795	2.2531931
5.795059665108022	5.049988	2.247218
5.812608916111639	5.037986	2.2445457
5.830158303560715	5.132663	2.265538
5.847707827870055	5.169189	2.273585
5.86525748945448	5.287757	2.2995124
5.8828072887288485	5.38882	2.3213832
5.900357226108044	5.4423056	2.332875
5.917907302006979	5.486879	2.3424087
5.9354575168406	6.071437	2.4640286
5.9530078710238765	6.7290835	2.5940478
5.970558364971812	7.259821	2.6944056
5.988108999099438	7.658371	2.7673762
6.005659773821818	8.22476	2.8678842
6.023210689554039	8.051551	2.8375254
6.040761746711227	8.546101	2.9233716
6.058312945708531	7.8970895	2.8101761
6.075864286961132	7.3551693	2.7120416
6.093415770884244	6.6198845	2.5729136
6.1109673978931065	5.966878	2.4427195
6.128519168402993	5.4017415	2.3241646
6.146071082829204	5.2633247	2.2941937
6.163623141587075	5.1441736	2.2680771
6.181175345091969	5.0524096	2.2477565
6.198727693759281	5.046066	2.246345
6.216280188004435	5.0489717	2.2469916
6.233832828242885	5.076246	2.2530525
6.251385614890126	5.1678753	2.273296
6.268938548361669	5.1857476	2.2772236
6.286491629073067	5.111322	2.2608232
6.304044857439898	5.016107	2.2396667
6.321598233877777	4.9103184	2.2159238
6.339151758802344	4.931716	2.2207468
6.356705432629277	4.9264097	2.2195518
6.37425925577428	4.996276	2.235235
6.391813228653095	4.952694	2.2254648
6.409367351681486	4.935227	2.221537
6.426921625275259	4.885305	2.2102726
6.44447604985025	4.856573	2.2037635
6.46203062582232	4.8917503	2.2117302
6.47958535360737	4.9035354	2.2143927
6.497140233621328	4.910052	2.2158637
6.514695266280161	4.874734	2.20788
6.532250451999859	4.8970356	2.2129247
6.549805791196454	4.91432	2.2168267
6.567361284286002	4.9078097	2.2153578
6.584916931684597	4.865951	2.2058902
6.602472733808367	4.8274307	2.1971414
6.6200286910734665	4.846904	2.2015686
6.637584803896092	4.981906	2.2320185
6.655141072692462	5.069858	2.2516346
6.672697497878842	5.055805	2.2485118
6.690254079871514	5.0084095	2.2379477
6.707810819086808	4.928589	2.2200425
6.725367715941078	4.852683	2.2028806
6.742924770850719	4.7565665	2.1809554
6.760481984232151	4.761921	2.1821826
6.778039356501836	4.8047595	2.191976
6.795596888076266	4.867257	2.206186
6.813154579371963	4.9414062	2.2229273
6.830712430805492	4.941383	2.222922
6.84827044279344	4.9732313	2.2300742
6.865828615752445	4.911411	2.2161703
6.883386950099159	4.8770843	2.2084122
6.900945446250287	4.901866	2.2140157
6.918504104622553	4.9654956	2.2283392
6.936062925632727	4.975941	2.2306817
6.953621909697607	5.029214	2.242591
6.971181057234028	4.995483	2.2350576
6.988740368658859	4.9774575	2.2310216
7.006299844389007	5.0439186	2.245867
7.023859484841407	5.1437216	2.2679775
7.041419290433036	5.283749	2.2986407
7.058979261580902	5.3554354	2.3141813
7.0765393987020495	5.5000196	2.345212
7.094099702213559	5.8218384	2.4128487
7.111660172532549	6.174795	2.4849136
7.129220810076164	6.5707054	2.5633388
7.146781615261595	7.2121015	2.6855357
7.16434258850606	7.489967	2.7367804
7.181903730226821	7.8996487	2.8106313
7.1994650408411704	7.904054	2.811415
7.217026520766437	8.066018	2.8400736
7.234588170419983	8.309217	2.8825712
7.252149990219215	8.358047	2.8910286
7.269711980581568	8.206242	2.8646538
7.2872741419245175	7.974791	2.8239672
7.304836474665574	7.666827	2.7689035
7.322398979222286	7.3612204	2.713157
7.339961656012233	7.1028404	2.6651154
7.357524505453039	6.717348	2.5917847
7.375087527962357	6.4465623	2.5390081
7.392650723957886	6.1485043	2.4796178
7.410214093857353	5.772483	2.402599
7.427777638078528	5.532396	2.3521047
7.445341357039213	5.3950453	2.3227236
7.4629052511572525	5.266884	2.2949693
7.480469320850524	5.171039	2.2739918
7.498033566536948	5.14017	2.2671943
7.5155979886344735	5.117297	2.2621443
7.5331625875610975	5.142124	2.2676253
7.550727363734844	5.1575475	2.2710235
7.568292317573788	5.161356	2.2718618
7.585857449496025	5.1416755	2.2675264
7.603422759919705	5.117872	2.2622714
7.620988249263007	5.0795684	2.25379
7.638553917944147	5.121237	2.263015
7.656119766381391	5.1823554	2.2764788
7.673685794993023	5.217688	2.284226
7.691252004197388	5.158544	2.2712429
7.70881839441285	5.116477	2.2619631
7.726384966057826	5.096138	2.2574627
7.743951719550762	5.1234407	2.263502
7.761518655310149	5.136537	2.266393
7.779085773754511	5.1357822	2.2662265
7.796653075302419	5.2059603	2.2816575
7.814220560372475	5.256157	2.292631
7.831788229383323	5.2733135	2.2963696
7.8493560827536495	5.210868	2.2827325
7.866924120902174	5.145915	2.268461
7.884492344247663	5.1370516	2.2665064
7.9020607532089135	5.1901126	2.2781818
7.919629348204771	5.21649	2.2839637
7.937198129654115	5.251474	2.2916095
7.954767097975865	5.204438	2.2813237
7.972336253588986	5.236588	2.2883592
7.989905596912472	5.316431	2.3057387
8.007475128365371	5.338247	2.3104646
8.025044848366756	5.3177037	2.3060148
8.042614757335754	5.42009	2.3281088
8.060184855691523	5.4978275	2.3447447
8.07775514385327	5.6425333	2.3754017
8.095325622240228	5.731311	2.3940156
8.112896291271687	5.831705	2.4148924
8.130467151366968	5.928716	2.4348955
8.148038202945436	5.8888073	2.4266865
8.165609446426497	5.8191905	2.4122999
8.183180882229594	5.811717	2.4107504
8.200752510774217	5.8288355	2.414298
8.218324332479893	5.8165817	2.4117591
8.235896347766193	5.8061414	2.4095936
8.253468557052724	5.8314657	2.4148428
8.27104096075914	5.847248	2.4181085
8.288613559305137	5.9267306	2.4344878
8.306186353110448	5.9527125	2.4398181
8.32375934259485	6.015685	2.4526894
8.341332528178162	6.017258	2.45301
8.358905910280246	6.1040726	2.470642
8.376479489321003	6.113838	2.4726176
8.394053265720377	6.12892	2.4756656
8.411627239898356	6.090691	2.4679325
8.42920141227497	6.0925345	2.468306
8.44677578327029	6.1379113	2.477481
8.464350353304427	6.0957108	2.4689493
8.48192512279754	6.171281	2.4842062
8.499500092169827	6.224805	2.4949558
8.51707526184153	6.2076344	2.4915125
8.534650632232934	6.18023	2.486007
8.552226203764365	6.0808506	2.465938
8.569801976856192	6.086903	2.467165
8.587377951928834	6.112669	2.4723814
8.60495412940274	6.1989903	2.489777
8.622530509698416	6.2179265	2.493577
8.6401070932364	6.3273187	2.5154161
8.657683880437283	6.4342065	2.536574
8.675260871721695	6.6071167	2.5704312
8.692838067510303	6.784221	2.6046538
8.710415468223834	6.9683022	2.6397543
8.727993074283043	7.0651803	2.6580408
8.745570886108737	7.028612	2.651153
8.763148904121765	7.1239033	2.669064
8.78072712874302	7.195047	2.6823585
8.798305560393441	7.4763155	2.734285
8.815884199494006	7.529406	2.7439764
8.833463046465745	7.635665	2.7632706
8.851042101729728	7.76398	2.786392
8.86862136570707	8.137547	2.8526385
8.886200838818924	8.290619	2.8793435
8.903780521486505	8.296286	2.8803275
8.921360414131055	8.3274975	2.8857403
8.938940517173874	8.403846	2.8989387
8.956520831036297	8.652562	2.9415238
8.97410135613971	8.8919935	2.9819446
8.99168209290554	9.12942	3.021493
9.009263041755265	9.388217	3.0640197
9.026844203110405	9.596541	3.0978284
9.044425577392525	9.697497	3.1140804
9.062007165023239	9.806117	3.131472
9.079588966424197	10.102118	3.1783829
9.097170982017108	10.190068	3.1921887
9.11475321222372	11.17126	3.3423436
9.132335657465825	11.998012	3.4638145
9.149918318165264	12.112782	3.4803421
9.167501194743924	12.692524	3.5626569
9.18508428762374	12.356846	3.5152307
9.202667597226693	12.444054	3.527613
9.220251123974803	12.106841	3.4794886
9.237834868290143	11.818143	3.4377525
9.255418830594836	11.595546	3.4052234
9.273003011311046	11.026563	3.3206267
9.290587410860985	10.896138	3.3009298
9.308172029666911	10.179679	3.1905608
9.32575686815113	9.9177885	3.149252
9.343341926735997	8.651678	2.9413736
9.360927205843916	8.456695	2.9080396
9.378512705897327	8.288574	2.8789885
9.396098427318728	8.06012	2.839035
9.413684370530664	7.9723654	2.8235378
9.431270535955722	7.828245	2.7979002
9.448856924016539	7.7527194	2.7843707
9.466443535135806	7.5854135	2.754163
9.484030369736251	7.5871773	2.7544832
9.501617428240658	7.537758	2.7454977
9.519204711071852	7.566296	2.7506902
9.536792218652714	7.6214485	2.7606971
9.55437995140617	7.6980476	2.7745357
9.571967909755191	7.740366	2.7821512
9.589556094122802	7.718687	2.7782526
9.60714450493207	7.7350063	2.781188
9.624733142606116	7.69468	2.7739286
9.642322007568108	7.858206	2.8032491
9.659911100241267	7.909019	2.8122978
9.677500421048851	7.991863	2.8269882
9.695089970414175	7.9908557	2.8268101
9.712679748760609	8.04116	2.8356938
9.730269756511557	8.101894	2.8463826
9.747859994090492	8.130252	2.8513596
9.765450461920915	8.157264	2.8560925
9.78304116042639	8.130916	2.851476
9.800632090030527	8.081829	2.8428557
9.81822325115699	8.167667	2.857913
9.835814644229481	8.11918	2.8494174
9.853406269671762	8.151567	2.855095
9.870998127907646	8.151938	2.85516
9.888590219360985	8.124152	2.8502898
9.906182544455698	8.129286	2.8511903
9.923775103615734	8.119171	2.849416
9.941367897265108	8.160541	2.856666
9.958960925827878	8.196251	2.8629096
9.97655418972816	8.197556	2.8631372
9.994147689390106	8.237106	2.870036
10.011741425237934	8.249996	2.8722806
10.029335397695904	8.255276	2.8731995
10.04692960718833	8.25081	2.8724222
10.06452405413958	8.258476	2.8737564
10.082118738974064	8.215276	2.8662302
10.099713662116246	8.140956	2.853236
10.117308823990651	8.086504	2.843678
10.134904225021844	8.041983	2.835839
10.152499865634445	8.041726	2.8357937
10.170095746253125	8.064322	2.839775
10.18769186730261	8.122936	2.8500764
10.205288229207675	8.16491	2.8574307
10.222884832393145	8.144012	2.8537717
10.2404816772839	8.107663	2.847396
10.258078764304868	7.966977	2.8225834
10.275676093881035	7.8966155	2.8100917
10.293273666437438	7.872457	2.80579
10.310871482399158	7.940427	2.8178763
10.32846954219134	8.022513	2.8324041
10.346067846239173	8.184534	2.8608625
10.363666394967908	8.273421	2.8763556
10.38126518880283	8.242016	2.870891
10.398864228169298	8.112432	2.848233
10.416463513492713	8.003477	2.8290417
10.434063045198531	7.970286	2.8231695
10.451662823712262	7.9606004	2.8214536
10.469262849459467	8.02092	2.8321228
10.486863122865758	7.9420686	2.8181677
10.504463644356806	7.943449	2.8184125
10.522064414358338	7.903755	2.8113618
10.539665433296118	7.866569	2.8047404
10.557266701595987	7.805891	2.7939024
10.574868219683818	7.731519	2.780561
10.592469987985552	7.6341915	2.763004
10.610072006927185	7.573286	2.7519605
10.627674276934751	7.500589	2.7387204
10.64527679843435	7.4084625	2.7218492
10.662879571852143	7.3037677	2.7025483
10.680482597614331	7.213201	2.6857402
10.698085876147173	7.065087	2.658023
10.715689407876988	6.937241	2.6338644
10.733293193230146	6.7589936	2.5998065
10.750897232633072	6.675875	2.5837715
10.76850152651225	6.6475034	2.5782752
10.786106075294207	6.573945	2.5639706
10.803710879405534	6.485452	2.5466552
10.821315939272877	6.4122734	2.5322468
10.83892125532294	6.345025	2.5189333
10.856526827982472	6.231906	2.4963787
10.874132657678285	6.1313987	2.476166
10.891738744837243	6.094605	2.4687254
10.909345089886271	6.03768	2.457169
10.926951693252343	5.998247	2.449132
10.944558555362494	5.929497	2.4350557
10.96216567664381	5.8855367	2.4260125
10.979773057523436	5.8423386	2.417093
10.997380698428573	5.77911	2.4039779
11.014988599786477	5.6761637	2.3824701
11.032596762024461	5.6502514	2.3770258
11.050205185569892	5.636615	2.3741555
11.067813870850198	5.6116476	2.3688917
11.085422818292859	5.5001044	2.34523
11.10303202832541	5.430899	2.330429
11.120641501375454	5.338077	2.310428
11.138251237870636	5.2919183	2.300417
11.155861238238671	5.1956186	2.2793899
11.173471502907317	5.073179	2.2523718
11.191082032304402	5.0334115	2.2435265
11.208692826857805	4.960826	2.227291
11.226303886995465	4.9506083	2.2249963
11.243915213145371	4.9214883	2.2184427
11.261526805735578	4.887248	2.2107122
11.279138665194196	4.8232684	2.1961942
11.296750791949393	4.732262	2.1753764
11.314363186429393	4.648633	2.1560688
11.331975849062479	4.5843	2.1410978
11.34958878027699	4.5253754	2.1272929
11.36720198050133	4.493759	2.119849
11.384815450163948	4.4981437	2.1208827
11.402429189693366	4.5199795	2.1260242
11.420043199518153	4.511618	2.124057
11.437657480066942	63.494434	7.9683394
11.455272031768422	85.2092	9.230883
11.472886855051353	107.51591	10.368988
11.490501950344528	99.082184	9.954003
11.508117318076819	84.46493	9.19048
11.52573295867715	45.867306	6.7725406
11.543348872574514	4.183362	2.045327
11.560965060197946	4.0789185	2.0196333
11.57858152197655	4.0603833	2.0150392
11.59619825833949	4.0122323	2.0030558
11.613815269715985	4.0193624	2.0048347
11.631432556535323	38.50711	6.20541
11.649050119226837	83.010666	9.111019
11.666667958219929	93.38371	9.663525
11.68428607394406	107.59645	10.37287
11.701904466828756	82.41656	9.078357
11.719523137303586	65.315	8.08177
11.737142085798196	4.577969	2.1396189
11.754761312742286	3.6554842	1.9119321
11.772380818565619	3.6080585	1.899489
11.790000603698015	3.594409	1.8958926
11.80762066856935	3.5485306	1.8837544
11.825241013609572	3.4611282	1.8604108
11.842861639248683	3.3990736	1.8436576
11.860482545916748	3.3920736	1.8417583
11.878103734043883	3.3878057	1.8405993
11.895725204060282	3.3918169	1.8416886
11.91334695639619	3.3405385	1.827714
11.930968991481919	3.3672335	1.8350023
11.948591309747824	3.3717513	1.8362329
11.966213911624347	3.3773942	1.8377688
11.98383679754198	3.321787	1.822577
12.001459967931268	3.269464	1.8081659
12.019083423222835	3.2140365	1.7927734
12.036707163847352	3.189426	1.7858964
12.05433119023556	3.1823366	1.7839105
12.071955502818259	3.2264612	1.7962353
12.089580102026313	3.2527027	1.8035251
12.107204988290643	3.2032993	1.7897763
12.12483016204224	3.132136	1.7697842
12.142455623712152	3.0750628	1.7535857
12.16008137373149	3.0411701	1.743895
12.177707412531431	2.9874954	1.7284373
12.19533374054321	2.9732316	1.7243061
12.212960358198126	2.990701	1.7293643
12.230587265927545	3.014521	1.7362375
12.248214464162889	3.0378518	1.7429434
12.265841953335649	2.9773548	1.7255013
12.283469733877375	2.9520822	1.7181624
12.301097806219685	2.946007	1.7163936
12.31872617079425	2.9771674	1.725447
12.336354828032825	2.9542332	1.7187883
12.353983778367205	2.9200752	1.7088227
12.371613022229262	2.8908021	1.700236
12.389242560050928	2.8757238	1.6957959
12.406872392264201	2.8493464	1.6880007
12.424502519301143	2.8525684	1.6889548
12.442132941593874	2.8470476	1.6873196
12.459763659574586	2.8343115	1.6835413
12.477394673675532	2.8047028	1.6747247
12.49502598432903	2.7840018	1.6685328
12.51265759196746	2.7833471	1.6683366
12.530289497023267	2.8039231	1.6744919
12.547921699928967	2.7811399	1.667675
12.565554201117134	2.7815359	1.6677938
12.583187001020404	2.763539	1.6623895
12.600820100071486	2.7439632	1.6564913
12.618453498703152	2.7216513	1.6497428
12.636087197348235	2.7347474	1.6537071
12.65372119643964	2.7482579	1.6577871
12.671355496410326	2.7702134	1.6643958
12.68899009769333	2.7791703	1.6670843
12.706625000721749	2.7915602	1.6707963
12.724260205928752	2.8755774	1.6957527
12.741895713747551	2.8843164	1.6983275
12.759531524611454	2.9277678	1.7110721
12.777167638953818	2.9177003	1.7081277
12.794804057208072	2.9433322	1.7156142
12.812440779807702	2.9840887	1.7274514
12.830077807186271	3.1546009	1.7761196
12.847715139777405	3.210585	1.7918105
12.865352778014795	3.416494	1.848376
12.882990722332197	3.5486162	1.8837771
12.90062897316344	3.6025915	1.8980494
12.918267530942412	3.676725	1.9174788
12.935906396103071	3.5501788	1.8841918
12.953545569079449	3.7124152	1.9267629
12.971185050305628	3.505128	1.8721987
12.988824840215775	3.4899998	1.868154
13.006464939244115	3.508951	1.8732194
13.024105347824943	3.356723	1.8321362
13.041746066392617	3.472422	1.8634436
13.05938709538157	3.2956424	1.8153905
13.077028435226296	3.3006053	1.8167568
13.094670086361363	3.2044575	1.7900999
13.112312049221401	3.134035	1.7703207
13.129954324241112	3.0874476	1.7571135
13.147596911855258	2.8781989	1.6965256
13.165239812498685	2.7979462	1.6727062
13.182883026606293	2.720405	1.6493651
13.200526554613058	2.6887217	1.6397322
13.218170396954017	2.704552	1.6445522
13.235814554064284	2.7171483	1.6483774
13.253459026379034	2.730538	1.6524339
13.271103814333523	2.7212033	1.6496071
13.288748918363058	2.6927233	1.640952
13.306394338903031	2.699589	1.6430426
13.32404007638889	2.6762745	1.6359323
13.341686131256164	2.7053273	1.6447879
13.359332503940449	2.67965	1.6369637
13.376979194877402	2.6774504	1.6362916
13.394626204502751	2.6981227	1.6425964
13.412273533252307	2.6968694	1.6422148
13.429921181561937	2.6680086	1.633404
13.447569149867581	2.6485763	1.6274447
13.465217438605247	2.621386	1.6190695
13.482866048211022	2.6161833	1.617462
13.500514979121052	2.6203234	1.6187413
13.518164231771568	2.6514487	1.628327
13.535813806598844	2.657447	1.6301678
13.553463704039254	2.6730304	1.6349405
13.571113924529229	2.6938734	1.6413023
13.588764468505275	2.6820226	1.6376882
13.606415336403956	2.7094297	1.6460346
13.624066528661917	2.7135134	1.6472745
13.641718045715882	2.7890298	1.6700388
13.659369888002635	2.856624	1.690155
13.67702205595903	2.8949332	1.7014503
13.694674550021993	2.957669	1.7197875
13.712327370628532	3.0125709	1.7356759
13.729980518215713	3.0830112	1.7558506
13.747633993220681	3.1002014	1.7607388
13.765287796080647	3.1534507	1.7757958
13.7829419272329	3.2474434	1.8020664
13.800596387114801	3.2950323	1.8152224
13.818251176163775	3.3211095	1.8223912
13.835906294817324	3.3667731	1.8348769
13.853561743513023	3.444952	1.8560582
13.871217522688525	3.501804	1.8713108
13.888873632781538	3.4660985	1.8617461
13.906530074229858	3.425636	1.8508474
13.92418684747135	3.395572	1.8427078
13.941843952943948	3.3982177	1.8434255
13.959501391085665	3.407752	1.8460097
13.977159162334578	3.3949213	1.8425312
13.994817267128846	3.387234	1.840444
14.012475705906693	3.2655823	1.8070922
14.030134479106424	3.1602988	1.777723
14.047793587166414	3.0662684	1.7510763
14.065453030525108	3.0319688	1.7412549
14.083112809621026	2.9991834	1.7318151
14.100772924892766	2.9654906	1.72206
14.118433376778997	2.9245434	1.7101296
14.136094165718458	2.895534	1.7016269
14.153755292149969	2.8542552	1.6894541
14.171416756512416	2.784115	1.6685668
14.189078559244768	2.6402416	1.624882
14.20674070078606	2.555978	1.5987426
14.224403181575408	2.501001	1.5814553
14.242066002051999	2.4564817	1.5673168
14.259729162655093	2.4152567	1.5541096
14.277392663824022	2.3975916	1.5484158
14.295056505998208	2.3901656	1.546016
14.312720689617128	2.3606627	1.5364448
14.330385215120348	2.3794818	1.5425569
14.348050082947497	2.3811672	1.5431031
14.3657152935383	2.3584354	1.5357199
14.383380847332528	2.3270373	1.525463
14.401046744770051	2.295878	1.5152155
14.418712986290798	2.3287137	1.5260123
14.436379572334793	2.3220825	1.523838
14.454046503342123	2.3231225	1.5241793
14.471713779752946	2.350475	1.5331259
14.489381402007504	2.4044294	1.5506222
14.507049370546113	2.4326894	1.5597081
14.524717685809168	2.424775	1.5571688
14.542386348237134	2.3705752	1.5396672
14.560055358270553	2.3621502	1.5369288
14.577724716350051	2.3719077	1.5400999
14.595394422916325	2.402214	1.5499078
14.61306447841015	2.4550142	1.5668485
14.63073488327237	2.4580932	1.5678307
14.648405637943917	2.5076034	1.5835414
14.6660767428658	2.4989455	1.5808053
14.683748198479094	2.5031312	1.5821286
14.701420005224954	2.526413	1.5894694
14.719092163544628	2.5855656	1.6079694
14.73676467387942	2.6505725	1.628058
14.754437536670727	2.6526096	1.6286834
14.772110752360014	2.6392648	1.6245815
14.78978432138882	2.6221228	1.619297
14.807458244198777	2.634656	1.6231624
14.82513252123159	2.6206553	1.6188438
14.842807152929028	2.6377084	1.6241024
14.860482139732962	2.6242535	1.6199548
14.87815748208531	2.6517966	1.6284338
14.8958331804281	2.6689425	1.6336899
14.91350923520342	2.6570394	1.6300428
14.931185646853438	2.678773	1.6366957
14.948862415820408	2.6241736	1.6199301
14.966539542546656	2.6178808	1.6179867
14.98421702747459	2.620624	1.6188341
15.001894871046696	2.6033576	1.6134924
15.019573073705542	2.6242301	1.6199476
15.037251635893766	2.6198769	1.6186033
15.054930558054092	2.6500523	1.6278981
15.072609840629323	2.7012699	1.6435541
15.090289484062351	2.792886	1.671193
15.107969488796124	2.944988	1.7160968
15.125649855273691	3.1741314	1.7816092
15.14333058393817	3.5432415	1.88235
15.161011675232768	4.0566087	2.0141025
15.17869312960076	4.667056	2.160337
15.196374947485506	5.335765	2.3099275
15.214057129330447	6.671868	2.582996
15.231739675579114	8.7796335	2.9630446
15.249422586675102	13.41308	3.6623871
15.267105863062092	18.05802	4.249473
15.284789505183847	25.328323	5.0327253
15.302473513484218	30.328009	5.507087
15.320157888407127	34.4989	5.8735766
15.337842630396578	33.295547	5.7702293
15.355527739896656	30.338373	5.508028
15.37321321735153	23.531023	4.8508787
15.39089906320545	15.98292	3.9978645
15.408585277902748	10.236666	3.1994789
15.42627186188783	6.3641696	2.5227306
15.443958815605198	4.4994526	2.1211913
15.461646139499424	3.6764379	1.9174039
15.479333834015168	3.3449376	1.828917
15.497021899597165	3.05376	1.7475011
15.514710336690234	2.8376968	1.6845465
15.53239914573928	2.7042096	1.6444482
15.550088327189297	2.6064103	1.614438
15.567777881485336	2.524574	1.5888908
15.58546780907256	2.4962852	1.5799637
15.6031581103962	2.478757	1.5744069
15.620848785901568	2.4886346	1.5775406
15.638539836034063	2.469773	1.5715512
15.656231261239173	2.4674454	1.5708104
15.673923061962451	2.4454873	1.5638053
15.691615238649552	2.4145129	1.5538703
15.709307791746202	2.426945	1.5578655
15.727000721698221	2.4402523	1.5621307
15.744694028951498	2.4375675	1.5612711
15.76238771395202	2.4139996	1.5537051
15.780081777145844	2.3937113	1.5471623
15.797776218979125	2.3958511	1.5478537
15.815471039898094	2.3989882	1.5488667
15.833166240349064	2.3791618	1.5424532
15.850861820778437	2.3713357	1.5399143
15.868557781632699	2.394068	1.5472776
15.886254123358412	2.4327743	1.5597353
15.903950846402232	2.4873648	1.5771382
15.921647951210897	2.490515	1.5781366
15.939345438231225	2.5056684	1.5829303
15.957043307910133	2.5023553	1.5818834
15.974741560694602	2.519825	1.5873957
15.992440197031714	2.4875824	1.5772072
16.01013921736862	2.4755118	1.5733759
16.02783862215259	2.46532	1.5701338
16.045538411830933	2.5150728	1.5858982
16.06323858685107	2.5090613	1.5840017
16.080939147660512	2.4798234	1.5747455
16.09864009470684	2.4393494	1.5618417
16.11634142843774	2.4161623	1.5544009
16.134043149300954	2.416269	1.5544353
16.15174525774433	2.4335742	1.5599917
16.169447754215817	2.4421315	1.5627321
16.18715063916342	2.4046142	1.5506818
16.204853913035244	2.3840787	1.5440463
16.222557576279478	2.3946028	1.5474504
16.240261629344403	22.3997	4.732832
16.257966072678386	42.96982	6.5551367
16.275670906729868	38.110394	6.173362
16.293376131947387	2.5364385	1.59262
16.31108174877957	2.560968	1.6003025
16.328787757675133	2.5684502	1.6026385
16.34649415908287	2.5583029	1.5994695
16.364200953451657	2.581552	1.6067209
16.38190814123048	2.6191423	1.6183765
16.39961572286839	2.6464565	1.6267933
16.41732369881455	2.6482348	1.6273398
16.43503206951817	2.6876554	1.639407
16.45274083542859	2.7035294	1.6442412
16.47044999699522	2.7286286	1.6518561
16.488159554667558	2.7463386	1.6572081
16.505869508895184	2.8043993	1.6746341
16.523579860127786	2.8694968	1.6939589
16.541290608815117	2.907276	1.7050736
16.559001755407035	3.010894	1.7351928
16.57671330035348	3.1623726	1.7783061
16.59442524410448	3.2944686	1.8150672
16.61213758711015	3.4620662	1.8606628
16.629850329820705	3.4937024	1.8691448
16.647563472686436	3.4978836	1.870263
16.665277016157724	3.4322035	1.8526207
16.682990960685053	3.4735916	1.8637574
16.70070530671898	3.5150905	1.8748574
16.718420054710155	3.552548	1.8848203
16.736135205109335	3.5967288	1.8965044
16.753850758367335	3.6494775	1.9103606
16.771566714935087	3.7189908	1.9284685
16.789283075263597	3.7276917	1.9307231
16.80699983980398	3.7981405	1.9488819
16.82471700900741	3.863477	1.965573
16.84243458332518	3.935533	1.9838178
16.860152563208665	3.9503725	1.9875544
16.87787094910932	3.9967704	1.9991925
16.89558974147871	4.062186	2.0154865
16.913308940768466	4.1558547	2.0385914
16.931028547430333	4.208423	2.051444
16.94874856191613	4.2435365	2.0599847
16.966468984677785	4.281122	2.0690873
16.98418981616729	4.382282	2.09339
17.00191105683676	4.4967628	2.120557
17.019632707138374	4.56359	2.136256
17.03735476752442	4.566655	2.1369734
17.05507723844728	4.547062	2.132384
17.072800120359403	4.568146	2.1373222
17.090523413713353	4.623496	2.1502316
17.108247118961785	4.605933	2.146144
17.125971236557437	4.6021256	2.1452565
17.143695766953133	4.571237	2.138045
17.161420710601806	4.536937	2.1300087
17.179146067956477	4.5606933	2.135578
17.19687183947025	4.6141906	2.1480668
17.21459802559634	4.6841826	2.1642973
17.232324626788028	4.680089	2.1633513
17.25005164349871	4.6570544	2.158021
17.267779076181863	4.604175	2.145734
17.285506925291074	4.607521	2.1465137
17.30323519127999	4.5869403	2.1417143
17.320963874602384	4.574267	2.1387537
17.33869297571211	4.5267453	2.127615
17.356422495063114	4.499284	2.1211514
17.37415243310944	4.4799967	2.1166003
17.391882790305218	4.470403	2.114333
17.40961356710468	4.4945316	2.120031
17.42734476396215	4.532659	2.1290042
17.445076381332044	4.582013	2.1405637
17.462808419668868	4.6468797	2.1556623
17.48054087942723	4.718465	2.1722028
17.498273761061835	4.8600492	2.204552
17.51600706502747	5.209887	2.2825177
17.533740791779024	5.8081574	2.410012
17.551474941771485	6.635671	2.5759797
17.56920951545993	8.50319	2.916023
17.586944513299528	9.784544	3.1280255
17.60467993574556	12.707255	3.5647237
17.622415783253373	15.472882	3.9335585
17.64015205627843	18.367548	4.2857375
17.657888755276293	20.721157	4.5520496
17.675625880702604	22.201435	4.7118397
17.69336343301311	20.710049	4.5508294
17.71110141266366	18.552805	4.3072968
17.728839820110178	15.73059	3.9661808
17.746578655808705	12.567359	3.545047
17.764317920215372	10.440715	3.2312095
17.7820576137864	8.792817	2.9652684
17.79979773697811	7.4001045	2.7203133
17.81753829024692	6.0651855	2.4627597
17.835279274049356	5.2633386	2.2941966
17.85302068884201	4.554403	2.1341047
17.870762535081607	4.095781	2.0238035
17.888504813224934	3.8012283	1.9496739
17.90624752372891	3.616796	1.9017876
17.923990667050536	3.540353	1.8815826
17.941734243646895	3.5166337	1.8752689
17.959478253975185	3.457699	1.859489
17.9772226984927	3.4306939	1.8522133
17.994967577656833	3.393291	1.8420888
18.01271289192506	3.3936727	1.8421924
18.030458641754965	3.3985095	1.8435047
18.04820482760425	3.3217323	1.822562
18.06595144993067	3.2470717	1.8019633
18.083698509192125	3.1882513	1.7855675
18.101446005846576	3.1783104	1.7827816
18.119193940352105	3.1904624	1.7861866
18.136942313166887	3.1971102	1.7880465
18.1546911247492	3.1872563	1.7852888
18.1724403755574	3.137881	1.7714065
18.19019006604997	3.1026933	1.7614464
18.207940196685467	3.0813124	1.7553668
18.225690767922575	3.0880356	1.7572807
18.243441780220046	3.0701015	1.7521706
18.261193234036764	3.067694	1.7514833
18.278945129831676	3.0266209	1.7397187
18.29669746806386	3.012298	1.7355974
18.314450249192483	2.9770763	1.7254206
18.3322034736768	2.9773977	1.7255137
18.349957141976184	2.9929943	1.7300272
18.3677112545501	3.0267925	1.7397679
18.385465811858108	3.0329533	1.7415376
18.403220814359884	3.0436695	1.7446115
18.420976262515172	3.0216649	1.7382936
18.43873215678387	3.016703	1.7368659
18.456488497625923	3.0842314	1.756198
18.474245285501407	3.225923	1.7960855
18.492002520870486	3.3260994	1.8237597
18.50976020419343	3.3517773	1.830786
18.527518335930615	3.6005907	1.8975222
18.545276916542516	4.145191	2.0359743
18.563035946489688	4.3316627	2.0812647
18.580795426232832	4.804724	2.1919682
18.598555356232698	4.71445	2.1712785
18.616315736950185	5.021755	2.2409272
18.63407656884626	4.630762	2.1519206
18.65183785238201	4.8012486	2.1911752
18.669599588018617	4.5845423	2.1411545
18.68736177621737	4.5718484	2.1381881
18.705124417439652	4.5761924	2.1392038
18.72288751214696	4.3894415	2.0950994
18.740651060800886	4.5459633	2.1321266
18.758415063863115	4.24787	2.061036
18.77617952179546	4.3951397	2.096459
18.793944435059814	4.183089	2.0452602
18.811709804118184	4.202108	2.0499043
18.829475629432675	4.148863	2.0368757
18.8472419114655	3.9544268	1.988574
18.86500865067897	4.0357456	2.0089166
18.88277584753551	3.7457254	1.9353876
18.90054350249763	3.7584808	1.9386802
18.918311616027957	3.4289343	1.8517382
18.936080188589226	3.3116183	1.8197852
18.953849220644265	3.0379307	1.742966
18.971618712656007	2.8868444	1.6990716
18.9893886650875	2.8179514	1.6786755
19.007159078401887	7.950527	2.8196678
19.024929953062408	32.88282	5.7343545
19.042701289532435	32.855854	5.7320027
19.060473088275405	25.408497	5.040684
19.07824534975489	2.6590302	1.6306533
19.096018074434568	2.6381047	1.6242243
19.113791262778197	2.611731	1.616085
19.13156491524966	2.591487	1.6098096
19.149339032312945	2.5529273	1.5977882
19.167113614432136	2.5499094	1.5968436
19.184888662071433	2.526315	1.5894386
19.202664175695123	2.5301437	1.5906426
19.220440155767623	2.5440187	1.594998
19.238216602753447	2.5846927	1.607698
19.2559935171172	2.5742116	1.604435
19.27377089932361	2.561675	1.6005234
19.291548749837514	2.5094805	1.584134
19.309327069123835	2.4758813	1.5734934
19.32710585764763	2.445843	1.5639191
19.344885115874032	2.452147	1.5659332
19.362664844268313	2.4959157	1.5798467
19.380445043295822	2.5039241	1.5823792
19.39822571342203	2.471239	1.5720176
19.41600685511252	2.4348593	1.5604036
19.43378846883297	2.4118237	1.5530047
19.451570555049173	2.4423938	1.562816
19.469353114227037	2.4779046	1.5741361
19.48713614683254	2.5023963	1.5818964
19.50491965333182	2.4555316	1.5670136
19.52270363419109	2.4411817	1.5624281
19.540488089876686	2.4847567	1.5763111
19.55827302085503	2.540196	1.5937992
19.576058427592674	2.5341637	1.5919057
19.593844310556282	2.5052853	1.5828093
19.611630670212598	2.48547	1.5765374
19.629417507028506	2.4585679	1.5679821
19.64720482147098	2.476519	1.573696
19.6649926140071	2.4974844	1.5803431
19.682780885104084	2.5394566	1.5935673
19.70056963522921	2.4843142	1.5761707
19.718358864849908	2.4771595	1.5738995
19.7361485744337	2.4802337	1.5748757
19.753938764448215	2.4855583	1.5765654
19.771729435361202	2.4690275	1.571314
19.789520587640506	2.4811046	1.5751523
19.807312221754092	2.5065937	1.5832226
19.825104338170043	2.4993634	1.5809375
19.842896937356517	2.4917817	1.5785378
19.860690019781824	2.4829404	1.5757349
19.87848358591436	2.507529	1.5835179
19.896277636222635	2.5112822	1.5847026
19.914072171175278	2.4944444	1.579381
19.931867191241015	2.4678495	1.5709391
19.94966269688869	2.4386077	1.5616043
19.967458688587264	2.4358356	1.5607164
19.985255166805807	2.4338202	1.5600706
20.00305213201348	2.4335322	1.5599782
20.020849584679578	2.4356773	1.5606656
20.038647525273507	2.4627883	1.5693274
20.05644595426477	2.450558	1.5654258
20.07424487212299	2.4498994	1.5652155
20.092044279317903	2.4454193	1.5637836
20.109844176319353	2.470046	1.571638
20.127644563597304	2.4710753	1.5719655
20.145445441621817	2.4263184	1.5576644
20.16324681086307	2.386525	1.5448382
20.181048671791373	2.3625586	1.5370617
20.198851024877122	2.3784845	1.5422336
20.216653870590836	2.3743958	1.5409075
20.234457209403146	2.3859391	1.5446485
20.252261041784802	2.389869	1.5459201
20.270065368206662	2.3688784	1.5391161
20.287870189139685	2.38878	1.5455679
20.305675505054968	2.3957765	1.5478296
20.323481316423702	2.3833892	1.5438229
20.341287623717207	2.3436227	1.5308895
20.359094427406884	2.312803	1.5207902
20.376901727964288	2.279001	1.509636
20.39470952586107	2.2785661	1.509492
20.41251782156899	2.3193293	1.5229344
20.430326615559935	2.3666384	1.5383883
20.448135908305886	2.3486872	1.5325427
20.465945700278965	2.3023784	1.517359
20.483755991951384	2.2904322	1.5134174
20.50156678379548	2.3208115	1.5234209
20.519378076283708	2.3408902	1.5299968
20.537189869888635	2.3194733	1.5229816
20.55500216508294	2.313927	1.5211598
20.572814962339415	2.3155696	1.5216995
20.59062826213098	2.3140993	1.5212164
20.60844206493066	2.3241851	1.5245278
20.626256371211593	2.3465948	1.5318599
20.644071181447032	2.3491025	1.5326782
20.66188649611036	2.361304	1.5366535
20.67970231567506	2.348005	1.5323201
20.697518640614742	2.3375635	1.5289092
20.715335471403122	2.2956238	1.5151316
20.73315280851404	2.3001072	1.5166105
20.750970652421447	2.2928426	1.5142136
20.768789003599412	2.316418	1.5219783
20.786607862522136	2.331853	1.5270406
20.8044272296639	2.3356223	1.5282743
20.82224710549913	2.3371418	1.5287713
20.84006749050237	2.3046694	1.5181137
20.857888385148268	3.8407624	1.9597863
20.8757097899116	45.932373	6.777343
20.893531705267254	64.78521	8.048926
20.911354131690224	83.762985	9.152212
20.92917706965566	68.99268	8.306184
20.94700051963877	50.087654	7.0772634
20.96482448211493	29.402708	5.422426
20.982648957559622	4.165226	2.0408885
21.00047394644843	2.2527425	1.5009139
21.01829944925707	2.2394114	1.4964663
21.036125466461375	2.2248852	1.4916049
21.053951998537297	2.2288773	1.4929425
21.071779045960906	2.211746	1.487194
21.089606609208378	2.1891103	1.4795642
21.10743468875603	2.207631	1.4858099
21.12526328508028	2.1897664	1.4797859
21.143092398657675	2.190695	1.4800997
21.16092202996488	2.190682	1.4800953
21.17875217947867	2.1897447	1.4797786
21.19658284767596	2.173612	1.4743176
21.21441403503377	2.173571	1.4743036
21.232245742029225	2.1841714	1.4778943
21.2500779691396	2.1703682	1.473217
21.26791071684227	2.115864	1.4546009
21.28574398561475	2.110478	1.4527484
21.30357777593465	2.1182756	1.4554297
21.321412088279704	2.1343067	1.4609267
21.339246923127792	2.1228874	1.4570131
21.357082280956888	2.1462755	1.4650172
21.3749181622451	2.1814246	1.4769647
21.392754567470647	2.21689	1.4889225
21.41059149711187	2.1683383	1.4725279
21.42842895164726	2.1322708	1.4602298
21.446266931555378	2.0961926	1.4478234
21.464105437314945	2.0220435	1.4219857
21.481944469404798	2.0178018	1.4204935
21.49978402830388	2.0450993	1.4300697
21.51762411449127	2.0675306	1.437891
21.53546472844617	2.0859156	1.4442699
21.553305870647876	2.0688646	1.4383548
21.571147541575865	2.0558093	1.4338094
21.58898974170967	2.0366411	1.4271094
21.60683247152899	1.9986576	1.4137388
21.62467573151363	1.987982	1.4099581
21.642519522143523	1.9931209	1.4117793
21.660363843898722	2.0002666	1.4143078
21.6782086972594	2.0335271	1.4260179
21.696054082705864	2.0132928	1.4189055
21.713900000718535	1.985685	1.4091433
21.73174645177795	1.9588466	1.399588
21.749593436364794	1.9781799	1.4064778
21.767440954959845	1.9971668	1.4132115
21.785289008044032	2.0091498	1.4174448
21.803137596098388	2.0178459	1.420509
21.820986719604086	2.0112581	1.4181883
21.838836379042412	1.9634598	1.4012351
21.85668657489478	1.9433262	1.3940324
21.87453730764273	1.9640303	1.4014386
21.892388577767914	1.9814411	1.4076368
21.91024038575213	1.9896691	1.4105563
21.928092732077285	1.9711041	1.4039601
21.945945617225426	1.9478133	1.3956409
21.963799041678694	1.9712039	1.4039958
21.981653005919398	31.329096	5.59724
21.999507510429943	78.102516	8.837563
22.01736255569286	73.04615	8.546704
22.035218142190818	4.151891	2.037619
22.05307427040661	2.0032372	1.4153576
22.07093094082315	2.007511	1.4168665
22.088788153923474	1.9879684	1.4099534
22.106645910190746	1.9836627	1.4084256
22.12450421010827	1.9671813	1.4025624
22.142363054159464	1.9587427	1.3995509
22.16022244282787	1.9742678	1.4050864
22.178082376597164	1.9998983	1.4141777
22.195942855951145	1.9939697	1.4120799
22.213803881373742	1.9753628	1.405476
22.231665453349002	1.9620403	1.4007285
22.24952757236111	1.979697	1.4070171
22.26739023889438	1.9725865	1.404488
22.28525345343323	1.9472331	1.395433
22.30311721646225	1.9778848	1.4063729
22.320981528466113	1.9833362	1.4083097
22.33884638992964	1.9800549	1.4071442
22.356711801337788	1.959524	1.39983
22.37457776317561	1.9689938	1.4032084
22.392444275928337	1.9627974	1.4009987
22.410311340081282	1.9827105	1.4080875
22.428178956119904	1.9785532	1.4066105
22.446047124529805	1.9864365	1.40941
22.46391584579669	1.9560133	1.3985754
22.481785120406414	1.9572026	1.3990005
22.49965494884496	1.9444205	1.3944248
22.51752533159841	1.9675094	1.4026793
22.53539626915302	1.9626846	1.4009584
22.553267761995137	1.9594913	1.3998183
22.571139810611264	1.9603273	1.4001169
22.589012415488025	1.9476842	1.3955946
22.60688557711216	1.9527956	1.3974247
22.624759295970566	1.9408298	1.3931366
22.642633572550263	1.9455688	1.3948364
22.660508407338362	1.9795365	1.40696
22.67838380082217	1.9912282	1.4111089
22.696259753489077	1.9937183	1.4119909
22.714136265826614	1.9063061	1.3806905
22.73201333832246	1.9143591	1.3836037
22.74989097146439	1.9370729	1.3917876
22.76776916574035	1.9492042	1.396139
22.785647921638393	1.9510262	1.3967913
22.803527239646712	1.9475863	1.3955595
22.82140712025363	1.9086003	1.381521
22.839287563947593	1.839347	1.3562253
22.85716857121719	1.8446212	1.3581684
22.875050142551135	1.9003597	1.3785354
22.892932278438277	1.9541585	1.3979123
22.910814979367604	1.8999943	1.3784028
22.928698245828222	1.8665303	1.3662102
22.946582078309387	1.8698903	1.3674394
22.96446647730047	1.8802972	1.3712393
22.98235144329098	1.9059229	1.3805517
23.000236976770562	1.9217268	1.3862636
23.018123078229	1.914043	1.3834894
23.03600974815619	1.9269955	1.3881626
23.053896987042194	1.9862657	1.4093493
23.071784795377173	1.9776736	1.4062978
23.08967317365145	1.9573879	1.3990668
23.10756212235546	1.9468156	1.3952833
23.125451641979787	1.9578643	1.399237
23.143341733015134	1.9166679	1.3844378
23.161232395952357	1.8886802	1.3742926
23.179123631282426	1.9188725	1.3852338
23.197015439496468	1.9362357	1.3914869
23.214907821085717	1.9386432	1.3923516
23.23280077654157	1.9171588	1.3846151
23.250694306355538	1.8976784	1.3775625
23.268588411019277	1.8854991	1.3731347
23.28648309102458	1.8871119	1.373722
23.304378346863356	1.9108294	1.3823276
23.322274179027676	1.9132887	1.3832169
23.340170588009723	1.8918422	1.3754425
23.358067574301852	1.8667686	1.3662974
23.37596513839651	1.8957598	1.376866
23.39386328078629	1.9052756	1.3803172
23.411762001963947	1.9246792	1.387328
23.429661302422353	1.9125129	1.3829364
23.4475611826545	1.9064775	1.3807524
23.46546164315356	1.9209979	1.3860006
23.48336268441279	1.9377276	1.3920228
23.501264306925638	1.9265592	1.3880055
23.51916651118564	1.8789476	1.3707471
23.537069297686497	1.8755046	1.3694906
23.554972666922037	1.8851794	1.3730184
23.57287661938623	1.9104917	1.3822054
23.59078115557318	1.9346308	1.39091
23.608686275977128	1.92083	1.3859401
23.62659198109246	1.912454	1.382915
23.6444982714137	1.9156858	1.384083
23.66240514743549	1.9181107	1.3849587
23.68031260965263	1.8962426	1.3770412
23.698220658560068	1.9051462	1.3802704
23.716129294652845	1.8773073	1.3701487
23.7340385184262	1.8826689	1.3721038
23.75194833037546	1.8804313	1.3712882
23.769858730996123	1.902898	1.3794557
23.78776972078382	1.8978472	1.3776238
23.80568130023431	1.9503094	1.3965348
23.823593469843495	1.9782493	1.4065025
23.841506230107424	1.9437386	1.3941803
23.859419581522275	1.9260843	1.3878344
23.87733352458438	1.9515653	1.3969843
23.89524805979019	1.9357972	1.3913293
23.913163187636318	1.9263175	1.3879184
23.931078908619508	1.9470388	1.3953633
23.948995223236633	1.9856411	1.4091278
23.966912131984735	1.993313	1.4118474
23.98482963536096	2.0442622	1.4297769
24.002747733862616	2.0486042	1.4312946
24.020666427987155	2.0703163	1.4388593
24.038585718232156	2.0610828	1.4356471
24.056505605095353	2.0634677	1.4364775
24.074426089074617	2.0882587	1.4450809
24.092347170667946	2.1131194	1.4536573
24.110268850373515	2.0693514	1.438524
24.128191128689586	2.0360916	1.4269168
24.146114006114626	2.0408783	1.4285932
24.164037483147187	2.0683732	1.438184
24.181961560286005	2.044382	1.4298189
24.199886238029926	2.0007477	1.4144778
24.21781151687797	1.9994984	1.4140362
24.235737397329274	1.9948711	1.412399
24.253663879883135	1.9910773	1.4110554
24.271590965038975	2.024366	1.4228021
24.289518653296376	2.014072	1.41918
24.30744694515505	2.052743	1.4327396
24.32537584111486	2.0725758	1.4396443
24.34330534167581	2.0735734	1.4399908
24.361235447338046	2.0659554	1.4373431
24.379166158601876	2.075518	1.4406657
24.39709747596772	2.070249	1.438836
24.41502939993615	2.0295317	1.4246163
24.432961931007917	2.010781	1.4180201
24.450895069683856	1.9867535	1.4095224
24.468828816465	1.9500403	1.3964385
24.4867631718525	1.9219	1.3863261
24.504698136347656	1.914635	1.3837034
24.52263371045192	1.919365	1.3854115
24.540569894666874	1.9349732	1.3910332
24.558506689494266	1.9925241	1.4115679
24.57644409543597	2.031051	1.4251494
24.594382112994012	2.0011985	1.4146372
24.61232074267057	1.941233	1.3932813
24.630259984967953	1.8954513	1.3767539
24.64819984038863	1.9236268	1.3869487
24.66614030943522	1.9515778	1.3969889
24.684081392610462	1.9748247	1.4052845
24.702023090417274	2.0096188	1.4176103
24.7199654033587	2.029336	1.4245477
24.737908331937927	2.0267072	1.4236246
24.755851876658305	2.0765595	1.4410273
24.773796038023324	2.1257632	1.4579997
24.79174081653661	2.1590972	1.4693867
24.809686212701962	2.1700916	1.4731231
24.827632227023294	2.1445916	1.4644424
24.8455788600047	2.122035	1.4567206
24.8635261121504	2.107135	1.4515975
24.88147398396475	2.1590793	1.4693806
24.899422475952303	2.1985097	1.4827372
24.917371588617698	2.1988533	1.482853
24.935321322465768	2.1906433	1.4800822
24.953271678001478	2.2570245	1.5023397
24.97122265572994	2.4480345	1.5646197
24.989174256156414	2.7822156	1.6679975
25.00712647978632	3.3813474	1.8388441
25.02507932712521	4.3777604	2.0923097
25.043032798678798	5.897707	2.4285195
25.060986894952933	7.547448	2.747262
25.078941616453637	9.101391	3.0168512
25.096896963687055	10.042226	3.1689472
25.114852937159508	10.696912	3.2706134
25.132809537377444	10.511456	3.2421374
25.150766764847468	9.928239	3.1509109
25.168724620076347	8.633253	2.9382398
25.186683103570985	7.3748264	2.7156632
25.204642215838426	5.9363766	2.4364681
25.222601957385894	4.729277	2.17469
25.24056232872074	3.575781	1.8909736
25.25852333035048	2.809809	1.6762484
25.276484962782778	2.3782687	1.5421636
25.294447226525435	2.1922421	1.4806222
25.312410122086423	2.055553	1.43372
25.330373649973843	1.9557823	1.3984928
25.348337810695988	1.9397916	1.392764
25.366302604761245	1.9494346	1.3962215
25.384268032678207	1.9652791	1.4018841
25.40223409495558	1.9313606	1.389734
25.420200792102257	1.8722064	1.3682859
25.438168124627246	1.8174402	1.3481246
25.45613609303974	1.8721772	1.3682753
25.474104697849057	1.8671021	1.3664194
25.492073939564698	1.863401	1.3650645
25.510043818696285	1.8702734	1.3675793
25.528014335753614	1.9173659	1.3846898
25.54598549124664	1.9380494	1.3921385
25.56395728568544	1.9103421	1.3821512
25.58192971958028	1.846347	1.3588035
25.59990279344156	1.8377286	1.3556285
25.617876507779833	1.8568707	1.3626704
25.635850863105826	1.8926152	1.3757235
25.653825859930386	1.9135954	1.3833277
25.671801498764548	1.9126035	1.3829691
25.68977778011949	1.8481833	1.3594791
25.707754704506524	1.8538275	1.3615533
25.725732272437153	1.8768601	1.3699855
25.743710484423012	1.8805745	1.3713404
25.761689340975888	1.8075547	1.3444533
25.77966884260774	1.8263314	1.3514183
25.797648989830662	1.8763407	1.3697959
25.815629783156922	1.9432467	1.3940039
25.83361122309895	1.944494	1.3944511
25.85159331016929	1.9182681	1.3850156
25.869576044880695	1.8335816	1.3540981
25.887559427746034	1.7901901	1.3379799
25.90554345927836	1.8250078	1.3509285
25.92352813999086	1.8888597	1.3743579
25.94151347039689	1.8619224	1.3645228
25.959499451009965	1.8407964	1.3567595
25.97748608234374	1.8061832	1.3439431
25.995473364912062	1.7896634	1.337783
26.013461299228904	1.7634507	1.3279499
26.03144988580839	1.8134682	1.3466507
26.04943912516483	1.8882058	1.37412
26.067429017812675	1.914292	1.3835794
26.085419564266537	1.8833561	1.3723543
26.103410765041186	1.8331653	1.3539443
26.12140262065155	1.8470294	1.3590546
26.139395131612723	1.8497349	1.3600496
26.157388298439948	1.8655798	1.3658623
26.17538212164861	1.8237165	1.3504505
26.193376601754295	1.8399972	1.356465
26.211371739272714	1.830109	1.3528153
26.229367534719746	1.8277316	1.3519362
26.247363988611433	1.7906058	1.3381352
26.26536110146397	1.7789042	1.3337557
26.283358873793727	1.8223166	1.3499321
26.301357306117204	1.9203835	1.385779
26.319356398951104	1.8935139	1.3760501
26.33735615281224	1.8343797	1.3543928
26.35535656821762	1.8002508	1.3417343
26.373357645684404	1.7799213	1.334137
26.39135938572991	1.7854333	1.3362011
26.409361788871614	1.7836846	1.3355466
26.427364855627165	1.8207304	1.3493445
26.445368586514352	1.8598521	1.3637639
26.46337298205115	1.8531897	1.3613191
26.48137804275568	1.8143604	1.346982
26.499383769146217	1.8127723	1.3463923
26.517390161741215	1.8268508	1.3516104
26.53539722105928	1.822186	1.3498837
26.553404947619182	1.8231577	1.3502436
26.571413341939856	1.8714076	1.3679941
26.589422404540397	1.8736506	1.3688135
26.60743213594006	1.8584696	1.3632569
26.62544253665827	1.8027909	1.3426805
26.64345360721459	1.7472682	1.3218427
26.66146534812879	1.7495621	1.3227102
26.679477759920758	1.7911692	1.3383456
26.69749084311057	1.7959388	1.3401264
26.71550459821847	1.8349055	1.3545868
26.733519025764842	1.8160611	1.3476131
26.751534126270258	1.7945734	1.3396169
26.769549900255434	1.8207915	1.349367
26.787566348241267	1.8750921	1.3693401
26.80558347074881	1.8751525	1.3693621
26.823601268299267	1.8205497	1.3492775
26.841619741414036	1.7967327	1.3404225
26.85963889061465	1.7999104	1.3416075
26.877658716422832	1.8144171	1.347003
26.89567921936045	1.7812004	1.3346162
26.913700399949544	1.7789472	1.3337718
26.93172225871233	1.8358461	1.354934
26.949744796171174	1.8391104	1.356138
26.967768012848605	1.8256036	1.351149
26.98579190926733	1.8247865	1.3508466
27.003816485950225	1.8187157	1.3485976
27.021841743420318	1.7881391	1.3372132
27.039867682200814	1.773405	1.3316925
27.057894302815072	1.7715603	1.3309997
27.07592160578664	1.7711307	1.3308383
27.0939495916392	1.7702755	1.330517
27.111978260896635	1.7866169	1.3366439
27.13000761408296	1.8282086	1.3521127
27.148037651722397	1.820618	1.3493028
27.166068374339304	1.7970393	1.340537
27.184099782458215	1.8031833	1.3428266
27.20213187660384	1.8262075	1.3513725
27.22016465730105	1.8466206	1.3589041
27.23819812507487	1.8745756	1.3691515
27.256232280450533	1.8409357	1.3568108
27.274267123953383	1.8223896	1.3499591
27.292302656108987	1.7871462	1.3368418
27.31033887744306	1.7793713	1.3339307
27.32837578848146	1.7667512	1.3291919
27.34641338975026	1.7788647	1.3337408
27.364451681775673	1.8244144	1.3507088
27.382490665084074	1.8775218	1.3702269
27.400530340202046	1.8407807	1.3567537
27.41857070765629	1.8134701	1.3466514
27.436611767973726	1.747918	1.3220885
27.454653521681404	1.7445005	1.3207954
27.472695969306564	1.72643	1.3139368
27.490739111376627	1.7568997	1.3254809
27.508782948419153	1.8172568	1.3480567
27.526827480961902	1.8190295	1.348714
27.54487270953279	1.8285154	1.3522261
27.562918634659898	1.7996233	1.3415004
27.580965256871508	1.7961514	1.3402058
27.599012576696026	1.79926	1.341365
27.617060594662068	1.7999746	1.3416313
27.63510931129842	1.7624185	1.3275611
27.65315872713401	1.8060098	1.3438786
27.67120884269797	1.8238385	1.3504957
27.68925965851958	1.8081669	1.3446809
27.707311175128307	1.828295	1.3521446
27.725363393053787	1.8784777	1.3705757
27.74341631282583	1.9126108	1.3829718
27.7614699349744	1.9021696	1.3791916
27.77952426002968	2.1171944	1.4550582
27.797579288521973	2.248541	1.4995136
27.815635020981784	2.57429	1.6044594
27.83369145793979	2.6006854	1.6126641
27.85174859992682	2.4996042	1.5810137
27.869806447473923	2.400731	1.5494293
27.887865001112267	2.094569	1.4472625
27.905924261373233	1.961768	1.4006313
27.92398422878836	1.9577606	1.3992
27.94204490388936	1.9268035	1.3880935
27.96010628720813	1.9029274	1.3794663
27.978168379276728	1.8972774	1.377417
27.9962311806274	1.8794918	1.3709456
28.014294691792568	1.8619983	1.3645506
28.0323589133048	1.859832	1.3637565
28.050423845696887	1.8378513	1.3556738
28.068489489501758	1.8269358	1.3516419
28.086555845252523	1.8781117	1.3704422
28.104622913482487	1.9477518	1.3956188
28.122690694725115	1.9371005	1.3917975
28.14075918951405	1.8776673	1.37028
28.15882839838312	1.8798902	1.3710909
28.176898321866304	1.8623384	1.3646752
28.1949689604978	1.8752723	1.3694059
28.213040314811945	1.8890376	1.3744227
28.23111238534327	1.8916408	1.3753693
28.249185172626493	1.9246373	1.387313
28.267258677196473	1.9656811	1.4020275
28.285332899588294	2.0096934	1.4176365
28.303407840337172	2.0123556	1.4185752
28.321483499978545	1.9461005	1.395027
28.33955987904799	1.9512348	1.3968661
28.357636978081285	1.9786514	1.4066454
28.37571479761439	2.0272353	1.4238101
28.393793338183425	2.0706542	1.4389768
28.41187260032469	2.0340273	1.4261934
28.429952584574686	1.9771823	1.4061232
28.448033291470065	1.9788343	1.4067104
28.46611472154769	2.0117342	1.4183562
28.484196875344566	2.0124588	1.4186115
28.502279753397914	2.0150266	1.4195163
28.52036335624511	2.0663881	1.4374937
28.538447684423716	2.0656574	1.4372395
28.556532738471482	2.076093	1.4408654
28.574618518926325	2.0865438	1.4444873
28.59270502632635	2.0423987	1.4291252
28.61079226120985	1.9840621	1.4085674
28.628880224115274	1.9982736	1.4136031
28.646968915581287	2.0492017	1.4315033
28.66505833614671	2.0541034	1.4332143
28.68314848635055	2.0082405	1.417124
28.701239366732004	2.0153177	1.4196188
28.71933097783044	2.0564415	1.4340298
28.737423320185403	2.0790553	1.441893
28.75551639433665	2.0510635	1.4321535
28.773610200824074	2.0464113	1.4305283
28.791704740187793	2.0395539	1.4281296
28.80980001296809	2.0486915	1.4313251
28.827896019705413	2.1097429	1.4524955
28.845992760940433	2.1550412	1.4680059
28.86409023721397	2.1524382	1.467119
28.88218844906704	2.1663015	1.4718361
28.900287397040845	2.181022	1.4768283
28.918387081676755	2.253965	1.5013211
28.936487503516343	2.2536795	1.501226
28.954588663101365	2.2576685	1.5025539
28.97269056097374	2.3107412	1.5201123
28.990793197675597	2.3822007	1.543438
29.00889657374923	2.3601177	1.5362674
29.027000689737125	2.3687308	1.5390681
29.04510554618196	2.418868	1.555271
29.06321114362659	2.468817	1.571247
29.08131748261405	2.4821956	1.5754986
29.099424563687567	2.4466834	1.5641878
29.11753238739057	2.4303133	1.5589463
29.13564095426663	2.5030656	1.5821079
29.15375026485954	2.5136218	1.5854405
29.171860319713275	2.5134022	1.5853714
29.18997111937199	2.5860195	1.6081105
29.20808266438002	2.655422	1.6295465
29.226194955281898	2.7140813	1.6474469
29.244307992622335	2.7570715	1.6604432
29.26242177694624	2.8628616	1.6919993
29.2805363087987	2.9050882	1.7044319
29.29865158872498	2.9190493	1.7085226
29.316767617270557	2.9820764	1.726869
29.334884394981064	3.0863972	1.7568145
29.353001922402367	3.0951314	1.7592986
29.37112020008047	3.0281725	1.7401645
29.389239228561596	3.117042	1.7655147
29.407359008392152	3.3372362	1.8268104
29.42547954011872	3.61209	1.90055
29.44360082428809	4.1389685	2.0344455
29.46172286144722	5.078815	2.2536225
29.479845652143283	6.6723003	2.5830796
29.497969196923606	9.244452	3.0404692
29.516093496335728	12.8589	3.5859308
29.5342185509274	16.410704	4.0510125
29.55234436124651	19.587711	4.425801
29.570470927841175	21.007627	4.583408
29.588598251259686	21.096952	4.593142
29.60672633205055	19.528114	4.4190626
29.624855170762405	16.336159	4.0418015
29.642984767944146	12.776617	3.5744393
29.66111512414481	9.509871	3.0838077
29.67924623991366	6.9372544	2.6338668
29.697378115800138	5.056093	2.248576
29.71551075235387	4.223606	2.0551414
29.733644150124675	3.8315609	1.9574373
29.751778309662576	3.6157947	1.9015243
29.769913231517766	3.4676292	1.8621571
29.78804891624066	3.4017363	1.8443797
29.806185364381818	3.3940983	1.8423079
29.82432257649206	3.4116201	1.8470571
29.842460553122333	3.338221	1.8270799
29.86059929482382	3.281291	1.8114334
29.878738802147872	3.281115	1.8113848
29.896879075646048	3.281345	1.8114483
29.915020115870114	3.256284	1.8045176
29.933161923371976	3.1877735	1.7854337
29.951304498703777	3.2390556	1.7997377
29.969447842417857	3.302821	1.8173665
29.987591955066733	3.2788873	1.8107698
30.005736837203123	3.2578878	1.804962
30.023882489379943	3.217904	1.7938517
30.04202891215028	3.1192575	1.766142
30.060176106067455	3.088531	1.7574217
30.078324071684946	3.1189463	1.7660539
30.09647280955646	3.1392717	1.771799
30.114622320235863	3.1269553	1.7683198
30.132772604277257	3.10744	1.7627932
30.1509236622349	3.1277437	1.7685428
30.16907549466328	3.145468	1.7735467
30.18722810211705	3.0790231	1.7547145
30.205381485151097	3.0544848	1.7477084
30.22353564432045	3.0301914	1.7407445
30.241690580180403	3.0405874	1.743728
30.25984629328638	3.0732698	1.7530744
30.278002784194037	3.0395	1.7434162
30.296160053459246	2.987212	1.7283553
30.314318101638033	2.988209	1.7286437
30.332476929286646	2.9468608	1.7166423
30.35063653696153	2.897694	1.7022614
30.368796925219307	2.868526	1.6936723
30.386958094616844	2.869714	1.694023
30.40512004571115	2.879629	1.696947
30.423282779059463	2.8789423	1.6967446
30.441446295219233	2.879865	1.6970165
30.459610594748067	2.8484237	1.6877273
30.47777567820382	2.7813323	1.6677327
30.495941546144504	2.775077	1.6658562
30.51410819912835	2.8218992	1.6798509
30.532275637713795	2.8606365	1.6913416
30.55044386245946	2.8719523	1.6946836
30.56861287392416	2.8186653	1.6788881
30.586782672666956	2.7797902	1.6672703
30.604953259247047	2.8244765	1.6806179
30.623124634223885	2.8315425	1.6827188
30.641296798157075	2.8189962	1.6789867
30.659469751606462	2.8222418	1.6799529
30.677643495132074	2.8425803	1.6859953
30.695818029294152	2.8169227	1.678369
30.713993354653116	2.791532	1.6707878
30.73216947176962	2.7548292	1.6597677
30.75034638120448	2.7208648	1.6495044
30.768524083518756	2.734838	1.6537346
30.786702579273673	2.8270802	1.6813923
30.80488186903069	2.946066	1.7164108
30.82306195335144	3.095335	1.7593564
30.841242832797782	3.2881985	1.813339
30.85942450793176	3.641266	1.9082102
30.877606979315637	4.090589	2.0225205
30.895790247511883	4.52037	2.1261163
30.913974313083134	4.9353886	2.2215734
30.932159176592283	5.3911448	2.321884
30.95034483860237	5.7529526	2.3985314
30.968531299676698	5.704935	2.3885007
30.98671856037873	5.4034066	2.324523
31.00490662127215	5.0032454	2.2367935
31.023095482920848	4.4485984	2.10917
31.04128514588892	3.7661984	1.9406695
31.059475610740662	3.2338932	1.7983029
31.07766687804056	2.8349738	1.683738
31.09585894835335	2.5977416	1.6117511
31.11405182224393	2.4803553	1.5749143
31.132245500277417	2.4550636	1.5668643
31.15043998301914	2.4351385	1.560493
31.168635271034628	2.4441452	1.5633762
31.18683136488964	2.4286149	1.5584013
31.20502826515008	2.500761	1.5813794
31.223225972382135	2.5051334	1.5827613
31.241424487152155	2.4668002	1.570605
31.259623810026692	2.45585	1.5671152
31.27782394157253	2.495744	1.5797924
31.296024882356644	2.4941404	1.5792848
31.314226632946237	2.4031568	1.5502118
31.332429193908684	2.382235	1.543449
31.350632565811598	2.4158666	1.5543058
31.368836749222787	2.4019294	1.5498159
31.387041744710295	2.3884726	1.5454684
31.40524755284232	2.451196	1.5656296
31.423454174187317	2.5346122	1.5920465
31.441661609313922	2.4919372	1.578587
31.459869858791002	2.4832978	1.5758483
31.478078923187628	2.371777	1.5400575
31.496288803073064	2.3302479	1.5265149
31.514499499016807	2.4147995	1.5539625
31.532711011588546	2.4699476	1.5716066
31.550923341358178	2.44186	1.5626452
31.56913648889584	2.3452752	1.5314292
31.587350454771844	2.282107	1.5106645
31.605565239556732	2.2997046	1.5164777
31.62378084382127	2.2592661	1.5030855
31.641997268136382	2.2305803	1.4935127
31.660214513073274	2.2497637	1.4999212
31.67843257920331	2.3229296	1.524116
31.6966514670981	2.3336446	1.5276271
31.71487117732944	2.3010385	1.5169175
31.733091710469346	2.2832985	1.5110587
31.751313067090052	2.2998908	1.5165391
31.769535247764008	2.3595126	1.5360705
31.787758253063878	2.3013365	1.5170157
31.805982083562526	2.1816118	1.477028
31.824206739833024	2.1816263	1.4770329
31.84243222244869	2.3120408	1.5205396
31.860658531983013	2.3571632	1.5353056
31.878885669009737	2.3151448	1.52156
31.897113634102784	2.2279346	1.4926268
31.91534242783632	2.2826483	1.5108436
31.933572050784694	2.261946	1.5039767
31.951802503522508	2.2012072	1.4836466
31.970033786624548	2.1783295	1.4759165
31.988265900665834	2.2013896	1.483708
32.006498846221575	2.2004988	1.4834079
32.02473262386724	2.1585088	1.4691864
32.04296723417845	2.147918	1.4655777
32.0612026777311	2.1398828	1.4628339
32.07943895510129	2.156672	1.4685612
32.097676066865304	2.1828873	1.4774598
32.115914013599685	2.116554	1.4548382
32.13415279588115	2.0560124	1.4338802
32.152392414286666	2.0427098	1.429234
32.1706328693934	2.0707576	1.4390128
32.18887416177875	2.1408486	1.463164
32.20711629202032	2.2236998	1.4912075
32.225359260695924	2.2129097	1.4875852
32.243603068383614	2.10508	1.4508893
32.26184771566166	2.1193569	1.4558011
32.28009320310852	2.1927962	1.4808093
32.2983395313029	2.2313898	1.4937837
32.31658670082372	2.2066922	1.4854939
32.33483471225012	2.2142634	1.4880401
32.35308356616143	2.2276812	1.4925418
32.371333263137245	2.2327702	1.4942456
32.38958380375734	2.1957042	1.4817909
32.407835188601744	2.174421	1.4745919
32.42608741825067	2.1808188	1.4767596
32.444340493284585	2.1743586	1.4745706
32.46259441428416	2.075882	1.4407921
32.48084918183028	2.0736787	1.4400274
32.49910479650405	2.1626055	1.47058
32.51736125888683	2.2252674	1.4917331
32.53561856956014	2.131089	1.459825
32.5538767291058	2.0505478	1.4319735
32.572135738105764	2.0624635	1.436128
32.59039559714228	2.1174254	1.4551376
32.608656306797776	2.0687234	1.4383057
32.62691786765491	2.03598	1.4268777
32.645180280296586	2.024723	1.4229276
32.663443545305896	2.0734346	1.4399426
32.68170766326619	2.1128025	1.4535482
32.69997263476099	2.1685038	1.472584
32.7182384603741	2.1121116	1.4533106
32.7365051406895	1.9853365	1.4090197
32.75477267629144	1.9260912	1.3878369
32.77304106776434	1.969737	1.4034733
32.79131031569289	2.001931	1.4148961
32.809580420661966	2.0458834	1.4303439
32.827851383256714	2.0523622	1.4326068
32.84612320406245	2.0438762	1.429642
32.86439588366476	2.0687814	1.4383259
32.88266942264945	2.014129	1.4192001
32.9009438216025	2.0523343	1.432597
32.9192190811102	2.1162558	1.4547356
32.937495201758985	2.1371768	1.4619086
32.95577218413556	2.0887601	1.4452543
32.974050028826866	2.0303962	1.4249197
32.992328736420035	1.941704	1.3934504
33.010608307502444	1.9838035	1.4084756
33.02888874266169	2.0589538	1.4349055
33.047170042485604	1.9673722	1.4026304
33.06545220756225	1.9236304	1.38695
33.083735238479896	1.9751694	1.4054072
33.10201913582707	2.0987194	1.4486958
33.12030390019248	2.0908294	1.44597
33.138589532165135	2.0448983	1.4299994
33.15687603233419	1.9855741	1.409104
33.17516340128909	1.9725615	1.404479
33.19345163961947	1.9169719	1.3845476
33.211740747915215	1.925024	1.3874524
33.23003072676643	1.8687032	1.3670052
33.248321576763466	1.8629235	1.3648895
33.266613298496885	1.9036276	1.3797201
33.28490589255747	1.9947358	1.4123511
33.30319935953626	1.9148582	1.383784
33.32149370002451	1.8439426	1.3579185
33.339788914613706	1.873611	1.3687991
33.358085003895575	1.9076864	1.3811902
33.376381968462034	1.9516114	1.3970009
33.39467980890529	1.9483896	1.3958473
33.41297852581774	1.9212503	1.3860917
33.43127811979204	1.8467623	1.3589563
33.44957859142105	1.8898122	1.3747044
33.467879941297866	1.8690875	1.3671458
33.486182170015844	1.8378217	1.3556628
33.50448527816853	1.8130977	1.3465132
33.522789266349754	1.9358516	1.3913488
33.541094135153514	1.9702837	1.4036679
33.55939988517411	2.01254	1.4186403
33.57770651700602	1.9618456	1.400659
33.59601403124398	1.9348037	1.3909723
33.61432242848296	1.9569689	1.3989171
33.632631709318154	2.0448003	1.4299651
33.650941874344994	2.0480175	1.4310896
33.66925292415916	1.9804058	1.4072689
33.68756485935654	1.9301968	1.3893152
33.70587768053328	1.9838089	1.4084775
33.724191388285746	1.9672035	1.4025704
33.74250598321054	1.9834677	1.4083564
33.760821465904506	1.9668254	1.4024355
33.77913783696474	1.9376565	1.3919973
33.79745509698852	1.912086	1.382782
33.815773246573414	1.9198897	1.3856008
33.8340922863172	1.9353862	1.3911816
33.852412216817896	1.9287497	1.3887943
33.87073303867377	1.9032166	1.3795712
33.889054752483304	1.9413724	1.3933314
33.907377358845245	1.9029156	1.3794621
33.92570085835853	1.9183421	1.3850423
33.94402525162239	1.9367836	1.3916837
33.96235053923627	1.9582108	1.3993609
33.980676721799824	1.9315252	1.3897933
33.999003799912984	1.9707623	1.4038384
34.01733177417592	1.959999	1.3999996
34.03566064518901	2.1303277	1.4595642
34.0539904135529	2.263396	1.5044587
34.07232107986846	2.1905553	1.4800525
34.090652644736785	2.104543	1.4507043
34.108985108759235	2.1681888	1.4724771
34.12731847253742	2.126088	1.458111
34.14565273667313	2.0886755	1.4452251
34.16398790176847	2.023589	1.4225291
34.18232396842574	1.9968429	1.4130969
34.20066093724749	2.0325193	1.4256645
34.21899880883651	2.070831	1.4390383
34.23733758379583	2.0572197	1.4343011
34.25567726272874	1.9023291	1.3792495
34.27401784623872	1.7576022	1.3257459
34.29235933492957	1.8157779	1.3475081
34.31070172940526	2.0017736	1.4148405
34.32904503027003	1.9710853	1.4039534
34.347389238128386	1.9248531	1.3873907
34.36573435358502	1.9912038	1.4111001
34.38408037724492	2.1260228	1.4580888
34.402427309713296	2.1976106	1.482434
34.42077515159559	2.1729875	1.4741056
34.43912390349752	1.988656	1.4101971
34.45747356602499	1.9423466	1.3936809
34.47582413978423	1.8913891	1.3752779
34.49417562538163	1.8307016	1.3530343
34.51252802342388	1.7685449	1.3298665
34.53088133451789	1.7882302	1.3372473
34.54923555927084	1.8312553	1.3532388
34.567590698290104	1.9885607	1.4101634
34.58594675218336	2.1392133	1.462605
34.6043037215585	2.1278846	1.458727
34.62266160702365	2.0446951	1.4299284
34.641020409187234	2.069517	1.4385816
34.65938012865785	1.9877676	1.4098821
34.677740766044394	1.9378067	1.3920512
34.69610232195598	1.9316379	1.3898338
34.714464797002016	1.9037435	1.3797622
34.73282819179208	2.018076	1.42059
34.751192506936064	1.9960569	1.4128188
34.76955774304408	1.8430421	1.3575869
34.7879239007265	1.8168799	1.3479168
34.80629098059391	1.8995256	1.3782328
34.824658983257194	2.082316	1.4430232
34.843027909327446	2.1018744	1.4497843
34.86139775941603	2.0585096	1.4347507
34.879768534134534	2.075707	1.4407314
34.89814023409483	2.0828967	1.4432244
34.91651285990901	2.0549755	1.4335185
34.93488641218944	1.9284393	1.3886826
34.95326089154871	1.976516	1.4058862
34.97163629859967	2.129901	1.459418
34.99001263395542	2.0722146	1.4395189
35.00838989822934	1.9849482	1.4088819
35.02676809203499	2.047614	1.4309486
35.04514721598624	2.1316438	1.4600149
35.063527270697215	2.1132572	1.4537046
35.081908256782256	2.0821335	1.44296
35.10029017485597	1.8631488	1.3649721
35.11867302553321	1.9006503	1.3786408
35.137056809429104	1.9915988	1.4112402
35.155441527159006	1.9958853	1.412758
35.173827179338524	2.0360265	1.426894
35.19221376658354	2.1844654	1.4779937
35.21060128951017	2.2208438	1.4902495
35.2289897487348	2.2048323	1.4848678
35.24737914487405	1.9206359	1.3858701
35.26576947854479	1.7066007	1.3063693
35.28416075036418	1.9125831	1.3829618
35.30255296094958	2.028533	1.4242657
35.32094611091867	2.0925272	1.446557
35.33934020088932	2.1566913	1.4685677
35.35773523147969	2.290574	1.5134642
35.3761312033082	2.4239843	1.556915
35.394528116993506	2.3476524	1.5322051
35.41292597315452	2.2710216	1.5069909
35.431324772410434	2.260337	1.5034418
35.449724515380666	1.859927	1.3637915
35.46812520268491	1.850417	1.3603003
35.486526834943106	2.020491	1.4214398
35.504929412775454	1.7762554	1.3327624
35.52333293680242	1.7926354	1.3388934
35.54173740764471	1.9789227	1.4067419
35.560142825923286	1.7265424	1.3139796
35.5785491922594	1.3267459	1.1518445
35.59695650727454	1.0097028	1.0048397
35.61536477159042	0.8177855	0.90431494
