0.008763373481513119	0.0	0.0
0.026290120649546365	0.0	0.0
0.043816868432600686	0.07100188	0.2664618
0.06134361724069026	0.2092527	0.45744148
0.07887036748382949	0.19834639	0.44536096
0.0963971195720331	0.19286117	0.43915963
0.11392387391531617	0.10890411	0.3300062
0.1314506309236943	0.06816827	0.26109055
0.1489773910071836	0.18911357	0.4348719
0.16650415457580078	0.29658958	0.54460037
0.18403092203956356	0.30531543	0.55255353
0.20155769380849	0.26213658	0.51199275
0.2190844702925996	0.13594759	0.3687107
0.2366112519019124	0.08396133	0.28976083
0.2541380390464497	0.049326275	0.22209519
0.27166483213623416	0.07769803	0.27874365
0.28919163158128947	0.123387285	0.35126525
0.3067184377916406	0.15864539	0.39830315
0.324245251177314	0.19177352	0.43791953
0.34177207214833777	0.15583125	0.39475468
0.3592989011147415	0.1420861	0.3769431
0.37682573848655654	0.14934257	0.38644865
0.39435258467381573	0.19462697	0.44116548
0.41187944008655414	0.19026333	0.43619186
0.42940630513480854	0.2335259	0.48324516
0.446933180228618	0.18167982	0.42623916
0.4644600657780234	0.19933745	0.44647223
0.48198696219306775	0.19823444	0.44523525
0.49951386988379676	0.19981214	0.4470035
0.5170407892602581	0.18865977	0.43434983
0.5345677207325025	0.1583859	0.39797726
0.5520946647105822	0.13896655	0.37278217
0.5696216216045534	0.14263324	0.37766817
0.5871485918244737	0.13695508	0.37007442
0.6046755757804043	0.1631637	0.40393528
0.6222025738824094	0.1943033	0.4407985
0.6397295865405557	0.21544048	0.46415567
0.6572566141649129	0.22068541	0.46977165
0.6747836571655547	0.22190769	0.4710708
0.6923107159525568	0.22365125	0.4729178
0.7098377909359992	0.19914888	0.446261
0.7273648825259653	0.20077765	0.44808218
0.7448919911325411	0.2149882	0.4636682
0.762419117165817	0.27097696	0.5205545
0.7799462610358868	0.27496877	0.52437466
0.7974734231528482	0.2397661	0.48965916
0.8150006039268024	0.18152411	0.42605647
0.8325278037678551	0.18276066	0.42750517
0.8500550230861152	0.16564088	0.40699002
0.8675822622916969	0.17665589	0.4203045
0.8851095217947171	0.19130495	0.43738422
0.9026368020052984	0.24898532	0.49898428
0.9201641033335665	0.2801673	0.5293083
0.9376914261896523	0.24893886	0.49893773
0.9552187709836915	0.21228766	0.46074685
0.9727461381258234	0.20693557	0.45490173
0.990273528026193	0.19896208	0.44605166
1.0078009410949496	0.21987149	0.46890455
1.0253283777422473	0.245885	0.49586794
1.0428558383782454	0.26591757	0.51567197
1.0603833234131086	0.257432	0.50737756
1.0779108332570058	0.24464056	0.49461153
1.0954383683201119	0.23670901	0.4865275
1.112965929012607	0.33958516	0.58273935
1.1304935157446763	0.51671124	0.7188263
1.1480211289265108	0.62901235	0.793103
1.1655487689683062	1.3912483	1.1795119
1.1830764362802655	1.7012299	1.3043121
1.200604131272596	2.136768	1.4617689
1.2181318543555117	2.5708685	1.6033928
1.235659605939232	2.539143	1.5934689
1.253187386433982	3.9641073	1.9910066
1.270715196249994	6.2799973	2.5059922
1.2882430357975057	11.865849	3.444684
1.3057709054867608	16.820915	4.1013308
1.3232988057280106	22.575083	4.751324
1.3408267369315112	27.425312	5.236918
1.358354699507526	31.09471	5.576263
1.3758826938663256	35.32451	5.9434423
1.3934107204181858	37.19394	6.0986834
1.410938779573391	37.324154	6.1093497
1.4284668717422309	37.6038	6.132194
1.4459949973350033	37.35195	6.1116242
1.4635231567620117	37.64657	6.1356797
1.4810513504335687	37.070095	6.0885215
1.4985795787599925	36.04516	6.0037622
1.5161078421516088	35.055367	5.9207573
1.5336361410187505	34.53731	5.8768454
1.5511644757717598	34.612415	5.8832316
1.5686928468209842	35.20143	5.9330792
1.58622125457678	36.040897	6.003407
1.6037496994495108	36.89148	6.073836
1.621278181849548	36.583813	6.048455
1.6388067021872719	37.139065	6.094183
1.6563352608730693	36.69925	6.0579906
1.673863858317336	35.869305	5.989099
1.6913924949304753	35.50502	5.958609
1.7089211711228998	34.475574	5.8715906
1.7264498873050296	33.85726	5.8186994
1.7439786438872935	33.076775	5.751241
1.7615074412801288	32.066525	5.662731
1.779036279893981	31.157236	5.5818667
1.796565160139305	29.96775	5.474281
1.814094082426564	29.215221	5.405111
1.8316230471662298	28.569311	5.345027
1.849152054768784	27.840374	5.2763977
1.8666811056447168	27.26662	5.221745
1.8842102002045273	26.768602	5.173838
1.901739338858724	26.332968	5.131566
1.9192685220178245	25.81654	5.080998
1.9367977500923557	25.313387	5.031241
1.9543270234928547	24.919405	4.991934
1.971856342629867	24.108541	4.910045
1.9893857079139496	23.635973	4.8616843
2.006915119755667	23.275965	4.8245173
2.0244445785655945	22.818262	4.7768464
2.0419740847543175	22.26536	4.7186184
2.0595036387324317	21.499445	4.6367493
2.0770332409105414	20.780151	4.558525
2.094562891699263	20.402925	4.5169597
2.1120925915092217	20.032053	4.475718
2.129622340751053	19.79269	4.448898
2.1471521398354043	188.05858	13.713445
2.1646819891729323	444.2222	21.07658
2.182211889174303	440.4594	20.987125
2.1997418402501974	453.03348	21.284584
2.2172718428113023	433.0434	20.809694
2.234801897268317	321.0025	17.916542
2.2523320040319548	17.234566	4.1514535
2.269862163512935	16.776651	4.095931
2.287392376121992	16.355543	4.0441985
2.304922642269869	16.201878	4.0251555
2.322452962367322	15.888443	3.986031
2.3399833368251164	15.698377	3.9621177
2.357513766054032	15.309134	3.9126887
2.3750442504648586	14.955788	3.8672714
2.3925747904683963	14.569508	3.8170025
2.410105386475459	14.512252	3.809495
2.4276360388968707	14.211004	3.7697484
2.445166748143469	14.211007	3.769749
2.4626975146261025	13.938047	3.7333694
2.4802283387556323	13.858043	3.7226393
2.4977592209429305	13.6114	3.689363
2.5152901615988825	13.298009	3.6466434
2.5328211611343865	12.902526	3.5920086
2.5503522199603523	12.7290945	3.5677857
2.5678833384877024	12.630386	3.5539255
2.5854145171273712	12.517441	3.5379996
2.6029457562903064	12.317723	3.5096614
2.620477056387469	12.043438	3.4703658
2.6380084178298326	11.79424	3.4342742
2.655539841028383	11.608717	3.4071567
2.673071326394119	11.300943	3.3616877
2.6906028743380523	11.19083	3.34527
2.708134485271211	11.042185	3.3229783
2.7256661596046325	11.065528	3.3264887
2.743197897749369	10.891207	3.3001828
2.760729700116486	10.763614	3.2807946
2.778261567117063	10.550607	3.2481697
2.795793499162193	10.268546	3.2044573
2.8133254966629817	10.122822	3.1816382
2.830857560030551	9.84467	3.1376216
2.8483896896760337	9.704505	3.1152055
2.865921886010578	9.633442	3.1037786
2.883454149445347	9.58954	3.0966983
2.9009864803915177	9.534274	3.0877619
2.91851887926028	9.255791	3.0423331
2.9360513464628384	9.0273485	3.0045545
2.953583882410413	8.895242	2.982489
2.9711164875142373	8.881171	2.9801295
2.9886491621855606	8.868922	2.9780736
3.0061819068356455	8.920567	2.9867318
3.023714721875769	8.79721	2.9660091
3.041247607717225	8.621858	2.9363
3.0587805647713213	8.320789	2.8845778
3.0763135934493806	8.200581	2.8636656
3.0938466941627407	8.034486	2.8345168
3.1113798673227544	7.9742227	2.8238666
3.1289131133407904	7.807206	2.7941377
3.1464464326282315	7.752337	2.784302
3.1639798255964786	7.689026	2.7729092
3.1815132926569443	7.6410985	2.7642536
3.1990468342210603	7.5195956	2.7421882
3.216580450700272	7.41823	2.7236428
3.2341141425060416	7.368299	2.714461
3.251647910049847	7.401174	2.72051
3.2691817537431813	7.410163	2.7221615
3.286715673997555	7.272158	2.696694
3.3042496712244938	7.0713463	2.6592002
3.32178374583554	6.891933	2.6252491
3.339317898242251	6.817239	2.6109843
3.3568521288562034	6.774805	2.6028457
3.3743864380889876	6.7422514	2.5965846
3.3919208263522127	6.7514367	2.5983527
3.4094552940575023	6.711276	2.5906131
3.4269898416164972	6.7666383	2.6012764
3.444524469440858	6.7316337	2.5945392
3.4620591779422587	6.683376	2.5852225
3.479593967532391	6.5902367	2.5671456
3.4971288386229658	6.464097	2.5424588
3.5146637916257086	6.4711657	2.5438485
3.5321988269523628	6.3959646	2.5290244
3.5497339450146903	6.4265466	2.5350635
3.5672691462244708	6.287231	2.507435
3.5848044309934988	6.152156	2.480354
3.60233979973359	6.116964	2.4732497
3.619875252856575	6.1196666	2.473796
3.6374107907743034	6.1940713	2.488789
3.6549464138986427	6.290197	2.5080266
3.6724821226414788	6.2631483	2.5026283
3.690017917414714	6.225739	2.4951432
3.7075537986302702	6.2163677	2.4932644
3.7250897667000857	6.341046	2.5181434
3.7426258220361235	6.6012597	2.5692916
3.7601619650503553	7.0270233	2.6508534
3.777698196154779	7.536931	2.7453473
3.7952345157614067	8.532034	2.9209645
3.8127709242822716	9.202575	3.0335746
3.830307422129425	11.32139	3.3647273
3.847844009714936	30.155563	5.4914083
3.8653806874508954	97.74298	9.886505
3.882917455749409	97.1205	9.854973
3.900454315022606	97.029205	9.85034
3.917991265682631	41.572506	6.4476743
3.9355283081416506	11.200586	3.3467276
3.9530654428118495	8.933749	2.9889379
3.970602670105433	7.707167	2.7761786
3.9881399904346244	6.682968	2.5851438
4.005677404211669	6.695673	2.5875998
4.023214911848827	6.668184	2.5822828
4.0407525137583855	6.6856766	2.5856676
4.058290210352644	6.700192	2.5884728
4.075828002043927	6.5652137	2.5622673
4.0933658892445814	6.4878697	2.5471296
4.110903872366966	6.3420324	2.5183392
4.128441951823468	6.2700124	2.5039992
4.145980128026488	6.187342	2.4874368
4.163518401388452	6.145855	2.4790835
4.181056772321807	6.0596523	2.461636
4.1985952412390155	6.0783978	2.4654408
4.216133808552567	6.1372466	2.4773467
4.233672474674966	6.248334	2.4996667
4.251211240018741	6.4881816	2.547191
4.268750104996445	6.720175	2.59233
4.286289070020643	7.633773	2.7629282
4.303828135503928	9.356697	3.0588717
4.3213673018589125	29.576683	5.438445
4.3389065694982305	90.79532	9.528658
4.356445938834537	165.98346	12.883457
4.3739854102805085	171.75513	13.105538
4.391524984248844	172.78647	13.144827
4.409064661152262	136.9326	11.70182
4.426604441403504	97.037766	9.850775
4.444144325415337	75.93701	8.714185
4.461684313600543	21.786804	4.6676335
4.47922440637193	22.163576	4.707821
4.496764604142329	20.527729	4.5307536
4.5143049073245916	18.632631	4.316553
4.531845316331589	16.608644	4.0753703
4.5493858315762195	13.808753	3.716013
4.566926453471405	11.544803	3.3977644
4.584467182430081	9.560089	3.0919394
4.602008018865218	8.31076	2.8828387
4.619548963189798	7.5451202	2.7468383
4.637090015816834	7.092554	2.663185
4.654631177159353	6.8431025	2.6159325
4.672172447630417	6.5676613	2.5627449
4.689713827643102	6.2896976	2.507927
4.7072553176105085	6.052918	2.4602678
4.724796917945764	5.9750443	2.4443903
4.742338629062015	5.9052916	2.4300807
4.759880451372434	5.8743825	2.4237125
4.777422385290215	5.685349	2.384397
4.794964431228581	5.6846304	2.3842463
4.812506589600768	5.636222	2.3740728
4.830048860820047	5.620875	2.3708384
4.847591245299709	5.5584946	2.357646
4.8651337434530655	5.505605	2.3464026
4.882676355693457	5.525014	2.350535
4.900219082434242	5.4646673	2.3376627
4.917761924088813	5.513383	2.3480594
4.935304881070575	5.5267944	2.3509135
4.952847953792969	5.4941697	2.3439646
4.970391142669449	5.478224	2.3405607
4.9879344481135055	5.448006	2.3340964
5.005477870538642	5.5183945	2.3491263
5.023021410358394	5.545593	2.3549082
5.040565067986324	5.513413	2.3480659
5.05810884383601	5.4949164	2.3441238
5.075652738321066	5.4672246	2.3382096
5.09319675185512	5.515916	2.3485987
5.110740884851836	5.563527	2.358713
5.128285137724894	5.5363107	2.3529365
5.145829510888007	5.51389	2.3481674
5.163374004754908	5.4548006	2.3355515
5.1809186197393595	5.500591	2.3453338
5.198463356255145	5.5005107	2.3453166
5.216008214716077	5.5570397	2.3573375
5.233553195535998	5.4340696	2.331109
5.251098299128764	5.3851743	2.320598
5.268643525908272	5.3180165	2.3060825
5.286188876288432	5.2997155	2.3021111
5.3037343506831895	5.318729	2.306237
5.32127994950651	5.2244306	2.2857013
5.3388256731723915	5.2169075	2.284055
5.356371522094851	5.1999974	2.2803502
5.373917496687938	5.211463	2.282863
5.391463597365729	5.3189526	2.3062854
5.40900982454232	5.263568	2.2942467
5.426556178631843	5.209852	2.28251
5.444102660048449	5.140862	2.2673469
5.4616492692063225	5.164166	2.2724802
5.479196006519669	5.239309	2.2889535
5.496742872402727	5.222655	2.285313
5.514289867269756	5.1617036	2.2719383
5.531836991535049	5.163564	2.2723477
5.549384245612924	5.1884794	2.2778234
5.566931629917724	5.2818017	2.298217
5.584479144863822	5.226019	2.2860487
5.6020267908656205	5.1616015	2.271916
5.619574568337545	5.042786	2.2456148
5.637122477694054	5.0391073	2.2447956
5.654670519349629	5.119544	2.262641
5.672218693718784	5.1393814	2.2670205
5.689767001216059	5.1404805	2.2672627
5.707315442256021	5.059399	2.2493107
5.724864017253266	5.0967393	2.257596
5.7424127266224225	5.141896	2.2675748
5.75996157077814	5.1769843	2.2752988
5.777510550135105	5.149939	2.2693477
5.795059665108022	5.185006	2.2770607
5.812608916111639	5.233613	2.2877092
5.830158303560715	5.352886	2.3136306
5.847707827870055	5.316956	2.3058527
5.86525748945448	5.351308	2.3132894
5.8828072887288485	5.4659195	2.3379307
5.900357226108044	5.6239915	2.3714957
5.917907302006979	5.6897564	2.3853211
5.9354575168406	6.2956934	2.5091221
5.9530078710238765	6.9355783	2.6335487
5.970558364971812	7.4106855	2.7222574
5.988108999099438	7.726486	2.7796557
6.005659773821818	8.17671	2.8594947
6.023210689554039	7.972183	2.8235054
6.040761746711227	8.386904	2.8960152
6.058312945708531	7.766551	2.7868533
6.075864286961132	7.2962246	2.7011526
6.093415770884244	6.6022625	2.5694869
6.1109673978931065	6.0868406	2.4671524
6.128519168402993	5.638196	2.3744886
6.146071082829204	5.4907084	2.343226
6.163623141587075	5.3340816	2.3095632
6.181175345091969	5.189611	2.2780719
6.198727693759281	5.1651855	2.2727044
6.216280188004435	5.198459	2.280013
6.233832828242885	5.1779065	2.2755015
6.251385614890126	5.138394	2.2668025
6.268938548361669	5.0581303	2.2490287
6.286491629073067	4.984064	2.2325017
6.304044857439898	5.036708	2.244261
6.321598233877777	5.0933437	2.2568438
6.339151758802344	5.107978	2.2600837
6.356705432629277	5.0765305	2.2531157
6.37425925577428	5.0075483	2.2377553
6.391813228653095	4.91155	2.2162018
6.409367351681486	4.907883	2.2153742
6.426921625275259	4.98871	2.233542
6.44447604985025	5.0498586	2.247189
6.46203062582232	5.1447873	2.2682123
6.47958535360737	5.161979	2.271999
6.497140233621328	5.134688	2.265985
6.514695266280161	5.0627565	2.250057
6.532250451999859	5.097178	2.257693
6.549805791196454	5.063157	2.250146
6.567361284286002	5.077598	2.2533526
6.584916931684597	4.94424	2.2235646
6.602472733808367	4.940495	2.2227225
6.6200286910734665	4.975415	2.2305639
6.637584803896092	4.986985	2.233156
6.655141072692462	5.0317874	2.2431645
6.672697497878842	5.033724	2.243596
6.690254079871514	5.0135183	2.2390888
6.707810819086808	4.9855146	2.2328267
6.725367715941078	5.011832	2.238712
6.742924770850719	4.973515	2.2301378
6.760481984232151	4.9670177	2.2286806
6.778039356501836	4.929969	2.2203534
6.795596888076266	4.9353714	2.2215695
6.813154579371963	4.946442	2.2240598
6.830712430805492	4.968963	2.2291172
6.84827044279344	4.9836197	2.2324023
6.865828615752445	5.006091	2.2374296
6.883386950099159	5.054017	2.248114
6.900945446250287	5.0420866	2.245459
6.918504104622553	5.0464897	2.2464395
6.936062925632727	5.0537996	2.2480657
6.953621909697607	5.0786266	2.2535808
6.971181057234028	5.155741	2.2706258
6.988740368658859	5.1649957	2.2726626
7.006299844389007	5.2462544	2.2904704
7.023859484841407	5.2764645	2.2970557
7.041419290433036	5.3558884	2.3142793
7.058979261580902	5.454484	2.3354838
7.0765393987020495	5.6569705	2.3784387
7.094099702213559	6.037287	2.4570892
7.111660172532549	6.3602314	2.52195
7.129220810076164	6.7276435	2.59377
7.146781615261595	7.371022	2.7149627
7.16434258850606	7.676101	2.7705777
7.181903730226821	8.181689	2.8603652
7.1994650408411704	8.178049	2.8597288
7.217026520766437	8.302303	2.8813717
7.234588170419983	8.498009	2.9151344
7.252149990219215	8.573414	2.9280393
7.269711980581568	8.504609	2.9162662
7.2872741419245175	8.202025	2.8639178
7.304836474665574	7.7934217	2.79167
7.322398979222286	7.5292683	2.7439513
7.339961656012233	7.3582525	2.71261
7.357524505453039	6.9243393	2.631414
7.375087527962357	6.592992	2.5676823
7.392650723957886	6.2661753	2.503233
7.410214093857353	5.8956637	2.4280987
7.427777638078528	5.7236147	2.3924077
7.445341357039213	5.544803	2.3547406
7.4629052511572525	5.425316	2.3292308
7.480469320850524	5.304182	2.303081
7.498033566536948	5.2597	2.2934036
7.5155979886344735	5.289889	2.2999759
7.5331625875610975	5.3011994	2.3024335
7.550727363734844	5.2702336	2.295699
7.568292317573788	5.1724916	2.2743113
7.585857449496025	5.164685	2.2725942
7.603422759919705	5.187748	2.2776628
7.620988249263007	5.1961656	2.27951
7.638553917944147	5.173162	2.2744586
7.656119766381391	5.18611	2.2773032
7.673685794993023	5.164879	2.272637
7.691252004197388	5.1995883	2.2802606
7.70881839441285	5.244408	2.2900672
7.726384966057826	5.323757	2.3073268
7.743951719550762	5.363183	2.3158548
7.761518655310149	5.3102016	2.3043876
7.779085773754511	5.214246	2.2834723
7.796653075302419	5.1509743	2.2695758
7.814220560372475	5.098321	2.2579463
7.831788229383323	5.1369414	2.266482
7.8493560827536495	5.1575923	2.2710333
7.866924120902174	5.2370806	2.288467
7.884492344247663	5.312724	2.3049347
7.9020607532089135	5.361485	2.315488
7.919629348204771	5.396973	2.3231387
7.937198129654115	5.434379	2.3311756
7.954767097975865	5.4657683	2.3378983
7.972336253588986	5.4774523	2.3403957
7.989905596912472	5.4631853	2.3373458
8.007475128365371	5.4473977	2.333966
8.025044848366756	5.4584208	2.3363264
8.042614757335754	5.516632	2.348751
8.060184855691523	5.569608	2.3600018
8.07775514385327	5.671854	2.3815656
8.095325622240228	5.7267923	2.3930717
8.112896291271687	5.8296013	2.4144568
8.130467151366968	5.8869905	2.4263122
8.148038202945436	5.964057	2.4421418
8.165609446426497	5.9210973	2.4333305
8.183180882229594	5.928639	2.4348795
8.200752510774217	5.9321256	2.4355955
8.218324332479893	6.028085	2.455216
8.235896347766193	6.1012707	2.4700751
8.253468557052724	6.1159816	2.473051
8.27104096075914	6.075289	2.4648101
8.288613559305137	6.147863	2.4794884
8.306186353110448	6.183499	2.4866643
8.32375934259485	6.2123165	2.492452
8.341332528178162	6.227245	2.4954448
8.358905910280246	6.317277	2.5134194
8.376479489321003	6.3914886	2.5281394
8.394053265720377	6.41462	2.53271
8.411627239898356	6.3635178	2.5226014
8.42920141227497	6.271382	2.5042727
8.44677578327029	6.2017183	2.490325
8.464350353304427	6.132347	2.4763577
8.48192512279754	6.11493	2.4728384
8.499500092169827	6.1373744	2.4773724
8.51707526184153	6.2115097	2.49229
8.534650632232934	6.242072	2.4984138
8.552226203764365	6.2693605	2.503869
8.569801976856192	6.287686	2.507526
8.587377951928834	6.349416	2.5198047
8.60495412940274	6.2885613	2.5077004
8.622530509698416	6.307258	2.5114255
8.6401070932364	6.3792353	2.5257149
8.657683880437283	6.4737167	2.54435
8.675260871721695	6.6875453	2.5860288
8.692838067510303	6.855136	2.6182315
8.710415468223834	7.046283	2.6544836
8.727993074283043	7.1337852	2.6709146
8.745570886108737	7.175494	2.6787112
8.763148904121765	7.2258396	2.6880922
8.78072712874302	7.1985264	2.683007
8.798305560393441	7.4396257	2.7275677
8.815884199494006	7.606692	2.7580233
8.833463046465745	7.8211846	2.796638
8.851042101729728	7.960955	2.8215165
8.86862136570707	8.289108	2.8790812
8.886200838818924	8.542486	2.922753
8.903780521486505	8.6039915	2.9332561
8.921360414131055	8.659394	2.942685
8.938940517173874	8.641765	2.9396877
8.956520831036297	8.763026	2.9602408
8.97410135613971	9.1100855	3.0182917
8.99168209290554	9.275214	3.0455236
9.009263041755265	9.582283	3.0955262
9.026844203110405	9.745704	3.121811
9.044425577392525	9.870687	3.1417649
9.062007165023239	9.9307995	3.1513171
9.079588966424197	10.215821	3.19622
9.097170982017108	10.373917	3.2208564
9.11475321222372	11.318192	3.364252
9.132335657465825	12.259915	3.5014162
9.149918318165264	12.3195505	3.5099218
9.167501194743924	12.934107	3.596402
9.18508428762374	12.642348	3.555608
9.202667597226693	12.649497	3.5566132
9.220251123974803	12.309546	3.5084963
9.237834868290143	11.971689	3.460013
9.255418830594836	11.722376	3.4237955
9.273003011311046	11.16737	3.3417616
9.290587410860985	10.896211	3.300941
9.308172029666911	10.182918	3.1910684
9.32575686815113	9.976753	3.1585999
9.343341926735997	8.877502	2.979514
9.360927205843916	8.695151	2.9487543
9.378512705897327	8.4812975	2.9122667
9.396098427318728	8.201363	2.8638022
9.413684370530664	8.032804	2.8342202
9.431270535955722	7.8446302	2.8008268
9.448856924016539	7.800944	2.793017
9.466443535135806	7.739003	2.7819064
9.484030369736251	7.8129563	2.7951665
9.501617428240658	7.771293	2.787704
9.519204711071852	7.7095447	2.7766068
9.536792218652714	7.718491	2.7782173
9.55437995140617	7.800419	2.792923
9.571967909755191	7.864027	2.8042872
9.589556094122802	7.928377	2.8157375
9.60714450493207	7.9213142	2.814483
9.624733142606116	7.9444156	2.818584
9.642322007568108	7.9895906	2.8265865
9.659911100241267	8.031191	2.8339355
9.677500421048851	8.027958	2.8333652
9.695089970414175	8.048197	2.8369343
9.712679748760609	8.025071	2.8328557
9.730269756511557	8.093609	2.8449268
9.747859994090492	8.180455	2.8601496
9.765450461920915	8.194556	2.8626134
9.78304116042639	8.134671	2.8521345
9.800632090030527	8.138302	2.8527708
9.81822325115699	8.25156	2.8725529
9.835814644229481	8.368395	2.8928177
9.853406269671762	8.3495455	2.889558
9.870998127907646	8.308813	2.8825011
9.888590219360985	8.235558	2.869766
9.906182544455698	8.321511	2.884703
9.923775103615734	8.368336	2.8928075
9.941367897265108	8.345807	2.888911
9.958960925827878	8.30564	2.8819509
9.97655418972816	8.271713	2.8760586
9.994147689390106	8.284217	2.8782315
10.011741425237934	8.317442	2.8839977
10.029335397695904	8.356536	2.8907673
10.04692960718833	8.415342	2.9009209
10.06452405413958	8.452473	2.9073136
10.082118738974064	8.46792	2.909969
10.099713662116246	8.432813	2.9039307
10.117308823990651	8.346012	2.8889465
10.134904225021844	8.317338	2.8839796
10.152499865634445	8.331596	2.8864505
10.170095746253125	8.316906	2.8839047
10.18769186730261	8.303718	2.881617
10.205288229207675	8.248689	2.8720531
10.222884832393145	8.214598	2.866112
10.2404816772839	8.176078	2.859384
10.258078764304868	8.089398	2.8441868
10.275676093881035	8.07242	2.8412006
10.293273666437438	8.064814	2.8398616
10.310871482399158	8.190878	2.861971
10.32846954219134	8.240169	2.8705695
10.346067846239173	8.265027	2.874896
10.363666394967908	8.200642	2.8636763
10.38126518880283	8.204173	2.8642929
10.398864228169298	8.289916	2.8792214
10.416463513492713	8.393414	2.8971388
10.434063045198531	8.331729	2.8864734
10.451662823712262	8.233736	2.8694487
10.469262849459467	8.170112	2.8583407
10.486863122865758	8.071526	2.841043
10.504463644356806	8.000664	2.8285444
10.522064414358338	7.92325	2.814827
10.539665433296118	7.8287215	2.7979853
10.557266701595987	7.832845	2.798722
10.574868219683818	7.7833815	2.7898712
10.592469987985552	7.820758	2.7965617
10.610072006927185	7.732815	2.780794
10.627674276934751	7.576097	2.752471
10.64527679843435	7.3816504	2.7169192
10.662879571852143	7.2206454	2.687126
10.680482597614331	7.157066	2.6752694
10.698085876147173	7.1242633	2.6691315
10.715689407876988	7.036798	2.6526964
10.733293193230146	6.9005065	2.6268816
10.750897232633072	6.749804	2.5980384
10.76850152651225	6.643819	2.5775607
10.786106075294207	6.5902205	2.5671425
10.803710879405534	6.5593777	2.5611281
10.821315939272877	6.5076766	2.551015
10.83892125532294	6.4115596	2.5321057
10.856526827982472	6.310446	2.5120602
10.874132657678285	6.2247047	2.4949358
10.891738744837243	6.177578	2.4854734
10.909345089886271	6.095152	2.468836
10.926951693252343	6.009324	2.4513922
10.944558555362494	5.9414845	2.437516
10.96216567664381	5.903237	2.4296577
10.979773057523436	5.8717136	2.423162
10.997380698428573	5.8567176	2.4200656
11.014988599786477	5.759738	2.3999455
11.032596762024461	5.7334175	2.3944557
11.050205185569892	5.6691895	2.381006
11.067813870850198	5.62856	2.3724587
11.085422818292859	5.5679936	2.3596597
11.10303202832541	5.43121	2.3304956
11.120641501375454	5.3973513	2.32322
11.138251237870636	5.299769	2.3021226
11.155861238238671	5.267525	2.295109
11.173471502907317	5.212378	2.2830634
11.191082032304402	5.173273	2.274483
11.208692826857805	5.1881375	2.2777483
11.226303886995465	5.1006207	2.2584553
11.243915213145371	5.0118074	2.2387066
11.261526805735578	4.9042335	2.2145505
11.279138665194196	4.817629	2.1949098
11.296750791949393	4.768723	2.1837406
11.314363186429393	4.7627997	2.182384
11.331975849062479	4.7202735	2.172619
11.34958878027699	4.672982	2.161708
11.36720198050133	4.628242	2.151335
11.384815450163948	4.5805507	2.140222
11.402429189693366	4.5262966	2.1275096
11.420043199518153	4.4723234	2.1147869
11.437657480066942	63.39041	7.9618096
11.455272031768422	85.153625	9.227872
11.472886855051353	107.57374	10.371776
11.490501950344528	99.19996	9.959918
11.508117318076819	84.52552	9.193776
11.52573295867715	45.860012	6.772002
11.543348872574514	4.1468744	2.0363877
11.560965060197946	4.1138444	2.0282614
11.57858152197655	4.048585	2.0121095
11.59619825833949	3.980113	1.995022
11.613815269715985	3.985847	1.9964586
11.631432556535323	38.584476	6.2116404
11.649050119226837	83.1567	9.11903
11.666667958219929	93.52121	9.670636
11.68428607394406	107.75931	10.380718
11.701904466828756	82.580444	9.0873785
11.719523137303586	65.44886	8.090047
11.737142085798196	4.679712	2.1632643
11.754761312742286	3.7683103	1.9412136
11.772380818565619	3.6940944	1.9220027
11.790000603698015	3.665595	1.9145744
11.80762066856935	3.6536984	1.911465
11.825241013609572	3.6091526	1.8997769
11.842861639248683	3.586971	1.8939301
11.860482545916748	3.5503075	1.884226
11.878103734043883	3.52124	1.8764968
11.895725204060282	3.4911945	1.8684739
11.91334695639619	3.4093325	1.8464378
11.930968991481919	3.3853986	1.8399453
11.948591309747824	3.3623655	1.8336754
11.966213911624347	3.369834	1.8357108
11.98383679754198	3.3199742	1.8220797
12.001459967931268	3.2796695	1.8109858
12.019083423222835	3.223064	1.7952894
12.036707163847352	3.1862009	1.7849933
12.05433119023556	3.206365	1.7906326
12.071955502818259	3.2001739	1.788903
12.089580102026313	3.206183	1.7905817
12.107204988290643	3.1867416	1.7851447
12.12483016204224	3.114577	1.7648164
12.142455623712152	3.1078203	1.7629011
12.16008137373149	3.0922236	1.758472
12.177707412531431	3.086897	1.7569567
12.19533374054321	3.044962	1.7449819
12.212960358198126	3.067625	1.7514637
12.230587265927545	3.0653925	1.7508262
12.248214464162889	3.0558124	1.7480882
12.265841953335649	3.0518079	1.7469424
12.283469733877375	3.0453215	1.745085
12.301097806219685	3.028779	1.7403388
12.31872617079425	3.018475	1.7373759
12.336354828032825	2.9869716	1.7282858
12.353983778367205	2.9945464	1.7304758
12.371613022229262	2.9763107	1.7251987
12.389242560050928	2.9512942	1.717933
12.406872392264201	2.9074621	1.7051282
12.424502519301143	2.9081347	1.7053254
12.442132941593874	2.9560502	1.7193167
12.459763659574586	2.9568658	1.719554
12.477394673675532	2.9458005	1.7163335
12.49502598432903	2.9407809	1.7148706
12.51265759196746	2.88036	1.6971623
12.530289497023267	2.8556454	1.6898655
12.547921699928967	2.7775433	1.6665963
12.565554201117134	2.8015566	1.6737851
12.583187001020404	2.8196988	1.6791959
12.600820100071486	2.8219001	1.6798512
12.618453498703152	2.821777	1.6798146
12.636087197348235	2.853433	1.6892108
12.65372119643964	2.878312	1.696559
12.671355496410326	2.889754	1.6999277
12.68899009769333	2.885136	1.6985688
12.706625000721749	2.858822	1.6908052
12.724260205928752	2.9291322	1.7114707
12.741895713747551	2.964016	1.7216318
12.759531524611454	3.0057805	1.7337186
12.777167638953818	2.9648337	1.7218692
12.794804057208072	2.9812212	1.7266213
12.812440779807702	3.0471058	1.7455962
12.830077807186271	3.2323518	1.7978742
12.847715139777405	3.2715783	1.8087505
12.865352778014795	3.4861908	1.8671343
12.882990722332197	3.5808244	1.8923067
12.90062897316344	3.6034381	1.8982724
12.918267530942412	3.6655157	1.9145536
12.935906396103071	3.5724583	1.8900948
12.953545569079449	3.7456222	1.935361
12.971185050305628	3.5522923	1.8847526
12.988824840215775	3.593275	1.8955936
13.006464939244115	3.6090105	1.8997396
13.024105347824943	3.4776778	1.8648533
13.041746066392617	3.5577025	1.8861873
13.05938709538157	3.3708456	1.8359863
13.077028435226296	3.3877788	1.8405919
13.094670086361363	3.2881868	1.8133358
13.112312049221401	3.1814406	1.7836593
13.129954324241112	3.058667	1.7489045
13.147596911855258	2.8602276	1.6912208
13.165239812498685	2.8613296	1.6915464
13.182883026606293	2.8484051	1.6877218
13.200526554613058	2.7775636	1.6666024
13.218170396954017	2.722426	1.6499776
13.235814554064284	2.725797	1.6509987
13.253459026379034	2.7575424	1.6605849
13.271103814333523	2.7624607	1.6620651
13.288748918363058	2.7445738	1.6566756
13.306394338903031	2.6945775	1.6415168
13.32404007638889	2.6326067	1.6225309
13.341686131256164	2.6292033	1.6214818
13.359332503940449	2.5704942	1.6032761
13.376979194877402	2.5997005	1.6123587
13.394626204502751	2.6366987	1.6237915
13.412273533252307	2.7310243	1.6525811
13.429921181561937	2.7692828	1.6641163
13.447569149867581	2.789668	1.6702299
13.465217438605247	2.7889395	1.6700119
13.482866048211022	2.7316399	1.6527673
13.500514979121052	2.714773	1.6476568
13.518164231771568	2.6606913	1.6311625
13.535813806598844	2.6433694	1.6258442
13.553463704039254	2.6483634	1.6273793
13.571113924529229	2.6896791	1.6400242
13.588764468505275	2.7138526	1.6473775
13.606415336403956	2.7180228	1.6486428
13.624066528661917	2.7272644	1.6514431
13.641718045715882	2.804732	1.6747334
13.659369888002635	2.868588	1.6936907
13.67702205595903	2.9080954	1.7053138
13.694674550021993	2.935889	1.7134436
13.712327370628532	2.9767368	1.7253222
13.729980518215713	3.0756652	1.7537575
13.747633993220681	3.1673806	1.7797136
13.765287796080647	3.2562947	1.8045206
13.7829419272329	3.287511	1.8131495
13.800596387114801	3.2875552	1.8131616
13.818251176163775	3.3062441	1.818308
13.835906294817324	3.39077	1.8414043
13.853561743513023	3.476166	1.864448
13.871217522688525	3.5114038	1.873874
13.888873632781538	3.4664402	1.8618379
13.906530074229858	3.4633744	1.8610144
13.92418684747135	3.4854558	1.8669375
13.941843952943948	3.529236	1.8786261
13.959501391085665	3.4987507	1.8704947
13.977159162334578	3.4560244	1.8590386
13.994817267128846	3.4524906	1.8580879
14.012475705906693	3.3440793	1.8286824
14.030134479106424	3.2179637	1.7938683
14.047793587166414	3.0736992	1.7531968
14.065453030525108	3.015536	1.73653
14.083112809621026	3.0128076	1.7357441
14.100772924892766	2.9665248	1.7223603
14.118433376778997	2.9403884	1.7147561
14.136094165718458	2.875832	1.6958278
14.153755292149969	2.826891	1.681336
14.171416756512416	2.7411854	1.6556525
14.189078559244768	2.6509454	1.6281724
14.20674070078606	2.6030726	1.613404
14.224403181575408	2.5403664	1.5938526
14.242066002051999	2.4946208	1.5794369
14.259729162655093	2.4602273	1.5685111
14.277392663824022	2.4362686	1.560855
14.295056505998208	2.4274979	1.558043
14.312720689617128	2.4226282	1.5564795
14.330385215120348	2.4248426	1.5571907
14.348050082947497	2.4211643	1.556009
14.3657152935383	2.4235547	1.556777
14.383380847332528	2.4283338	1.5583112
14.401046744770051	2.4066393	1.5513347
14.418712986290798	2.400026	1.5492017
14.436379572334793	2.3621397	1.5369254
14.454046503342123	2.3465662	1.5318506
14.471713779752946	2.329551	1.5262867
14.489381402007504	2.323213	1.524209
14.507049370546113	2.3674972	1.5386673
14.524717685809168	2.385498	1.5445057
14.542386348237134	2.3890526	1.5456561
14.560055358270553	2.3718743	1.540089
14.577724716350051	2.3972487	1.5483052
14.595394422916325	2.4074776	1.5516049
14.61306447841015	2.4569416	1.5674634
14.63073488327237	2.4510982	1.5655984
14.648405637943917	2.481765	1.5753618
14.6660767428658	2.5049133	1.5826918
14.683748198479094	2.576606	1.605181
14.701420005224954	2.6238642	1.6198347
14.719092163544628	2.6719043	1.6345961
14.73676467387942	2.7082117	1.6456645
14.754437536670727	2.7218795	1.649812
14.772110752360014	2.724841	1.6507093
14.78978432138882	2.681322	1.6374743
14.807458244198777	2.700488	1.6433161
14.82513252123159	2.6689284	1.6336855
14.842807152929028	2.6780548	1.6364764
14.860482139732962	2.6563377	1.6298275
14.87815748208531	2.6644182	1.6323045
14.8958331804281	2.695277	1.6417298
14.91350923520342	2.6562045	1.6297866
14.931185646853438	2.704041	1.6443969
14.948862415820408	2.683708	1.6382027
14.966539542546656	2.7089407	1.6458861
14.98421702747459	2.6545885	1.6292908
15.001894871046696	2.6328645	1.6226103
15.019573073705542	2.6349344	1.6232481
15.037251635893766	2.640645	1.6250062
15.054930558054092	2.7035718	1.6442542
15.072609840629323	2.7191556	1.6489862
15.090289484062351	2.825157	1.6808203
15.107969488796124	3.11822	1.7658483
15.125649855273691	3.5827813	1.8928236
15.14333058393817	4.1313343	2.0325685
15.161011675232768	5.090384	2.256188
15.17869312960076	6.4657335	2.5427806
15.196374947485506	8.276578	2.8769042
15.214057129330447	11.3944025	3.3755596
15.231739675579114	15.963007	3.9953732
15.249422586675102	21.02272	4.585054
15.267105863062092	24.078333	4.9069676
15.284789505183847	24.403728	4.940013
15.302473513484218	22.182562	4.7098365
15.320157888407127	18.548683	4.306818
15.337842630396578	14.30139	3.7817178
15.355527739896656	11.106796	3.332686
15.37321321735153	8.634807	2.9385042
15.39089906320545	6.3795505	2.525777
15.408585277902748	4.816286	2.194604
15.42627186188783	3.7440634	1.9349582
15.443958815605198	3.1926355	1.7867948
15.461646139499424	2.888928	1.6996846
15.479333834015168	2.763969	1.6625189
15.497021899597165	2.723042	1.6501642
15.514710336690234	2.685397	1.6387181
15.53239914573928	2.6316237	1.622228
15.550088327189297	2.5697033	1.6030294
15.567777881485336	2.5442002	1.5950549
15.58546780907256	2.4788606	1.5744398
15.6031581103962	2.4398878	1.562014
15.620848785901568	2.4142811	1.5537957
15.638539836034063	2.4205	1.5557957
15.656231261239173	2.447488	1.564445
15.673923061962451	2.445042	1.563663
15.691615238649552	2.4323418	1.5595967
15.709307791746202	2.4264424	1.5577042
15.727000721698221	2.4094825	1.5522507
15.744694028951498	2.4124262	1.5531987
15.76238771395202	2.3740613	1.5407989
15.780081777145844	2.4011629	1.5495687
15.797776218979125	2.3880167	1.5453209
15.815471039898094	2.4093869	1.55222
15.833166240349064	2.3640356	1.5375421
15.850861820778437	2.341422	1.5301706
15.868557781632699	2.3484898	1.5324783
15.886254123358412	2.3591535	1.5359536
15.903950846402232	2.3867092	1.5448978
15.921647951210897	2.3955276	1.5477492
15.939345438231225	2.4062767	1.5512178
15.957043307910133	2.3664205	1.5383174
15.974741560694602	2.3671088	1.5385411
15.992440197031714	2.3748126	1.5410427
16.01013921736862	2.3887594	1.5455612
16.02783862215259	2.4021647	1.5498918
16.045538411830933	2.3693948	1.5392839
16.06323858685107	2.357868	1.5355351
16.080939147660512	2.3531137	1.5339862
16.09864009470684	2.3585484	1.5357566
16.11634142843774	2.366427	1.5383195
16.134043149300954	2.3945422	1.5474309
16.15174525774433	2.4353864	1.5605725
16.169447754215817	2.449177	1.5649847
16.18715063916342	2.4481988	1.5646721
16.204853913035244	2.4233165	1.5567005
16.222557576279478	2.4579003	1.5677692
16.240261629344403	22.458817	4.7390733
16.257966072678386	42.99396	6.556978
16.275670906729868	38.10483	6.172911
16.293376131947387	2.5230353	1.5884066
16.31108174877957	2.5315435	1.5910825
16.328787757675133	2.518746	1.5870557
16.34649415908287	2.5000381	1.5811509
16.364200953451657	2.5490408	1.5965716
16.38190814123048	2.6412094	1.6251798
16.39961572286839	2.6895041	1.6399708
16.41732369881455	2.743626	1.6563895
16.43503206951817	2.7642202	1.6625944
16.45274083542859	2.7678013	1.663671
16.47044999699522	2.7335002	1.6533301
16.488159554667558	2.7666209	1.6633162
16.505869508895184	2.8418553	1.6857803
16.523579860127786	2.9006371	1.7031257
16.541290608815117	2.9757564	1.725038
16.559001755407035	2.9860306	1.7280135
16.57671330035348	3.0565662	1.7483038
16.59442524410448	3.1134596	1.7644998
16.61213758711015	3.2191122	1.7941885
16.629850329820705	3.2924566	1.8145127
16.647563472686436	3.3627543	1.8337815
16.665277016157724	3.402434	1.8445688
16.682990960685053	3.4177382	1.8487126
16.70070530671898	3.430452	1.8521479
16.718420054710155	3.4281194	1.8515182
16.736135205109335	3.5257506	1.8776982
16.753850758367335	3.5967233	1.896503
16.771566714935087	3.712299	1.9267328
16.789283075263597	3.7524636	1.9371277
16.80699983980398	3.8100488	1.9519346
16.82471700900741	3.8432002	1.9604082
16.84243458332518	3.873083	1.9680151
16.860152563208665	3.9193642	1.9797385
16.87787094910932	3.9885132	1.9971262
16.89558974147871	4.1325192	2.0328598
16.913308940768466	4.257688	2.0634165
16.931028547430333	4.3187013	2.0781486
16.94874856191613	4.3248463	2.0796266
16.966468984677785	4.3355284	2.0821931
16.98418981616729	4.3594494	2.0879295
17.00191105683676	4.424388	2.1034229
17.019632707138374	4.4938836	2.1198783
17.03735476752442	4.5668283	2.137014
17.05507723844728	4.5861254	2.141524
17.072800120359403	4.6149096	2.1482341
17.090523413713353	4.612384	2.1476462
17.108247118961785	4.6328993	2.1524172
17.125971236557437	4.6451097	2.1552517
17.143695766953133	4.660049	2.1587148
17.161420710601806	4.6539054	2.1572912
17.179146067956477	4.6426373	2.154678
17.19687183947025	4.651744	2.1567903
17.21459802559634	4.6569333	2.1579928
17.232324626788028	4.6825757	2.163926
17.25005164349871	4.6715407	2.1613748
17.267779076181863	4.647623	2.1558347
17.285506925291074	4.587653	2.1418808
17.30323519127999	4.5914173	2.1427593
17.320963874602384	4.5639725	2.1363456
17.33869297571211	4.5454593	2.1320083
17.356422495063114	4.579767	2.140039
17.37415243310944	4.5995502	2.1446562
17.391882790305218	4.5715322	2.1381142
17.40961356710468	4.550428	2.1331732
17.42734476396215	4.5273166	2.1277492
17.445076381332044	4.521713	2.126432
17.462808419668868	4.598375	2.1443822
17.48054087942723	4.761134	2.1820023
17.498273761061835	5.1292553	2.264786
17.51600706502747	5.578231	2.3618279
17.533740791779024	6.311254	2.5122209
17.551474941771485	7.753252	2.7844663
17.56920951545993	8.871433	2.9784951
17.586944513299528	11.04871	3.32396
17.60467993574556	12.723692	3.5670285
17.622415783253373	14.308847	3.7827036
17.64015205627843	15.50281	3.9373608
17.657888755276293	16.424965	4.0527725
17.675625880702604	16.983633	4.1211205
17.69336343301311	16.87962	4.1084814
17.71110141266366	16.176483	4.022
17.728839820110178	15.24636	3.9046588
17.746578655808705	14.408251	3.7958202
17.764317920215372	13.041442	3.6112936
17.7820576137864	11.58535	3.4037259
17.79979773697811	9.615822	3.1009388
17.81753829024692	7.768512	2.787205
17.835279274049356	6.0449386	2.4586456
17.85302068884201	4.9395833	2.2225173
17.870762535081607	4.234022	2.057674
17.888504813224934	3.9198434	1.9798595
17.90624752372891	3.6750534	1.9170429
17.923990667050536	3.584557	1.8932927
17.941734243646895	3.5524044	1.8847823
17.959478253975185	3.5457864	1.8830259
17.9772226984927	3.4922566	1.8687581
17.994967577656833	3.4450274	1.8560785
18.01271289192506	3.4144166	1.847814
18.030458641754965	3.390981	1.8414617
18.04820482760425	3.3706625	1.8359364
18.06595144993067	3.3678634	1.835174
18.083698509192125	3.3039603	1.8176799
18.101446005846576	3.1948683	1.7874194
18.119193940352105	3.1402082	1.7720633
18.136942313166887	3.1814268	1.7836554
18.1546911247492	3.268692	1.8079524
18.1724403755574	3.2672765	1.8075609
18.19019006604997	3.2139823	1.7927583
18.207940196685467	3.1288574	1.7688576
18.225690767922575	3.1082478	1.7630223
18.243441780220046	3.0968802	1.7597955
18.261193234036764	3.101159	1.7610108
18.278945129831676	3.0896604	1.757743
18.29669746806386	3.0556934	1.7480541
18.314450249192483	3.024708	1.7391688
18.3322034736768	3.0051281	1.7335305
18.349957141976184	3.0144928	1.7362294
18.3677112545501	3.0453286	1.745087
18.385465811858108	3.058973	1.748992
18.403220814359884	3.075909	1.753827
18.420976262515172	3.04715	1.7456087
18.43873215678387	3.0615144	1.7497184
18.456488497625923	3.1302643	1.7692553
18.474245285501407	3.2024028	1.7895259
18.492002520870486	3.30876	1.8189996
18.50976020419343	3.3782997	1.8380152
18.527518335930615	3.6923747	1.9215553
18.545276916542516	4.253822	2.0624795
18.563035946489688	4.458043	2.1114078
18.580795426232832	4.924002	2.2190092
18.598555356232698	4.7941866	2.189563
18.616315736950185	5.1177115	2.2622359
18.63407656884626	4.744868	2.1782718
18.65183785238201	4.9795675	2.2314944
18.669599588018617	4.742643	2.177761
18.68736177621737	4.7386065	2.176834
18.705124417439652	4.6588306	2.1584325
18.72288751214696	4.4587445	2.111574
18.740651060800886	4.64157	2.1544304
18.758415063863115	4.375311	2.0917244
18.77617952179546	4.552459	2.133649
18.793944435059814	4.247158	2.0608635
18.811709804118184	4.257986	2.0634887
18.829475629432675	4.2108903	2.0520453
18.8472419114655	4.0126624	2.003163
18.86500865067897	4.137821	2.0341635
18.88277584753551	3.842284	1.9601744
18.90054350249763	3.831105	1.9573209
18.918311616027957	3.4408522	1.8549534
18.936080188589226	3.3029385	1.8173988
18.953849220644265	2.982656	1.7270367
18.971618712656007	2.8200696	1.6793063
18.9893886650875	2.8068278	1.675359
19.007159078401887	8.004465	2.8292162
19.024929953062408	32.88702	5.7347207
19.042701289532435	32.780827	5.7254543
19.060473088275405	25.321684	5.0320654
19.07824534975489	2.5907612	1.6095842
19.096018074434568	2.5849767	1.6077863
19.113791262778197	2.5875862	1.6085976
19.13156491524966	2.6117053	1.6160772
19.149339032312945	2.5928884	1.6102449
19.167113614432136	2.589125	1.6090758
19.184888662071433	2.5885544	1.6088985
19.202664175695123	2.575569	1.6048579
19.220440155767623	2.5363178	1.5925821
19.238216602753447	2.5111024	1.5846459
19.2559935171172	2.5233715	1.5885123
19.27377089932361	2.5305498	1.5907701
19.291548749837514	2.5595114	1.5998473
19.309327069123835	2.5677426	1.6024177
19.32710585764763	2.5557823	1.5986814
19.344885115874032	2.5200806	1.5874761
19.362664844268313	2.492945	1.5789063
19.380445043295822	2.4985445	1.5806785
19.39822571342203	2.5314088	1.5910401
19.41600685511252	2.5656905	1.6017773
19.43378846883297	2.545605	1.5954952
19.451570555049173	2.51338	1.5853643
19.469353114227037	2.4987159	1.5807327
19.48713614683254	2.482181	1.5754939
19.50491965333182	2.4671078	1.5707029
19.52270363419109	2.4682598	1.5710696
19.540488089876686	2.4923701	1.5787243
19.55827302085503	2.5022237	1.5818418
19.576058427592674	2.5394788	1.5935742
19.593844310556282	2.5509627	1.5971733
19.611630670212598	2.514756	1.5857983
19.629417507028506	2.459897	1.5684059
19.64720482147098	2.4479828	1.5646031
19.6649926140071	2.480627	1.5750006
19.682780885104084	2.5341754	1.5919094
19.70056963522921	2.525725	1.589253
19.718358864849908	2.516751	1.5864271
19.7361485744337	2.5187142	1.5870458
19.753938764448215	2.5243812	1.5888301
19.771729435361202	2.497928	1.5804834
19.789520587640506	2.5234327	1.5885316
19.807312221754092	2.5340886	1.5918821
19.825104338170043	2.4994984	1.5809802
19.842896937356517	2.4978132	1.5804472
19.860690019781824	2.52043	1.5875863
19.87848358591436	2.5846906	1.6076972
19.896277636222635	2.5603704	1.6001158
19.914072171175278	2.5071425	1.5833958
19.931867191241015	2.4801192	1.5748395
19.94966269688869	2.521266	1.5878495
19.967458688587264	2.5363417	1.5925896
19.985255166805807	2.4960697	1.5798955
20.00305213201348	2.42562	1.5574403
20.020849584679578	2.408618	1.5519723
20.038647525273507	2.4319162	1.5594603
20.05644595426477	2.446171	1.564024
20.07424487212299	2.4277937	1.5581379
20.092044279317903	2.4226437	1.5564843
20.109844176319353	2.4143636	1.5538223
20.127644563597304	2.4087286	1.5520079
20.145445441621817	2.3910627	1.5463061
20.16324681086307	2.389078	1.5456642
20.181048671791373	2.4064586	1.5512764
20.198851024877122	2.4364748	1.5609212
20.216653870590836	2.4155948	1.5542184
20.234457209403146	2.405562	1.5509874
20.252261041784802	2.3793786	1.5425234
20.270065368206662	2.3677585	1.5387523
20.287870189139685	2.3688586	1.5391097
20.305675505054968	2.415611	1.5542237
20.323481316423702	2.4041321	1.5505264
20.341287623717207	2.3977785	1.5484762
20.359094427406884	2.3679762	1.538823
20.376901727964288	2.3348978	1.5280372
20.39470952586107	2.2725606	1.5075015
20.41251782156899	2.28689	1.5122467
20.430326615559935	2.3221676	1.523866
20.448135908305886	2.3623977	1.5370094
20.465945700278965	2.329698	1.5263349
20.483755991951384	2.3279114	1.5257494
20.50156678379548	2.3405893	1.5298984
20.519378076283708	2.3443801	1.5311369
20.537189869888635	2.305861	1.5185062
20.55500216508294	2.3171246	1.5222105
20.572814962339415	2.2963274	1.5153638
20.59062826213098	2.2965627	1.5154414
20.60844206493066	2.2847228	1.5115299
20.626256371211593	2.280347	1.5100818
20.644071181447032	2.2751148	1.5083483
20.66188649611036	2.2712312	1.5070604
20.67970231567506	2.280902	1.5102655
20.697518640614742	2.289587	1.5131382
20.715335471403122	2.2977395	1.5158297
20.73315280851404	2.286576	1.5121429
20.750970652421447	2.2732472	1.5077292
20.768789003599412	2.2418778	1.4972901
20.786607862522136	2.241741	1.4972445
20.8044272296639	2.2426643	1.4975528
20.82224710549913	2.2508998	1.5002999
20.84006749050237	2.2451096	1.498369
20.857888385148268	3.8259933	1.9560146
20.8757097899116	45.945663	6.778323
20.893531705267254	64.80264	8.050009
20.911354131690224	83.80507	9.1545105
20.92917706965566	69.0487	8.309555
20.94700051963877	50.14744	7.0814857
20.96482448211493	29.393562	5.421583
20.982648957559622	4.134639	2.0333812
21.00047394644843	2.2440841	1.4980267
21.01829944925707	2.2805707	1.5101559
21.036125466461375	2.2863023	1.5120523
21.053951998537297	2.281948	1.5106118
21.071779045960906	2.2702765	1.5067437
21.089606609208378	2.2365558	1.4955119
21.10743468875603	2.2133088	1.4877193
21.12526328508028	2.2083948	1.4860669
21.143092398657675	2.2407472	1.4969126
21.16092202996488	2.247086	1.4990283
21.17875217947867	2.2400177	1.4966688
21.19658284767596	2.200022	1.4832472
21.21441403503377	2.1622694	1.4704657
21.232245742029225	2.1247873	1.4576651
21.2500779691396	2.1196446	1.4559
21.26791071684227	2.1426702	1.4637862
21.28574398561475	2.1426494	1.4637792
21.30357777593465	2.112473	1.453435
21.321412088279704	2.1105926	1.4527879
21.339246923127792	2.120433	1.4561707
21.357082280956888	2.1161788	1.4547092
21.3749181622451	2.1338344	1.460765
21.392754567470647	2.1406772	1.4631053
21.41059149711187	2.1483507	1.4657253
21.42842895164726	2.1221223	1.4567506
21.446266931555378	2.1011329	1.4495285
21.464105437314945	2.0789406	1.4418532
21.481944469404798	2.1152177	1.4543788
21.49978402830388	2.1293674	1.4592352
21.51762411449127	2.1081395	1.4519434
21.53546472844617	2.076236	1.440915
21.553305870647876	2.0808294	1.442508
21.571147541575865	2.081079	1.4425945
21.58898974170967	2.0935338	1.4469049
21.60683247152899	2.0776746	1.4414141
21.62467573151363	2.076194	1.4409004
21.642519522143523	2.1050603	1.4508826
21.660363843898722	2.115476	1.4544675
21.6782086972594	2.1089916	1.4522368
21.696054082705864	2.06173	1.4358726
21.713900000718535	2.049453	1.431591
21.73174645177795	2.0370927	1.4272676
21.749593436364794	2.0315757	1.4253335
21.767440954959845	2.015642	1.419733
21.785289008044032	2.0158262	1.4197979
21.803137596098388	1.994202	1.4121622
21.820986719604086	1.9684379	1.4030102
21.838836379042412	1.9643503	1.4015528
21.85668657489478	1.9727175	1.4045346
21.87453730764273	1.9814789	1.4076501
21.892388577767914	1.9947159	1.4123441
21.91024038575213	1.9837351	1.4084513
21.928092732077285	1.9898313	1.4106138
21.945945617225426	2.0036316	1.415497
21.963799041678694	1.9901102	1.4107126
21.981653005919398	31.312208	5.5957313
21.999507510429943	78.1571	8.840651
22.01736255569286	73.11399	8.550672
22.035218142190818	4.164965	2.0408247
22.05307427040661	1.9438754	1.3942293
22.07093094082315	1.9494607	1.3962309
22.088788153923474	1.9797778	1.4070457
22.106645910190746	1.9763927	1.4058423
22.12450421010827	1.9613138	1.4004692
22.142363054159464	1.9638164	1.4013623
22.16022244282787	1.9576114	1.3991467
22.178082376597164	1.9585032	1.3994653
22.195942855951145	1.9539112	1.3978237
22.213803881373742	1.9510679	1.3968064
22.231665453349002	1.9415141	1.3933823
22.24952757236111	1.9752069	1.4054205
22.26739023889438	1.992145	1.4114337
22.28525345343323	2.009206	1.4174646
22.30311721646225	1.9935284	1.4119236
22.320981528466113	2.0002475	1.414301
22.33884638992964	1.983568	1.408392
22.356711801337788	1.9641612	1.4014853
22.37457776317561	1.9678503	1.4028009
22.392444275928337	1.9881139	1.410005
22.410311340081282	1.9848454	1.4088454
22.428178956119904	1.9345834	1.390893
22.446047124529805	1.9223013	1.3864708
22.46391584579669	1.9527112	1.3973944
22.481785120406414	1.9734718	1.4048032
22.49965494884496	1.9541782	1.3979193
22.51752533159841	1.9637669	1.4013447
22.53539626915302	1.9830288	1.4082005
22.553267761995137	2.0040092	1.4156303
22.571139810611264	1.9721795	1.4043431
22.589012415488025	1.9705583	1.4037658
22.60688557711216	1.9658166	1.4020758
22.624759295970566	1.9441496	1.3943276
22.642633572550263	1.9512814	1.3968828
22.660508407338362	1.9706483	1.4037979
22.67838380082217	1.972181	1.4043436
22.696259753489077	1.9720768	1.4043065
22.714136265826614	1.9526118	1.3973589
22.73201333832246	1.9415818	1.3934065
22.74989097146439	1.9623268	1.4008307
22.76776916574035	1.9567105	1.3988247
22.785647921638393	1.9104596	1.3821938
22.803527239646712	1.9017357	1.3790343
22.82140712025363	1.9692315	1.4032931
22.839287563947593	1.9849135	1.4088696
22.85716857121719	1.9426687	1.3937964
22.875050142551135	1.890419	1.3749251
22.892932278438277	1.8956661	1.3768319
22.910814979367604	1.9256243	1.3876686
22.928698245828222	1.9106212	1.3822522
22.946582078309387	1.8863461	1.3734431
22.96446647730047	1.9003693	1.3785388
22.98235144329098	1.8852112	1.37303
23.000236976770562	1.8824282	1.3720161
23.018123078229	1.8788887	1.3707256
23.03600974815619	1.885052	1.3729719
23.053896987042194	1.8943195	1.3763428
23.071784795377173	1.9203005	1.3857491
23.08967317365145	1.9212561	1.3860939
23.10756212235546	1.9364847	1.3915763
23.125451641979787	1.9227499	1.3866326
23.143341733015134	1.9225426	1.3865578
23.161232395952357	1.8954602	1.3767571
23.179123631282426	1.9064459	1.380741
23.197015439496468	1.9232107	1.3867987
23.214907821085717	1.9466726	1.3952321
23.23280077654157	1.9512658	1.3968772
23.250694306355538	1.9413717	1.3933312
23.268588411019277	1.9604795	1.4001713
23.28648309102458	1.9788847	1.4067284
23.304378346863356	1.9849119	1.408869
23.322274179027676	1.9256039	1.3876613
23.340170588009723	1.8926316	1.3757294
23.358067574301852	1.8759751	1.3696624
23.37596513839651	1.9535933	1.39771
23.39386328078629	2.0135903	1.4190103
23.411762001963947	1.9971942	1.4132212
23.429661302422353	1.9370815	1.3917907
23.4475611826545	1.9102584	1.382121
23.46546164315356	1.8966558	1.3771913
23.48336268441279	1.907651	1.3811774
23.501264306925638	1.9273227	1.3882805
23.51916651118564	1.9348712	1.3909965
23.537069297686497	1.9158453	1.3841406
23.554972666922037	1.8957604	1.3768661
23.57287661938623	1.9164824	1.3843708
23.59078115557318	1.9397852	1.3927617
23.608686275977128	1.9231392	1.386773
23.62659198109246	1.8863622	1.373449
23.6444982714137	1.8727216	1.3684741
23.66240514743549	1.9135423	1.3833084
23.68031260965263	1.9245522	1.3872823
23.698220658560068	1.9258945	1.387766
23.716129294652845	1.9451325	1.39468
23.7340385184262	1.9478151	1.3956414
23.75194833037546	1.9155868	1.3840473
23.769858730996123	1.8710386	1.3678591
23.78776972078382	1.8489254	1.3597519
23.80568130023431	1.8780355	1.3704144
23.823593469843495	1.8922567	1.3755932
23.841506230107424	1.9137168	1.3833715
23.859419581522275	1.8853891	1.3730947
23.87733352458438	1.8585078	1.363271
23.89524805979019	1.8220406	1.3498298
23.913163187636318	1.825763	1.351208
23.931078908619508	1.8955556	1.3767918
23.948995223236633	1.9707232	1.4038244
23.966912131984735	2.0306768	1.4250182
23.98482963536096	2.0876753	1.444879
24.002747733862616	2.0800092	1.4422237
24.020666427987155	2.0203001	1.4213727
24.038585718232156	1.9543056	1.3979648
24.056505605095353	1.9395044	1.3926609
24.074426089074617	1.9830617	1.4082122
24.092347170667946	2.0644274	1.4368116
24.110268850373515	2.0839164	1.4435776
24.128191128689586	2.077587	1.4413837
24.146114006114626	1.9954594	1.4126073
24.164037483147187	2.0113926	1.4182358
24.181961560286005	2.026217	1.4234525
24.199886238029926	2.0561774	1.4339377
24.21781151687797	2.0786896	1.4417661
24.235737397329274	2.082591	1.4431186
24.253663879883135	2.0786521	1.4417531
24.271590965038975	2.090696	1.4459239
24.289518653296376	2.0610075	1.4356209
24.30744694515505	1.991492	1.4112023
24.32537584111486	1.9979694	1.4134954
24.34330534167581	2.0352669	1.4266278
24.361235447338046	2.0683079	1.4381613
24.379166158601876	2.0802672	1.4423132
24.39709747596772	2.0646045	1.4368732
24.41502939993615	2.045108	1.4300728
24.432961931007917	2.023013	1.4223267
24.450895069683856	2.0023615	1.4150482
24.468828816465	1.9587693	1.3995605
24.4867631718525	1.9101679	1.3820883
24.504698136347656	1.9201555	1.3856968
24.52263371045192	1.9162904	1.3843014
24.540569894666874	1.9565903	1.3987818
24.558506689494266	2.0167649	1.4201285
24.57644409543597	2.0227337	1.4222285
24.594382112994012	1.9831414	1.4082406
24.61232074267057	1.9215245	1.3861907
24.630259984967953	1.9147978	1.3837622
24.64819984038863	1.9595486	1.3998388
24.66614030943522	2.000856	1.4145161
24.684081392610462	1.9969683	1.4131413
24.702023090417274	1.9653486	1.4019089
24.7199654033587	1.9648031	1.4017143
24.737908331937927	2.0228152	1.4222571
24.755851876658305	2.0564883	1.4340461
24.773796038023324	2.056336	1.433993
24.79174081653661	2.0433729	1.4294659
24.809686212701962	2.0661724	1.4374187
24.827632227023294	2.0705688	1.4389471
24.8455788600047	2.0981002	1.448482
24.8635261121504	2.122826	1.4569921
24.88147398396475	2.0999398	1.449117
24.899422475952303	2.0624156	1.4361113
24.917371588617698	2.0540688	1.4332023
24.935321322465768	2.1087883	1.4521668
24.953271678001478	2.2122736	1.4873713
24.97122265572994	2.4266376	1.5577669
24.989174256156414	2.7424917	1.656047
25.00712647978632	3.2034075	1.7898066
25.02507932712521	3.7377553	1.9333276
25.043032798678798	4.2915235	2.0715992
25.060986894952933	4.904242	2.2145524
25.078941616453637	5.617982	2.3702283
25.096896963687055	6.5408754	2.5575135
25.114852937159508	7.611538	2.7589016
25.132809537377444	8.153335	2.8554044
25.150766764847468	8.204973	2.8644323
25.168724620076347	7.6948824	2.7739651
25.186683103570985	6.662072	2.581099
25.204642215838426	5.55122	2.3561027
25.222601957385894	4.2102346	2.0518856
25.24056232872074	3.1893175	1.785866
25.25852333035048	2.6502862	1.62797
25.276484962782778	2.3547046	1.5345047
25.294447226525435	2.1529658	1.4672987
25.312410122086423	2.0202787	1.421365
25.330373649973843	1.915937	1.3841738
25.348337810695988	1.8926754	1.3757454
25.366302604761245	1.9218928	1.3863235
25.384268032678207	1.9129535	1.3830956
25.40223409495558	1.8920931	1.3755337
25.420200792102257	1.8867043	1.3735735
25.438168124627246	1.8907595	1.3750489
25.45613609303974	1.8721473	1.3682643
25.474104697849057	1.8871865	1.373749
25.492073939564698	1.8978854	1.3776376
25.510043818696285	1.9070129	1.3809464
25.528014335753614	1.9161958	1.3842672
25.54598549124664	1.891106	1.3751749
25.56395728568544	1.871463	1.3680142
25.58192971958028	1.8589349	1.3634276
25.59990279344156	1.8907142	1.3750324
25.617876507779833	1.898011	1.3776832
25.635850863105826	1.9148378	1.3837767
25.653825859930386	1.9280062	1.3885267
25.671801498764548	1.9208214	1.385937
25.68977778011949	1.8977066	1.3775728
25.707754704506524	1.8682946	1.3668557
25.725732272437153	1.8862033	1.3733912
25.743710484423012	1.8816422	1.3717296
25.761689340975888	1.8882387	1.3741319
25.77966884260774	1.8435348	1.3577683
25.797648989830662	1.8606704	1.364064
25.815629783156922	1.895115	1.3766317
25.83361122309895	1.9071276	1.3809879
25.85159331016929	1.8663992	1.3661622
25.869576044880695	1.8199015	1.3490373
25.887559427746034	1.8131127	1.3465188
25.90554345927836	1.8227103	1.3500779
25.92352813999086	1.8590634	1.3634747
25.94151347039689	1.8487564	1.3596898
25.959499451009965	1.8373722	1.355497
25.97748608234374	1.8342223	1.3543346
25.995473364912062	1.8457983	1.3586016
26.013461299228904	1.8407917	1.3567578
26.03144988580839	1.8761567	1.3697287
26.04943912516483	1.8767544	1.3699468
26.067429017812675	1.8540087	1.3616198
26.085419564266537	1.8241799	1.350622
26.103410765041186	1.7923895	1.3388015
26.12140262065155	1.8174264	1.3481196
26.139395131612723	1.8550923	1.3620178
26.157388298439948	1.8959465	1.3769337
26.17538212164861	1.8659068	1.365982
26.193376601754295	1.8032209	1.3428406
26.211371739272714	1.7865988	1.3366371
26.229367534719746	1.8078008	1.3445448
26.247363988611433	1.8201585	1.3491325
26.26536110146397	1.8142667	1.3469472
26.283358873793727	1.8628572	1.3648653
26.301357306117204	1.8678031	1.366676
26.319356398951104	1.8049496	1.3434842
26.33735615281224	1.7727454	1.3314449
26.35535656821762	1.8093336	1.3451147
26.373357645684404	1.8111458	1.3457881
26.39135938572991	1.8293492	1.3525343
26.409361788871614	1.7878414	1.3371019
26.427364855627165	1.75562	1.3249981
26.445368586514352	1.7573149	1.3256376
26.46337298205115	1.7467268	1.3216379
26.48137804275568	1.7880921	1.3371956
26.499383769146217	1.8493329	1.3599018
26.517390161741215	1.8728333	1.368515
26.53539722105928	1.8325822	1.353729
26.553404947619182	1.7967218	1.3404186
26.571413341939856	1.7989601	1.3412532
26.589422404540397	1.8538109	1.3615472
26.60743213594006	1.8708448	1.3677883
26.62544253665827	1.8328335	1.3538219
26.64345360721459	1.7743634	1.3320524
26.66146534812879	1.7789176	1.3337607
26.679477759920758	1.7923712	1.3387947
26.69749084311057	1.7763929	1.3328139
26.71550459821847	1.7716599	1.3310372
26.733519025764842	1.7682431	1.329753
26.751534126270258	1.8155185	1.3474118
26.769549900255434	1.8378134	1.3556597
26.787566348241267	1.8413811	1.356975
26.80558347074881	1.8206685	1.3493215
26.823601268299267	1.8116262	1.3459667
26.841619741414036	1.7740905	1.33195
26.85963889061465	1.7589378	1.3262495
26.877658716422832	1.7853136	1.3361562
26.89567921936045	1.8197657	1.3489869
26.913700399949544	1.8068185	1.3441795
26.93172225871233	1.8048768	1.343457
26.949744796171174	1.822601	1.3500373
26.967768012848605	1.8086019	1.3448427
26.98579190926733	1.7691511	1.3300943
27.003816485950225	1.7649018	1.3284961
27.021841743420318	1.7891432	1.3375885
27.039867682200814	1.7911805	1.3383499
27.057894302815072	1.7758954	1.3326273
27.07592160578664	1.7765846	1.3328859
27.0939495916392	1.785602	1.3362641
27.111978260896635	1.7935416	1.3392317
27.13000761408296	1.8072959	1.344357
27.148037651722397	1.8444508	1.3581057
27.166068374339304	1.8164039	1.3477403
27.184099782458215	1.8114853	1.3459142
27.20213187660384	1.7916754	1.3385348
27.22016465730105	1.82164	1.3496815
27.23819812507487	1.8086609	1.3448646
27.256232280450533	1.77919	1.3338628
27.274267123953383	1.7508408	1.3231934
27.292302656108987	1.7668108	1.3292143
27.31033887744306	1.7809389	1.3345182
27.32837578848146	1.8423648	1.3573374
27.34641338975026	1.8651714	1.3657128
27.364451681775673	1.8412647	1.356932
27.382490665084074	1.784079	1.3356942
27.400530340202046	1.7766964	1.3329278
27.41857070765629	1.7975498	1.3407273
27.436611767973726	1.8378302	1.3556659
27.454653521681404	1.7762907	1.3327756
27.472695969306564	1.7373171	1.3180733
27.490739111376627	1.7618382	1.3273425
27.508782948419153	1.7278932	1.3144935
27.526827480961902	1.7536485	1.3242539
27.54487270953279	1.7592793	1.3263782
27.562918634659898	1.8007661	1.3419262
27.580965256871508	1.8393624	1.356231
27.599012576696026	1.8450539	1.3583276
27.617060594662068	1.832726	1.353782
27.63510931129842	1.8349797	1.3546143
27.65315872713401	1.8125988	1.3463279
27.67120884269797	1.875546	1.3695058
27.68925965851958	1.9406202	1.3930614
27.707311175128307	1.934298	1.3907905
27.725363393053787	1.8720621	1.3682332
27.74341631282583	1.8474921	1.3592248
27.7614699349744	1.7996658	1.3415163
27.77952426002968	1.995864	1.4127505
27.797579288521973	2.091089	1.4460598
27.815635020981784	2.4788954	1.5744509
27.83369145793979	2.553867	1.5980823
27.85174859992682	2.447266	1.564374
27.869806447473923	2.3486109	1.5325178
27.887865001112267	2.057044	1.4342399
27.905924261373233	1.9285022	1.3887053
27.92398422878836	1.8517268	1.3607817
27.94204490388936	1.8782825	1.3705045
27.96010628720813	1.8877817	1.3739657
27.978168379276728	1.8454148	1.3584604
27.9962311806274	1.8170801	1.3479911
28.014294691792568	1.8067183	1.3441422
28.0323589133048	1.8085682	1.3448302
28.050423845696887	1.8812407	1.3715833
28.068489489501758	1.8999385	1.3783826
28.086555845252523	1.9229907	1.3867193
28.104622913482487	1.9240829	1.3871131
28.122690694725115	1.8681943	1.366819
28.14075918951405	1.849125	1.3598254
28.15882839838312	1.8888135	1.3743411
28.176898321866304	1.9080379	1.3813175
28.1949689604978	1.9258615	1.3877541
28.213040314811945	1.9309616	1.3895905
28.23111238534327	1.956011	1.3985747
28.249185172626493	1.974923	1.4053196
28.267258677196473	1.9695153	1.4033942
28.285332899588294	1.990263	1.4107668
28.303407840337172	1.9764236	1.4058534
28.321483499978545	1.9488122	1.3959986
28.33955987904799	1.9395944	1.3926932
28.357636978081285	1.9377968	1.3920478
28.37571479761439	1.9377209	1.3920205
28.393793338183425	1.9173335	1.3846781
28.41187260032469	1.94999	1.3964205
28.429952584574686	1.9898353	1.4106152
28.448033291470065	1.9888567	1.4102683
28.46611472154769	1.994324	1.4122053
28.484196875344566	1.9997056	1.4141095
28.502279753397914	2.028134	1.4241258
28.52036335624511	1.9527638	1.3974133
28.538447684423716	1.9140173	1.3834802
28.556532738471482	1.9365405	1.3915964
28.574618518926325	1.9473408	1.3954716
28.59270502632635	1.9702353	1.4036508
28.61079226120985	1.9901009	1.4107094
28.628880224115274	2.0213516	1.4217424
28.646968915581287	2.011517	1.4182796
28.66505833614671	2.0100887	1.417776
28.68314848635055	2.0111706	1.4181575
28.701239366732004	2.0397346	1.4281927
28.71933097783044	2.0590618	1.4349431
28.737423320185403	2.094804	1.4473438
28.75551639433665	2.1427464	1.4638124
28.773610200824074	2.142537	1.4637408
28.791704740187793	2.1271207	1.4584652
28.80980001296809	2.131346	1.459913
28.827896019705413	2.0923908	1.4465098
28.845992760940433	2.0896022	1.4455457
28.86409023721397	2.0770307	1.4411907
28.88218844906704	2.1326578	1.4603622
28.900287397040845	2.2072928	1.4856961
28.918387081676755	2.2451215	1.4983729
28.936487503516343	2.2737548	1.5078975
28.954588663101365	2.2885394	1.5127919
28.97269056097374	2.2897205	1.5131823
28.990793197675597	2.3175375	1.522346
29.00889657374923	2.361627	1.5367587
29.027000689737125	2.3685193	1.5389994
29.04510554618196	2.4164815	1.5545036
29.06321114362659	2.4775312	1.5740175
29.08131748261405	2.4973574	1.580303
29.099424563687567	2.4624116	1.5692073
29.11753238739057	2.4498014	1.5651841
29.13564095426663	2.5147643	1.5858009
29.15375026485954	2.5793643	1.60604
29.171860319713275	2.6609344	1.6312371
29.18997111937199	2.7386594	1.6548896
29.20808266438002	2.7720861	1.6649584
29.226194955281898	2.8027494	1.6741414
29.244307992622335	2.8564172	1.6900939
29.26242177694624	2.8451545	1.6867586
29.2805363087987	2.8476746	1.6875055
29.29865158872498	2.9203982	1.7089173
29.316767617270557	2.9560676	1.7193218
29.334884394981064	2.9323514	1.7124109
29.353001922402367	2.9116013	1.7063415
29.37112020008047	2.9477863	1.7169119
29.389239228561596	3.0880883	1.7572957
29.407359008392152	3.3787897	1.8381485
29.42547954011872	3.826081	1.956037
29.44360082428809	4.502696	2.1219556
29.46172286144722	5.5161967	2.3486586
29.479845652143283	7.0163784	2.6488447
29.497969196923606	8.932163	2.9886725
29.516093496335728	11.335913	3.3668847
29.5342185509274	14.126746	3.7585564
29.55234436124651	16.37448	4.0465393
29.570470927841175	17.64501	4.2005963
29.588598251259686	17.289787	4.158099
29.60672633205055	16.048819	4.006098
29.624855170762405	13.913806	3.7301214
29.642984767944146	11.302423	3.3619075
29.66111512414481	8.636232	2.9387467
29.67924623991366	6.557694	2.5607994
29.697378115800138	5.1193886	2.2626066
29.71551075235387	4.2063346	2.050935
29.733644150124675	3.7219734	1.9292417
29.751778309662576	3.5523696	1.8847731
29.769913231517766	3.4280813	1.8515078
29.78804891624066	3.334481	1.8260561
29.806185364381818	3.3314185	1.8252174
29.82432257649206	3.3827233	1.8392181
29.842460553122333	3.3780403	1.8379446
29.86059929482382	3.360876	1.8332692
29.878738802147872	3.321907	1.8226099
29.896879075646048	3.277942	1.8105087
29.915020115870114	3.1981404	1.7883345
29.933161923371976	3.2439334	1.8010923
29.951304498703777	3.246387	1.8017733
29.969447842417857	3.214067	1.792782
29.987591955066733	3.230475	1.7973522
30.005736837203123	3.2782185	1.8105851
30.023882489379943	3.270149	1.8083553
30.04202891215028	3.260131	1.8055832
30.060176106067455	3.2249336	1.79581
30.078324071684946	3.205222	1.7903134
30.09647280955646	3.1088634	1.763197
30.114622320235863	3.0666637	1.7511892
30.132772604277257	3.0589736	1.7489922
30.1509236622349	3.0860753	1.7567229
30.16907549466328	3.0857549	1.7566317
30.18722810211705	3.0762289	1.7539182
30.205381485151097	3.08616	1.756747
30.22353564432045	3.0907803	1.7580615
30.241690580180403	3.0185263	1.7373906
30.25984629328638	2.9492931	1.7173506
30.278002784194037	2.9311805	1.712069
30.296160053459246	2.9226093	1.7095641
30.314318101638033	2.9121344	1.7064977
30.332476929286646	2.8843212	1.698329
30.35063653696153	2.8924048	1.7007072
30.368796925219307	2.8931866	1.7009369
30.386958094616844	2.8729622	1.6949815
30.40512004571115	2.8246748	1.6806769
30.423282779059463	2.809243	1.6760796
30.441446295219233	2.821822	1.6798279
30.459610594748067	2.8425546	1.6859877
30.47777567820382	2.9111915	1.7062213
30.495941546144504	2.9007628	1.7031626
30.51410819912835	2.797532	1.6725825
30.532275637713795	2.780105	1.6673647
30.55044386245946	2.7727137	1.6651467
30.56861287392416	2.780945	1.6676166
30.586782672666956	2.8034887	1.6743622
30.604953259247047	2.8071873	1.6754663
30.623124634223885	2.7975423	1.6725855
30.641296798157075	2.7956614	1.6720232
30.659469751606462	2.7657876	1.6630657
30.677643495132074	2.7083442	1.6457047
30.695818029294152	2.705072	1.6447103
30.713993354653116	2.725246	1.6508319
30.73216947176962	2.737777	1.6546229
30.75034638120448	2.6707876	1.6342545
30.768524083518756	2.6991553	1.6429106
30.786702579273673	2.7992368	1.673092
30.80488186903069	2.81907	1.6790087
30.82306195335144	2.9067066	1.7049066
30.841242832797782	3.151823	1.7753375
30.85942450793176	3.4639335	1.8611646
30.877606979315637	3.7161741	1.9277381
30.895790247511883	3.9854243	1.9963528
30.913974313083134	4.4082785	2.09959
30.932159176592283	4.8092365	2.1929972
30.95034483860237	4.9241586	2.2190444
30.968531299676698	4.719734	2.172495
30.98671856037873	4.2968125	2.0728755
31.00490662127215	3.9085839	1.9770138
31.023095482920848	3.5447915	1.8827617
31.04128514588892	3.0560524	1.7481569
31.059475610740662	2.6803865	1.6371886
31.07766687804056	2.5762677	1.6050756
31.09585894835335	2.5556846	1.5986508
31.11405182224393	2.5154464	1.5860159
31.132245500277417	2.4790127	1.574488
31.15043998301914	2.471284	1.5720317
31.168635271034628	2.5014992	1.5816128
31.18683136488964	2.4931228	1.5789626
31.20502826515008	2.4721894	1.5723197
31.223225972382135	2.444362	1.5634456
31.241424487152155	2.4992146	1.5808904
31.259623810026692	2.48258	1.5756205
31.27782394157253	2.4585369	1.5679722
31.296024882356644	2.4536178	1.5664028
31.314226632946237	2.4036946	1.5503854
31.332429193908684	2.3326259	1.5272937
31.350632565811598	2.3398445	1.529655
31.368836749222787	2.3623092	1.5369805
31.387041744710295	2.473177	1.5726337
31.40524755284232	2.551116	1.5972214
31.423454174187317	2.5624366	1.6007613
31.441661609313922	2.5617685	1.6005526
31.459869858791002	2.5458565	1.595574
31.478078923187628	2.5029466	1.5820704
31.496288803073064	2.484692	1.5762906
31.514499499016807	2.4325585	1.5596662
31.532711011588546	2.3376212	1.5289282
31.550923341358178	2.2204134	1.4901052
31.56913648889584	2.1657858	1.4716609
31.587350454771844	2.1865819	1.4787096
31.605565239556732	2.2389655	1.4963173
31.62378084382127	2.255649	1.5018818
31.641997268136382	2.2612996	1.5037618
31.660214513073274	2.2529657	1.5009882
31.67843257920331	2.1947863	1.4814811
31.6966514670981	2.1805725	1.4766762
31.71487117732944	2.1797473	1.4763968
31.733091710469346	2.2643366	1.5047712
31.751313067090052	2.3221269	1.5238526
31.769535247764008	2.3137515	1.5211021
31.787758253063878	2.2749195	1.5082836
31.805982083562526	2.2296479	1.4932005
31.824206739833024	2.2026467	1.4841317
31.84243222244869	2.2359176	1.4952985
31.860658531983013	2.2946806	1.5148203
31.878885669009737	2.2973564	1.5157032
31.897113634102784	2.2998323	1.5165198
31.91534242783632	2.3155386	1.5216894
31.933572050784694	2.2915847	1.5137981
31.951802503522508	2.1849782	1.4781672
31.970033786624548	2.106435	1.4513563
31.988265900665834	2.1803386	1.476597
32.006498846221575	2.2393827	1.4964567
32.02473262386724	2.2619712	1.5039852
32.04296723417845	2.237965	1.495983
32.0612026777311	2.213916	1.4879234
32.07943895510129	2.2568676	1.5022875
32.097676066865304	2.1977725	1.4824886
32.115914013599685	2.127146	1.4584739
32.13415279588115	2.120015	1.4560272
32.152392414286666	2.114225	1.4540374
32.1706328693934	2.1321266	1.4601803
32.18887416177875	2.1166775	1.4548806
32.20711629202032	2.144473	1.464402
32.225359260695924	2.1604958	1.4698625
32.243603068383614	2.1344872	1.4609884
32.26184771566166	2.145306	1.4646864
32.28009320310852	2.1920893	1.4805706
32.2983395313029	2.1187377	1.4555885
32.31658670082372	2.039549	1.4281279
32.33483471225012	2.0448794	1.4299928
32.35308356616143	2.0285215	1.4242618
32.371333263137245	2.0666475	1.4375839
32.38958380375734	2.1145422	1.4541466
32.407835188601744	2.0955977	1.447618
32.42608741825067	2.0533736	1.4329597
32.444340493284585	2.028744	1.4243399
32.46259441428416	2.0432327	1.4294169
32.48084918183028	2.0359838	1.426879
32.49910479650405	1.9888984	1.4102831
32.51736125888683	2.0642614	1.4367537
32.53561856956014	2.084887	1.4439138
32.5538767291058	2.018521	1.4207467
32.572135738105764	1.9956831	1.4126865
32.59039559714228	2.040775	1.428557
32.608656306797776	2.095174	1.4474716
32.62691786765491	2.1306207	1.4596646
32.645180280296586	2.152381	1.4670995
32.663443545305896	2.088312	1.4450992
32.68170766326619	2.0160487	1.4198763
32.69997263476099	1.957223	1.3990079
32.7182384603741	2.0210114	1.4216228
32.7365051406895	2.070977	1.439089
32.75477267629144	2.0277367	1.4239862
32.77304106776434	2.0111787	1.4181603
32.79131031569289	2.0235047	1.4224994
32.809580420661966	2.0474205	1.430881
32.827851383256714	2.0453446	1.4301554
32.84612320406245	1.9930805	1.411765
32.86439588366476	2.0241137	1.4227135
32.88266942264945	2.0540469	1.4331946
32.9009438216025	2.0142624	1.4192472
32.9192190811102	1.9751832	1.4054121
32.937495201758985	1.8985038	1.377862
32.95577218413556	1.9047422	1.380124
32.974050028826866	1.8699613	1.3674653
32.992328736420035	1.8989438	1.3780217
33.010608307502444	1.8949178	1.3765601
33.02888874266169	1.9228104	1.3866544
33.047170042485604	2.0406933	1.4285283
33.06545220756225	2.1292307	1.4591883
33.083735238479896	2.0439117	1.4296544
33.10201913582707	2.0532143	1.4329041
33.12030390019248	2.0778522	1.4414757
33.138589532165135	1.9936676	1.411973
33.15687603233419	1.8666862	1.3662672
33.17516340128909	1.8524668	1.3610536
33.19345163961947	1.9299662	1.3892323
33.211740747915215	1.9341725	1.3907453
33.23003072676643	1.892179	1.3755649
33.248321576763466	1.8707646	1.367759
33.266613298496885	1.8496437	1.3600161
33.28490589255747	1.8704239	1.3676344
33.30319935953626	1.9223157	1.386476
33.32149370002451	1.8556885	1.3622366
33.339788914613706	1.8263222	1.3514149
33.358085003895575	1.8244175	1.35071
33.376381968462034	1.8537389	1.3615208
33.39467980890529	1.7941017	1.3394408
33.41297852581774	1.8028197	1.3426912
33.43127811979204	1.8310342	1.3531572
33.44957859142105	1.9242564	1.3871757
33.467879941297866	1.9861711	1.4093158
33.486182170015844	1.9466133	1.3952109
33.50448527816853	1.8815846	1.3717086
33.522789266349754	1.9076793	1.3811877
33.541094135153514	1.9673724	1.4026306
33.55939988517411	1.900576	1.3786138
33.57770651700602	1.8557197	1.3622481
33.59601403124398	1.9238522	1.38703
33.61432242848296	1.9588621	1.3995936
33.632631709318154	1.8655996	1.3658695
33.650941874344994	1.7740399	1.3319309
33.66925292415916	1.765621	1.3287667
33.68756485935654	1.8326037	1.3537369
33.70587768053328	1.9373853	1.3919
33.724191388285746	1.9712431	1.4040097
33.74250598321054	1.9564836	1.3987436
33.760821465904506	1.8942621	1.3763219
33.77913783696474	1.9574333	1.399083
33.79745509698852	2.0278065	1.4240108
33.815773246573414	2.0438135	1.42962
33.8340922863172	1.9400192	1.3928457
33.852412216817896	1.8966423	1.3771864
33.87073303867377	1.9547746	1.3981326
33.889054752483304	1.964718	1.4016839
33.907377358845245	1.9796706	1.4070077
33.92570085835853	1.9536194	1.3977194
33.94402525162239	1.9727724	1.4045541
33.96235053923627	1.9950941	1.412478
33.980676721799824	1.9687823	1.403133
33.999003799912984	1.9361553	1.391458
34.01733177417592	1.9432667	1.394011
34.03566064518901	2.0248067	1.4229571
34.0539904135529	2.0408814	1.4285942
34.07232107986846	1.9971646	1.4132107
34.090652644736785	1.9767097	1.4059551
34.108985108759235	1.9841341	1.4085929
34.12731847253742	1.9701072	1.4036051
34.14565273667313	1.9986147	1.4137237
34.16398790176847	1.985965	1.4092427
34.18232396842574	2.0079436	1.4170192
34.20066093724749	1.9458103	1.3949231
34.21899880883651	1.8553071	1.3620965
34.23733758379583	1.8244361	1.3507168
34.25567726272874	1.8202282	1.3491583
34.27401784623872	1.9043242	1.3799726
34.29235933492957	1.9220458	1.3863786
34.31070172940526	1.930551	1.3894427
34.32904503027003	1.8178511	1.3482771
34.347389238128386	1.7995565	1.3414755
34.36573435358502	1.9406981	1.3930894
34.38408037724492	2.032171	1.4255424
34.402427309713296	2.0566835	1.4341142
34.42077515159559	2.0889783	1.4453298
34.43912390349752	2.102793	1.450101
34.45747356602499	2.0371754	1.4272965
34.47582413978423	1.9089004	1.3816296
34.49417562538163	1.7503792	1.323019
34.51252802342388	1.8524381	1.361043
34.53088133451789	1.9561245	1.3986152
34.54923555927084	1.9502844	1.3965259
34.567590698290104	1.9664139	1.4022888
34.58594675218336	2.0101037	1.4177812
34.6043037215585	2.0236664	1.4225563
34.62266160702365	1.9429128	1.3938841
34.641020409187234	1.8415554	1.3570392
34.65938012865785	2.0046601	1.4158602
34.677740766044394	2.0251572	1.4230802
34.69610232195598	1.8219336	1.3497902
34.714464797002016	1.8327782	1.3538014
34.73282819179208	1.9199857	1.3856355
34.751192506936064	1.8663622	1.3661487
34.76955774304408	1.8907228	1.3750355
34.7879239007265	1.9539526	1.3978385
34.80629098059391	1.930767	1.3895204
34.824658983257194	1.942384	1.3936944
34.843027909327446	1.8652791	1.3657522
34.86139775941603	1.9012256	1.3788494
34.879768534134534	1.9522036	1.3972129
34.89814023409483	1.925558	1.3876448
34.91651285990901	1.8009001	1.3419762
34.93488641218944	1.934307	1.3907937
34.95326089154871	2.0694296	1.4385512
34.97163629859967	1.9973769	1.4132859
34.99001263395542	1.7608874	1.3269843
35.00838989822934	1.8199883	1.3490694
35.02676809203499	1.9886086	1.4101803
35.04514721598624	1.9479387	1.3956858
35.063527270697215	1.9456241	1.3948563
35.081908256782256	1.9166952	1.3844476
35.10029017485597	1.8718408	1.3681524
35.11867302553321	1.8924879	1.3756772
35.137056809429104	2.1414573	1.4633719
35.155441527159006	2.2329898	1.4943192
35.173827179338524	1.9222722	1.3864603
35.19221376658354	1.7801323	1.334216
35.21060128951017	2.0518384	1.432424
35.2289897487348	2.0737395	1.4400485
35.24737914487405	1.9458491	1.3949369
35.26576947854479	1.9612968	1.4004631
35.28416075036418	2.088974	1.4453284
35.30255296094958	2.044778	1.4299574
35.32094611091867	2.1075108	1.4517268
35.33934020088932	1.9621899	1.4007819
35.35773523147969	1.9712881	1.4040257
35.3761312033082	2.0058014	1.4162632
35.394528116993506	2.0522895	1.4325814
35.41292597315452	1.9532183	1.3975759
35.431324772410434	1.7918149	1.3385869
35.449724515380666	2.0133567	1.418928
35.46812520268491	2.2360926	1.495357
35.486526834943106	2.1723535	1.4738905
35.504929412775454	1.928414	1.3886734
35.52333293680242	1.8123174	1.3462234
35.54173740764471	1.7179831	1.3107185
35.560142825923286	1.5675658	1.2520247
35.5785491922594	1.5383555	1.2403046
35.59695650727454	1.3794568	1.1745027
35.61536477159042	1.4633409	1.2096863
