0.008763373481513119	0.56609195	0.7523908
0.026290120649546365	0.18888974	0.43461448
0.043816868432600686	0.095494814	0.30902237
0.06134361724069026	0.083826594	0.28952822
0.07887036748382949	0.09143098	0.30237556
0.0963971195720331	0.107710116	0.3281922
0.11392387391531617	0.06964492	0.26390323
0.1314506309236943	0.13587838	0.36861685
0.1489773910071836	0.2022208	0.44968966
0.16650415457580078	0.22156368	0.4707055
0.18403092203956356	0.21542518	0.4641392
0.20155769380849	0.19043626	0.43639004
0.2190844702925996	0.17880867	0.42285776
0.2366112519019124	0.16109778	0.40136987
0.2541380390464497	0.11545498	0.33978668
0.27166483213623416	0.12973426	0.36018643
0.28919163158128947	0.16001712	0.4000214
0.3067184377916406	0.21515705	0.46385023
0.324245251177314	0.2226834	0.47189343
0.34177207214833777	0.1794235	0.4235841
0.3592989011147415	0.13877216	0.37252134
0.37682573848655654	0.12119755	0.3481344
0.39435258467381573	0.11700838	0.3420649
0.41187944008655414	0.13669153	0.36971816
0.42940630513480854	0.108897895	0.32999682
0.446933180228618	0.08784018	0.29637843
0.4644600657780234	0.1335648	0.3654652
0.48198696219306775	0.16894539	0.41102967
0.49951386988379676	0.17313153	0.41609076
0.5170407892602581	0.15451747	0.39308712
0.5345677207325025	0.12689139	0.3562182
0.5520946647105822	0.16292217	0.4036362
0.5696216216045534	0.2058064	0.4536589
0.5871485918244737	0.19216178	0.43836263
0.6046755757804043	0.20484513	0.4525982
0.6222025738824094	0.18571444	0.430946
0.6397295865405557	0.19410346	0.44057176
0.6572566141649129	0.18512392	0.4302603
0.6747836571655547	0.16434872	0.40539947
0.6923107159525568	0.14877623	0.38571522
0.7098377909359992	0.11295062	0.33608127
0.7273648825259653	0.101523936	0.31862822
0.7448919911325411	0.1350508	0.3674926
0.762419117165817	0.15268439	0.3907485
0.7799462610358868	0.17253584	0.41537434
0.7974734231528482	0.19879349	0.44586262
0.8150006039268024	0.19154851	0.43766254
0.8325278037678551	0.20187427	0.4493042
0.8500550230861152	0.17505331	0.41839373
0.8675822622916969	0.17610864	0.419653
0.8851095217947171	0.18900348	0.4347453
0.9026368020052984	0.19994538	0.44715253
0.9201641033335665	0.21214233	0.4605891
0.9376914261896523	0.22629435	0.47570407
0.9552187709836915	0.21880655	0.46776763
0.9727461381258234	0.20770173	0.45574304
0.990273528026193	0.21012278	0.45839152
1.0078009410949496	0.22330633	0.47255298
1.0253283777422473	0.24366261	0.49362195
1.0428558383782454	0.24917585	0.49917516
1.0603833234131086	0.24000065	0.48989862
1.0779108332570058	0.25760257	0.50754565
1.0954383683201119	0.30354208	0.55094653
1.112965929012607	0.40190685	0.63396126
1.1304935157446763	0.54127526	0.73571414
1.1480211289265108	0.55042446	0.741906
1.1655487689683062	1.2829429	1.1326706
1.1830764362802655	1.5552812	1.2471092
1.200604131272596	2.0089545	1.4173759
1.2181318543555117	2.3564422	1.5350708
1.235659605939232	2.3614752	1.5367092
1.253187386433982	3.9922202	1.9980541
1.270715196249994	6.479079	2.5454035
1.2882430357975057	12.033819	3.4689796
1.3057709054867608	16.809385	4.099925
1.3232988057280106	22.776882	4.7725134
1.3408267369315112	27.559881	5.2497506
1.358354699507526	31.176643	5.583605
1.3758826938663256	35.145813	5.9283905
1.3934107204181858	37.0079	6.0834117
1.410938779573391	37.530643	6.126226
1.4284668717422309	38.131443	6.1750665
1.4459949973350033	37.72146	6.14178
1.4635231567620117	37.99193	6.163759
1.4810513504335687	36.85934	6.0711894
1.4985795787599925	35.904137	5.992006
1.5161078421516088	35.41889	5.9513774
1.5336361410187505	34.690727	5.8898835
1.5511644757717598	35.17191	5.930591
1.5686928468209842	35.829334	5.985761
1.58622125457678	36.28165	6.023425
1.6037496994495108	37.172054	6.096889
1.621278181849548	36.639065	6.053021
1.6388067021872719	37.557983	6.128457
1.6563352608730693	36.799877	6.0662904
1.673863858317336	35.82627	5.985505
1.6913924949304753	35.037075	5.9192123
1.7089211711228998	33.772087	5.8113756
1.7264498873050296	33.039932	5.7480373
1.7439786438872935	32.504517	5.7012734
1.7615074412801288	31.941103	5.651646
1.779036279893981	31.260658	5.591123
1.796565160139305	30.159716	5.491786
1.814094082426564	29.599659	5.440557
1.8316230471662298	29.071781	5.391825
1.849152054768784	28.283365	5.3182106
1.8666811056447168	27.601936	5.2537546
1.8842102002045273	26.869928	5.183621
1.901739338858724	26.185251	5.1171527
1.9192685220178245	25.447788	5.04458
1.9367977500923557	24.57305	4.957121
1.9543270234928547	24.359999	4.935585
1.971856342629867	23.837543	4.8823705
1.9893857079139496	23.382198	4.835514
2.006915119755667	22.921223	4.7876115
2.0244445785655945	22.237034	4.7156157
2.0419740847543175	21.888264	4.6784897
2.0595036387324317	21.255554	4.6103745
2.0770332409105414	21.018543	4.5845985
2.094562891699263	20.892496	4.570831
2.1120925915092217	20.480682	4.525559
2.129622340751053	20.028402	4.4753103
2.1471521398354043	188.02544	13.712236
2.1646819891729323	444.19553	21.075947
2.182211889174303	440.27426	20.982714
2.1997418402501974	452.50827	21.272242
2.2172718428113023	432.47418	20.796013
2.234801897268317	320.77228	17.910116
2.2523320040319548	17.358929	4.1664047
2.269862163512935	17.047476	4.128859
2.287392376121992	16.515724	4.0639544
2.304922642269869	16.161436	4.0201287
2.322452962367322	15.972274	3.9965327
2.3399833368251164	15.830329	3.9787345
2.357513766054032	15.650028	3.9560118
2.3750442504648586	15.275683	3.908412
2.3925747904683963	14.926443	3.8634756
2.410105386475459	14.564699	3.8163726
2.4276360388968707	14.16587	3.7637575
2.445166748143469	14.048359	3.748114
2.4626975146261025	13.798338	3.7146115
2.4802283387556323	13.669286	3.6971998
2.4977592209429305	13.493198	3.6733088
2.5152901615988825	13.180406	3.630483
2.5328211611343865	12.941774	3.5974677
2.5503522199603523	12.614012	3.551621
2.5678833384877024	12.399839	3.5213406
2.5854145171273712	12.096294	3.4779727
2.6029457562903064	11.86488	3.4445434
2.620477056387469	11.661141	3.4148414
2.6380084178298326	11.593254	3.4048867
2.655539841028383	11.370912	3.3720782
2.673071326394119	11.449885	3.3837678
2.6906028743380523	11.226996	3.350671
2.708134485271211	10.990909	3.315254
2.7256661596046325	10.71948	3.2740617
2.743197897749369	10.449137	3.2325125
2.760729700116486	10.439297	3.2309902
2.778261567117063	10.308512	3.2106872
2.795793499162193	10.350761	3.21726
2.8133254966629817	10.165285	3.1883044
2.830857560030551	9.903899	3.147046
2.8483896896760337	9.720068	3.1177022
2.865921886010578	9.702477	3.11488
2.883454149445347	9.525864	3.0863998
2.9009864803915177	9.337494	3.0557313
2.91851887926028	9.073709	3.0122597
2.9360513464628384	8.93905	2.9898243
2.953583882410413	8.899429	2.983191
2.9711164875142373	8.809421	2.9680667
2.9886491621855606	8.658881	2.9425976
3.0061819068356455	8.449029	2.9067214
3.023714721875769	8.266119	2.8750858
3.041247607717225	8.220318	2.8671098
3.0587805647713213	8.132619	2.8517747
3.0763135934493806	8.130828	2.8514607
3.0938466941627407	8.117509	2.8491242
3.1113798673227544	8.043819	2.8361628
3.1289131133407904	7.917718	2.813844
3.1464464326282315	7.747594	2.78345
3.1639798255964786	7.7217445	2.7788026
3.1815132926569443	7.6310844	2.7624416
3.1990468342210603	7.485247	2.735918
3.216580450700272	7.3120832	2.7040863
3.2341141425060416	7.128986	2.670016
3.251647910049847	7.128372	2.6699011
3.2691817537431813	7.21177	2.685474
3.286715673997555	7.14862	2.6736903
3.3042496712244938	7.0790925	2.6606565
3.32178374583554	6.930025	2.632494
3.339317898242251	6.8006988	2.607815
3.3568521288562034	6.7256	2.5933762
3.3743864380889876	6.7594748	2.599899
3.3919208263522127	6.778988	2.603649
3.4094552940575023	6.74887	2.5978587
3.4269898416164972	6.812549	2.610086
3.444524469440858	6.7519403	2.5984495
3.4620591779422587	6.6913004	2.5867548
3.479593967532391	6.544647	2.558251
3.4971288386229658	6.4020276	2.530223
3.5146637916257086	6.317067	2.5133777
3.5321988269523628	6.3364496	2.5172305
3.5497339450146903	6.3689775	2.5236833
3.5672691462244708	6.379917	2.5258498
3.5848044309934988	6.3865933	2.527171
3.60233979973359	6.309467	2.5118651
3.619875252856575	6.2738256	2.5047605
3.6374107907743034	6.3218265	2.5143242
3.6549464138986427	6.2836065	2.5067122
3.6724821226414788	6.3370094	2.5173419
3.690017917414714	6.256903	2.5013802
3.7075537986302702	6.235158	2.4970298
3.7250897667000857	6.2108784	2.4921634
3.7426258220361235	6.387732	2.5273962
3.7601619650503553	6.8519583	2.6176245
3.777698196154779	7.44028	2.7276876
3.7952345157614067	8.597676	2.9321795
3.8127709242822716	9.470336	3.0773911
3.830307422129425	11.795456	3.4344513
3.847844009714936	30.635489	5.5349336
3.8653806874508954	98.14355	9.906742
3.882917455749409	97.41947	9.870131
3.900454315022606	97.141556	9.856042
3.917991265682631	41.57203	6.4476376
3.9355283081416506	11.125815	3.3355381
3.9530654428118495	8.804047	2.9671614
3.970602670105433	7.5395517	2.7458243
3.9881399904346244	6.5508614	2.5594652
4.005677404211669	6.4899025	2.5475287
4.023214911848827	6.4180784	2.5333927
4.0407525137583855	6.4014583	2.5301104
4.058290210352644	6.4425673	2.5382214
4.075828002043927	6.404787	2.5307682
4.0933658892445814	6.4404984	2.5378137
4.110903872366966	6.303461	2.5106695
4.128441951823468	6.259339	2.501867
4.145980128026488	6.252668	2.5005336
4.163518401388452	6.168225	2.483591
4.181056772321807	6.0679073	2.4633124
4.1985952412390155	5.932864	2.4357471
4.216133808552567	5.9687223	2.4430969
4.233672474674966	6.160994	2.482135
4.251211240018741	6.364095	2.5227158
4.268750104996445	6.603645	2.5697558
4.286289070020643	7.4070454	2.7215889
4.303828135503928	9.079552	3.0132294
4.3213673018589125	29.46602	5.4282613
4.3389065694982305	90.54326	9.515422
4.356445938834537	165.76369	12.874925
4.3739854102805085	171.17882	13.083532
4.391524984248844	172.0566	13.117035
4.409064661152262	136.02248	11.662868
4.426604441403504	96.20353	9.80834
4.444144325415337	75.22791	8.673403
4.461684313600543	21.4185	4.6280127
4.47922440637193	22.024076	4.6929817
4.496764604142329	20.641773	4.5433216
4.5143049073245916	18.83236	4.339627
4.531845316331589	16.627567	4.0776916
4.5493858315762195	13.548401	3.6808152
4.566926453471405	11.339748	3.3674543
4.584467182430081	9.181762	3.0301423
4.602008018865218	8.1453	2.8539972
4.619548963189798	7.572078	2.751741
4.637090015816834	7.0264354	2.6507425
4.654631177159353	6.816279	2.6108005
4.672172447630417	6.48874	2.5473006
4.689713827643102	6.383135	2.5264866
4.7072553176105085	6.1593866	2.481811
4.724796917945764	5.928507	2.4348526
4.742338629062015	5.794983	2.407277
4.759880451372434	5.6966133	2.3867579
4.777422385290215	5.6927266	2.3859437
4.794964431228581	5.633791	2.373561
4.812506589600768	5.554025	2.356698
4.830048860820047	5.529932	2.3515809
4.847591245299709	5.583351	2.3629115
4.8651337434530655	5.619535	2.3705559
4.882676355693457	5.600585	2.3665555
4.900219082434242	5.6259	2.371898
4.917761924088813	5.544429	2.354661
4.935304881070575	5.5651584	2.3590589
4.952847953792969	5.4972086	2.3446126
4.970391142669449	5.5076528	2.346839
4.9879344481135055	5.5402985	2.3537838
5.005477870538642	5.5307417	2.351753
5.023021410358394	5.440461	2.3324797
5.040565067986324	5.386995	2.32099
5.05810884383601	5.3994546	2.3236725
5.075652738321066	5.396193	2.3229706
5.09319675185512	5.3731265	2.3180006
5.110740884851836	5.363441	2.3159103
5.128285137724894	5.3554454	2.3141835
5.145829510888007	5.374639	2.3183267
5.163374004754908	5.3209047	2.3067086
5.1809186197393595	5.310525	2.3044577
5.198463356255145	5.259801	2.2934256
5.216008214716077	5.2849917	2.298911
5.233553195535998	5.1986094	2.280046
5.251098299128764	5.1946254	2.2791722
5.268643525908272	5.1856647	2.2772055
5.286188876288432	5.227293	2.2863274
5.3037343506831895	5.2269497	2.2862523
5.32127994950651	5.2693667	2.29551
5.3388256731723915	5.2758236	2.296916
5.356371522094851	5.314413	2.3053012
5.373917496687938	5.2199535	2.2847219
5.391463597365729	5.179429	2.275836
5.40900982454232	5.1185465	2.2624204
5.426556178631843	5.1765842	2.2752109
5.444102660048449	5.087555	2.2555609
5.4616492692063225	5.031956	2.2432022
5.479196006519669	4.9807496	2.2317593
5.496742872402727	5.0425086	2.245553
5.514289867269756	5.087536	2.2555566
5.531836991535049	5.019948	2.240524
5.549384245612924	5.033041	2.243444
5.566931629917724	5.0598226	2.249405
5.584479144863822	5.1991496	2.2801645
5.6020267908656205	5.2400155	2.289108
5.619574568337545	5.271581	2.2959924
5.637122477694054	5.1635647	2.272348
5.654670519349629	5.081315	2.2541773
5.672218693718784	5.000225	2.2361183
5.689767001216059	5.013583	2.2391033
5.707315442256021	5.0087323	2.2380197
5.724864017253266	5.0484786	2.246882
5.7424127266224225	5.148131	2.2689493
5.75996157077814	5.13798	2.2667112
5.777510550135105	5.209508	2.2824347
5.795059665108022	5.1026464	2.2589037
5.812608916111639	5.2034397	2.281105
5.830158303560715	5.37985	2.3194504
5.847707827870055	5.3799605	2.3194742
5.86525748945448	5.4440546	2.3332498
5.8828072887288485	5.4526863	2.3350987
5.900357226108044	5.5040264	2.3460662
5.917907302006979	5.623908	2.371478
5.9354575168406	6.323334	2.514624
5.9530078710238765	6.9342103	2.6332889
5.970558364971812	7.448474	2.7291892
5.988108999099438	7.737684	2.7816691
6.005659773821818	8.217124	2.8665526
6.023210689554039	8.003242	2.829
6.040761746711227	8.421868	2.9020455
6.058312945708531	7.751443	2.7841413
6.075864286961132	7.2763977	2.69748
6.093415770884244	6.575295	2.5642338
6.1109673978931065	6.039462	2.4575317
6.128519168402993	5.4341974	2.3311365
6.146071082829204	5.2958827	2.3012786
6.163623141587075	5.246234	2.2904658
6.181175345091969	5.177566	2.2754266
6.198727693759281	5.2002234	2.2803998
6.216280188004435	5.2619934	2.2939036
6.233832828242885	5.2303114	2.2869873
6.251385614890126	5.2785854	2.2975173
6.268938548361669	5.2332907	2.2876387
6.286491629073067	5.171552	2.2741046
6.304044857439898	5.077326	2.2532923
6.321598233877777	4.9392247	2.2224367
6.339151758802344	4.8795786	2.2089767
6.356705432629277	4.865413	2.205768
6.37425925577428	4.906239	2.2150033
6.391813228653095	4.9810514	2.231827
6.409367351681486	5.0595384	2.2493417
6.426921625275259	5.03649	2.2442126
6.44447604985025	5.022322	2.2410538
6.46203062582232	4.9868135	2.2331173
6.47958535360737	4.9778976	2.2311203
6.497140233621328	5.070281	2.2517285
6.514695266280161	5.0706673	2.2518141
6.532250451999859	5.0483813	2.2468603
6.549805791196454	4.9595294	2.227
6.567361284286002	4.9479547	2.2243998
6.584916931684597	4.9047484	2.2146666
6.602472733808367	4.879075	2.2088628
6.6200286910734665	4.96805	2.2289124
6.637584803896092	5.012145	2.238782
6.655141072692462	5.0636706	2.25026
6.672697497878842	5.0100026	2.2383034
6.690254079871514	4.916021	2.21721
6.707810819086808	4.885416	2.2102978
6.725367715941078	4.854651	2.2033272
6.742924770850719	4.8919544	2.2117763
6.760481984232151	4.9609313	2.2273147
6.778039356501836	4.9899106	2.2338107
6.795596888076266	5.0132737	2.2390342
6.813154579371963	4.9393	2.2224536
6.830712430805492	4.931108	2.22061
6.84827044279344	4.906565	2.2150767
6.865828615752445	4.8751497	2.2079742
6.883386950099159	4.9154463	2.2170806
6.900945446250287	4.924007	2.2190104
6.918504104622553	4.9503665	2.224942
6.936062925632727	4.9385266	2.2222795
6.953621909697607	4.925413	2.2193272
6.971181057234028	4.944276	2.2235727
6.988740368658859	5.017274	2.2399273
7.006299844389007	5.1210155	2.2629662
7.023859484841407	5.227368	2.2863438
7.041419290433036	5.374991	2.3184028
7.058979261580902	5.584367	2.3631265
7.0765393987020495	5.8308268	2.4147105
7.094099702213559	6.155313	2.4809904
7.111660172532549	6.441787	2.5380676
7.129220810076164	6.773715	2.602636
7.146781615261595	7.3685493	2.714507
7.16434258850606	7.578156	2.752845
7.181903730226821	8.026359	2.833083
7.1994650408411704	8.0610285	2.839195
7.217026520766437	8.1812935	2.860296
7.234588170419983	8.317644	2.8840327
7.252149990219215	8.373689	2.8937325
7.269711980581568	8.255816	2.8732936
7.2872741419245175	8.145851	2.8540938
7.304836474665574	7.742299	2.7824986
7.322398979222286	7.46095	2.731474
7.339961656012233	7.194648	2.682284
7.357524505453039	6.821581	2.6118157
7.375087527962357	6.505138	2.550517
7.392650723957886	6.1969447	2.4893663
7.410214093857353	5.8451686	2.4176784
7.427777638078528	5.6127515	2.3691247
7.445341357039213	5.4645877	2.3376458
7.4629052511572525	5.3654447	2.3163428
7.480469320850524	5.287033	2.299355
7.498033566536948	5.2594867	2.2933571
7.5155979886344735	5.228962	2.2866924
7.5331625875610975	5.1785326	2.275639
7.550727363734844	5.1915517	2.2784977
7.568292317573788	5.193511	2.2789276
7.585857449496025	5.2176	2.2842066
7.603422759919705	5.1290603	2.2647429
7.620988249263007	5.0920157	2.2565496
7.638553917944147	5.1053267	2.259497
7.656119766381391	5.110263	2.2605891
7.673685794993023	5.179666	2.275888
7.691252004197388	5.126006	2.2640686
7.70881839441285	5.154213	2.2702892
7.726384966057826	5.196771	2.2796428
7.743951719550762	5.196897	2.2796705
7.761518655310149	5.1899524	2.2781467
7.779085773754511	5.183778	2.276791
7.796653075302419	5.1855893	2.277189
7.814220560372475	5.2566557	2.2927399
7.831788229383323	5.3303776	2.3087611
7.8493560827536495	5.3369317	2.31018
7.866924120902174	5.299661	2.3020992
7.884492344247663	5.2721753	2.2961218
7.9020607532089135	5.3344	2.309632
7.919629348204771	5.309894	2.3043208
7.937198129654115	5.3082	2.3039532
7.954767097975865	5.334023	2.3095503
7.972336253588986	5.391852	2.3220363
7.989905596912472	5.457873	2.336209
8.007475128365371	5.471326	2.3390865
8.025044848366756	5.496569	2.3444762
8.042614757335754	5.5151944	2.3484452
8.060184855691523	5.5494747	2.3557322
8.07775514385327	5.6419125	2.375271
8.095325622240228	5.690855	2.3855512
8.112896291271687	5.771483	2.4023912
8.130467151366968	5.8443165	2.4175022
8.148038202945436	5.8986588	2.4287155
8.165609446426497	5.9155145	2.432183
8.183180882229594	5.9382405	2.4368505
8.200752510774217	5.955526	2.4403946
8.218324332479893	5.9506397	2.4393933
8.235896347766193	5.9821615	2.4458458
8.253468557052724	6.002891	2.45008
8.27104096075914	6.063755	2.4624693
8.288613559305137	6.0692587	2.4635866
8.306186353110448	6.071356	2.4640121
8.32375934259485	6.1031904	2.4704635
8.341332528178162	6.0651436	2.4627512
8.358905910280246	6.2049756	2.490979
8.376479489321003	6.230396	2.496076
8.394053265720377	6.2642303	2.5028443
8.411627239898356	6.246111	2.499222
8.42920141227497	6.2372975	2.4974582
8.44677578327029	6.267658	2.503529
8.464350353304427	6.2609754	2.5021942
8.48192512279754	6.20603	2.4911904
8.499500092169827	6.1644387	2.4828289
8.51707526184153	6.188883	2.4877465
8.534650632232934	6.2067285	2.4913306
8.552226203764365	6.191457	2.4882638
8.569801976856192	6.172847	2.4845214
8.587377951928834	6.1888895	2.487748
8.60495412940274	6.252248	2.5004494
8.622530509698416	6.353471	2.5206091
8.6401070932364	6.4325547	2.5362482
8.657683880437283	6.5152473	2.5524983
8.675260871721695	6.649752	2.5787113
8.692838067510303	6.8009453	2.6078622
8.710415468223834	6.9329653	2.6330523
8.727993074283043	7.1103554	2.666525
8.745570886108737	7.0499954	2.6551828
8.763148904121765	7.1295094	2.670114
8.78072712874302	7.1562862	2.6751237
8.798305560393441	7.474346	2.733925
8.815884199494006	7.6432695	2.7646463
8.833463046465745	7.848042	2.8014357
8.851042101729728	7.9520426	2.8199365
8.86862136570707	8.183586	2.8606968
8.886200838818924	8.247384	2.871826
8.903780521486505	8.385652	2.895799
8.921360414131055	8.497915	2.9151185
8.938940517173874	8.602749	2.9330442
8.956520831036297	8.770059	2.9614284
8.97410135613971	9.0205	3.0034149
8.99168209290554	9.225829	3.037405
9.009263041755265	9.448012	3.073762
9.026844203110405	9.601318	3.0985994
9.044425577392525	9.85499	3.1392658
9.062007165023239	10.022232	3.1657908
9.079588966424197	10.291932	3.2081041
9.097170982017108	10.314417	3.2116065
9.11475321222372	11.312294	3.3633754
9.132335657465825	12.242259	3.498894
9.149918318165264	12.376148	3.517975
9.167501194743924	12.943044	3.597644
9.18508428762374	12.577425	3.5464666
9.202667597226693	12.6533	3.5571477
9.220251123974803	12.342683	3.5132155
9.237834868290143	12.082933	3.4760513
9.255418830594836	11.971595	3.4599993
9.273003011311046	11.394718	3.3756063
9.290587410860985	11.068603	3.326951
9.308172029666911	10.322979	3.2129393
9.32575686815113	10.102096	3.1783793
9.343341926735997	8.869185	2.9781177
9.360927205843916	8.665351	2.9436967
9.378512705897327	8.422529	2.9021595
9.396098427318728	8.158394	2.8562903
9.413684370530664	8.060537	2.8391085
9.431270535955722	7.9499297	2.819562
9.448856924016539	7.9179754	2.8138897
9.466443535135806	7.7533298	2.78448
9.484030369736251	7.709747	2.776643
9.501617428240658	7.6552153	2.766806
9.519204711071852	7.680609	2.7713912
9.536792218652714	7.738209	2.7817636
9.55437995140617	7.76831	2.7871687
9.571967909755191	7.768931	2.78728
9.589556094122802	7.8091936	2.7944934
9.60714450493207	7.8887553	2.808693
9.624733142606116	7.9327946	2.8165216
9.642322007568108	7.984707	2.8257225
9.659911100241267	8.032456	2.834159
9.677500421048851	8.115574	2.8487847
9.695089970414175	8.119644	2.849499
9.712679748760609	8.149046	2.8546534
9.730269756511557	8.060708	2.8391385
9.747859994090492	8.060925	2.8391767
9.765450461920915	8.061515	2.8392806
9.78304116042639	8.10927	2.847678
9.800632090030527	8.191109	2.8620112
9.81822325115699	8.219054	2.8668892
9.835814644229481	8.240008	2.8705416
9.853406269671762	8.225095	2.8679426
9.870998127907646	8.226872	2.8682525
9.888590219360985	8.237101	2.870035
9.906182544455698	8.240329	2.8705974
9.923775103615734	8.197697	2.863162
9.941367897265108	8.186433	2.8611944
9.958960925827878	8.141612	2.853351
9.97655418972816	8.191526	2.8620844
9.994147689390106	8.270706	2.8758836
10.011741425237934	8.339748	2.8878622
10.029335397695904	8.318018	2.8840973
10.04692960718833	8.270351	2.8758218
10.06452405413958	8.241157	2.8707414
10.082118738974064	8.236264	2.8698893
10.099713662116246	8.242533	2.8709812
10.117308823990651	8.246701	2.871707
10.134904225021844	8.303839	2.8816383
10.152499865634445	8.278398	2.8772204
10.170095746253125	8.259418	2.8739202
10.18769186730261	8.162084	2.856936
10.205288229207675	8.053928	2.8379445
10.222884832393145	8.003821	2.8291025
10.2404816772839	8.070953	2.8409424
10.258078764304868	8.113301	2.8483858
10.275676093881035	8.105705	2.847052
10.293273666437438	8.079924	2.8425207
10.310871482399158	8.145947	2.8541107
10.32846954219134	8.127199	2.8508244
10.346067846239173	8.208177	2.8649917
10.363666394967908	8.17959	2.8599982
10.38126518880283	8.239337	2.8704245
10.398864228169298	8.36399	2.8920562
10.416463513492713	8.423007	2.9022417
10.434063045198531	8.397358	2.8978195
10.451662823712262	8.3458605	2.8889203
10.469262849459467	8.323479	2.8850439
10.486863122865758	8.299251	2.880842
10.504463644356806	8.295378	2.8801696
10.522064414358338	8.154216	2.8555589
10.539665433296118	7.9977107	2.8280225
10.557266701595987	7.879888	2.807114
10.574868219683818	7.7290645	2.7801194
10.592469987985552	7.6774063	2.7708132
10.610072006927185	7.595538	2.7560003
10.627674276934751	7.5166273	2.7416468
10.64527679843435	7.3231664	2.706135
10.662879571852143	7.2567406	2.6938338
10.680482597614331	7.1538863	2.674675
10.698085876147173	7.0838046	2.6615417
10.715689407876988	6.946616	2.6356435
10.733293193230146	6.814116	2.6103861
10.750897232633072	6.7655373	2.6010647
10.76850152651225	6.721694	2.592623
10.786106075294207	6.6912885	2.5867524
10.803710879405534	6.6144238	2.5718522
10.821315939272877	6.5684023	2.5628893
10.83892125532294	6.477828	2.5451577
10.856526827982472	6.367434	2.5233774
10.874132657678285	6.2725787	2.5045116
10.891738744837243	6.1952477	2.4890254
10.909345089886271	6.0580816	2.461317
10.926951693252343	6.005339	2.4505794
10.944558555362494	5.956809	2.4406576
10.96216567664381	5.9582624	2.4409552
10.979773057523436	5.9017606	2.429354
10.997380698428573	5.811435	2.4106917
11.014988599786477	5.7373357	2.3952737
11.032596762024461	5.6742654	2.3820717
11.050205185569892	5.633628	2.3735266
11.067813870850198	5.5766797	2.3614995
11.085422818292859	5.514407	2.3482776
11.10303202832541	5.47978	2.340893
11.120641501375454	5.4717317	2.3391733
11.138251237870636	5.451968	2.334945
11.155861238238671	5.376974	2.3188303
11.173471502907317	5.254817	2.2923388
11.191082032304402	5.195965	2.279466
11.208692826857805	5.076087	2.2530174
11.226303886995465	5.0098004	2.2382584
11.243915213145371	4.915482	2.2170887
11.261526805735578	4.932945	2.2210233
11.279138665194196	4.9030056	2.2142732
11.296750791949393	4.8759704	2.20816
11.314363186429393	4.8238463	2.1963255
11.331975849062479	4.7436547	2.1779933
11.34958878027699	4.721919	2.1729977
11.36720198050133	4.646285	2.1555243
11.384815450163948	4.584537	2.141153
11.402429189693366	4.549181	2.132881
11.420043199518153	4.506228	2.1227877
11.437657480066942	63.46854	7.9667144
11.455272031768422	85.20243	9.230516
11.472886855051353	107.58178	10.372164
11.490501950344528	99.14222	9.957019
11.508117318076819	84.47166	9.190846
11.52573295867715	45.837723	6.770356
11.543348872574514	4.1848664	2.0456946
11.560965060197946	4.1145115	2.028426
11.57858152197655	4.0772753	2.0192263
11.59619825833949	4.0164714	2.0041137
11.613815269715985	3.978191	1.9945402
11.631432556535323	38.49451	6.2043943
11.649050119226837	83.01801	9.111423
11.666667958219929	93.40407	9.664578
11.68428607394406	107.60587	10.373325
11.701904466828756	82.41298	9.078159
11.719523137303586	65.279755	8.079589
11.737142085798196	4.521067	2.12628
11.754761312742286	3.6552687	1.9118757
11.772380818565619	3.6167357	1.9017718
11.790000603698015	3.5913591	1.8950882
11.80762066856935	3.5585463	1.886411
11.825241013609572	3.5304265	1.878943
11.842861639248683	3.522909	1.8769413
11.860482545916748	3.475771	1.864342
11.878103734043883	3.4854002	1.8669226
11.895725204060282	3.4250016	1.850676
11.91334695639619	3.4001315	1.8439445
11.930968991481919	3.2927985	1.814607
11.948591309747824	3.2650883	1.8069556
11.966213911624347	3.2397127	1.7999202
11.98383679754198	3.2964048	1.8156004
12.001459967931268	3.3283484	1.8243762
12.019083423222835	3.2811313	1.8113893
12.036707163847352	3.2379901	1.7994416
12.05433119023556	3.2164743	1.7934532
12.071955502818259	3.228678	1.7968522
12.089580102026313	3.244716	1.8013095
12.107204988290643	3.2179677	1.7938695
12.12483016204224	3.1900337	1.7860665
12.142455623712152	3.1315815	1.7696276
12.16008137373149	3.0900147	1.7578437
12.177707412531431	3.0885868	1.7574376
12.19533374054321	3.0923939	1.7585204
12.212960358198126	3.1100378	1.7635299
12.230587265927545	3.091691	1.7583205
12.248214464162889	3.0320423	1.741276
12.265841953335649	2.9745352	1.7246841
12.283469733877375	2.9412432	1.7150053
12.301097806219685	2.944942	1.7160833
12.31872617079425	2.951234	1.7179157
12.336354828032825	2.9503226	1.7176503
12.353983778367205	2.9504144	1.717677
12.371613022229262	2.9561133	1.7193352
12.389242560050928	2.9525886	1.7183098
12.406872392264201	2.941616	1.715114
12.424502519301143	2.915658	1.7075298
12.442132941593874	2.902954	1.7038058
12.459763659574586	2.8934577	1.7010167
12.477394673675532	2.9252577	1.7103385
12.49502598432903	2.8903835	1.7001128
12.51265759196746	2.8324785	1.6829969
12.530289497023267	2.821511	1.6797354
12.547921699928967	2.826372	1.6811817
12.565554201117134	2.8319988	1.6828544
12.583187001020404	2.8112657	1.676683
12.600820100071486	2.8009255	1.6735966
12.618453498703152	2.77323	1.6653018
12.636087197348235	2.7629821	1.662222
12.65372119643964	2.7974927	1.6725707
12.671355496410326	2.7837965	1.6684713
12.68899009769333	2.785112	1.6688654
12.706625000721749	2.7788732	1.6669953
12.724260205928752	2.8867598	1.6990467
12.741895713747551	2.9454603	1.7162343
12.759531524611454	3.0019255	1.7326065
12.777167638953818	3.0046062	1.73338
12.794804057208072	3.0096505	1.7348344
12.812440779807702	3.0479803	1.7458466
12.830077807186271	3.2135267	1.7926313
12.847715139777405	3.251666	1.8032377
12.865352778014795	3.4511948	1.8577392
12.882990722332197	3.563147	1.88763
12.90062897316344	3.6614785	1.913499
12.918267530942412	3.757058	1.9383131
12.935906396103071	3.6470993	1.9097381
12.953545569079449	3.7550206	1.9377875
12.971185050305628	3.5113459	1.8738586
12.988824840215775	3.513953	1.874554
13.006464939244115	3.558222	1.886325
13.024105347824943	3.386994	1.8403788
13.041746066392617	3.476524	1.8645439
13.05938709538157	3.326444	1.8238541
13.077028435226296	3.368865	1.8354468
13.094670086361363	3.2280636	1.7966813
13.112312049221401	3.1137755	1.7645893
13.129954324241112	3.0269277	1.7398068
13.147596911855258	2.87267	1.6948953
13.165239812498685	2.886044	1.6988361
13.182883026606293	2.8270068	1.6813705
13.200526554613058	2.7515163	1.6587695
13.218170396954017	2.6790287	1.636774
13.235814554064284	2.656835	1.6299801
13.253459026379034	2.6721573	1.6346735
13.271103814333523	2.6412032	1.6251779
13.288748918363058	2.661802	1.631503
13.306394338903031	2.6672833	1.6331819
13.32404007638889	2.6629164	1.6318445
13.341686131256164	2.6836436	1.638183
13.359332503940449	2.6530955	1.6288326
13.376979194877402	2.658187	1.6303947
13.394626204502751	2.6825824	1.6378591
13.412273533252307	2.7171707	1.6483843
13.429921181561937	2.7184823	1.648782
13.447569149867581	2.7235024	1.6503037
13.465217438605247	2.7188842	1.648904
13.482866048211022	2.7112205	1.6465784
13.500514979121052	2.7407167	1.655511
13.518164231771568	2.7136602	1.6473191
13.535813806598844	2.7128222	1.6470647
13.553463704039254	2.6796763	1.6369717
13.571113924529229	2.6750596	1.635561
13.588764468505275	2.6702054	1.6340764
13.606415336403956	2.7037244	1.6443006
13.624066528661917	2.7339063	1.6534529
13.641718045715882	2.7821624	1.6679815
13.659369888002635	2.8138733	1.6774603
13.67702205595903	2.8937263	1.7010956
13.694674550021993	2.9592524	1.7202477
13.712327370628532	2.9885128	1.7287315
13.729980518215713	3.0880582	1.7572871
13.747633993220681	3.1615207	1.7780665
13.765287796080647	3.2834492	1.812029
13.7829419272329	3.3332787	1.8257269
13.800596387114801	3.3674417	1.835059
13.818251176163775	3.3155923	1.8208768
13.835906294817324	3.3111973	1.8196696
13.853561743513023	3.373034	1.8365822
13.871217522688525	3.456975	1.8592942
13.888873632781538	3.499544	1.8707068
13.906530074229858	3.5108628	1.8737297
13.92418684747135	3.5228143	1.8769162
13.941843952943948	3.5131936	1.8743515
13.959501391085665	3.4507718	1.8576254
13.977159162334578	3.406013	1.8455387
13.994817267128846	3.3902857	1.8412728
14.012475705906693	3.3458052	1.8291543
14.030134479106424	3.2573967	1.8048259
14.047793587166414	3.1835697	1.7842561
14.065453030525108	3.0707576	1.7523577
14.083112809621026	3.0074883	1.7342111
14.100772924892766	2.958499	1.7200288
14.118433376778997	2.8952427	1.7015413
14.136094165718458	2.7868426	1.6693839
14.153755292149969	2.7143106	1.6475165
14.171416756512416	2.6543016	1.6292027
14.189078559244768	2.6036768	1.6135913
14.20674070078606	2.5493624	1.5966723
14.224403181575408	2.4962337	1.5799474
14.242066002051999	2.4719334	1.5722383
14.259729162655093	2.4285173	1.5583701
14.277392663824022	2.3714433	1.539949
14.295056505998208	2.374167	1.5408332
14.312720689617128	2.4144208	1.5538406
14.330385215120348	2.4361722	1.5608243
14.348050082947497	2.466491	1.5705066
14.3657152935383	2.4637504	1.5696338
14.383380847332528	2.396647	1.5481107
14.401046744770051	2.3086548	1.5194257
14.418712986290798	2.2911587	1.5136573
14.436379572334793	2.3418262	1.5303026
14.454046503342123	2.389988	1.5459586
14.471713779752946	2.3847036	1.5442486
14.489381402007504	2.3759282	1.5414046
14.507049370546113	2.336384	1.5285234
14.524717685809168	2.3310528	1.5267786
14.542386348237134	2.3609009	1.5365224
14.560055358270553	2.3869767	1.5449843
14.577724716350051	2.467142	1.5707139
14.595394422916325	2.4922643	1.5786906
14.61306447841015	2.531721	1.5911384
14.63073488327237	2.541792	1.5942998
14.648405637943917	2.5165882	1.5863758
14.6660767428658	2.4795718	1.5746657
14.683748198479094	2.453349	1.5663171
14.701420005224954	2.4801033	1.5748343
14.719092163544628	2.5665808	1.6020552
14.73676467387942	2.653069	1.6288245
14.754437536670727	2.7210371	1.6495566
14.772110752360014	2.7360482	1.6541004
14.78978432138882	2.7409143	1.6555707
14.807458244198777	2.7220159	1.6498532
14.82513252123159	2.643123	1.6257684
14.842807152929028	2.6563697	1.6298373
14.860482139732962	2.6726987	1.634839
14.87815748208531	2.7014282	1.6436023
14.8958331804281	2.6972964	1.6423448
14.91350923520342	2.6544116	1.6292365
14.931185646853438	2.6641243	1.6322145
14.948862415820408	2.625395	1.6203071
14.966539542546656	2.6481779	1.6273223
14.98421702747459	2.6455915	1.6265274
15.001894871046696	2.6664863	1.6329379
15.019573073705542	2.678406	1.6365837
15.037251635893766	2.688363	1.6396228
15.054930558054092	2.6788692	1.6367252
15.072609840629323	2.7096703	1.6461077
15.090289484062351	2.8276176	1.6815522
15.107969488796124	3.1458912	1.773666
15.125649855273691	3.5400975	1.8815147
15.14333058393817	4.0623207	2.0155199
15.161011675232768	4.993367	2.2345843
15.17869312960076	6.2962494	2.5092328
15.196374947485506	8.098029	2.8457036
15.214057129330447	11.133879	3.3367467
15.231739675579114	15.907146	3.9883764
15.249422586675102	21.162058	4.6002235
15.267105863062092	24.428146	4.942484
15.284789505183847	24.86927	4.98691
15.302473513484218	22.808636	4.775839
15.320157888407127	19.27366	4.3901777
15.337842630396578	14.941257	3.8653922
15.355527739896656	11.624888	3.409529
15.37321321735153	8.996354	2.9993923
15.39089906320545	6.5856924	2.5662603
15.408585277902748	4.895281	2.2125282
15.42627186188783	3.7477481	1.9359101
15.443958815605198	3.212125	1.7922403
15.461646139499424	2.9151435	1.7073791
15.479333834015168	2.7354321	1.6539142
15.497021899597165	2.6754534	1.6356814
15.514710336690234	2.6383739	1.6243072
15.53239914573928	2.5775175	1.6054649
15.550088327189297	2.493195	1.5789855
15.567777881485336	2.4583995	1.5679284
15.58546780907256	2.469768	1.5715495
15.6031581103962	2.4707549	1.5718635
15.620848785901568	2.4502344	1.5653225
15.638539836034063	2.4912574	1.5783718
15.656231261239173	2.523633	1.5885947
15.673923061962451	2.4810963	1.5751497
15.691615238649552	2.4209137	1.5559286
15.709307791746202	2.3439064	1.5309821
15.727000721698221	2.3609874	1.5365505
15.744694028951498	2.3962395	1.5479791
15.76238771395202	2.4201787	1.5556923
15.780081777145844	2.4196117	1.5555102
15.797776218979125	2.4176433	1.5548773
15.815471039898094	2.4199488	1.5556185
15.833166240349064	2.3950474	1.5475941
15.850861820778437	2.3924685	1.5467607
15.868557781632699	2.4104114	1.55255
15.886254123358412	2.3843303	1.5441277
15.903950846402232	2.3638008	1.5374657
15.921647951210897	2.3249652	1.5247836
15.939345438231225	2.3226805	1.5240343
15.957043307910133	2.3714426	1.5399489
15.974741560694602	2.4192276	1.5553867
15.992440197031714	2.39846	1.5486962
16.01013921736862	2.3717165	1.5400379
16.02783862215259	2.373162	1.5405071
16.045538411830933	2.3852062	1.5444113
16.06323858685107	2.3920417	1.5466226
16.080939147660512	2.418934	1.5552922
16.09864009470684	2.407504	1.5516133
16.11634142843774	2.4435894	1.5631984
16.134043149300954	2.4137766	1.5536333
16.15174525774433	2.396995	1.5482231
16.169447754215817	2.395761	1.5478246
16.18715063916342	2.4241068	1.5569544
16.204853913035244	2.4648352	1.5699793
16.222557576279478	2.4470127	1.564293
16.240261629344403	22.413708	4.7343116
16.257966072678386	42.955627	6.5540543
16.275670906729868	38.064686	6.1696587
16.293376131947387	2.4818883	1.575401
16.31108174877957	2.5048811	1.5826817
16.328787757675133	2.5394866	1.5935767
16.34649415908287	2.5381963	1.5931718
16.364200953451657	2.5429063	1.5946493
16.38190814123048	2.5661435	1.6019187
16.39961572286839	2.6288588	1.6213756
16.41732369881455	2.6993213	1.6429611
16.43503206951817	2.7483351	1.6578103
16.45274083542859	2.7614012	1.6617464
16.47044999699522	2.7882082	1.6697929
16.488159554667558	2.8218417	1.6798339
16.505869508895184	2.8586667	1.6907592
16.523579860127786	2.899136	1.702685
16.541290608815117	2.9336047	1.7127769
16.559001755407035	2.9113724	1.7062744
16.57671330035348	2.9669118	1.7224725
16.59442524410448	3.0672288	1.7513505
16.61213758711015	3.1611717	1.7779684
16.629850329820705	3.2154837	1.793177
16.647563472686436	3.2919836	1.8143824
16.665277016157724	3.4127977	1.8473759
16.682990960685053	3.472413	1.8634412
16.70070530671898	3.4520378	1.8579661
16.718420054710155	3.441264	1.8550644
16.736135205109335	3.469981	1.8627884
16.753850758367335	3.5162716	1.8751724
16.771566714935087	3.589061	1.8944818
16.789283075263597	3.6586444	1.9127584
16.80699983980398	3.7431362	1.9347186
16.82471700900741	3.777244	1.9435134
16.84243458332518	3.8309112	1.9572713
16.860152563208665	3.94266	1.9856132
16.87787094910932	4.040311	2.0100524
16.89558974147871	4.135611	2.03362
16.913308940768466	4.161545	2.0399864
16.931028547430333	4.2586036	2.0636384
16.94874856191613	4.323893	2.0793972
16.966468984677785	4.379581	2.0927448
16.98418981616729	4.421804	2.1028085
17.00191105683676	4.4420247	2.1076112
17.019632707138374	4.452682	2.110138
17.03735476752442	4.5105844	2.1238136
17.05507723844728	4.5169616	2.1253145
17.072800120359403	4.549427	2.1329386
17.090523413713353	4.5508547	2.1332731
17.108247118961785	4.606496	2.1462748
17.125971236557437	4.6807017	2.163493
17.143695766953133	4.7325406	2.1754403
17.161420710601806	4.75215	2.1799426
17.179146067956477	4.7225685	2.1731472
17.19687183947025	4.706491	2.1694448
17.21459802559634	4.6632934	2.159466
17.232324626788028	4.60215	2.1452622
17.25005164349871	4.551934	2.133526
17.267779076181863	4.5381565	2.130295
17.285506925291074	4.5491633	2.1328769
17.30323519127999	4.4956446	2.1202936
17.320963874602384	4.515235	2.1249082
17.33869297571211	4.516823	2.1252818
17.356422495063114	4.4920087	2.119436
17.37415243310944	4.4930105	2.1196723
17.391882790305218	4.531842	2.1288123
17.40961356710468	4.515882	2.1250606
17.42734476396215	4.4941316	2.1199367
17.445076381332044	4.479719	2.1165347
17.462808419668868	4.61217	2.1475964
17.48054087942723	4.7326083	2.1754558
17.498273761061835	4.9605904	2.2272382
17.51600706502747	5.3716416	2.3176801
17.533740791779024	6.049908	2.459656
17.551474941771485	7.4937134	2.7374647
17.56920951545993	8.696067	2.9489095
17.586944513299528	10.998471	3.3163943
17.60467993574556	12.747331	3.5703404
17.622415783253373	14.611604	3.8225129
17.64015205627843	16.087736	4.010952
17.657888755276293	17.211048	4.14862
17.675625880702604	17.755896	4.2137747
17.69336343301311	17.50287	4.1836433
17.71110141266366	16.607513	4.0752316
17.728839820110178	15.485579	3.935172
17.746578655808705	14.519183	3.8104045
17.764317920215372	12.904578	3.5922942
17.7820576137864	11.371954	3.3722327
17.79979773697811	9.390435	3.0643816
17.81753829024692	7.5320225	2.744453
17.835279274049356	5.8558984	2.4198964
17.85302068884201	4.7714987	2.184376
17.870762535081607	4.1273394	2.0315855
17.888504813224934	3.864901	1.9659351
17.90624752372891	3.7149858	1.9274299
17.923990667050536	3.5968342	1.8965322
17.941734243646895	3.4810016	1.8657442
17.959478253975185	3.440353	1.8548188
17.9772226984927	3.4077528	1.84601
17.994967577656833	3.3674743	1.835068
18.01271289192506	3.3606763	1.8332148
18.030458641754965	3.3708441	1.8359859
18.04820482760425	3.4139295	1.8476822
18.06595144993067	3.3983753	1.8434683
18.083698509192125	3.3709922	1.8360262
18.101446005846576	3.3402414	1.8276328
18.119193940352105	3.2948577	1.8151743
18.136942313166887	3.2865105	1.8128735
18.1546911247492	3.265099	1.8069586
18.1724403755574	3.2097485	1.7915771
18.19019006604997	3.1729796	1.7812859
18.207940196685467	3.1645868	1.7789285
18.225690767922575	3.2061512	1.7905729
18.243441780220046	3.1863294	1.7850293
18.261193234036764	3.1269038	1.7683053
18.278945129831676	3.0551882	1.7479097
18.29669746806386	3.0035152	1.7330652
18.314450249192483	3.020499	1.7379583
18.3322034736768	3.0358953	1.742382
18.349957141976184	3.0649958	1.7507129
18.3677112545501	3.0230734	1.7386987
18.385465811858108	3.031411	1.7410947
18.403220814359884	3.0659602	1.7509884
18.420976262515172	3.0558503	1.7480991
18.43873215678387	3.0922086	1.7584677
18.456488497625923	3.1162033	1.7652771
18.474245285501407	3.2305212	1.7973651
18.492002520870486	3.3079352	1.818773
18.50976020419343	3.4277442	1.8514168
18.527518335930615	3.7066882	1.9252762
18.545276916542516	4.259013	2.0637376
18.563035946489688	4.3795047	2.0927267
18.580795426232832	4.7645535	2.1827857
18.598555356232698	4.653991	2.1573112
18.616315736950185	4.9941726	2.2347646
18.63407656884626	4.6883855	2.165268
18.65183785238201	4.8492513	2.2021015
18.669599588018617	4.6283417	2.1513581
18.68736177621737	4.605875	2.1461303
18.705124417439652	4.5984335	2.1443958
18.72288751214696	4.400289	2.0976865
18.740651060800886	4.550641	2.133223
18.758415063863115	4.259823	2.0639338
18.77617952179546	4.399777	2.0975645
18.793944435059814	4.1849675	2.0457194
18.811709804118184	4.2382236	2.0586946
18.829475629432675	4.2305174	2.056822
18.8472419114655	3.9638393	1.9909393
18.86500865067897	3.989238	1.9973077
18.88277584753551	3.6947818	1.9221815
18.90054350249763	3.733676	1.9322722
18.918311616027957	3.4211233	1.8496279
18.936080188589226	3.3485305	1.8298991
18.953849220644265	3.0829997	1.7558473
18.971618712656007	2.928005	1.7111415
18.9893886650875	2.8815267	1.6975061
19.007159078401887	8.010142	2.8302195
19.024929953062408	32.87769	5.733907
19.042701289532435	32.824745	5.7292886
19.060473088275405	25.396282	5.0394726
19.07824534975489	2.6692388	1.6337805
19.096018074434568	2.6339188	1.6229352
19.113791262778197	2.6084185	1.6150599
19.13156491524966	2.5990732	1.6121641
19.149339032312945	2.634958	1.6232554
19.167113614432136	2.6494546	1.6277145
19.184888662071433	2.6099815	1.6155437
19.202664175695123	2.568545	1.6026682
19.220440155767623	2.5439262	1.594969
19.238216602753447	2.53298	1.5915339
19.2559935171172	2.513227	1.5853161
19.27377089932361	2.559537	1.5998553
19.291548749837514	2.5492852	1.5966481
19.309327069123835	2.5378702	1.5930694
19.32710585764763	2.5267453	1.589574
19.344885115874032	2.5323682	1.5913416
19.362664844268313	2.5432858	1.5947683
19.380445043295822	2.5475965	1.5961192
19.39822571342203	2.5225494	1.5882536
19.41600685511252	2.547862	1.5962024
19.43378846883297	2.5470607	1.5959513
19.451570555049173	2.53951	1.5935841
19.469353114227037	2.5286272	1.5901657
19.48713614683254	2.5447192	1.5952176
19.50491965333182	2.5216572	1.5879726
19.52270363419109	2.491266	1.5783745
19.540488089876686	2.475933	1.5735098
19.55827302085503	2.4770725	1.5738719
19.576058427592674	2.4566286	1.5673636
19.593844310556282	2.4623346	1.5691828
19.611630670212598	2.4853916	1.5765125
19.629417507028506	2.4884193	1.5774724
19.64720482147098	2.4376876	1.5613096
19.6649926140071	2.4272168	1.5579528
19.682780885104084	2.422001	1.5562779
19.70056963522921	2.4566278	1.5673634
19.718358864849908	2.4862466	1.5767837
19.7361485744337	2.5300686	1.590619
19.753938764448215	2.5171702	1.5865592
19.771729435361202	2.4835887	1.5759406
19.789520587640506	2.4821765	1.5754925
19.807312221754092	2.4802842	1.5748918
19.825104338170043	2.4764516	1.5736746
19.842896937356517	2.4759796	1.5735246
19.860690019781824	2.4899328	1.577952
19.87848358591436	2.510767	1.58454
19.896277636222635	2.5309155	1.5908852
19.914072171175278	2.505271	1.5828048
19.931867191241015	2.461798	1.5690118
19.94966269688869	2.432364	1.5596038
19.967458688587264	2.468337	1.5710943
19.985255166805807	2.4864712	1.5768548
20.00305213201348	2.5138824	1.5855228
20.020849584679578	2.5020266	1.5817796
20.038647525273507	2.4777033	1.5740722
20.05644595426477	2.4391022	1.5617626
20.07424487212299	2.4505322	1.5654175
20.092044279317903	2.433326	1.5599122
20.109844176319353	2.4466357	1.5641725
20.127644563597304	2.4105082	1.5525811
20.145445441621817	2.4063723	1.5512487
20.16324681086307	2.4140434	1.5537193
20.181048671791373	2.4043212	1.5505874
20.198851024877122	2.3889654	1.5456278
20.216653870590836	2.355309	1.5347016
20.234457209403146	2.3262887	1.5252175
20.252261041784802	2.3360868	1.5284263
20.270065368206662	2.3379421	1.5290331
20.287870189139685	2.345608	1.5315378
20.305675505054968	2.3147283	1.5214231
20.323481316423702	2.3435497	1.5308657
20.341287623717207	2.379132	1.5424435
20.359094427406884	2.4000978	1.549225
20.376901727964288	2.367403	1.5386368
20.39470952586107	2.3535354	1.5341237
20.41251782156899	2.348465	1.5324702
20.430326615559935	2.358796	1.5358372
20.448135908305886	2.3736386	1.5406617
20.465945700278965	2.372798	1.540389
20.483755991951384	2.363563	1.5373884
20.50156678379548	2.3725386	1.5403047
20.519378076283708	2.3782282	1.5421505
20.537189869888635	2.3770711	1.5417753
20.55500216508294	2.3557296	1.5348387
20.572814962339415	2.348015	1.5323235
20.59062826213098	2.3519545	1.5336083
20.60844206493066	2.3024843	1.517394
20.626256371211593	2.2925322	1.514111
20.644071181447032	2.3042443	1.5179738
20.66188649611036	2.317964	1.5224861
20.67970231567506	2.3036573	1.5177804
20.697518640614742	2.291123	1.5136455
20.715335471403122	2.2806494	1.5101819
20.73315280851404	2.2821693	1.5106851
20.750970652421447	2.297108	1.5156213
20.768789003599412	2.2839038	1.5112591
20.786607862522136	2.2931292	1.5143082
20.8044272296639	2.2700403	1.5066652
20.82224710549913	2.2631876	1.5043894
20.84006749050237	2.240901	1.496964
20.857888385148268	3.7785938	1.9438605
20.8757097899116	45.903656	6.7752237
20.893531705267254	64.76859	8.047894
20.911354131690224	83.78725	9.153538
20.92917706965566	69.029465	8.308397
20.94700051963877	50.10974	7.0788236
20.96482448211493	29.382635	5.420575
20.982648957559622	4.1134505	2.0281644
21.00047394644843	2.2458694	1.4986225
21.01829944925707	2.2619858	1.5039899
21.036125466461375	2.2550247	1.5016739
21.053951998537297	2.2160065	1.4886258
21.071779045960906	2.2036955	1.4844849
21.089606609208378	2.2029364	1.4842292
21.10743468875603	2.204108	1.4846239
21.12526328508028	2.2045403	1.4847695
21.143092398657675	2.1846776	1.4780655
21.16092202996488	2.1955624	1.481743
21.17875217947867	2.2062504	1.4853452
21.19658284767596	2.2066813	1.4854902
21.21441403503377	2.2166607	1.4888455
21.232245742029225	2.2108636	1.4868973
21.2500779691396	2.1827824	1.4774243
21.26791071684227	2.1579132	1.4689838
21.28574398561475	2.1402683	1.4629656
21.30357777593465	2.124608	1.4576036
21.321412088279704	2.1256611	1.4579648
21.339246923127792	2.1527429	1.4672228
21.357082280956888	2.1642864	1.4711514
21.3749181622451	2.1746042	1.474654
21.392754567470647	2.195282	1.4816484
21.41059149711187	2.1497412	1.4661995
21.42842895164726	2.1168268	1.4549319
21.446266931555378	2.121034	1.456377
21.464105437314945	2.126263	1.4581711
21.481944469404798	2.15148	1.4667925
21.49978402830388	2.1302152	1.4595257
21.51762411449127	2.092414	1.4465178
21.53546472844617	2.0518	1.4324106
21.553305870647876	2.0392826	1.4280345
21.571147541575865	2.0696104	1.438614
21.58898974170967	2.1043813	1.4506485
21.60683247152899	2.1486235	1.4658184
21.62467573151363	2.0975716	1.4482995
21.642519522143523	2.0596516	1.4351486
21.660363843898722	2.039799	1.4282153
21.6782086972594	2.0562253	1.4339545
21.696054082705864	2.0623577	1.4360911
21.713900000718535	2.0767925	1.4411081
21.73174645177795	2.081009	1.4425702
21.749593436364794	2.075473	1.4406502
21.767440954959845	2.0671124	1.4377456
21.785289008044032	2.0584886	1.4347434
21.803137596098388	2.037773	1.4275059
21.820986719604086	1.9961679	1.412858
21.838836379042412	1.9644226	1.4015785
21.85668657489478	2.0048492	1.4159269
21.87453730764273	2.0236588	1.4225537
21.892388577767914	2.0393775	1.4280677
21.91024038575213	2.005442	1.4161363
21.928092732077285	1.9862626	1.4093482
21.945945617225426	1.9553648	1.3983436
21.963799041678694	1.9588624	1.3995937
21.981653005919398	31.269552	5.5919185
21.999507510429943	78.09666	8.837232
22.01736255569286	73.09274	8.549429
22.035218142190818	4.2218175	2.054706
22.05307427040661	2.0107555	1.4180111
22.07093094082315	1.9753662	1.4054773
22.088788153923474	1.969265	1.403305
22.106645910190746	1.9462051	1.3950646
22.12450421010827	1.958771	1.399561
22.142363054159464	1.9484322	1.3958626
22.16022244282787	1.9633834	1.4012078
22.178082376597164	1.985874	1.4092104
22.195942855951145	1.9936013	1.4119495
22.213803881373742	2.007524	1.4168712
22.231665453349002	1.9744611	1.4051552
22.24952757236111	1.9787815	1.4066917
22.26739023889438	1.9823433	1.4079572
22.28525345343323	2.0011327	1.414614
22.30311721646225	1.9857087	1.4091518
22.320981528466113	1.988729	1.410223
22.33884638992964	1.9572438	1.3990153
22.356711801337788	1.94826	1.3958008
22.37457776317561	1.9265529	1.3880032
22.392444275928337	1.9565477	1.3987665
22.410311340081282	1.9923335	1.4115005
22.428178956119904	1.999821	1.4141502
22.446047124529805	1.9950943	1.4124781
22.46391584579669	2.001288	1.4146688
22.481785120406414	1.955243	1.3983
22.49965494884496	1.9652779	1.4018837
22.51752533159841	1.9585966	1.3994987
22.53539626915302	1.9612621	1.4004507
22.553267761995137	1.9544785	1.3980267
22.571139810611264	1.9719971	1.4042782
22.589012415488025	1.9553008	1.3983207
22.60688557711216	1.971062	1.4039451
22.624759295970566	1.975258	1.4054387
22.642633572550263	1.9595398	1.3998356
22.660508407338362	1.933743	1.3905909
22.67838380082217	1.9524297	1.3972937
22.696259753489077	1.9762691	1.4057984
22.714136265826614	1.9738407	1.4049344
22.73201333832246	1.9463536	1.3951178
22.74989097146439	1.9170316	1.3845692
22.76776916574035	1.8895439	1.3746068
22.785647921638393	1.9097464	1.3819357
22.803527239646712	1.9231431	1.3867744
22.82140712025363	1.9386529	1.3923552
22.839287563947593	1.9327766	1.3902433
22.85716857121719	1.9146445	1.3837068
22.875050142551135	1.9348247	1.3909798
22.892932278438277	1.9194182	1.3854307
22.910814979367604	1.8934029	1.3760098
22.928698245828222	1.8575912	1.3629347
22.946582078309387	1.8521185	1.3609256
22.96446647730047	1.8515375	1.3607122
22.98235144329098	1.8827951	1.3721498
23.000236976770562	1.9070061	1.3809439
23.018123078229	1.927147	1.3882172
23.03600974815619	1.8884283	1.3742009
23.053896987042194	1.8804976	1.3713124
23.071784795377173	1.8655664	1.3658574
23.08967317365145	1.9105911	1.3822414
23.10756212235546	1.8999342	1.378381
23.125451641979787	1.8917503	1.3754091
23.143341733015134	1.8811519	1.3715509
23.161232395952357	1.8931122	1.3759041
23.179123631282426	1.880441	1.3712918
23.197015439496468	1.8911357	1.3751857
23.214907821085717	1.8976489	1.3775518
23.23280077654157	1.9397395	1.3927453
23.250694306355538	1.9465247	1.3951792
23.268588411019277	1.959	1.3996428
23.28648309102458	1.9204412	1.3857998
23.304378346863356	1.9225247	1.3865514
23.322274179027676	1.9340622	1.3907057
23.340170588009723	1.9480668	1.3957317
23.358067574301852	1.9452373	1.3947177
23.37596513839651	1.8760524	1.3696907
23.39386328078629	1.8929788	1.3758557
23.411762001963947	1.9013278	1.3788865
23.429661302422353	1.9327276	1.3902258
23.4475611826545	1.9056908	1.3804677
23.46546164315356	1.9104446	1.3821883
23.48336268441279	1.9342357	1.390768
23.501264306925638	1.9389887	1.3924757
23.51916651118564	1.9289587	1.3888695
23.537069297686497	1.9189655	1.3852673
23.554972666922037	1.9195234	1.3854686
23.57287661938623	1.9423327	1.3936759
23.59078115557318	1.9119653	1.3827384
23.608686275977128	1.8762758	1.3697722
23.62659198109246	1.8802366	1.3712173
23.6444982714137	1.9160898	1.384229
23.66240514743549	1.8981057	1.3777176
23.68031260965263	1.9010851	1.3787985
23.698220658560068	1.8884622	1.3742133
23.716129294652845	1.8865161	1.373505
23.7340385184262	1.8830025	1.3722254
23.75194833037546	1.8809732	1.3714858
23.769858730996123	1.8955313	1.3767829
23.78776972078382	1.8664931	1.3661966
23.80568130023431	1.8352826	1.354726
23.823593469843495	1.8681337	1.3667969
23.841506230107424	1.9126109	1.3829718
23.859419581522275	1.9553064	1.3983227
23.87733352458438	1.9391384	1.3925295
23.89524805979019	1.9109988	1.3823888
23.913163187636318	1.9094601	1.3818321
23.931078908619508	1.9428891	1.3938756
23.948995223236633	1.9748552	1.4052954
23.966912131984735	2.006594	1.416543
23.98482963536096	2.0519423	1.4324602
24.002747733862616	2.067489	1.4378766
24.020666427987155	2.0757463	1.440745
24.038585718232156	2.0546405	1.4334017
24.056505605095353	2.0466242	1.4306028
24.074426089074617	2.0807939	1.4424957
24.092347170667946	2.1226687	1.4569381
24.110268850373515	2.116669	1.4548776
24.128191128689586	2.0646033	1.4368727
24.146114006114626	2.0253232	1.4231385
24.164037483147187	2.0184288	1.4207141
24.181961560286005	2.078138	1.4415749
24.199886238029926	2.0652928	1.4371127
24.21781151687797	2.0420058	1.4289876
24.235737397329274	2.0528808	1.4327878
24.253663879883135	2.0859752	1.4442905
24.271590965038975	2.0836413	1.4434824
24.289518653296376	2.0965507	1.447947
24.30744694515505	2.0955038	1.4475855
24.32537584111486	2.0890322	1.4453485
24.34330534167581	2.0546296	1.4333979
24.361235447338046	2.037502	1.427411
24.379166158601876	2.0436952	1.4295787
24.39709747596772	2.0803344	1.4423364
24.41502939993615	2.0782773	1.4416232
24.432961931007917	2.029706	1.4246775
24.450895069683856	1.977029	1.4060686
24.468828816465	1.978461	1.4065778
24.4867631718525	1.9554101	1.3983598
24.504698136347656	1.949835	1.3963649
24.52263371045192	1.9715511	1.4041194
24.540569894666874	1.9829292	1.4081652
24.558506689494266	1.9996516	1.4140904
24.57644409543597	1.9375266	1.3919506
24.594382112994012	1.9436829	1.3941603
24.61232074267057	1.9809356	1.4074571
24.630259984967953	1.9904404	1.4108297
24.64819984038863	1.9689233	1.4031833
24.66614030943522	1.9655639	1.4019856
24.684081392610462	1.9437412	1.3941813
24.702023090417274	1.9453186	1.3947468
24.7199654033587	1.9442364	1.3943588
24.737908331937927	1.9587065	1.3995379
24.755851876658305	1.9736483	1.404866
24.773796038023324	2.0124855	1.418621
24.79174081653661	2.080887	1.442528
24.809686212701962	2.0755084	1.4406625
24.827632227023294	2.0652325	1.4370917
24.8455788600047	2.0599864	1.4352653
24.8635261121504	2.1134953	1.4537866
24.88147398396475	2.092105	1.446411
24.899422475952303	2.1016476	1.4497061
24.917371588617698	2.095392	1.4475468
24.935321322465768	2.16054	1.4698776
24.953271678001478	2.2689748	1.5063117
24.97122265572994	2.493517	1.5790874
24.989174256156414	2.827973	1.6816578
25.00712647978632	3.2277803	1.7966025
25.02507932712521	3.747621	1.9358773
25.043032798678798	4.3174005	2.0778356
25.060986894952933	5.034283	2.2437208
25.078941616453637	5.839651	2.416537
25.096896963687055	6.832906	2.6139827
25.114852937159508	8.060774	2.8391502
25.132809537377444	8.562836	2.9262323
25.150766764847468	8.574914	2.9282954
25.168724620076347	7.8757963	2.8063848
25.186683103570985	6.8395743	2.615258
25.204642215838426	5.676599	2.3825614
25.222601957385894	4.3059726	2.0750837
25.24056232872074	3.258381	1.8050985
25.25852333035048	2.5940304	1.6105994
25.276484962782778	2.2260869	1.4920076
25.294447226525435	2.054256	1.4332676
25.312410122086423	1.9862212	1.4093336
25.330373649973843	1.9493221	1.3961812
25.348337810695988	1.9409815	1.3931911
25.366302604761245	1.9256294	1.3876705
25.384268032678207	1.9502147	1.396501
25.40223409495558	1.898686	1.3779281
25.420200792102257	1.8849751	1.372944
25.438168124627246	1.8911867	1.3752042
25.45613609303974	1.9276282	1.3883905
25.474104697849057	1.9269146	1.3881335
25.492073939564698	1.9443375	1.394395
25.510043818696285	1.9600923	1.400033
25.528014335753614	1.9379625	1.3921072
25.54598549124664	1.9174628	1.3847249
25.56395728568544	1.8987718	1.3779593
25.58192971958028	1.8652638	1.3657466
25.59990279344156	1.8493224	1.359898
25.617876507779833	1.8685937	1.3669652
25.635850863105826	1.8612798	1.3642873
25.653825859930386	1.8638184	1.3652173
25.671801498764548	1.8552583	1.3620787
25.68977778011949	1.890963	1.3751229
25.707754704506524	1.8864027	1.3734637
25.725732272437153	1.8874904	1.3738596
25.743710484423012	1.8655267	1.3658428
25.761689340975888	1.8500305	1.3601583
25.77966884260774	1.7767144	1.3329345
25.797648989830662	1.7572072	1.3255969
25.815629783156922	1.7513756	1.3233955
25.83361122309895	1.8058686	1.343826
25.85159331016929	1.8405752	1.356678
25.869576044880695	1.8287909	1.352328
25.887559427746034	1.8099927	1.3453597
25.90554345927836	1.8289956	1.3524036
25.92352813999086	1.8220528	1.3498343
25.94151347039689	1.7931113	1.339071
25.959499451009965	1.8152547	1.3473139
25.97748608234374	1.8942264	1.376309
25.995473364912062	1.8921026	1.3755372
26.013461299228904	1.8707944	1.3677698
26.03144988580839	1.8329936	1.353881
26.04943912516483	1.8033547	1.3428905
26.067429017812675	1.7823356	1.3350414
26.085419564266537	1.802325	1.342507
26.103410765041186	1.7854221	1.3361969
26.12140262065155	1.7548164	1.3246949
26.139395131612723	1.7849675	1.3360268
26.157388298439948	1.7803873	1.3343115
26.17538212164861	1.7959404	1.340127
26.193376601754295	1.7977438	1.3407997
26.211371739272714	1.844107	1.357979
26.229367534719746	1.816022	1.3475987
26.247363988611433	1.8081083	1.3446592
26.26536110146397	1.7963268	1.3402711
26.283358873793727	1.7932973	1.3391405
26.301357306117204	1.7813464	1.3346709
26.319356398951104	1.796164	1.3402104
26.33735615281224	1.7963022	1.3402619
26.35535656821762	1.8340425	1.3542683
26.373357645684404	1.8620107	1.3645551
26.39135938572991	1.86953	1.3673075
26.409361788871614	1.8198525	1.349019
26.427364855627165	1.7481946	1.3221931
26.445368586514352	1.7445168	1.3208016
26.46337298205115	1.7491271	1.3225458
26.48137804275568	1.8272198	1.3517469
26.499383769146217	1.8186319	1.3485667
26.517390161741215	1.7872047	1.3368638
26.53539722105928	1.757059	1.325541
26.553404947619182	1.8097013	1.3452514
26.571413341939856	1.8421165	1.3572459
26.589422404540397	1.8311507	1.3532002
26.60743213594006	1.8136538	1.3467196
26.62544253665827	1.8023736	1.3425251
26.64345360721459	1.82061	1.3492998
26.66146534812879	1.8610022	1.3641856
26.679477759920758	1.8785048	1.3705856
26.69749084311057	1.8657976	1.365942
26.71550459821847	1.825404	1.3510752
26.733519025764842	1.7896723	1.3377863
26.751534126270258	1.780742	1.3344445
26.769549900255434	1.7636176	1.3280127
26.787566348241267	1.7687575	1.3299464
26.80558347074881	1.8328396	1.353824
26.823601268299267	1.8768262	1.3699731
26.841619741414036	1.8504066	1.3602965
26.85963889061465	1.8048009	1.3434287
26.877658716422832	1.7648312	1.3284695
26.89567921936045	1.789564	1.3377459
26.913700399949544	1.8199111	1.3490409
26.93172225871233	1.8387778	1.3560154
26.949744796171174	1.8332472	1.3539746
26.967768012848605	1.8538935	1.3615776
26.98579190926733	1.7921832	1.3387245
27.003816485950225	1.7276124	1.3143867
27.021841743420318	1.7668645	1.3292346
27.039867682200814	1.8209848	1.3494387
27.057894302815072	1.8129638	1.3464634
27.07592160578664	1.7731789	1.3316077
27.0939495916392	1.7575403	1.3257226
27.111978260896635	1.7664821	1.3290907
27.13000761408296	1.8333814	1.3540242
27.148037651722397	1.8700864	1.367511
27.166068374339304	1.8534793	1.3614254
27.184099782458215	1.8425232	1.3573958
27.20213187660384	1.8517575	1.360793
27.22016465730105	1.8125545	1.3463115
27.23819812507487	1.800278	1.3417444
27.256232280450533	1.8289723	1.352395
27.274267123953383	1.8195266	1.3488983
27.292302656108987	1.8083761	1.3447587
27.31033887744306	1.8072048	1.3443232
27.32837578848146	1.7770973	1.3330781
27.34641338975026	1.7537446	1.3242903
27.364451681775673	1.7930077	1.3390324
27.382490665084074	1.8362257	1.355074
27.400530340202046	1.8793461	1.3708924
27.41857070765629	1.8705597	1.367684
27.436611767973726	1.83906	1.3561194
27.454653521681404	1.8132945	1.3465862
27.472695969306564	1.8178909	1.3482919
27.490739111376627	1.8036352	1.3429949
27.508782948419153	1.8181748	1.3483971
27.526827480961902	1.8340129	1.3542573
27.54487270953279	1.8433914	1.3577155
27.562918634659898	1.89067	1.3750163
27.580965256871508	1.8706876	1.3677309
27.599012576696026	1.8527701	1.3611649
27.617060594662068	1.830617	1.3530029
27.63510931129842	1.8045617	1.3433398
27.65315872713401	1.7723727	1.3313049
27.67120884269797	1.7715946	1.3310126
27.68925965851958	1.8055062	1.3436912
27.707311175128307	1.8608162	1.3641174
27.725363393053787	1.8169465	1.3479416
27.74341631282583	1.7661575	1.3289686
27.7614699349744	1.7860382	1.3364273
27.77952426002968	1.9523797	1.3972758
27.797579288521973	2.0657177	1.4372605
27.815635020981784	2.4873042	1.577119
27.83369145793979	2.5418134	1.5943066
27.85174859992682	2.3646321	1.537736
27.869806447473923	2.2026303	1.4841261
27.887865001112267	1.9648911	1.4017457
27.905924261373233	1.9283442	1.3886484
27.92398422878836	1.9248614	1.3873937
27.94204490388936	1.9175404	1.3847529
27.96010628720813	1.879388	1.3709077
27.978168379276728	1.8182107	1.3484105
27.9962311806274	1.816074	1.3476179
28.014294691792568	1.8653227	1.3657682
28.0323589133048	1.8337727	1.3541687
28.050423845696887	1.805667	1.3437511
28.068489489501758	1.8428324	1.3575096
28.086555845252523	1.849729	1.3600475
28.104622913482487	1.8240316	1.3505671
28.122690694725115	1.8058366	1.3438141
28.14075918951405	1.8484771	1.3595871
28.15882839838312	1.9109002	1.3823532
28.176898321866304	1.9564342	1.398726
28.1949689604978	1.9843426	1.408667
28.213040314811945	1.9547611	1.3981277
28.23111238534327	1.9237272	1.386985
28.249185172626493	1.9260584	1.387825
28.267258677196473	1.9238352	1.3870238
28.285332899588294	1.908551	1.3815031
28.303407840337172	1.9183248	1.385036
28.321483499978545	1.9567553	1.3988407
28.33955987904799	1.9282957	1.3886309
28.357636978081285	1.9089237	1.381638
28.37571479761439	1.9188756	1.3852348
28.393793338183425	1.9985768	1.4137102
28.41187260032469	1.9916356	1.4112532
28.429952584574686	1.9567355	1.3988336
28.448033291470065	1.9772215	1.4061371
28.46611472154769	2.022366	1.4220991
28.484196875344566	2.026501	1.4235523
28.502279753397914	2.0459464	1.4303658
28.52036335624511	2.0852287	1.4440321
28.538447684423716	2.089705	1.4455812
28.556532738471482	2.0424044	1.4291271
28.574618518926325	1.9857998	1.4091841
28.59270502632635	1.9038758	1.3798101
28.61079226120985	1.9173372	1.3846794
28.628880224115274	1.98434	1.408666
28.646968915581287	2.0131695	1.4188621
28.66505833614671	2.0182812	1.4206623
28.68314848635055	2.0312808	1.42523
28.701239366732004	2.0205097	1.4214463
28.71933097783044	2.0583687	1.4347016
28.737423320185403	2.0995312	1.4489759
28.75551639433665	2.0755992	1.440694
28.773610200824074	1.9822795	1.4079345
28.791704740187793	2.009096	1.4174258
28.80980001296809	2.0554626	1.4336884
28.827896019705413	2.142881	1.4638582
28.845992760940433	2.1739054	1.474417
28.86409023721397	2.1590745	1.469379
28.88218844906704	2.1528604	1.4672629
28.900287397040845	2.240542	1.4968439
28.918387081676755	2.2865818	1.5121448
28.936487503516343	2.317027	1.5221784
28.954588663101365	2.2680433	1.5060024
28.97269056097374	2.299389	1.5163736
28.990793197675597	2.361701	1.5367827
29.00889657374923	2.405211	1.5508742
29.027000689737125	2.3890846	1.5456663
29.04510554618196	2.370146	1.5395279
29.06321114362659	2.4287024	1.5584295
29.08131748261405	2.490486	1.5781274
29.099424563687567	2.458706	1.5680261
29.11753238739057	2.432994	1.5598058
29.13564095426663	2.5193713	1.5872527
29.15375026485954	2.6411762	1.6251696
29.171860319713275	2.6595643	1.630817
29.18997111937199	2.7348502	1.6537383
29.20808266438002	2.8235767	1.6803502
29.226194955281898	2.8716006	1.6945797
29.244307992622335	2.7965457	1.6722876
29.26242177694624	2.7811863	1.667689
29.2805363087987	2.8834562	1.6980742
29.29865158872498	2.9682531	1.7228619
29.316767617270557	2.927169	1.7108972
29.334884394981064	2.9066238	1.7048824
29.353001922402367	2.940344	1.7147431
29.37112020008047	3.1041422	1.7618576
29.389239228561596	3.1973364	1.7881098
29.407359008392152	3.3527293	1.831046
29.42547954011872	3.7292378	1.9311235
29.44360082428809	4.3805895	2.0929859
29.46172286144722	5.4223094	2.3285854
29.479845652143283	7.01114	2.6478558
29.497969196923606	9.146327	3.0242896
29.516093496335728	11.786074	3.4330852
29.5342185509274	14.735502	3.838685
29.55234436124651	17.15569	4.1419425
29.570470927841175	18.610981	4.3140445
29.588598251259686	18.561888	4.308351
29.60672633205055	17.156105	4.141993
29.624855170762405	14.749257	3.840476
29.642984767944146	11.850934	3.4425185
29.66111512414481	9.10214	3.0169754
29.67924623991366	6.6862698	2.5857823
29.697378115800138	5.154065	2.2702565
29.71551075235387	4.204713	2.0505397
29.733644150124675	3.745434	1.9353124
29.751778309662576	3.554424	1.885318
29.769913231517766	3.4786022	1.8651011
29.78804891624066	3.4470177	1.8566146
29.806185364381818	3.3845332	1.8397101
29.82432257649206	3.3395174	1.8274347
29.842460553122333	3.3897724	1.8411335
29.86059929482382	3.406385	1.8456395
29.878738802147872	3.426241	1.8510108
29.896879075646048	3.3756502	1.8372942
29.915020115870114	3.3083768	1.8188944
29.933161923371976	3.2128742	1.7924492
29.951304498703777	3.0872009	1.7570432
29.969447842417857	3.0830114	1.7558507
29.987591955066733	3.159164	1.7774037
30.005736837203123	3.19744	1.7881386
30.023882489379943	3.2507143	1.8029737
30.04202891215028	3.240318	1.8000884
30.060176106067455	3.293421	1.8147786
30.078324071684946	3.2738535	1.8093793
30.09647280955646	3.1824672	1.7839471
30.114622320235863	3.1973364	1.7881098
30.132772604277257	3.164573	1.7789247
30.1509236622349	3.115595	1.7651049
30.16907549466328	3.1255515	1.7679229
30.18722810211705	3.1202745	1.7664299
30.205381485151097	3.0622947	1.7499413
30.22353564432045	3.0194843	1.7376664
30.241690580180403	2.9764304	1.7252334
30.25984629328638	2.9654458	1.722047
30.278002784194037	2.9570336	1.7196027
30.296160053459246	2.9991868	1.731816
30.314318101638033	3.0173697	1.7370578
30.332476929286646	3.0386176	1.7431631
30.35063653696153	3.003907	1.7331783
30.368796925219307	2.9097962	1.7058125
30.386958094616844	2.830096	1.6822889
30.40512004571115	2.8419845	1.6858187
30.423282779059463	2.8851898	1.6985847
30.441446295219233	2.8704376	1.6942366
30.459610594748067	2.8449874	1.686709
30.47777567820382	2.8821063	1.6976768
30.495941546144504	2.9403996	1.7147593
30.51410819912835	2.9040155	1.7041172
30.532275637713795	2.7993174	1.6731161
30.55044386245946	2.7225065	1.650002
30.56861287392416	2.7381074	1.6547228
30.586782672666956	2.7158298	1.6479775
30.604953259247047	2.8019648	1.673907
30.623124634223885	2.882101	1.6976752
30.641296798157075	2.8290493	1.6819779
30.659469751606462	2.7407043	1.6555072
30.677643495132074	2.715284	1.6478119
30.695818029294152	2.7537987	1.6594573
30.713993354653116	2.7594883	1.6611707
30.73216947176962	2.755247	1.6598938
30.75034638120448	2.7201538	1.6492889
30.768524083518756	2.6713612	1.6344299
30.786702579273673	2.7043543	1.6444921
30.80488186903069	2.7958307	1.6720737
30.82306195335144	2.997384	1.7312955
30.841242832797782	3.2311215	1.7975321
30.85942450793176	3.4882474	1.8676851
30.877606979315637	3.7187617	1.9284091
30.895790247511883	4.114757	2.0284865
30.913974313083134	4.5921173	2.1429226
30.932159176592283	5.043551	2.2457852
30.95034483860237	5.0191593	2.240348
30.968531299676698	4.7180185	2.1721
30.98671856037873	4.468936	2.1139858
31.00490662127215	4.118468	2.0294008
31.023095482920848	3.5830033	1.8928822
31.04128514588892	3.079789	1.7549328
31.059475610740662	2.7916863	1.6708341
31.07766687804056	2.6011772	1.6128166
31.09585894835335	2.5404785	1.5938878
31.11405182224393	2.484236	1.5761459
31.132245500277417	2.4299078	1.5588162
31.15043998301914	2.3568938	1.5352179
31.168635271034628	2.4593244	1.5682234
31.18683136488964	2.457746	1.56772
31.20502826515008	2.3810816	1.5430753
31.223225972382135	2.3640025	1.5375313
31.241424487152155	2.4789057	1.5744541
31.259623810026692	2.5281322	1.5900102
31.27782394157253	2.518457	1.5869647
31.296024882356644	2.4779296	1.5741441
31.314226632946237	2.4511638	1.5656193
31.332429193908684	2.424331	1.5570263
31.350632565811598	2.4294455	1.5586679
31.368836749222787	2.4604545	1.5685836
31.387041744710295	2.5208056	1.5877045
31.40524755284232	2.567151	1.6022332
31.423454174187317	2.5285034	1.5901269
31.441661609313922	2.4729898	1.5725743
31.459869858791002	2.3755097	1.5412688
31.478078923187628	2.3361607	1.5284504
31.496288803073064	2.3644629	1.537681
31.514499499016807	2.396548	1.5480788
31.532711011588546	2.348712	1.5325508
31.550923341358178	2.2027183	1.4841558
31.56913648889584	2.127691	1.4586607
31.587350454771844	2.231286	1.493749
31.605565239556732	2.3508313	1.5332421
31.62378084382127	2.3085325	1.5193856
31.641997268136382	2.297589	1.51578
31.660214513073274	2.3349266	1.5280466
31.67843257920331	2.3364577	1.5285476
31.6966514670981	2.2937176	1.5145024
31.71487117732944	2.2589645	1.5029852
31.733091710469346	2.274016	1.507984
31.751313067090052	2.3234513	1.5242871
31.769535247764008	2.362346	1.5369925
31.787758253063878	2.3126087	1.5207263
31.805982083562526	2.311498	1.5203611
31.824206739833024	2.3170004	1.5221696
31.84243222244869	2.308704	1.519442
31.860658531983013	2.2575374	1.5025103
31.878885669009737	2.246287	1.4987619
31.897113634102784	2.2565742	1.5021898
31.91534242783632	2.1897101	1.479767
31.933572050784694	2.1593359	1.4694679
31.951802503522508	2.1172369	1.4550728
31.970033786624548	2.1507506	1.4665438
31.988265900665834	2.2280731	1.4926732
32.006498846221575	2.2545536	1.501517
32.02473262386724	2.2260053	1.4919803
32.04296723417845	2.2007735	1.4835004
32.0612026777311	2.192799	1.4808103
32.07943895510129	2.224817	1.491582
32.097676066865304	2.240211	1.4967334
32.115914013599685	2.2056823	1.4851539
32.13415279588115	2.2046428	1.4848039
32.152392414286666	2.2187245	1.4895383
32.1706328693934	2.2186477	1.4895126
32.18887416177875	2.100402	1.4492764
32.20711629202032	2.0215788	1.4218223
32.225359260695924	2.0916562	1.4462559
32.243603068383614	2.124614	1.4576056
32.26184771566166	2.0715857	1.4393004
32.28009320310852	2.1077397	1.4518057
32.2983395313029	2.1415598	1.4634069
32.31658670082372	2.1100197	1.4525907
32.33483471225012	2.0556474	1.4337529
32.35308356616143	2.120219	1.4560971
32.371333263137245	2.1181586	1.4553895
32.38958380375734	2.0672147	1.4377812
32.407835188601744	2.0859241	1.4442729
32.42608741825067	2.204706	1.4848253
32.444340493284585	2.2306364	1.4935315
32.46259441428416	2.1214125	1.456507
32.48084918183028	2.1105661	1.4527788
32.49910479650405	2.0946667	1.4472964
32.51736125888683	2.0857022	1.444196
32.53561856956014	2.0042458	1.4157139
32.5538767291058	2.0060167	1.4163392
32.572135738105764	2.1214013	1.4565032
32.59039559714228	2.163515	1.4708892
32.608656306797776	2.142635	1.4637743
32.62691786765491	2.064943	1.436991
32.645180280296586	2.0315306	1.4253178
32.663443545305896	1.9825358	1.4080255
32.68170766326619	1.9444106	1.3944212
32.69997263476099	1.9718513	1.4042263
32.7182384603741	2.0395682	1.4281346
32.7365051406895	2.0172164	1.4202875
32.75477267629144	1.9948411	1.4123884
32.77304106776434	1.9872992	1.409716
32.79131031569289	2.0472949	1.4308372
32.809580420661966	2.044921	1.4300073
32.827851383256714	2.0327492	1.4257451
32.84612320406245	1.9470227	1.3953575
32.86439588366476	1.9243671	1.3872156
32.88266942264945	1.9341508	1.3907375
32.9009438216025	1.9212712	1.3860992
32.9192190811102	1.8949435	1.3765695
32.937495201758985	1.9718924	1.4042408
32.95577218413556	2.044965	1.4300227
32.974050028826866	2.03976	1.4282017
32.992328736420035	1.9661703	1.402202
33.010608307502444	2.0306976	1.4250255
33.02888874266169	2.038958	1.4279209
33.047170042485604	2.0300353	1.424793
33.06545220756225	2.021415	1.4217647
33.083735238479896	2.1090627	1.4522612
33.10201913582707	2.145451	1.4647359
33.12030390019248	2.125606	1.4579458
33.138589532165135	1.9911683	1.4110876
33.15687603233419	1.8827945	1.3721496
33.17516340128909	1.9145833	1.3836846
33.19345163961947	2.0197372	1.4211746
33.211740747915215	2.029969	1.4247698
33.23003072676643	1.969173	1.4032723
33.248321576763466	1.907763	1.381218
33.266613298496885	1.8776965	1.3702906
33.28490589255747	1.8392473	1.3561885
33.30319935953626	1.8594877	1.3636303
33.32149370002451	2.0221515	1.4220238
33.339788914613706	2.080896	1.4425311
33.358085003895575	2.0094955	1.4175668
33.376381968462034	1.940789	1.3931221
33.39467980890529	1.8995024	1.3782244
33.41297852581774	1.8370671	1.3553845
33.43127811979204	1.8805326	1.3713251
33.44957859142105	1.9993838	1.4139957
33.467879941297866	2.0544195	1.4333247
33.486182170015844	1.9694346	1.4033655
33.50448527816853	1.9350656	1.3910663
33.522789266349754	1.9978756	1.4134623
33.541094135153514	1.9891473	1.4103713
33.55939988517411	1.9184282	1.3850733
33.57770651700602	1.8839875	1.3725842
33.59601403124398	1.9617033	1.4006082
33.61432242848296	1.9120078	1.3827537
33.632631709318154	1.8584027	1.3632325
33.650941874344994	1.8001596	1.3417002
33.66925292415916	1.832189	1.3535837
33.68756485935654	1.9387188	1.3923788
33.70587768053328	1.9966185	1.4130175
33.724191388285746	1.9284275	1.3886783
33.74250598321054	1.9806101	1.4073415
33.760821465904506	2.0377994	1.4275151
33.77913783696474	1.9750972	1.4053816
33.79745509698852	1.9418106	1.3934886
33.815773246573414	1.8989347	1.3780184
33.8340922863172	1.8563147	1.3624663
33.852412216817896	1.8715562	1.3680483
33.87073303867377	1.9532009	1.3975697
33.889054752483304	2.007855	1.416988
33.907377358845245	1.938611	1.3923402
33.92570085835853	1.9412555	1.3932894
33.94402525162239	1.9635787	1.4012775
33.96235053923627	2.017029	1.4202214
33.980676721799824	2.0200043	1.4212686
33.999003799912984	2.016997	1.4202102
34.01733177417592	2.0219913	1.4219674
34.03566064518901	1.9914426	1.4111848
34.0539904135529	1.9730939	1.4046686
34.07232107986846	1.9919789	1.4113748
34.090652644736785	2.0157127	1.419758
34.108985108759235	2.0076387	1.4169117
34.12731847253742	1.9506141	1.3966439
34.14565273667313	1.9757113	1.4056
34.16398790176847	1.9296907	1.3891331
34.18232396842574	1.9225324	1.3865541
34.20066093724749	1.8304789	1.3529519
34.21899880883651	1.727484	1.3143378
34.23733758379583	1.7339864	1.3168092
34.25567726272874	1.8925604	1.3757036
34.27401784623872	1.9721605	1.4043363
34.29235933492957	1.9571264	1.3989733
34.31070172940526	1.9605386	1.4001924
34.32904503027003	2.0820026	1.4429146
34.347389238128386	2.207573	1.4857904
34.36573435358502	2.0860317	1.4443101
34.38408037724492	1.942811	1.3938476
34.402427309713296	1.866182	1.3660827
34.42077515159559	1.8285402	1.3522353
34.43912390349752	1.8931565	1.3759203
34.45747356602499	1.928596	1.388739
34.47582413978423	1.9490285	1.3960761
34.49417562538163	1.8730056	1.368578
34.51252802342388	1.9878167	1.4098995
34.53088133451789	2.1781363	1.475851
34.54923555927084	2.161151	1.4700854
34.567590698290104	1.970515	1.4037503
34.58594675218336	2.0155866	1.4197136
34.6043037215585	2.1145058	1.454134
34.62266160702365	2.0334458	1.4259894
34.641020409187234	1.9355314	1.3912338
34.65938012865785	1.9993801	1.4139944
34.677740766044394	2.110178	1.4526452
34.69610232195598	2.0411563	1.4286904
34.714464797002016	1.9343773	1.390819
34.73282819179208	1.8048669	1.3434534
34.751192506936064	1.826556	1.3515013
34.76955774304408	1.9491286	1.396112
34.7879239007265	1.8898424	1.3747153
34.80629098059391	1.9800125	1.4071292
34.824658983257194	2.1201618	1.4560776
34.843027909327446	2.0537722	1.4330988
34.86139775941603	2.0155842	1.4197128
34.879768534134534	2.1722465	1.4738543
34.89814023409483	2.3034284	1.517705
34.91651285990901	2.2411373	1.4970429
34.93488641218944	2.113476	1.4537799
34.95326089154871	1.8891613	1.3744676
34.97163629859967	1.8739513	1.3689234
34.99001263395542	1.9685494	1.4030501
35.00838989822934	1.8655853	1.3658643
35.02676809203499	1.7644433	1.3283235
35.04514721598624	1.9085075	1.3814874
35.063527270697215	2.0051644	1.4160383
35.081908256782256	2.1066542	1.4514318
35.10029017485597	2.0303073	1.4248885
35.11867302553321	2.0019999	1.4149204
35.137056809429104	1.9760144	1.4057078
35.155441527159006	2.1059413	1.4511862
35.173827179338524	2.1191988	1.4557468
35.19221376658354	1.9908575	1.4109775
35.21060128951017	1.7740535	1.331936
35.2289897487348	1.6826497	1.2971699
35.24737914487405	1.6768072	1.2949159
35.26576947854479	1.8584803	1.3632609
35.28416075036418	1.8617254	1.3644506
35.30255296094958	1.9381207	1.392164
35.32094611091867	1.9032845	1.3795958
35.33934020088932	2.0538933	1.4331411
35.35773523147969	2.1982362	1.482645
35.3761312033082	2.3229983	1.5241386
35.394528116993506	2.1174412	1.455143
35.41292597315452	2.0172844	1.4203113
35.431324772410434	2.1301253	1.4594948
35.449724515380666	2.5000815	1.5811646
35.46812520268491	2.1793385	1.4762583
35.486526834943106	1.9166622	1.3844357
35.504929412775454	2.111191	1.4529939
35.52333293680242	2.0900555	1.4457024
35.54173740764471	1.4712867	1.2129661
35.560142825923286	1.4350365	1.1979301
35.5785491922594	1.7283107	1.3146523
35.59695650727454	1.6304717	1.2768992
35.61536477159042	1.4327071	1.1969575
