0.008763373481513119	0.0	0.0
0.026290120649546365	0.0	0.0
0.043816868432600686	0.0	0.0
0.06134361724069026	0.0	0.0
0.07887036748382949	0.0	0.0
0.0963971195720331	0.0	0.0
0.11392387391531617	0.0	0.0
0.1314506309236943	0.0	0.0
0.1489773910071836	0.00043594878	0.020879386
0.16650415457580078	0.037383582	0.19334835
0.18403092203956356	0.056074414	0.23680037
0.20155769380849	0.10749455	0.3278636
0.2190844702925996	0.10872035	0.32972768
0.2366112519019124	0.13912247	0.37299123
0.2541380390464497	0.1110303	0.3332121
0.27166483213623416	0.13002013	0.36058304
0.28919163158128947	0.116823666	0.34179476
0.3067184377916406	0.10671789	0.32667705
0.324245251177314	0.10819949	0.3289369
0.34177207214833777	0.14653398	0.38279757
0.3592989011147415	0.16766329	0.40946707
0.37682573848655654	0.15900168	0.39875016
0.39435258467381573	0.17361963	0.41667688
0.41187944008655414	0.12989514	0.36040968
0.42940630513480854	0.144502	0.3801342
0.446933180228618	0.20706643	0.45504552
0.4644600657780234	0.23303126	0.4827331
0.48198696219306775	0.2354053	0.48518583
0.49951386988379676	0.17890412	0.4229706
0.5170407892602581	0.18042393	0.42476338
0.5345677207325025	0.19002385	0.43591726
0.5520946647105822	0.21418928	0.46280587
0.5696216216045534	0.24555475	0.4955348
0.5871485918244737	0.22942671	0.47898507
0.6046755757804043	0.19515927	0.44176835
0.6222025738824094	0.19814913	0.44513944
0.6397295865405557	0.16550486	0.4068229
0.6572566141649129	0.17565827	0.41911605
0.6747836571655547	0.16446546	0.40554342
0.6923107159525568	0.15599853	0.39496648
0.7098377909359992	0.17579418	0.41927817
0.7273648825259653	0.18090726	0.42533195
0.7448919911325411	0.16965614	0.41189337
0.762419117165817	0.15408483	0.3925364
0.7799462610358868	0.14610027	0.38223064
0.7974734231528482	0.14079833	0.37523103
0.8150006039268024	0.16415152	0.40515617
0.8325278037678551	0.15946059	0.39932516
0.8500550230861152	0.21020196	0.45847788
0.8675822622916969	0.2529912	0.5029823
0.8851095217947171	0.2636728	0.5134908
0.9026368020052984	0.2757312	0.5251011
0.9201641033335665	0.25227815	0.50227296
0.9376914261896523	0.24269855	0.49264446
0.9552187709836915	0.24097526	0.49089232
0.9727461381258234	0.24145281	0.4913785
0.990273528026193	0.24797563	0.4979715
1.0078009410949496	0.2468523	0.49684232
1.0253283777422473	0.2401712	0.49007264
1.0428558383782454	0.2416341	0.4915629
1.0603833234131086	0.21788943	0.46678627
1.0779108332570058	0.2923559	0.5406994
1.0954383683201119	0.3257585	0.57075256
1.112965929012607	0.42688873	0.6533672
1.1304935157446763	0.56677526	0.75284475
1.1480211289265108	0.5957335	0.7718378
1.1655487689683062	1.2685654	1.126306
1.1830764362802655	1.4575875	1.2073059
1.200604131272596	1.8745201	1.3691311
1.2181318543555117	2.2601488	1.5033791
1.235659605939232	2.3206396	1.5233645
1.253187386433982	3.8308845	1.9572645
1.270715196249994	6.3342524	2.516794
1.2882430357975057	11.701819	3.420792
1.3057709054867608	16.51211	4.0635095
1.3232988057280106	22.2311	4.714987
1.3408267369315112	27.260534	5.2211623
1.358354699507526	31.359873	5.5999885
1.3758826938663256	35.14487	5.928311
1.3934107204181858	37.02038	6.0844374
1.410938779573391	36.6345	6.052644
1.4284668717422309	36.998997	6.08268
1.4459949973350033	36.964996	6.0798845
1.4635231567620117	37.34107	6.110734
1.4810513504335687	36.72012	6.059713
1.4985795787599925	36.071526	6.0059576
1.5161078421516088	35.584003	5.965233
1.5336361410187505	34.67935	5.888918
1.5511644757717598	34.79921	5.8990855
1.5686928468209842	35.30884	5.9421244
1.58622125457678	36.181705	6.015123
1.6037496994495108	37.48065	6.122144
1.621278181849548	37.430378	6.118037
1.6388067021872719	38.177677	6.1788087
1.6563352608730693	37.544235	6.127335
1.673863858317336	36.497738	6.0413356
1.6913924949304753	35.590942	5.9658146
1.7089211711228998	34.22092	5.849865
1.7264498873050296	33.517635	5.7894416
1.7439786438872935	32.898193	5.735695
1.7615074412801288	32.099926	5.6656795
1.779036279893981	31.625452	5.623651
1.796565160139305	30.359121	5.509911
1.814094082426564	29.481989	5.429732
1.8316230471662298	28.60265	5.3481445
1.849152054768784	27.59274	5.252879
1.8666811056447168	27.083433	5.2041745
1.8842102002045273	26.39585	5.137689
1.901739338858724	25.91413	5.0905924
1.9192685220178245	25.268549	5.026783
1.9367977500923557	24.670977	4.9669886
1.9543270234928547	24.305696	4.930081
1.971856342629867	23.653133	4.8634486
1.9893857079139496	23.305128	4.8275385
2.006915119755667	22.68989	4.7633905
2.0244445785655945	22.133953	4.704674
2.0419740847543175	21.70039	4.6583676
2.0595036387324317	21.068914	4.590089
2.0770332409105414	20.764359	4.5567927
2.094562891699263	20.608433	4.5396514
2.1120925915092217	20.134104	4.487104
2.129622340751053	19.72256	4.441009
2.1471521398354043	187.87704	13.706824
2.1646819891729323	444.43057	21.081522
2.182211889174303	440.6986	20.992823
2.1997418402501974	453.00793	21.283983
2.2172718428113023	432.6828	20.80103
2.234801897268317	320.5509	17.903934
2.2523320040319548	17.081398	4.1329646
2.269862163512935	16.795942	4.098285
2.287392376121992	16.297024	4.0369573
2.304922642269869	15.877948	3.9847143
2.322452962367322	15.595439	3.949106
2.3399833368251164	15.302701	3.9118667
2.357513766054032	15.22444	3.9018507
2.3750442504648586	14.848074	3.85332
2.3925747904683963	14.560646	3.8158414
2.410105386475459	14.304059	3.7820706
2.4276360388968707	14.186167	3.7664528
2.445166748143469	14.313553	3.7833257
2.4626975146261025	14.015627	3.743745
2.4802283387556323	13.855595	3.7223103
2.4977592209429305	13.360126	3.6551507
2.5152901615988825	13.078955	3.6164837
2.5328211611343865	12.972483	3.6017332
2.5503522199603523	12.739016	3.5691757
2.5678833384877024	12.45463	3.5291119
2.5854145171273712	12.314435	3.509193
2.6029457562903064	12.0180235	3.4667022
2.620477056387469	11.868847	3.4451194
2.6380084178298326	11.5507345	3.398637
2.655539841028383	11.4143505	3.378513
2.673071326394119	11.209025	3.3479884
2.6906028743380523	11.1262045	3.3355966
2.708134485271211	10.916119	3.303955
2.7256661596046325	10.905027	3.3022761
2.743197897749369	10.817603	3.2890124
2.760729700116486	10.699188	3.2709613
2.778261567117063	10.507398	3.2415116
2.795793499162193	10.19513	3.1929815
2.8133254966629817	9.946466	3.153802
2.830857560030551	9.707389	3.1156683
2.8483896896760337	9.587284	3.096334
2.865921886010578	9.520087	3.0854638
2.883454149445347	9.4479885	3.0737581
2.9009864803915177	9.284171	3.0469937
2.91851887926028	9.120705	3.0200505
2.9360513464628384	8.965548	2.9942524
2.953583882410413	8.866713	2.9777026
2.9711164875142373	8.782639	2.9635518
2.9886491621855606	8.790572	2.96489
3.0061819068356455	8.654267	2.9418137
3.023714721875769	8.54237	2.9227333
3.041247607717225	8.3865795	2.8959591
3.0587805647713213	8.266598	2.8751693
3.0763135934493806	8.211408	2.8655553
3.0938466941627407	8.123041	2.850095
3.1113798673227544	8.050506	2.8373413
3.1289131133407904	7.915399	2.813432
3.1464464326282315	7.7758694	2.7885246
3.1639798255964786	7.752835	2.7843912
3.1815132926569443	7.6642923	2.7684457
3.1990468342210603	7.530616	2.7441967
3.216580450700272	7.4241943	2.7247374
3.2341141425060416	7.264603	2.6952927
3.251647910049847	7.198544	2.6830103
3.2691817537431813	7.161947	2.6761813
3.286715673997555	7.1044	2.6654081
3.3042496712244938	6.967645	2.6396298
3.32178374583554	6.8461094	2.616507
3.339317898242251	6.83784	2.6149263
3.3568521288562034	6.7456326	2.5972357
3.3743864380889876	6.793202	2.6063771
3.3919208263522127	6.7169824	2.5917141
3.4094552940575023	6.706749	2.589739
3.4269898416164972	6.671844	2.5829914
3.444524469440858	6.569104	2.5630264
3.4620591779422587	6.463489	2.5423393
3.479593967532391	6.3491974	2.5197613
3.4971288386229658	6.234116	2.4968212
3.5146637916257086	6.2228394	2.494562
3.5321988269523628	6.3336563	2.5166757
3.5497339450146903	6.3560133	2.5211134
3.5672691462244708	6.339397	2.5178158
3.5848044309934988	6.1796737	2.485895
3.60233979973359	6.1354284	2.4769797
3.619875252856575	6.1724143	2.4844344
3.6374107907743034	6.2476373	2.4995275
3.6549464138986427	6.233163	2.4966302
3.6724821226414788	6.214339	2.4928575
3.690017917414714	6.2356114	2.4971206
3.7075537986302702	6.2045417	2.4908917
3.7250897667000857	6.2389355	2.497786
3.7426258220361235	6.4734898	2.5443053
3.7601619650503553	6.947771	2.6358626
3.777698196154779	7.50033	2.738673
3.7952345157614067	8.499089	2.9153197
3.8127709242822716	9.134979	3.0224128
3.830307422129425	11.113219	3.3336496
3.847844009714936	29.791735	5.4581804
3.8653806874508954	97.28485	9.863308
3.882917455749409	96.61508	9.829297
3.900454315022606	96.51579	9.824245
3.917991265682631	41.189667	6.4179177
3.9355283081416506	10.826856	3.2904189
3.9530654428118495	8.631576	2.9379544
3.970602670105433	7.3954954	2.719466
3.9881399904346244	6.4892015	2.5473912
4.005677404211669	6.363939	2.5226848
4.023214911848827	6.339331	2.517803
4.0407525137583855	6.4260178	2.534959
4.058290210352644	6.582345	2.565608
4.075828002043927	6.5007553	2.5496578
4.0933658892445814	6.3873706	2.5273247
4.110903872366966	6.2038717	2.4907572
4.128441951823468	6.0549297	2.4606767
4.145980128026488	5.9857817	2.4465857
4.163518401388452	6.00757	2.4510345
4.181056772321807	5.9897275	2.447392
4.1985952412390155	6.0373325	2.4570985
4.216133808552567	6.114362	2.4727235
4.233672474674966	6.1627645	2.4824915
4.251211240018741	6.3823867	2.5263386
4.268750104996445	6.6593666	2.5805748
4.286289070020643	7.780149	2.7892919
4.303828135503928	9.508142	3.0835276
4.3213673018589125	29.700924	5.4498553
4.3389065694982305	90.78898	9.528325
4.356445938834537	165.9326	12.881483
4.3739854102805085	171.56589	13.098316
4.391524984248844	172.27519	13.125364
4.409064661152262	136.36583	11.677578
4.426604441403504	96.62551	9.829827
4.444144325415337	75.47568	8.687674
4.461684313600543	21.48965	4.635693
4.47922440637193	21.742285	4.6628623
4.496764604142329	20.050518	4.4777803
4.5143049073245916	18.25115	4.2721367
4.531845316331589	16.18272	4.022775
4.5493858315762195	13.484742	3.6721578
4.566926453471405	11.241486	3.3528326
4.584467182430081	9.374538	3.061787
4.602008018865218	8.228069	2.8684611
4.619548963189798	7.47174	2.7334483
4.637090015816834	6.9735303	2.6407442
4.654631177159353	6.681566	2.5848725
4.672172447630417	6.3876247	2.527375
4.689713827643102	6.1504035	2.4800007
4.7072553176105085	5.929716	2.4351008
4.724796917945764	5.791049	2.4064598
4.742338629062015	5.7996764	2.4082518
4.759880451372434	5.742182	2.396285
4.777422385290215	5.711461	2.3898664
4.794964431228581	5.6500077	2.3769746
4.812506589600768	5.588751	2.364054
4.830048860820047	5.5679984	2.3596606
4.847591245299709	5.4992375	2.3450453
4.8651337434530655	5.4789643	2.3407187
4.882676355693457	5.493345	2.3437886
4.900219082434242	5.542342	2.354218
4.917761924088813	5.58992	2.3643012
4.935304881070575	5.5386887	2.353442
4.952847953792969	5.4512615	2.3347936
4.970391142669449	5.4387255	2.3321075
4.9879344481135055	5.4377065	2.3318892
5.005477870538642	5.481789	2.3413222
5.023021410358394	5.4473214	2.3339498
5.040565067986324	5.3993907	2.323659
5.05810884383601	5.352884	2.31363
5.075652738321066	5.3236766	2.3073094
5.09319675185512	5.305177	2.303297
5.110740884851836	5.296204	2.3013482
5.128285137724894	5.278916	2.297589
5.145829510888007	5.3017683	2.302557
5.163374004754908	5.273875	2.2964919
5.1809186197393595	5.2713647	2.2959452
5.198463356255145	5.2722173	2.296131
5.216008214716077	5.319407	2.3063838
5.233553195535998	5.32276	2.3071108
5.251098299128764	5.2540174	2.2921643
5.268643525908272	5.2742133	2.2965655
5.286188876288432	5.2561145	2.2926219
5.3037343506831895	5.286634	2.2992682
5.32127994950651	5.226857	2.286232
5.3388256731723915	5.2060738	2.2816823
5.356371522094851	5.220771	2.2849007
5.373917496687938	5.240679	2.289253
5.391463597365729	5.1921544	2.27863
5.40900982454232	5.1652374	2.2727158
5.426556178631843	5.1700816	2.2737813
5.444102660048449	5.2078075	2.282062
5.4616492692063225	5.2489305	2.2910545
5.479196006519669	5.338764	2.3105767
5.496742872402727	5.29849	2.3018448
5.514289867269756	5.194727	2.2791944
5.531836991535049	5.106619	2.259783
5.549384245612924	5.1306934	2.2651033
5.566931629917724	5.0981636	2.2579114
5.584479144863822	5.0626483	2.250033
5.6020267908656205	5.11052	2.2606459
5.619574568337545	5.0757627	2.2529454
5.637122477694054	5.077521	2.2533355
5.654670519349629	5.0199404	2.2405224
5.672218693718784	5.0120635	2.2387638
5.689767001216059	5.065319	2.2506263
5.707315442256021	5.1337805	2.2657847
5.724864017253266	5.20598	2.2816617
5.7424127266224225	5.2100487	2.2825532
5.75996157077814	5.204288	2.2812908
5.777510550135105	5.189564	2.2780614
5.795059665108022	5.2114663	2.2828636
5.812608916111639	5.2110243	2.2827668
5.830158303560715	5.2500434	2.2912972
5.847707827870055	5.236993	2.2884476
5.86525748945448	5.3273335	2.3081017
5.8828072887288485	5.4204516	2.3281863
5.900357226108044	5.52858	2.3512933
5.917907302006979	5.5586567	2.3576803
5.9354575168406	6.1254954	2.474974
5.9530078710238765	6.6379967	2.576431
5.970558364971812	7.2418804	2.6910741
5.988108999099438	7.5624223	2.749986
6.005659773821818	8.098256	2.8457434
6.023210689554039	7.8401656	2.8000295
6.040761746711227	8.263655	2.8746574
6.058312945708531	7.626505	2.7616127
6.075864286961132	7.136341	2.6713932
6.093415770884244	6.5095124	2.5513747
6.1109673978931065	5.959485	2.4412057
6.128519168402993	5.4979725	2.3447757
6.146071082829204	5.374396	2.3182743
6.163623141587075	5.3195066	2.3064055
6.181175345091969	5.225324	2.2858968
6.198727693759281	5.135315	2.2661233
6.216280188004435	5.0806847	2.2540374
6.233832828242885	5.096666	2.2575796
6.251385614890126	5.168973	2.2735376
6.268938548361669	5.1825604	2.2765238
6.286491629073067	5.1225076	2.2632957
6.304044857439898	5.1304245	2.265044
6.321598233877777	5.0757365	2.2529395
6.339151758802344	5.0212545	2.2408156
6.356705432629277	4.9781685	2.231181
6.37425925577428	4.979831	2.2315536
6.391813228653095	5.010354	2.238382
6.409367351681486	5.0171795	2.239906
6.426921625275259	4.9738092	2.2302039
6.44447604985025	4.9183817	2.2177424
6.46203062582232	4.919651	2.2180285
6.47958535360737	4.8854184	2.2102983
6.497140233621328	4.9052496	2.2147799
6.514695266280161	4.9504514	2.224961
6.532250451999859	4.981061	2.2318292
6.549805791196454	5.0197453	2.2404788
6.567361284286002	4.9991345	2.2358744
6.584916931684597	5.0507364	2.2473843
6.602472733808367	4.97913	2.2313964
6.6200286910734665	4.961156	2.2273653
6.637584803896092	4.929494	2.2202463
6.655141072692462	4.9790354	2.2313752
6.672697497878842	5.072202	2.252155
6.690254079871514	5.070476	2.2517717
6.707810819086808	5.0305815	2.2428958
6.725367715941078	4.94427	2.2235715
6.742924770850719	4.946037	2.2239687
6.760481984232151	4.9545684	2.2258859
6.778039356501836	4.945733	2.2239003
6.795596888076266	4.9080753	2.2154176
6.813154579371963	4.9109616	2.216069
6.830712430805492	4.9466643	2.22411
6.84827044279344	5.0354643	2.243984
6.865828615752445	5.040588	2.2451253
6.883386950099159	5.0692773	2.2515056
6.900945446250287	5.126849	2.2642546
6.918504104622553	5.134333	2.2659066
6.936062925632727	5.164985	2.2726605
6.953621909697607	5.1579514	2.2711124
6.971181057234028	5.163827	2.2724056
6.988740368658859	5.1947074	2.27919
7.006299844389007	5.232001	2.2873566
7.023859484841407	5.3069725	2.3036866
7.041419290433036	5.387223	2.3210392
7.058979261580902	5.508021	2.3469174
7.0765393987020495	5.651024	2.3771882
7.094099702213559	6.024047	2.4543934
7.111660172532549	6.3996925	2.5297613
7.129220810076164	6.7797103	2.6037877
7.146781615261595	7.4790196	2.7347796
7.16434258850606	7.7402673	2.7821336
7.181903730226821	8.108238	2.8474967
7.1994650408411704	8.109388	2.8476987
7.217026520766437	8.248374	2.8719983
7.234588170419983	8.528915	2.9204307
7.252149990219215	8.579007	2.9289942
7.269711980581568	8.469557	2.9102502
7.2872741419245175	8.249699	2.8722289
7.304836474665574	7.746978	2.7833393
7.322398979222286	7.424029	2.7247071
7.339961656012233	7.185418	2.680563
7.357524505453039	6.8169613	2.6109312
7.375087527962357	6.5488925	2.5590804
7.392650723957886	6.259076	2.5018146
7.410214093857353	5.968315	2.4430134
7.427777638078528	5.7165737	2.3909357
7.445341357039213	5.44467	2.3333817
7.4629052511572525	5.308984	2.3041232
7.480469320850524	5.263426	2.2942157
7.498033566536948	5.2592173	2.2932982
7.5155979886344735	5.225531	2.285942
7.5331625875610975	5.142419	2.2676902
7.550727363734844	5.1368046	2.266452
7.568292317573788	5.1283493	2.264586
7.585857449496025	5.1788497	2.2757087
7.603422759919705	5.204869	2.281418
7.620988249263007	5.1930685	2.2788305
7.638553917944147	5.155663	2.2706084
7.656119766381391	5.1561074	2.2707064
7.673685794993023	5.1785083	2.2756336
7.691252004197388	5.237082	2.2884672
7.70881839441285	5.240679	2.289253
7.726384966057826	5.1970654	2.2797072
7.743951719550762	5.188437	2.2778141
7.761518655310149	5.1976614	2.279838
7.779085773754511	5.2358356	2.288195
7.796653075302419	5.2383757	2.2887497
7.814220560372475	5.2594686	2.293353
7.831788229383323	5.1425085	2.26771
7.8493560827536495	5.105191	2.2594671
7.866924120902174	5.176627	2.2752202
7.884492344247663	5.1895146	2.2780507
7.9020607532089135	5.2602496	2.2935233
7.919629348204771	5.2245417	2.2857256
7.937198129654115	5.3195124	2.3064067
7.954767097975865	5.377939	2.3190384
7.972336253588986	5.3829026	2.3201084
7.989905596912472	5.3372955	2.3102589
8.007475128365371	5.280007	2.2978265
8.025044848366756	5.323202	2.3072066
8.042614757335754	5.460937	2.3368647
8.060184855691523	5.613494	2.3692813
8.07775514385327	5.8059735	2.4095588
8.095325622240228	5.881554	2.4251916
8.112896291271687	5.914159	2.4319043
8.130467151366968	5.881951	2.4252734
8.148038202945436	5.8719654	2.423214
8.165609446426497	5.825311	2.4135683
8.183180882229594	5.9004917	2.429093
8.200752510774217	5.8970876	2.428392
8.218324332479893	5.9432807	2.4378846
8.235896347766193	5.9300632	2.435172
8.253468557052724	5.9596334	2.441236
8.27104096075914	5.8939753	2.427751
8.288613559305137	5.978655	2.445129
8.306186353110448	6.101627	2.4701471
8.32375934259485	6.3172007	2.5134041
8.341332528178162	6.3148775	2.512942
8.358905910280246	6.2742987	2.504855
8.376479489321003	6.1578164	2.481495
8.394053265720377	6.1305003	2.4759848
8.411627239898356	6.1299114	2.4758658
8.42920141227497	6.189143	2.487799
8.44677578327029	6.2650785	2.5030138
8.464350353304427	6.2812123	2.5062346
8.48192512279754	6.1822853	2.4864202
8.499500092169827	6.138004	2.4774995
8.51707526184153	6.084284	2.466634
8.534650632232934	6.1121097	2.472268
8.552226203764365	6.1356792	2.4770303
8.569801976856192	6.2094007	2.4918668
8.587377951928834	6.253901	2.50078
8.60495412940274	6.3457403	2.5190754
8.622530509698416	6.39206	2.5282524
8.6401070932364	6.4763217	2.5448618
8.657683880437283	6.495433	2.548614
8.675260871721695	6.553371	2.5599554
8.692838067510303	6.6708646	2.5828016
8.710415468223834	6.9161997	2.6298668
8.727993074283043	7.1474876	2.6734786
8.745570886108737	7.13697	2.671511
8.763148904121765	7.1857224	2.6806197
8.78072712874302	7.2256756	2.6880617
8.798305560393441	7.538333	2.7456024
8.815884199494006	7.622742	2.7609315
8.833463046465745	7.787799	2.7906628
8.851042101729728	7.9014974	2.8109603
8.86862136570707	8.229142	2.868648
8.886200838818924	8.346203	2.8889794
8.903780521486505	8.333465	2.886774
8.921360414131055	8.491497	2.9140174
8.938940517173874	8.661413	2.943028
8.956520831036297	8.799914	2.966465
8.97410135613971	9.008985	3.001497
8.99168209290554	9.091788	3.0152593
9.009263041755265	9.368384	3.0607817
9.026844203110405	9.621494	3.1018534
9.044425577392525	9.8399725	3.136873
9.062007165023239	9.880285	3.1432922
9.079588966424197	10.115192	3.180439
9.097170982017108	10.17801	3.1902993
9.11475321222372	11.095777	3.3310323
9.132335657465825	11.950247	3.456913
9.149918318165264	12.0541	3.4719014
9.167501194743924	12.572052	3.545709
9.18508428762374	12.266362	3.5023367
9.202667597226693	12.282387	3.5046237
9.220251123974803	11.994657	3.4633303
9.237834868290143	11.718525	3.423233
9.255418830594836	11.547197	3.3981168
9.273003011311046	11.080216	3.328696
9.290587410860985	10.900924	3.3016546
9.308172029666911	10.239105	3.19986
9.32575686815113	9.995047	3.1614943
9.343341926735997	8.834612	2.9723074
9.360927205843916	8.598315	2.9322884
9.378512705897327	8.385594	2.8957891
9.396098427318728	8.096666	2.8454642
9.413684370530664	7.980612	2.8249977
9.431270535955722	7.8308144	2.7983592
9.448856924016539	7.7859554	2.7903326
9.466443535135806	7.7178025	2.7780933
9.484030369736251	7.767077	2.7869475
9.501617428240658	7.826144	2.7975247
9.519204711071852	7.7479205	2.7835088
9.536792218652714	7.7423553	2.7825089
9.55437995140617	7.7297072	2.780235
9.571967909755191	7.775299	2.7884223
9.589556094122802	7.794946	2.791943
9.60714450493207	7.8838134	2.807813
9.624733142606116	7.995483	2.8276286
9.642322007568108	7.999222	2.8282895
9.659911100241267	7.9648566	2.8222077
9.677500421048851	7.931941	2.8163702
9.695089970414175	8.005767	2.8294463
9.712679748760609	8.113652	2.8484473
9.730269756511557	8.169324	2.858203
9.747859994090492	8.109868	2.847783
9.765450461920915	8.074527	2.841571
9.78304116042639	8.043537	2.836113
9.800632090030527	8.060005	2.8390148
9.81822325115699	8.070169	2.8408043
9.835814644229481	8.097786	2.845661
9.853406269671762	8.167337	2.8578553
9.870998127907646	8.190315	2.8618727
9.888590219360985	8.20785	2.8649347
9.906182544455698	8.326962	2.8856478
9.923775103615734	8.353363	2.8902185
9.941367897265108	8.373601	2.8937175
9.958960925827878	8.32477	2.8852677
9.97655418972816	8.152617	2.855279
9.994147689390106	8.125265	2.850485
10.011741425237934	8.122776	2.8500485
10.029335397695904	8.22663	2.8682103
10.04692960718833	8.310995	2.8828797
10.06452405413958	8.298538	2.8807182
10.082118738974064	8.287939	2.878878
10.099713662116246	8.216675	2.8664744
10.117308823990651	8.303376	2.881558
10.134904225021844	8.298815	2.8807664
10.152499865634445	8.2874155	2.878787
10.170095746253125	8.254753	2.8731086
10.18769186730261	8.1833935	2.8606632
10.205288229207675	8.163906	2.857255
10.222884832393145	8.122241	2.8499546
10.2404816772839	8.121472	2.8498197
10.258078764304868	8.072786	2.841265
10.275676093881035	8.032166	2.8341076
10.293273666437438	8.10745	2.8473582
10.310871482399158	8.196518	2.862956
10.32846954219134	8.216104	2.8663747
10.346067846239173	8.110087	2.8478215
10.363666394967908	8.104711	2.8468773
10.38126518880283	8.14499	2.8539429
10.398864228169298	8.2477255	2.8718853
10.416463513492713	8.1752825	2.859245
10.434063045198531	8.07565	2.8417687
10.451662823712262	8.089719	2.844243
10.469262849459467	8.0834055	2.843133
10.486863122865758	8.036261	2.8348298
10.504463644356806	7.9874406	2.826206
10.522064414358338	7.9679685	2.822759
10.539665433296118	7.890162	2.8089433
10.557266701595987	7.825603	2.797428
10.574868219683818	7.7313256	2.7805262
10.592469987985552	7.613803	2.7593122
10.610072006927185	7.5819564	2.7535353
10.627674276934751	7.5132194	2.7410252
10.64527679843435	7.4456587	2.7286735
10.662879571852143	7.398824	2.720078
10.680482597614331	7.2772527	2.6976383
10.698085876147173	7.1250963	2.6692877
10.715689407876988	6.9910436	2.6440582
10.733293193230146	6.881405	2.623243
10.750897232633072	6.7865305	2.605097
10.76850152651225	6.7315764	2.5945282
10.786106075294207	6.586533	2.5664241
10.803710879405534	6.552199	2.5597262
10.821315939272877	6.444231	2.538549
10.83892125532294	6.4216614	2.5340998
10.856526827982472	6.267682	2.5035338
10.874132657678285	6.2539225	2.5007844
10.891738744837243	6.156413	2.481212
10.909345089886271	6.1627684	2.4824924
10.926951693252343	6.115745	2.4730031
10.944558555362494	6.016076	2.452769
10.96216567664381	5.9816236	2.4457357
10.979773057523436	5.8765535	2.4241605
10.997380698428573	5.834028	2.4153733
11.014988599786477	5.7395015	2.3957257
11.032596762024461	5.665916	2.3803184
11.050205185569892	5.614212	2.369433
11.067813870850198	5.540073	2.353736
11.085422818292859	5.4504457	2.334619
11.10303202832541	5.3854	2.3206465
11.120641501375454	5.3360043	2.3099792
11.138251237870636	5.3425174	2.3113887
11.155861238238671	5.327801	2.308203
11.173471502907317	5.3011675	2.3024263
11.191082032304402	5.243519	2.2898731
11.208692826857805	5.182288	2.276464
11.226303886995465	5.111554	2.2608747
11.243915213145371	4.991451	2.2341554
11.261526805735578	4.901594	2.2139544
11.279138665194196	4.8720484	2.2072718
11.296750791949393	4.894758	2.21241
11.314363186429393	4.8827596	2.2096968
11.331975849062479	4.828595	2.1974065
11.34958878027699	4.766501	2.1832318
11.36720198050133	4.67541	2.1622696
11.384815450163948	4.5864997	2.1416116
11.402429189693366	4.5010753	2.1215737
11.420043199518153	4.4478064	2.1089823
11.437657480066942	63.393776	7.962021
11.455272031768422	85.151764	9.227772
11.472886855051353	107.54683	10.370479
11.490501950344528	99.10808	9.955304
11.508117318076819	84.45314	9.189839
11.52573295867715	45.824535	6.769382
11.543348872574514	4.147865	2.0366309
11.560965060197946	4.086349	2.021472
11.57858152197655	4.036664	2.009145
11.59619825833949	3.9853868	1.9963434
11.613815269715985	3.9558318	1.9889272
11.631432556535323	38.469692	6.202394
11.649050119226837	82.98255	9.109476
11.666667958219929	93.368225	9.662724
11.68428607394406	107.651505	10.3755245
11.701904466828756	82.49583	9.082722
11.719523137303586	65.36239	8.084701
11.737142085798196	4.572969	2.1384501
11.754761312742286	3.7501554	1.9365318
11.772380818565619	3.70555	1.9249805
11.790000603698015	3.6534047	1.9113882
11.80762066856935	3.583652	1.8930537
11.825241013609572	3.5331292	1.879662
11.842861639248683	3.5115583	1.8739152
11.860482545916748	3.4965258	1.8699
11.878103734043883	3.4791086	1.8652369
11.895725204060282	3.4132664	1.8475027
11.91334695639619	3.4011128	1.8442106
11.930968991481919	3.3692622	1.835555
11.948591309747824	3.3566282	1.8321103
11.966213911624347	3.320877	1.8223274
11.98383679754198	3.2777796	1.8104639
12.001459967931268	3.2408333	1.8002315
12.019083423222835	3.2042327	1.790037
12.036707163847352	3.1987083	1.7884933
12.05433119023556	3.1875286	1.7853651
12.071955502818259	3.210307	1.7917329
12.089580102026313	3.1766057	1.7823035
12.107204988290643	3.15083	1.7750578
12.12483016204224	3.1156538	1.7651215
12.142455623712152	3.120508	1.766496
12.16008137373149	3.090199	1.7578962
12.177707412531431	3.0755665	1.7537293
12.19533374054321	3.0732467	1.7530679
12.212960358198126	3.0716274	1.7526059
12.230587265927545	3.0451593	1.7450385
12.248214464162889	3.0232162	1.7387398
12.265841953335649	3.004321	1.7332977
12.283469733877375	3.0122638	1.7355875
12.301097806219685	3.000494	1.7321934
12.31872617079425	2.9861875	1.7280588
12.336354828032825	2.9765565	1.72527
12.353983778367205	2.9375954	1.7139415
12.371613022229262	2.9011936	1.703289
12.389242560050928	2.8663857	1.6930404
12.406872392264201	2.8491573	1.6879447
12.424502519301143	2.8546627	1.6895747
12.442132941593874	2.8252	1.6808331
12.459763659574586	2.7917233	1.670845
12.477394673675532	2.7555394	1.6599817
12.49502598432903	2.7915728	1.6708001
12.51265759196746	2.8349292	1.6837248
12.530289497023267	2.837709	1.68455
12.547921699928967	2.8169086	1.6783649
12.565554201117134	2.7625108	1.6620803
12.583187001020404	2.751921	1.6588914
12.600820100071486	2.7376552	1.6545861
12.618453498703152	2.7328253	1.6531259
12.636087197348235	2.7298667	1.6522309
12.65372119643964	2.735326	1.6538821
12.671355496410326	2.769625	1.664219
12.68899009769333	2.786499	1.669281
12.706625000721749	2.8048122	1.6747574
12.724260205928752	2.8855228	1.6986827
12.741895713747551	2.945993	1.7163895
12.759531524611454	3.004047	1.7332187
12.777167638953818	2.9957092	1.7308117
12.794804057208072	2.966928	1.7224773
12.812440779807702	2.9843028	1.7275134
12.830077807186271	3.1530132	1.7756726
12.847715139777405	3.2043836	1.7900792
12.865352778014795	3.4046385	1.8451662
12.882990722332197	3.4939713	1.8692168
12.90062897316344	3.5831473	1.8929203
12.918267530942412	3.7028723	1.9242848
12.935906396103071	3.6587014	1.9127733
12.953545569079449	3.8206894	1.9546584
12.971185050305628	3.640483	1.908005
12.988824840215775	3.621806	1.9031043
13.006464939244115	3.620968	1.9028841
13.024105347824943	3.4580953	1.8595954
13.041746066392617	3.554318	1.8852899
13.05938709538157	3.3395638	1.8274474
13.077028435226296	3.3386304	1.827192
13.094670086361363	3.2427464	1.8007628
13.112312049221401	3.1500301	1.7748324
13.129954324241112	3.116568	1.7653804
13.147596911855258	2.9122348	1.7065271
13.165239812498685	2.9038563	1.7040704
13.182883026606293	2.789198	1.6700892
13.200526554613058	2.7752383	1.6659046
13.218170396954017	2.7439568	1.6564893
13.235814554064284	2.7124317	1.6469462
13.253459026379034	2.6706789	1.6342212
13.271103814333523	2.6464865	1.6268026
13.288748918363058	2.6404963	1.6249604
13.306394338903031	2.6535823	1.628982
13.32404007638889	2.6442008	1.6260998
13.341686131256164	2.68859	1.6396921
13.359332503940449	2.6635675	1.632044
13.376979194877402	2.6752315	1.6356134
13.394626204502751	2.688903	1.6397876
13.412273533252307	2.6953657	1.6417569
13.429921181561937	2.6993217	1.6429613
13.447569149867581	2.7402682	1.6553756
13.465217438605247	2.7451847	1.6568599
13.482866048211022	2.7242434	1.6505282
13.500514979121052	2.6788852	1.6367301
13.518164231771568	2.6367207	1.6237983
13.535813806598844	2.6442747	1.6261226
13.553463704039254	2.6357968	1.6235137
13.571113924529229	2.64383	1.6259859
13.588764468505275	2.64111	1.6251493
13.606415336403956	2.7039418	1.6443667
13.624066528661917	2.7278328	1.6516153
13.641718045715882	2.781447	1.667767
13.659369888002635	2.832841	1.6831045
13.67702205595903	2.9019077	1.7034986
13.694674550021993	2.948587	1.717145
13.712327370628532	2.9949439	1.7305906
13.729980518215713	3.0502057	1.7464838
13.747633993220681	3.1447968	1.7733575
13.765287796080647	3.1922984	1.7867004
13.7829419272329	3.247437	1.8020647
13.800596387114801	3.3038971	1.8176626
13.818251176163775	3.3370767	1.8267667
13.835906294817324	3.3984914	1.8434998
13.853561743513023	3.4222705	1.849938
13.871217522688525	3.474588	1.8640246
13.888873632781538	3.4946866	1.8694081
13.906530074229858	3.5055172	1.8723027
13.92418684747135	3.5169833	1.8753622
13.941843952943948	3.507685	1.8728814
13.959501391085665	3.4939702	1.8692164
13.977159162334578	3.421425	1.8497095
13.994817267128846	3.3183029	1.821621
14.012475705906693	3.2675393	1.8076336
14.030134479106424	3.2097018	1.7915641
14.047793587166414	3.13719	1.7712115
14.065453030525108	3.0743415	1.7533801
14.083112809621026	3.0247087	1.739169
14.100772924892766	2.9715016	1.7238044
14.118433376778997	2.9086275	1.7054698
14.136094165718458	2.8259108	1.6810446
14.153755292149969	2.777192	1.6664909
14.171416756512416	2.7526953	1.6591249
14.189078559244768	2.7364542	1.6542232
14.20674070078606	2.6805053	1.6372249
14.224403181575408	2.5831103	1.6072057
14.242066002051999	2.4911442	1.5783359
14.259729162655093	2.4330704	1.5598303
14.277392663824022	2.3840528	1.5440378
14.295056505998208	2.3583367	1.5356877
14.312720689617128	2.3467145	1.531899
14.330385215120348	2.3627634	1.5371283
14.348050082947497	2.3910134	1.5462902
14.3657152935383	2.427094	1.5579133
14.383380847332528	2.4219882	1.5562738
14.401046744770051	2.3864605	1.5448173
14.418712986290798	2.3565183	1.5350956
14.436379572334793	2.3965104	1.5480666
14.454046503342123	2.4181573	1.5550425
14.471713779752946	2.4233224	1.5567024
14.489381402007504	2.409895	1.5523837
14.507049370546113	2.3889663	1.5456282
14.524717685809168	2.3696277	1.5393596
14.542386348237134	2.4144917	1.5538634
14.560055358270553	2.4462814	1.5640593
14.577724716350051	2.5151894	1.5859349
14.595394422916325	2.4869921	1.57702
14.61306447841015	2.4843802	1.5761917
14.63073488327237	2.48514	1.5764327
14.648405637943917	2.5096962	1.584202
14.6660767428658	2.469455	1.57145
14.683748198479094	2.4611557	1.5688071
14.701420005224954	2.515168	1.5859281
14.719092163544628	2.6262946	1.6205846
14.73676467387942	2.6739948	1.6352354
14.754437536670727	2.6953702	1.6417583
14.772110752360014	2.6541898	1.6291684
14.78978432138882	2.628879	1.6213819
14.807458244198777	2.6565356	1.6298882
14.82513252123159	2.6906846	1.6403307
14.842807152929028	2.720643	1.6494372
14.860482139732962	2.6986642	1.6427611
14.87815748208531	2.6330786	1.6226764
14.8958331804281	2.6265817	1.6206732
14.91350923520342	2.5931442	1.6103243
14.931185646853438	2.607645	1.6148205
14.948862415820408	2.5965366	1.6113772
14.966539542546656	2.6516938	1.6284022
14.98421702747459	2.651168	1.6282408
15.001894871046696	2.6776888	1.6363645
15.019573073705542	2.681285	1.637463
15.037251635893766	2.6360724	1.6235986
15.054930558054092	2.6402931	1.6248978
15.072609840629323	2.6932392	1.6411091
15.090289484062351	2.8597543	1.6910808
15.107969488796124	3.1488924	1.7745119
15.125649855273691	3.5157843	1.8750424
15.14333058393817	4.0316186	2.007889
15.161011675232768	5.0299783	2.2427614
15.17869312960076	6.360559	2.5220149
15.196374947485506	8.139206	2.8529294
15.214057129330447	11.165989	3.3415549
15.231739675579114	15.811539	3.9763725
15.249422586675102	20.737152	4.5538063
15.267105863062092	23.743343	4.872714
15.284789505183847	23.882954	4.8870187
15.302473513484218	21.707045	4.659082
15.320157888407127	18.210527	4.2673793
15.337842630396578	14.212448	3.7699401
15.355527739896656	11.127163	3.3357403
15.37321321735153	8.686483	2.947284
15.39089906320545	6.4179645	2.5333703
15.408585277902748	4.859933	2.2045255
15.42627186188783	3.778081	1.9437286
15.443958815605198	3.2419798	1.8005499
15.461646139499424	2.9317844	1.7122455
15.479333834015168	2.8274386	1.6814989
15.497021899597165	2.754305	1.6596099
15.514710336690234	2.6944401	1.641475
15.53239914573928	2.6515455	1.6283567
15.550088327189297	2.6052477	1.6140779
15.567777881485336	2.576016	1.6049972
15.58546780907256	2.5255687	1.5892038
15.6031581103962	2.4867084	1.57693
15.620848785901568	2.4682913	1.5710796
15.638539836034063	2.4669654	1.5706576
15.656231261239173	2.479723	1.5747136
15.673923061962451	2.4773278	1.5739529
15.691615238649552	2.4697874	1.5715557
15.709307791746202	2.449559	1.5651067
15.727000721698221	2.4079792	1.5517665
15.744694028951498	2.3793547	1.5425158
15.76238771395202	2.3716614	1.54002
15.780081777145844	2.3751342	1.541147
15.797776218979125	2.3709834	1.5397998
15.815471039898094	2.3774161	1.5418872
15.833166240349064	2.3747184	1.5410122
15.850861820778437	2.3717048	1.540034
15.868557781632699	2.376819	1.5416936
15.886254123358412	2.3564575	1.5350757
15.903950846402232	2.34914	1.5326904
15.921647951210897	2.3286643	1.5259962
15.939345438231225	2.3279033	1.5257468
15.957043307910133	2.3247464	1.5247118
15.974741560694602	2.3370302	1.5287348
15.992440197031714	2.3394852	1.5295376
16.01013921736862	2.3568664	1.535209
16.02783862215259	2.3672247	1.5385787
16.045538411830933	2.372952	1.5404389
16.06323858685107	2.3740237	1.5407867
16.080939147660512	2.3907878	1.5462173
16.09864009470684	2.3570116	1.5352561
16.11634142843774	2.3546858	1.5344986
16.134043149300954	2.3323786	1.5272127
16.15174525774433	2.3645897	1.5377222
16.169447754215817	2.36607	1.5382035
16.18715063916342	2.3802638	1.5428103
16.204853913035244	2.3891616	1.5456913
16.222557576279478	2.3848522	1.5442966
16.240261629344403	22.344181	4.726963
16.257966072678386	42.905987	6.5502663
16.275670906729868	38.054882	6.168864
16.293376131947387	2.5251243	1.589064
16.31108174877957	2.5657136	1.6017845
16.328787757675133	2.5986457	1.6120316
16.34649415908287	2.5922914	1.6100594
16.364200953451657	2.5870929	1.6084442
16.38190814123048	2.5852938	1.6078849
16.39961572286839	2.5875611	1.6085898
16.41732369881455	2.6335788	1.6228305
16.43503206951817	2.7054536	1.6448263
16.45274083542859	2.7607973	1.6615647
16.47044999699522	2.7730443	1.665246
16.488159554667558	2.789609	1.6702123
16.505869508895184	2.7964704	1.672265
16.523579860127786	2.858636	1.6907501
16.541290608815117	2.914875	1.7073005
16.559001755407035	2.975445	1.7249478
16.57671330035348	3.0237443	1.7388917
16.59442524410448	3.0485868	1.7460203
16.61213758711015	3.116188	1.7652729
16.629850329820705	3.2358077	1.798835
16.647563472686436	3.316175	1.8210368
16.665277016157724	3.3903117	1.8412799
16.682990960685053	3.4464133	1.8564517
16.70070530671898	3.4878228	1.8675714
16.718420054710155	3.4968793	1.8699945
16.736135205109335	3.5145059	1.8747015
16.753850758367335	3.5136056	1.8744614
16.771566714935087	3.5679178	1.8888932
16.789283075263597	3.6217513	1.9030899
16.80699983980398	3.745841	1.9354175
16.82471700900741	3.857527	1.9640588
16.84243458332518	3.8986285	1.9744945
16.860152563208665	3.935501	1.9838097
16.87787094910932	4.0020137	2.0005033
16.89558974147871	4.1012173	2.0251462
16.913308940768466	4.1471796	2.0364625
16.931028547430333	4.1990666	2.0491624
16.94874856191613	4.241114	2.0593965
16.966468984677785	4.302869	2.0743358
16.98418981616729	4.3366976	2.082474
17.00191105683676	4.40092	2.097837
17.019632707138374	4.452555	2.110108
17.03735476752442	4.535832	2.1297493
17.05507723844728	4.527731	2.1278465
17.072800120359403	4.533192	2.1291294
17.090523413713353	4.5280576	2.1279233
17.108247118961785	4.5791845	2.1399028
17.125971236557437	4.60421	2.1457422
17.143695766953133	4.5928497	2.1430936
17.161420710601806	4.6197367	2.1493573
17.179146067956477	4.623029	2.1501231
17.19687183947025	4.622551	2.1500118
17.21459802559634	4.59536	2.1436791
17.232324626788028	4.6150074	2.1482568
17.25005164349871	4.65275	2.1570234
17.267779076181863	4.657232	2.158062
17.285506925291074	4.61952	2.149307
17.30323519127999	4.6024246	2.1453261
17.320963874602384	4.5619054	2.1358616
17.33869297571211	4.5359764	2.1297832
17.356422495063114	4.5845685	2.1411605
17.37415243310944	4.6211314	2.1496818
17.391882790305218	4.5447516	2.1318424
17.40961356710468	4.468308	2.1138372
17.42734476396215	4.424	2.1033306
17.445076381332044	4.4466295	2.1087034
17.462808419668868	4.540283	2.130794
17.48054087942723	4.7074747	2.1696715
17.498273761061835	4.9830947	2.2322845
17.51600706502747	5.4432564	2.3330786
17.533740791779024	6.175511	2.4850576
17.551474941771485	7.610722	2.7587538
17.56920951545993	8.666296	2.9438574
17.586944513299528	10.720136	3.2741618
17.60467993574556	12.263507	3.501929
17.622415783253373	13.834794	3.7195153
17.64015205627843	15.120067	3.888453
17.657888755276293	16.186321	4.023223
17.675625880702604	16.713356	4.088197
17.69336343301311	16.581219	4.0720043
17.71110141266366	15.78908	3.9735475
17.728839820110178	14.819312	3.849586
17.746578655808705	13.982694	3.7393441
17.764317920215372	12.603183	3.5500963
17.7820576137864	11.223616	3.3501666
17.79979773697811	9.349801	3.0577445
17.81753829024692	7.516579	2.741638
17.835279274049356	5.9033427	2.4296796
17.85302068884201	4.860247	2.2045968
17.870762535081607	4.2088227	2.0515416
17.888504813224934	3.8527606	1.962845
17.90624752372891	3.694942	1.9222232
17.923990667050536	3.6598086	1.9130627
17.941734243646895	3.5987256	1.8970307
17.959478253975185	3.5343704	1.8799921
17.9772226984927	3.4732363	1.8636621
17.994967577656833	3.423945	1.8503904
18.01271289192506	3.3559732	1.8319316
18.030458641754965	3.304083	1.8177137
18.04820482760425	3.3433945	1.8284951
18.06595144993067	3.3157194	1.8209116
18.083698509192125	3.2903087	1.8139209
18.101446005846576	3.209335	1.7914617
18.119193940352105	3.1775012	1.7825546
18.136942313166887	3.1732333	1.7813572
18.1546911247492	3.1644452	1.7788887
18.1724403755574	3.1772435	1.7824824
18.19019006604997	3.1416087	1.7724584
18.207940196685467	3.084578	1.7562966
18.225690767922575	3.047349	1.7456658
18.243441780220046	3.0738463	1.7532388
18.261193234036764	3.1529727	1.7756612
18.278945129831676	3.1563916	1.7766236
18.29669746806386	3.0982044	1.7601717
18.314450249192483	3.0320528	1.741279
18.3322034736768	2.9929993	1.7300287
18.349957141976184	2.9607818	1.7206923
18.3677112545501	2.967048	1.7225121
18.385465811858108	3.032099	1.7412924
18.403220814359884	3.0751216	1.7536025
18.420976262515172	3.0835989	1.7560179
18.43873215678387	3.0970328	1.7598388
18.456488497625923	3.138844	1.7716783
18.474245285501407	3.2135208	1.7926296
18.492002520870486	3.2616692	1.8060092
18.50976020419343	3.2945976	1.8151027
18.527518335930615	3.6304278	1.9053682
18.545276916542516	4.239028	2.05889
18.563035946489688	4.4640326	2.1128256
18.580795426232832	4.950904	2.2250626
18.598555356232698	4.838003	2.199546
18.616315736950185	5.126149	2.2641
18.63407656884626	4.7323947	2.1754067
18.65183785238201	4.9215612	2.2184591
18.669599588018617	4.762472	2.182309
18.68736177621737	4.7631435	2.1824627
18.705124417439652	4.71189	2.1706889
18.72288751214696	4.495528	2.120266
18.740651060800886	4.648112	2.155948
18.758415063863115	4.3037605	2.0745506
18.77617952179546	4.4647307	2.1129909
18.793944435059814	4.2462425	2.0606413
18.811709804118184	4.273453	2.0672333
18.829475629432675	4.2460704	2.0605996
18.8472419114655	4.048998	2.0122123
18.86500865067897	4.1232305	2.0305738
18.88277584753551	3.7483964	1.9360776
18.90054350249763	3.7692595	1.9414581
18.918311616027957	3.4591486	1.8598787
18.936080188589226	3.3708673	1.8359922
18.953849220644265	3.0563586	1.7482444
18.971618712656007	2.9120936	1.7064857
18.9893886650875	2.8455937	1.6868888
19.007159078401887	8.006027	2.8294923
19.024929953062408	32.872173	5.733426
19.042701289532435	32.815357	5.728469
19.060473088275405	25.367489	5.036615
19.07824534975489	2.6145606	1.6169603
19.096018074434568	2.5878363	1.6086754
19.113791262778197	2.587017	1.6084207
19.13156491524966	2.5841682	1.6075348
19.149339032312945	2.5723078	1.6038415
19.167113614432136	2.5712724	1.6035187
19.184888662071433	2.5979552	1.6118174
19.202664175695123	2.5676787	1.6023978
19.220440155767623	2.5824058	1.6069865
19.238216602753447	2.539321	1.5935247
19.2559935171172	2.550477	1.5970213
19.27377089932361	2.5249996	1.5890248
19.291548749837514	2.506269	1.58312
19.309327069123835	2.4888806	1.5776187
19.32710585764763	2.4829872	1.5757498
19.344885115874032	2.4650223	1.5700389
19.362664844268313	2.4336982	1.5600314
19.380445043295822	2.4306533	1.5590553
19.39822571342203	2.438784	1.5616606
19.41600685511252	2.4624016	1.5692041
19.43378846883297	2.4793255	1.5745875
19.451570555049173	2.498458	1.580651
19.469353114227037	2.498683	1.5807223
19.48713614683254	2.5215945	1.587953
19.50491965333182	2.5077586	1.5835904
19.52270363419109	2.5169466	1.5864887
19.540488089876686	2.5205894	1.5876364
19.55827302085503	2.5086572	1.5838741
19.576058427592674	2.476188	1.5735908
19.593844310556282	2.4381073	1.5614439
19.611630670212598	2.4313679	1.5592844
19.629417507028506	2.471516	1.5721055
19.64720482147098	2.5074322	1.5834874
19.6649926140071	2.49757	1.5803702
19.682780885104084	2.4622476	1.5691551
19.70056963522921	2.4480853	1.5646359
19.718358864849908	2.4572964	1.5675766
19.7361485744337	2.496999	1.5801896
19.753938764448215	2.5185037	1.5869794
19.771729435361202	2.5513222	1.5972859
19.789520587640506	2.5329626	1.5915284
19.807312221754092	2.5121217	1.5849674
19.825104338170043	2.5186787	1.5870346
19.842896937356517	2.519199	1.5871985
19.860690019781824	2.4956927	1.5797762
19.87848358591436	2.47028	1.5717124
19.896277636222635	2.4815886	1.5753058
19.914072171175278	2.4590616	1.5681396
19.931867191241015	2.437064	1.5611098
19.94966269688869	2.4261742	1.5576181
19.967458688587264	2.4556491	1.567051
19.985255166805807	2.4488246	1.564872
20.00305213201348	2.4466894	1.5641897
20.020849584679578	2.4593172	1.5682211
20.038647525273507	2.4601889	1.568499
20.05644595426477	2.4475632	1.564469
20.07424487212299	2.404598	1.5506766
20.092044279317903	2.395955	1.5478873
20.109844176319353	2.4038866	1.5504472
20.127644563597304	2.412152	1.5531105
20.145445441621817	2.4277656	1.5581288
20.16324681086307	2.4230893	1.5566275
20.181048671791373	2.40213	1.5498806
20.198851024877122	2.374445	1.5409234
20.216653870590836	2.3478894	1.5322825
20.234457209403146	2.344212	1.531082
20.252261041784802	2.357418	1.5353886
20.270065368206662	2.3519187	1.5335966
20.287870189139685	2.322767	1.5240626
20.305675505054968	2.2993875	1.5163732
20.323481316423702	2.330004	1.526435
20.341287623717207	2.339593	1.5295728
20.359094427406884	2.3454263	1.5314785
20.376901727964288	2.3218286	1.5237547
20.39470952586107	2.3060317	1.5185624
20.41251782156899	2.2997365	1.5164882
20.430326615559935	2.2922292	1.5140109
20.448135908305886	2.2949932	1.5149235
20.465945700278965	2.309715	1.5197747
20.483755991951384	2.346761	1.5319141
20.50156678379548	2.3480604	1.5323383
20.519378076283708	2.3137572	1.521104
20.537189869888635	2.3004763	1.5167321
20.55500216508294	2.307321	1.5189868
20.572814962339415	2.3306015	1.5266308
20.59062826213098	2.3185444	1.5226767
20.60844206493066	2.3079176	1.5191832
20.626256371211593	2.285318	1.5117267
20.644071181447032	2.2919462	1.5139174
20.66188649611036	2.3377876	1.5289825
20.67970231567506	2.3514953	1.5334586
20.697518640614742	2.3552725	1.5346897
20.715335471403122	2.3308868	1.5267242
20.73315280851404	2.2987237	1.5161543
20.750970652421447	2.2650018	1.5049922
20.768789003599412	2.2395806	1.4965229
20.786607862522136	2.220084	1.4899946
20.8044272296639	2.23977	1.4965861
20.82224710549913	2.265111	1.5050286
20.84006749050237	2.2637224	1.5045671
20.857888385148268	3.7984087	1.9489506
20.8757097899116	45.901386	6.7750564
20.893531705267254	64.74239	8.046266
20.911354131690224	83.7315	9.150492
20.92917706965566	69.00529	8.306942
20.94700051963877	50.080162	7.076734
20.96482448211493	29.337387	5.4164
20.982648957559622	4.0865707	2.0215268
21.00047394644843	2.2254074	1.4917799
21.01829944925707	2.256487	1.5021608
21.036125466461375	2.2390006	1.4963291
21.053951998537297	2.2241414	1.4913555
21.071779045960906	2.2308245	1.4935945
21.089606609208378	2.216164	1.4886787
21.10743468875603	2.2010841	1.4836051
21.12526328508028	2.2015367	1.4837576
21.143092398657675	2.1709895	1.4734278
21.16092202996488	2.1519308	1.4669461
21.17875217947867	2.1401207	1.4629152
21.19658284767596	2.163339	1.4708294
21.21441403503377	2.148837	1.4658912
21.232245742029225	2.1826262	1.4773715
21.2500779691396	2.1834962	1.4776658
21.26791071684227	2.1909425	1.4801832
21.28574398561475	2.1577659	1.4689336
21.30357777593465	2.158764	1.4692732
21.321412088279704	2.1487303	1.4658548
21.339246923127792	2.1655545	1.4715823
21.357082280956888	2.1886504	1.4794087
21.3749181622451	2.182065	1.4771814
21.392754567470647	2.1541834	1.4677137
21.41059149711187	2.1318703	1.4600925
21.42842895164726	2.106067	1.4512295
21.446266931555378	2.0871315	1.4446908
21.464105437314945	2.0789783	1.4418663
21.481944469404798	2.0933793	1.4468515
21.49978402830388	2.073111	1.4398302
21.51762411449127	2.0549233	1.4335004
21.53546472844617	2.0850894	1.4439839
21.553305870647876	2.0968022	1.4480339
21.571147541575865	2.068848	1.438349
21.58898974170967	2.0364263	1.4270341
21.60683247152899	2.061429	1.4357678
21.62467573151363	2.092686	1.4466119
21.642519522143523	2.0751357	1.4405332
21.660363843898722	2.0237904	1.4225999
21.6782086972594	1.9881345	1.4100122
21.696054082705864	2.0048532	1.4159284
21.713900000718535	2.0160792	1.4198871
21.73174645177795	2.0413399	1.4287547
21.749593436364794	2.0478113	1.4310175
21.767440954959845	2.0530882	1.4328601
21.785289008044032	2.0544279	1.4333276
21.803137596098388	2.0510159	1.4321368
21.820986719604086	2.0106852	1.4179863
21.838836379042412	1.9743612	1.4051197
21.85668657489478	1.9764159	1.4058505
21.87453730764273	1.9770774	1.4060858
21.892388577767914	2.0201719	1.4213275
21.91024038575213	2.0347779	1.4264565
21.928092732077285	2.003542	1.4154652
21.945945617225426	1.963154	1.4011259
21.963799041678694	1.9305918	1.3894573
21.981653005919398	31.270737	5.5920243
21.999507510429943	78.10217	8.8375435
22.01736255569286	73.05003	8.546931
22.035218142190818	4.1353836	2.0335643
22.05307427040661	1.9703317	1.403685
22.07093094082315	2.008578	1.4172431
22.088788153923474	2.0059018	1.4162986
22.106645910190746	1.9943088	1.4122
22.12450421010827	1.9861913	1.409323
22.142363054159464	1.9677502	1.4027652
22.16022244282787	1.9504006	1.3965675
22.178082376597164	1.968789	1.4031354
22.195942855951145	1.9755628	1.4055471
22.213803881373742	1.9734403	1.404792
22.231665453349002	1.9960164	1.4128045
22.24952757236111	1.9935049	1.4119153
22.26739023889438	1.9928733	1.4116917
22.28525345343323	2.0087152	1.4172915
22.30311721646225	2.032424	1.425631
22.320981528466113	2.0063393	1.4164531
22.33884638992964	1.9937284	1.4119945
22.356711801337788	1.970382	1.403703
22.37457776317561	1.9485601	1.3959084
22.392444275928337	1.9205745	1.3858479
22.410311340081282	1.9463679	1.3951229
22.428178956119904	1.9712071	1.4039968
22.446047124529805	1.9832766	1.4082885
22.46391584579669	2.0031612	1.4153308
22.481785120406414	1.9845221	1.4087306
22.49965494884496	1.9640907	1.4014602
22.51752533159841	1.9249295	1.3874183
22.53539626915302	1.9129572	1.3830969
22.553267761995137	1.8994703	1.3782127
22.571139810611264	1.9308678	1.3895566
22.589012415488025	1.9367685	1.3916783
22.60688557711216	1.9416969	1.3934479
22.624759295970566	1.9494753	1.3962361
22.642633572550263	1.9774195	1.4062074
22.660508407338362	1.9475384	1.3955423
22.67838380082217	1.9124122	1.3828999
22.696259753489077	1.9210397	1.3860158
22.714136265826614	1.9414253	1.3933504
22.73201333832246	1.9222475	1.3864514
22.74989097146439	1.8769271	1.3700099
22.76776916574035	1.8778473	1.3703457
22.785647921638393	1.8585999	1.3633047
22.803527239646712	1.8654782	1.365825
22.82140712025363	1.8736277	1.3688052
22.839287563947593	1.921245	1.3860898
22.85716857121719	1.8798332	1.3710701
22.875050142551135	1.9148161	1.3837688
22.892932278438277	1.906492	1.3807578
22.910814979367604	1.927147	1.3882172
22.928698245828222	1.9519218	1.397112
22.946582078309387	1.952245	1.3972276
22.96446647730047	1.9366333	1.3916297
22.98235144329098	1.8926829	1.3757482
23.000236976770562	1.8652693	1.3657486
23.018123078229	1.8400162	1.356472
23.03600974815619	1.8034867	1.3429396
23.053896987042194	1.8432428	1.3576608
23.071784795377173	1.8604143	1.36397
23.08967317365145	1.890195	1.3748436
23.10756212235546	1.8631877	1.3649863
23.125451641979787	1.8632224	1.364999
23.143341733015134	1.8950176	1.3765963
23.161232395952357	1.9457291	1.394894
23.179123631282426	1.9782288	1.4064952
23.197015439496468	1.9440421	1.3942891
23.214907821085717	1.9370745	1.3917882
23.23280077654157	1.9319912	1.3899609
23.250694306355538	1.9316465	1.3898369
23.268588411019277	1.913035	1.3831251
23.28648309102458	1.9158882	1.3841561
23.304378346863356	1.9316206	1.3898275
23.322274179027676	1.9093833	1.3818043
23.340170588009723	1.8895657	1.3746147
23.358067574301852	1.8776817	1.3702853
23.37596513839651	1.9046766	1.3801003
23.39386328078629	1.9404027	1.3929834
23.411762001963947	1.9220203	1.3863695
23.429661302422353	1.9177382	1.3848243
23.4475611826545	1.8733133	1.3686904
23.46546164315356	1.8875431	1.3738788
23.48336268441279	1.8569614	1.3627037
23.501264306925638	1.849864	1.360097
23.51916651118564	1.8296627	1.3526503
23.537069297686497	1.8428428	1.3575134
23.554972666922037	1.8993056	1.378153
23.57287661938623	1.9121528	1.3828061
23.59078115557318	1.939076	1.3925071
23.608686275977128	1.9254373	1.3876013
23.62659198109246	1.8929404	1.3758417
23.6444982714137	1.8240229	1.3505639
23.66240514743549	1.8468328	1.3589822
23.68031260965263	1.8619325	1.3645265
23.698220658560068	1.8484836	1.3595895
23.716129294652845	1.8315486	1.3533472
23.7340385184262	1.874556	1.3691442
23.75194833037546	1.8911049	1.3751745
23.769858730996123	1.8980105	1.377683
23.78776972078382	1.9122157	1.3828288
23.80568130023431	1.9216101	1.3862215
23.823593469843495	1.9181669	1.384979
23.841506230107424	1.9376996	1.3920127
23.859419581522275	1.9170465	1.3845745
23.87733352458438	1.8886359	1.3742765
23.89524805979019	1.9037906	1.3797792
23.913163187636318	1.9189262	1.3852532
23.931078908619508	1.9532775	1.3975971
23.948995223236633	1.9382386	1.3922064
23.966912131984735	1.9651917	1.401853
23.98482963536096	1.9784019	1.4065567
24.002747733862616	2.015361	1.4196341
24.020666427987155	2.0490508	1.4314506
24.038585718232156	2.0406575	1.4285158
24.056505605095353	2.051111	1.43217
24.074426089074617	2.0483549	1.4312075
24.092347170667946	2.057174	1.4342852
24.110268850373515	2.030127	1.4248253
24.128191128689586	2.042306	1.4290926
24.146114006114626	2.0386019	1.4277961
24.164037483147187	2.0416632	1.4288678
24.181961560286005	2.01307	1.418827
24.199886238029926	2.0028865	1.4152337
24.21781151687797	2.0007167	1.414467
24.235737397329274	1.9460235	1.3949995
24.253663879883135	1.9438716	1.394228
24.271590965038975	1.9941453	1.412142
24.289518653296376	2.0333986	1.4259728
24.30744694515505	2.0229578	1.4223073
24.32537584111486	2.0394042	1.4280771
24.34330534167581	2.077821	1.4414649
24.361235447338046	2.0832407	1.4433436
24.379166158601876	2.0530639	1.4328517
24.39709747596772	2.0005012	1.4143907
24.41502939993615	1.9761598	1.4057596
24.432961931007917	1.909712	1.3819233
24.450895069683856	1.8944906	1.376405
24.468828816465	1.9517885	1.3970642
24.4867631718525	1.9915131	1.4112098
24.504698136347656	1.9975749	1.413356
24.52263371045192	2.005978	1.4163256
24.540569894666874	2.0026507	1.4151504
24.558506689494266	1.9873743	1.4097426
24.57644409543597	1.9534001	1.397641
24.594382112994012	1.9239467	1.3870641
24.61232074267057	1.9411025	1.3932345
24.630259984967953	1.9567369	1.3988341
24.64819984038863	1.9565965	1.3987839
24.66614030943522	1.9402401	1.392925
24.684081392610462	1.9366817	1.3916471
24.702023090417274	1.9612868	1.4004595
24.7199654033587	1.9663832	1.4022778
24.737908331937927	1.9389482	1.3924612
24.755851876658305	1.942962	1.3939017
24.773796038023324	2.0137506	1.4190668
24.79174081653661	2.057903	1.4345393
24.809686212701962	2.1027205	1.450076
24.827632227023294	2.0810277	1.4425768
24.8455788600047	2.0384278	1.4277352
24.8635261121504	2.0547395	1.4334363
24.88147398396475	2.1093814	1.452371
24.899422475952303	2.102888	1.4501338
24.917371588617698	2.046455	1.4305435
24.935321322465768	2.094213	1.4471396
24.953271678001478	2.214316	1.4880577
24.97122265572994	2.4398823	1.5620122
24.989174256156414	2.769172	1.6640829
25.00712647978632	3.1450405	1.7734262
25.02507932712521	3.5742261	1.8905624
25.043032798678798	4.057235	2.014258
25.060986894952933	4.7747445	2.185119
25.078941616453637	5.5139303	2.348176
25.096896963687055	6.463755	2.5423915
25.114852937159508	7.566371	2.7507038
25.132809537377444	8.070241	2.840817
25.150766764847468	8.120273	2.8496091
25.168724620076347	7.617081	2.759906
25.186683103570985	6.6638193	2.5814373
25.204642215838426	5.464803	2.3376918
25.222601957385894	4.14718	2.0364625
25.24056232872074	3.1929328	1.786878
25.25852333035048	2.6628506	1.6318244
25.276484962782778	2.3093414	1.5196518
25.294447226525435	2.1198728	1.4559783
25.312410122086423	2.0458694	1.4303389
25.330373649973843	2.0299754	1.424772
25.348337810695988	1.9478403	1.3956505
25.366302604761245	1.8591502	1.3635066
25.384268032678207	1.8202724	1.3491747
25.40223409495558	1.8715473	1.3680451
25.420200792102257	1.8859884	1.373313
25.438168124627246	1.872272	1.3683099
25.45613609303974	1.8356633	1.3548665
25.474104697849057	1.8326638	1.3537592
25.492073939564698	1.8437837	1.35786
25.510043818696285	1.864117	1.3653268
25.528014335753614	1.8594029	1.3635993
25.54598549124664	1.8317994	1.3534398
25.56395728568544	1.8321935	1.3535854
25.58192971958028	1.8314459	1.3533093
25.59990279344156	1.8517687	1.360797
25.617876507779833	1.8522391	1.3609699
25.635850863105826	1.8746068	1.3691628
25.653825859930386	1.898604	1.3778985
25.671801498764548	1.9553396	1.3983346
25.68977778011949	1.9201514	1.3856952
25.707754704506524	1.8670994	1.3664185
25.725732272437153	1.796578	1.3403649
25.743710484423012	1.7662228	1.3289932
25.761689340975888	1.7866983	1.3366743
25.77966884260774	1.8018357	1.3423247
25.797648989830662	1.7974138	1.3406767
25.815629783156922	1.81567	1.347468
25.83361122309895	1.8224634	1.3499864
25.85159331016929	1.8232855	1.3502909
25.869576044880695	1.7933363	1.3391551
25.887559427746034	1.8038615	1.3430791
25.90554345927836	1.8453264	1.3584279
25.92352813999086	1.8713659	1.3679788
25.94151347039689	1.847266	1.3591416
25.959499451009965	1.8129246	1.3464489
25.97748608234374	1.7890831	1.3375661
25.995473364912062	1.7889152	1.3375033
26.013461299228904	1.8657029	1.3659073
26.03144988580839	1.8770128	1.3700411
26.04943912516483	1.84903	1.3597904
26.067429017812675	1.7637571	1.3280652
26.085419564266537	1.7440286	1.3206167
26.103410765041186	1.7530149	1.3240147
26.12140262065155	1.7629492	1.3277609
26.139395131612723	1.8051233	1.3435488
26.157388298439948	1.8110068	1.3457365
26.17538212164861	1.8361089	1.355031
26.193376601754295	1.8446511	1.3581793
26.211371739272714	1.8296287	1.3526376
26.229367534719746	1.7821488	1.3349714
26.247363988611433	1.7999915	1.3416376
26.26536110146397	1.8572924	1.3628252
26.283358873793727	1.8338662	1.3542032
26.301357306117204	1.7875658	1.3369988
26.319356398951104	1.7988801	1.3412234
26.33735615281224	1.8350704	1.3546476
26.35535656821762	1.8435248	1.3577646
26.373357645684404	1.8385384	1.3559271
26.39135938572991	1.8287898	1.3523276
26.409361788871614	1.7815431	1.3347446
26.427364855627165	1.7388773	1.3186649
26.445368586514352	1.7391136	1.3187546
26.46337298205115	1.7874241	1.3369458
26.48137804275568	1.7730551	1.3315611
26.499383769146217	1.7581924	1.3259685
26.517390161741215	1.7698944	1.3303738
26.53539722105928	1.7871307	1.3368361
26.553404947619182	1.7757392	1.3325686
26.571413341939856	1.7718832	1.3311211
26.589422404540397	1.7778524	1.3333613
26.60743213594006	1.7478986	1.3220812
26.62544253665827	1.7621664	1.3274661
26.64345360721459	1.7776098	1.3332703
26.66146534812879	1.8036342	1.3429945
26.679477759920758	1.8037089	1.3430223
26.69749084311057	1.8013023	1.342126
26.71550459821847	1.822308	1.3499289
26.733519025764842	1.8295698	1.352616
26.751534126270258	1.8106035	1.3455867
26.769549900255434	1.7627028	1.3276682
26.787566348241267	1.7330675	1.3164603
26.80558347074881	1.7258643	1.3137215
26.823601268299267	1.7559667	1.3251289
26.841619741414036	1.8032895	1.3428662
26.85963889061465	1.8259789	1.3512878
26.877658716422832	1.7871714	1.3368512
26.89567921936045	1.7582084	1.3259745
26.913700399949544	1.8016732	1.3422642
26.93172225871233	1.8216795	1.349696
26.949744796171174	1.7859995	1.3364129
26.967768012848605	1.7625457	1.3276091
26.98579190926733	1.8146582	1.3470925
27.003816485950225	1.842761	1.3574834
27.021841743420318	1.8023012	1.3424981
27.039867682200814	1.7481431	1.3221736
27.057894302815072	1.7372156	1.3180348
27.07592160578664	1.7389411	1.3186891
27.0939495916392	1.7413845	1.3196152
27.111978260896635	1.7636474	1.3280239
27.13000761408296	1.7921934	1.3387283
27.148037651722397	1.7726895	1.3314239
27.166068374339304	1.7692331	1.3301252
27.184099782458215	1.8074648	1.3444198
27.20213187660384	1.8008689	1.3419646
27.22016465730105	1.8012875	1.3421205
27.23819812507487	1.7791334	1.3338416
27.256232280450533	1.7941222	1.3394485
27.274267123953383	1.8075584	1.3444546
27.292302656108987	1.8188905	1.3486625
27.31033887744306	1.8628172	1.3648506
27.32837578848146	1.8486042	1.3596338
27.34641338975026	1.812956	1.3464606
27.364451681775673	1.7637026	1.3280447
27.382490665084074	1.776484	1.3328481
27.400530340202046	1.778228	1.3335022
27.41857070765629	1.746529	1.3215631
27.436611767973726	1.7762487	1.3327599
27.454653521681404	1.820274	1.3491753
27.472695969306564	1.8429064	1.3575369
27.490739111376627	1.8497255	1.3600461
27.508782948419153	1.8512248	1.3605973
27.526827480961902	1.8033487	1.3428882
27.54487270953279	1.7873645	1.3369235
27.562918634659898	1.8187109	1.3485959
27.580965256871508	1.8355289	1.3548169
27.599012576696026	1.796943	1.340501
27.617060594662068	1.7636101	1.3280098
27.63510931129842	1.777011	1.3330457
27.65315872713401	1.7845143	1.3358572
27.67120884269797	1.799383	1.3414109
27.68925965851958	1.8292768	1.3525076
27.707311175128307	1.8077519	1.3445266
27.725363393053787	1.8049753	1.3434937
27.74341631282583	1.8231846	1.3502536
27.7614699349744	1.8166174	1.3478194
27.77952426002968	2.020568	1.4214668
27.797579288521973	2.1186168	1.4555469
27.815635020981784	2.476467	1.5736794
27.83369145793979	2.5740447	1.604383
27.85174859992682	2.5067809	1.5832816
27.869806447473923	2.3323689	1.5272095
27.887865001112267	1.9489304	1.3960409
27.905924261373233	1.8425316	1.3573989
27.92398422878836	1.7778759	1.3333701
27.94204490388936	1.7732011	1.3316159
27.96010628720813	1.7816299	1.3347771
27.978168379276728	1.845138	1.3583585
27.9962311806274	1.8419497	1.3571845
28.014294691792568	1.8124664	1.3462787
28.0323589133048	1.8033129	1.3428749
28.050423845696887	1.7942295	1.3394885
28.068489489501758	1.844816	1.35824
28.086555845252523	1.8812996	1.3716048
28.104622913482487	1.8542656	1.3617142
28.122690694725115	1.8160285	1.347601
28.14075918951405	1.8385155	1.3559186
28.15882839838312	1.8719393	1.3681884
28.176898321866304	1.947393	1.3954902
28.1949689604978	1.9101351	1.3820764
28.213040314811945	1.8248916	1.3508855
28.23111238534327	1.8165051	1.3477778
28.249185172626493	1.8907112	1.3750314
28.267258677196473	1.9179748	1.3849096
28.285332899588294	1.8804616	1.3712993
28.303407840337172	1.8630576	1.3649387
28.321483499978545	1.8180038	1.3483337
28.33955987904799	1.8431399	1.3576229
28.357636978081285	1.8907892	1.3750597
28.37571479761439	1.9762563	1.4057938
28.393793338183425	2.023987	1.4226689
28.41187260032469	1.9942412	1.412176
28.429952584574686	1.921066	1.3860253
28.448033291470065	1.9263635	1.3879349
28.46611472154769	1.918759	1.3851928
28.484196875344566	1.9736031	1.4048499
28.502279753397914	2.0596843	1.43516
28.52036335624511	2.0545182	1.433359
28.538447684423716	2.0140698	1.4191793
28.556532738471482	1.9873526	1.409735
28.574618518926325	1.9670244	1.4025065
28.59270502632635	1.9437743	1.394193
28.61079226120985	1.9956157	1.4126626
28.628880224115274	2.0105922	1.4179535
28.646968915581287	1.989816	1.4106084
28.66505833614671	1.9561733	1.3986326
28.68314848635055	1.9667614	1.4024127
28.701239366732004	2.0760894	1.4408641
28.71933097783044	2.1583679	1.4691385
28.737423320185403	2.1350226	1.4611716
28.75551639433665	2.0802913	1.4423215
28.773610200824074	2.069851	1.4386977
28.791704740187793	2.038463	1.4277476
28.80980001296809	2.0946028	1.4472743
28.827896019705413	2.143262	1.4639883
28.845992760940433	2.1550202	1.4679987
28.86409023721397	2.1259518	1.4580644
28.88218844906704	2.1296122	1.4593191
28.900287397040845	2.1206372	1.4562408
28.918387081676755	2.126407	1.4582205
28.936487503516343	2.146323	1.4650334
28.954588663101365	2.187986	1.4791842
28.97269056097374	2.2631514	1.5043774
28.990793197675597	2.3040593	1.5179127
29.00889657374923	2.3227975	1.5240726
29.027000689737125	2.3549712	1.5345916
29.04510554618196	2.4131906	1.5534447
29.06321114362659	2.421807	1.5562156
29.08131748261405	2.4374385	1.5612298
29.099424563687567	2.4391088	1.5617647
29.11753238739057	2.4162023	1.5544138
29.13564095426663	2.4564	1.5672907
29.15375026485954	2.4773238	1.5739516
29.171860319713275	2.5427723	1.5946072
29.18997111937199	2.5504813	1.5970227
29.20808266438002	2.6522868	1.6285843
29.226194955281898	2.7840228	1.6685392
29.244307992622335	2.8322465	1.682928
29.26242177694624	2.8704019	1.694226
29.2805363087987	2.8446984	1.6866233
29.29865158872498	2.7831044	1.6682639
29.316767617270557	2.8475432	1.6874665
29.334884394981064	2.9423835	1.7153378
29.353001922402367	3.007799	1.7343007
29.37112020008047	3.0563462	1.7482408
29.389239228561596	3.136306	1.7709619
29.407359008392152	3.2972505	1.8158333
29.42547954011872	3.5939507	1.8957719
29.44360082428809	4.2007637	2.0495765
29.46172286144722	5.285569	2.2990365
29.479845652143283	6.8290806	2.613251
29.497969196923606	8.820374	2.9699113
29.516093496335728	11.187319	3.344745
29.5342185509274	13.75413	3.708656
29.55234436124651	15.878929	3.9848373
29.570470927841175	17.046936	4.1287937
29.588598251259686	16.73791	4.091199
29.60672633205055	15.432152	3.9283779
29.624855170762405	13.4838505	3.6720362
29.642984767944146	10.933478	3.306581
29.66111512414481	8.41882	2.9015203
29.67924623991366	6.329283	2.5158067
29.697378115800138	4.885167	2.2102413
29.71551075235387	4.053346	2.0132923
29.733644150124675	3.7489986	1.9362332
29.751778309662576	3.5042074	1.8719528
29.769913231517766	3.3202443	1.8221538
29.78804891624066	3.28619	1.8127851
29.806185364381818	3.2976365	1.8159395
29.82432257649206	3.2749112	1.8096715
29.842460553122333	3.242513	1.8006979
29.86059929482382	3.182185	1.783868
29.878738802147872	3.173195	1.7813463
29.896879075646048	3.233583	1.7982166
29.915020115870114	3.2659812	1.8072026
29.933161923371976	3.2466576	1.8018484
29.951304498703777	3.177248	1.7824837
29.969447842417857	3.160221	1.777701
29.987591955066733	3.121427	1.766756
30.005736837203123	3.0987616	1.76033
30.023882489379943	3.1755881	1.782018
30.04202891215028	3.195997	1.7877351
30.060176106067455	3.18113	1.7835722
30.078324071684946	3.155273	1.7763088
30.09647280955646	3.147364	1.7740811
30.114622320235863	3.1345422	1.7704638
30.132772604277257	3.1147044	1.7648525
30.1509236622349	3.0810623	1.7552955
30.16907549466328	3.0784369	1.7545475
30.18722810211705	3.1081898	1.7630059
30.205381485151097	3.0427053	1.7443352
30.22353564432045	3.0242674	1.739042
30.241690580180403	2.9875379	1.7284496
30.25984629328638	2.9675443	1.7226561
30.278002784194037	3.011051	1.735238
30.296160053459246	3.0685475	1.751727
30.314318101638033	3.0085201	1.7345086
30.332476929286646	2.9151387	1.7073778
30.35063653696153	2.8162255	1.6781614
30.368796925219307	2.8017187	1.6738335
30.386958094616844	2.8257155	1.6809865
30.40512004571115	2.7944498	1.6716608
30.423282779059463	2.7936444	1.6714199
30.441446295219233	2.7441573	1.6565498
30.459610594748067	2.7436078	1.656384
30.47777567820382	2.845617	1.6868957
30.495941546144504	2.8772957	1.6962594
30.51410819912835	2.8599598	1.6911416
30.532275637713795	2.846217	1.6870735
30.55044386245946	2.8504372	1.6883237
30.56861287392416	2.813612	1.6773825
30.586782672666956	2.8235714	1.6803486
30.604953259247047	2.813829	1.6774472
30.623124634223885	2.763317	1.6623228
30.641296798157075	2.797869	1.6726831
30.659469751606462	2.824355	1.6805817
30.677643495132074	2.7369502	1.654373
30.695818029294152	2.6334047	1.6227769
30.713993354653116	2.673842	1.6351887
30.73216947176962	2.7160742	1.6480516
30.75034638120448	2.7247093	1.6506693
30.768524083518756	2.7207897	1.6494817
30.786702579273673	2.7017152	1.6436895
30.80488186903069	2.7163658	1.6481401
30.82306195335144	2.8632493	1.6921139
30.841242832797782	3.0641313	1.750466
30.85942450793176	3.3354115	1.8263109
30.877606979315637	3.636393	1.906933
30.895790247511883	3.9520783	1.9879835
30.913974313083134	4.3198466	2.078424
30.932159176592283	4.5986485	2.144446
30.95034483860237	4.6054864	2.1460397
30.968531299676698	4.4987626	2.1210287
30.98671856037873	4.289046	2.071001
31.00490662127215	3.9786434	1.9946537
31.023095482920848	3.5950298	1.8960564
31.04128514588892	3.1402864	1.7720853
31.059475610740662	2.7543328	1.6596183
31.07766687804056	2.5450733	1.5953286
31.09585894835335	2.5257008	1.5892453
31.11405182224393	2.5020769	1.5817955
31.132245500277417	2.437412	1.5612214
31.15043998301914	2.3780344	1.5420877
31.168635271034628	2.3388636	1.5293344
31.18683136488964	2.3098042	1.519804
31.20502826515008	2.3242452	1.5245476
31.223225972382135	2.3816524	1.5432603
31.241424487152155	2.4213812	1.5560788
31.259623810026692	2.4305863	1.5590338
31.27782394157253	2.3845048	1.5441842
31.296024882356644	2.3594904	1.5360633
31.314226632946237	2.3862083	1.5447357
31.332429193908684	2.3945024	1.547418
31.350632565811598	2.3689818	1.5391498
31.368836749222787	2.3982816	1.5486386
31.387041744710295	2.4362288	1.5608423
31.40524755284232	2.4680324	1.5709972
31.423454174187317	2.542451	1.5945065
31.441661609313922	2.6131759	1.6165321
31.459869858791002	2.5222437	1.5881573
31.478078923187628	2.4056795	1.5510253
31.496288803073064	2.400049	1.5492091
31.514499499016807	2.4306998	1.5590702
31.532711011588546	2.4156225	1.5542272
31.550923341358178	2.3097785	1.5197955
31.56913648889584	2.2246614	1.4915298
31.587350454771844	2.2652597	1.505078
31.605565239556732	2.3026266	1.5174408
31.62378084382127	2.3078969	1.5191764
31.641997268136382	2.2506251	1.5002084
31.660214513073274	2.2228754	1.490931
31.67843257920331	2.244694	1.4982303
31.6966514670981	2.3262458	1.5252035
31.71487117732944	2.3676403	1.5387138
31.733091710469346	2.3067021	1.5187831
31.751313067090052	2.2482476	1.4994158
31.769535247764008	2.3184586	1.5226486
31.787758253063878	2.373393	1.5405821
31.805982083562526	2.308059	1.5192298
31.824206739833024	2.2392888	1.4964254
31.84243222244869	2.236913	1.4956313
31.860658531983013	2.246623	1.498874
31.878885669009737	2.2589111	1.5029675
31.897113634102784	2.1987736	1.4828262
31.91534242783632	2.1125348	1.4534562
31.933572050784694	2.1329603	1.4604658
31.951802503522508	2.2057586	1.4851797
31.970033786624548	2.1566021	1.4685374
31.988265900665834	2.1376574	1.462073
32.006498846221575	2.1780505	1.475822
32.02473262386724	2.159741	1.4696057
32.04296723417845	2.1614215	1.4701774
32.0612026777311	2.1665432	1.4719182
32.07943895510129	2.1569097	1.4686421
32.097676066865304	2.1682057	1.4724828
32.115914013599685	2.1389298	1.4625081
32.13415279588115	2.027967	1.424067
32.152392414286666	2.0507355	1.4320389
32.1706328693934	2.1127481	1.4535296
32.18887416177875	2.0963268	1.4478698
32.20711629202032	2.1177146	1.455237
32.225359260695924	2.1477563	1.4655225
32.243603068383614	2.1546197	1.4678622
32.26184771566166	2.1641257	1.4710968
32.28009320310852	2.0881438	1.4450411
32.2983395313029	2.1110246	1.4529365
32.31658670082372	2.14242	1.4637008
32.33483471225012	2.1698434	1.4730388
32.35308356616143	2.0665367	1.4375454
32.371333263137245	2.0357277	1.4267893
32.38958380375734	2.086677	1.4445335
32.407835188601744	2.2006574	1.4834613
32.42608741825067	2.2685788	1.5061802
32.444340493284585	2.2595482	1.5031793
32.46259441428416	2.1605542	1.4698824
32.48084918183028	2.0760128	1.4408375
32.49910479650405	2.0067887	1.4166117
32.51736125888683	2.0451758	1.4300964
32.53561856956014	2.1350121	1.461168
32.5538767291058	2.073773	1.44006
32.572135738105764	2.101871	1.4497831
32.59039559714228	2.172713	1.4740126
32.608656306797776	2.1278784	1.458725
32.62691786765491	2.0263288	1.4234917
32.645180280296586	1.9389374	1.3924574
32.663443545305896	1.9560254	1.3985797
32.68170766326619	1.9752083	1.405421
32.69997263476099	1.9563745	1.3987046
32.7182384603741	1.963316	1.4011837
32.7365051406895	1.9898776	1.4106302
32.75477267629144	1.9616015	1.4005718
32.77304106776434	1.9217968	1.3862889
32.79131031569289	1.9878265	1.409903
32.809580420661966	2.0875487	1.4448352
32.827851383256714	1.9786777	1.4066548
32.84612320406245	1.9525231	1.3973272
32.86439588366476	1.9691111	1.4032502
32.88266942264945	1.9962286	1.4128796
32.9009438216025	1.9370707	1.3917869
32.9192190811102	1.9433203	1.3940302
32.937495201758985	1.9468707	1.3953031
32.95577218413556	1.9181159	1.3849607
32.974050028826866	1.9381967	1.3921913
32.992328736420035	1.9529575	1.3974825
33.010608307502444	1.9107214	1.3822885
33.02888874266169	1.9649439	1.4017645
33.047170042485604	2.006158	1.4163891
33.06545220756225	1.9824547	1.4079967
33.083735238479896	1.942825	1.3938526
33.10201913582707	1.9321415	1.3900149
33.12030390019248	1.8747169	1.369203
33.138589532165135	1.8592837	1.3635556
33.15687603233419	1.9522957	1.3972458
33.17516340128909	2.0500197	1.431789
33.19345163961947	1.9554124	1.3983606
33.211740747915215	1.8526435	1.3611184
33.23003072676643	1.8389934	1.356095
33.248321576763466	1.8530657	1.3612735
33.266613298496885	1.7745974	1.3321402
33.28490589255747	1.7808669	1.3344913
33.30319935953626	1.8961605	1.3770114
33.32149370002451	1.90039	1.3785464
33.339788914613706	1.837846	1.3556718
33.358085003895575	1.9409443	1.3931777
33.376381968462034	1.8757894	1.3695946
33.39467980890529	1.8855135	1.37314
33.41297852581774	2.0251136	1.4230648
33.43127811979204	2.0167727	1.4201312
33.44957859142105	1.9281409	1.3885751
33.467879941297866	1.9187664	1.3851954
33.486182170015844	1.9644848	1.4016008
33.50448527816853	1.9315511	1.3898026
33.522789266349754	1.9262351	1.3878887
33.541094135153514	1.8011615	1.3420736
33.55939988517411	1.7640746	1.3281847
33.57770651700602	1.772148	1.3312205
33.59601403124398	1.8107728	1.3456496
33.61432242848296	1.9398532	1.3927861
33.632631709318154	1.9844191	1.4086941
33.650941874344994	1.8903831	1.374912
33.66925292415916	1.9312129	1.3896809
33.68756485935654	1.9347157	1.3909405
33.70587768053328	1.8963013	1.3770626
33.724191388285746	1.9779145	1.4063835
33.74250598321054	2.0390487	1.4279526
33.760821465904506	1.9259688	1.3877928
33.77913783696474	1.8922367	1.3755859
33.79745509698852	1.9298483	1.3891898
33.815773246573414	1.8696209	1.3673408
33.8340922863172	1.8521234	1.3609273
33.852412216817896	1.9012116	1.3788443
33.87073303867377	1.8699814	1.3674726
33.889054752483304	1.8392125	1.3561757
33.907377358845245	1.899258	1.3781357
33.92570085835853	1.9277314	1.3884276
33.94402525162239	1.8780648	1.370425
33.96235053923627	1.9247829	1.3873655
33.980676721799824	1.9597069	1.3998953
33.999003799912984	1.882158	1.3719176
34.01733177417592	1.859141	1.3635032
34.03566064518901	2.0055826	1.416186
34.0539904135529	2.0790107	1.4418775
34.07232107986846	2.071026	1.439106
34.090652644736785	1.9872607	1.4097023
34.108985108759235	1.9466138	1.395211
34.12731847253742	2.0046988	1.4158739
34.14565273667313	2.084067	1.4436299
34.16398790176847	1.990468	1.4108394
34.18232396842574	1.8023537	1.3425177
34.20066093724749	1.8119749	1.3460962
34.21899880883651	1.8880693	1.3740703
34.23733758379583	1.9738896	1.4049518
34.25567726272874	2.0442593	1.429776
34.27401784623872	1.9464034	1.3951356
34.29235933492957	1.9328545	1.3902714
34.31070172940526	1.9977472	1.4134169
34.32904503027003	1.8709497	1.3678267
34.347389238128386	1.7847458	1.3359438
34.36573435358502	1.8734218	1.36873
34.38408037724492	2.0033872	1.4154106
34.402427309713296	1.9926921	1.4116274
34.42077515159559	1.9183123	1.3850315
34.43912390349752	1.9127977	1.3830392
34.45747356602499	1.8007942	1.3419367
34.47582413978423	1.7417519	1.3197545
34.49417562538163	1.8043983	1.3432789
34.51252802342388	1.8761744	1.3697351
34.53088133451789	1.8621752	1.3646154
34.54923555927084	1.9244628	1.3872501
34.567590698290104	1.9572262	1.399009
34.58594675218336	2.0116806	1.4183372
34.6043037215585	1.9824533	1.4079962
34.62266160702365	1.854987	1.3619791
34.641020409187234	1.8587043	1.3633431
34.65938012865785	2.0281672	1.4241374
34.677740766044394	2.1262674	1.4581727
34.69610232195598	1.9699141	1.4035363
34.714464797002016	1.8500644	1.3601707
34.73282819179208	1.7812349	1.334629
34.751192506936064	1.7641941	1.3282297
34.76955774304408	1.9778968	1.4063772
34.7879239007265	2.1584678	1.4691725
34.80629098059391	2.0930312	1.4467312
34.824658983257194	2.0097146	1.417644
34.843027909327446	1.8734679	1.3687469
34.86139775941603	1.8095828	1.3452073
34.879768534134534	1.8322738	1.353615
34.89814023409483	1.9469013	1.3953141
34.91651285990901	2.0522864	1.4325804
34.93488641218944	2.0569212	1.4341971
34.95326089154871	2.0506413	1.432006
34.97163629859967	2.1221714	1.4567674
34.99001263395542	2.1881616	1.4792436
35.00838989822934	2.0059426	1.416313
35.02676809203499	1.9312834	1.3897063
35.04514721598624	2.0778308	1.4414682
35.063527270697215	2.230367	1.4934413
35.081908256782256	2.2346175	1.4948637
35.10029017485597	2.3827147	1.5436045
35.11867302553321	2.289677	1.5131679
35.137056809429104	2.0995436	1.4489802
35.155441527159006	2.27924	1.5097152
35.173827179338524	2.013078	1.4188298
35.19221376658354	1.669153	1.291957
35.21060128951017	1.587626	1.2600104
35.2289897487348	1.5363942	1.2395138
35.24737914487405	1.9096842	1.3819132
35.26576947854479	2.314552	1.5213652
35.28416075036418	2.2075722	1.4857901
35.30255296094958	2.1274447	1.4585763
35.32094611091867	2.1843803	1.4779649
35.33934020088932	2.0514107	1.4322747
35.35773523147969	1.7077345	1.3068031
35.3761312033082	1.5896789	1.2608247
35.394528116993506	1.6981492	1.3031305
35.41292597315452	1.9277016	1.3884169
35.431324772410434	2.1698837	1.4730525
35.449724515380666	2.0541615	1.4332347
35.46812520268491	1.7057204	1.3060323
35.486526834943106	1.8234504	1.3503519
35.504929412775454	1.973643	1.4048641
35.52333293680242	1.7880969	1.3371974
35.54173740764471	1.5594869	1.2487942
35.560142825923286	2.0575244	1.4344074
35.5785491922594	1.8786799	1.3706495
35.59695650727454	0.90161455	0.9495339
35.61536477159042	0.6149216	0.7841694
