0.008763373481513119	0.051685803	0.22734512
0.026290120649546365	0.18429624	0.4292974
0.043816868432600686	0.12367553	0.35167533
0.06134361724069026	0.15665877	0.39580142
0.07887036748382949	0.11813755	0.34371144
0.0963971195720331	0.23314942	0.4828555
0.11392387391531617	0.2369141	0.48673823
0.1314506309236943	0.20013802	0.44736788
0.1489773910071836	0.10414924	0.3227216
0.16650415457580078	0.086653695	0.29437
0.18403092203956356	0.12297642	0.35067993
0.20155769380849	0.18515769	0.43029952
0.2190844702925996	0.18611518	0.43141067
0.2366112519019124	0.18969534	0.4355403
0.2541380390464497	0.10308135	0.32106286
0.27166483213623416	0.08666412	0.2943877
0.28919163158128947	0.06857266	0.26186383
0.3067184377916406	0.07354432	0.27119055
0.324245251177314	0.111370414	0.33372205
0.34177207214833777	0.12749685	0.35706702
0.3592989011147415	0.13319194	0.3649547
0.37682573848655654	0.15446897	0.3930254
0.39435258467381573	0.12825054	0.35812086
0.41187944008655414	0.1259404	0.3548808
0.42940630513480854	0.1485462	0.38541692
0.446933180228618	0.17703679	0.4207574
0.4644600657780234	0.2009686	0.4482952
0.48198696219306775	0.16789384	0.40974852
0.49951386988379676	0.12172731	0.34889442
0.5170407892602581	0.12341248	0.35130113
0.5345677207325025	0.13747069	0.3707704
0.5520946647105822	0.12386584	0.3519458
0.5696216216045534	0.20587939	0.45373935
0.5871485918244737	0.2291112	0.4786556
0.6046755757804043	0.23332822	0.4830406
0.6222025738824094	0.18745504	0.43296078
0.6397295865405557	0.18129356	0.4257858
0.6572566141649129	0.1721671	0.41493022
0.6747836571655547	0.1725356	0.41537404
0.6923107159525568	0.17035046	0.41273534
0.7098377909359992	0.20189613	0.44932854
0.7273648825259653	0.24225214	0.49219117
0.7448919911325411	0.2568586	0.50681216
0.762419117165817	0.22845809	0.4779729
0.7799462610358868	0.18112732	0.42559057
0.7974734231528482	0.17038995	0.41278318
0.8150006039268024	0.1851371	0.4302756
0.8325278037678551	0.21192186	0.4603497
0.8500550230861152	0.22346814	0.47272417
0.8675822622916969	0.23108219	0.4807101
0.8851095217947171	0.22885355	0.4783864
0.9026368020052984	0.18799129	0.43357962
0.9201641033335665	0.1867527	0.43214893
0.9376914261896523	0.20683771	0.45479414
0.9552187709836915	0.2083757	0.45648187
0.9727461381258234	0.2379338	0.4877846
0.990273528026193	0.24910301	0.4991022
1.0078009410949496	0.27195466	0.5214927
1.0253283777422473	0.2808426	0.52994585
1.0428558383782454	0.26473173	0.5145209
1.0603833234131086	0.30279818	0.55027103
1.0779108332570058	0.33629498	0.57990944
1.0954383683201119	0.34241083	0.5851588
1.112965929012607	0.37086082	0.60898346
1.1304935157446763	0.43818387	0.6619546
1.1480211289265108	0.47391272	0.6884132
1.1655487689683062	1.2290448	1.1086229
1.1830764362802655	1.4811383	1.2170203
1.200604131272596	1.8877839	1.3739665
1.2181318543555117	2.2408779	1.4969562
1.235659605939232	2.3262746	1.525213
1.253187386433982	3.6731422	1.9165443
1.270715196249994	6.0924544	2.4682899
1.2882430357975057	11.435895	3.3817
1.3057709054867608	16.119448	4.014903
1.3232988057280106	21.69683	4.6579857
1.3408267369315112	26.36702	5.1348825
1.358354699507526	30.229074	5.4980974
1.3758826938663256	34.119106	5.8411565
1.3934107204181858	35.893707	5.9911356
1.410938779573391	36.39997	6.033239
1.4284668717422309	37.317844	6.1088333
1.4459949973350033	37.364555	6.112655
1.4635231567620117	37.52509	6.1257725
1.4810513504335687	36.650196	6.053941
1.4985795787599925	35.782238	5.981826
1.5161078421516088	34.67934	5.888917
1.5336361410187505	33.84523	5.8176656
1.5511644757717598	33.877983	5.8204794
1.5686928468209842	34.467514	5.870904
1.58622125457678	35.22155	5.9347744
1.6037496994495108	36.44581	6.0370364
1.621278181849548	36.571163	6.0474095
1.6388067021872719	37.018818	6.084309
1.6563352608730693	36.081318	6.0067725
1.673863858317336	35.059193	5.9210806
1.6913924949304753	34.435806	5.868203
1.7089211711228998	33.36858	5.776554
1.7264498873050296	32.60363	5.709959
1.7439786438872935	31.937067	5.651289
1.7615074412801288	31.281872	5.59302
1.779036279893981	30.744865	5.544805
1.796565160139305	29.76779	5.4559865
1.814094082426564	28.888214	5.374776
1.8316230471662298	27.92981	5.284866
1.849152054768784	27.179638	5.2134094
1.8666811056447168	26.85028	5.1817255
1.8842102002045273	26.105623	5.1093664
1.901739338858724	25.83511	5.082825
1.9192685220178245	25.153008	5.0152774
1.9367977500923557	24.428623	4.942532
1.9543270234928547	23.544544	4.852272
1.971856342629867	22.62948	4.7570453
1.9893857079139496	22.380651	4.730819
2.006915119755667	22.090048	4.700005
2.0244445785655945	21.841234	4.6734605
2.0419740847543175	21.457882	4.632265
2.0595036387324317	20.771177	4.557541
2.0770332409105414	20.21039	4.495597
2.094562891699263	20.047104	4.4773993
2.1120925915092217	19.68851	4.437174
2.129622340751053	19.542185	4.4206543
2.1471521398354043	187.72752	13.701369
2.1646819891729323	444.09515	21.073565
2.182211889174303	440.239	20.981873
2.1997418402501974	452.73355	21.277536
2.2172718428113023	432.75085	20.802664
2.234801897268317	320.60907	17.90556
2.2523320040319548	16.953117	4.1174164
2.269862163512935	16.459978	4.05709
2.287392376121992	16.20803	4.02592
2.304922642269869	15.863927	3.9829545
2.322452962367322	15.555802	3.9440844
2.3399833368251164	15.140382	3.8910644
2.357513766054032	14.943054	3.8656247
2.3750442504648586	14.751298	3.8407419
2.3925747904683963	14.40675	3.7956223
2.410105386475459	14.104321	3.7555718
2.4276360388968707	13.770379	3.7108462
2.445166748143469	13.790476	3.713553
2.4626975146261025	13.600859	3.6879342
2.4802283387556323	13.535599	3.6790757
2.4977592209429305	13.351407	3.6539576
2.5152901615988825	13.110863	3.6208925
2.5328211611343865	12.722184	3.566817
2.5503522199603523	12.481705	3.5329456
2.5678833384877024	12.236947	3.4981349
2.5854145171273712	12.011984	3.4658308
2.6029457562903064	11.936473	3.45492
2.620477056387469	11.781349	3.432397
2.6380084178298326	11.608412	3.407112
2.655539841028383	11.293351	3.3605583
2.673071326394119	11.134964	3.3369093
2.6906028743380523	10.825422	3.290201
2.708134485271211	10.708625	3.2724035
2.7256661596046325	10.641128	3.2620742
2.743197897749369	10.426791	3.2290542
2.760729700116486	10.104355	3.1787348
2.778261567117063	9.912481	3.1484094
2.795793499162193	9.852261	3.1388311
2.8133254966629817	9.830674	3.1353905
2.830857560030551	9.712799	3.1165364
2.8483896896760337	9.614582	3.100739
2.865921886010578	9.278646	3.046087
2.883454149445347	9.061278	3.0101957
2.9009864803915177	9.0333805	3.0055583
2.91851887926028	8.969959	2.994989
2.9360513464628384	9.01404	3.0023391
2.953583882410413	8.860328	2.9766302
2.9711164875142373	8.753016	2.9585497
2.9886491621855606	8.526282	2.9199798
3.0061819068356455	8.342265	2.888298
3.023714721875769	8.297519	2.8805413
3.041247607717225	8.207254	2.8648305
3.0587805647713213	8.073413	2.841375
3.0763135934493806	8.001431	2.8286803
3.0938466941627407	7.957808	2.8209586
3.1113798673227544	8.035231	2.8346481
3.1289131133407904	7.979208	2.8247492
3.1464464326282315	7.8688107	2.80514
3.1639798255964786	7.6913495	2.7733283
3.1815132926569443	7.526475	2.743442
3.1990468342210603	7.4588513	2.7310898
3.216580450700272	7.358099	2.7125816
3.2341141425060416	7.2552104	2.6935499
3.251647910049847	7.1455035	2.6731074
3.2691817537431813	7.0412674	2.6535387
3.286715673997555	7.0250816	2.650487
3.3042496712244938	6.9238167	2.6313145
3.32178374583554	6.783732	2.60456
3.339317898242251	6.708051	2.5899906
3.3568521288562034	6.585331	2.56619
3.3743864380889876	6.5147715	2.552405
3.3919208263522127	6.419621	2.5336971
3.4094552940575023	6.4616494	2.5419774
3.4269898416164972	6.5496755	2.5592334
3.444524469440858	6.530789	2.5555408
3.4620591779422587	6.382504	2.5263617
3.479593967532391	6.2826486	2.5065212
3.4971288386229658	6.1736937	2.4846919
3.5146637916257086	6.2389355	2.497786
3.5321988269523628	6.2871137	2.5074117
3.5497339450146903	6.3133187	2.512632
3.5672691462244708	6.1997666	2.489933
3.5848044309934988	6.0407963	2.4578032
3.60233979973359	6.0184255	2.453248
3.619875252856575	6.062943	2.4623044
3.6374107907743034	6.157404	2.4814117
3.6549464138986427	6.148799	2.4796772
3.6724821226414788	6.0828366	2.4663408
3.690017917414714	6.128596	2.4756
3.7075537986302702	6.166041	2.4831514
3.7250897667000857	6.1889334	2.4877567
3.7426258220361235	6.3291426	2.5157788
3.7601619650503553	6.6071086	2.5704296
3.777698196154779	7.130908	2.670376
3.7952345157614067	8.093091	2.8448358
3.8127709242822716	8.926795	2.9877744
3.830307422129425	11.098921	3.3315043
3.847844009714936	29.910412	5.4690413
3.8653806874508954	97.3662	9.867432
3.882917455749409	96.65848	9.831505
3.900454315022606	96.4773	9.822286
3.917991265682631	41.073586	6.408868
3.9355283081416506	10.779135	3.2831593
3.9530654428118495	8.522629	2.9193542
3.970602670105433	7.278481	2.697866
3.9881399904346244	6.383169	2.5264935
4.005677404211669	6.357246	2.521358
4.023214911848827	6.3630023	2.5224993
4.0407525137583855	6.3775535	2.5253818
4.058290210352644	6.3549833	2.5209093
4.075828002043927	6.189767	2.487924
4.0933658892445814	6.0510063	2.4598794
4.110903872366966	5.9002066	2.429034
4.128441951823468	5.844742	2.4175901
4.145980128026488	5.8008924	2.4085042
4.163518401388452	5.872934	2.4234138
4.181056772321807	5.9207206	2.433253
4.1985952412390155	5.961245	2.441566
4.216133808552567	5.937825	2.4367654
4.233672474674966	6.056602	2.4610164
4.251211240018741	6.297742	2.5095303
4.268750104996445	6.543144	2.557957
4.286289070020643	7.545869	2.7469745
4.303828135503928	9.169594	3.0281336
4.3213673018589125	29.489023	5.43038
4.3389065694982305	90.61677	9.519284
4.356445938834537	165.64359	12.870259
4.3739854102805085	171.08208	13.079835
4.391524984248844	171.96703	13.11362
4.409064661152262	136.32979	11.676035
4.426604441403504	96.68759	9.832985
4.444144325415337	75.63306	8.696727
4.461684313600543	21.502132	4.637039
4.47922440637193	21.884048	4.678039
4.496764604142329	20.18869	4.4931827
4.5143049073245916	18.227705	4.2693915
4.531845316331589	16.084835	4.0105906
4.5493858315762195	13.18935	3.6317146
4.566926453471405	10.9839325	3.3142016
4.584467182430081	9.043385	3.0072222
4.602008018865218	8.041135	2.8356895
4.619548963189798	7.385694	2.7176633
4.637090015816834	6.828409	2.6131225
4.654631177159353	6.5324154	2.555859
4.672172447630417	6.154937	2.4809146
4.689713827643102	5.997288	2.4489362
4.7072553176105085	5.802253	2.4087865
4.724796917945764	5.6923385	2.385862
4.742338629062015	5.694809	2.38638
4.759880451372434	5.700666	2.3876069
4.777422385290215	5.669786	2.3811312
4.794964431228581	5.58285	2.3628056
4.812506589600768	5.473688	2.3395915
4.830048860820047	5.389852	2.3216054
4.847591245299709	5.3929305	2.3222685
4.8651337434530655	5.362387	2.315683
4.882676355693457	5.411674	2.3263004
4.900219082434242	5.4060726	2.3250964
4.917761924088813	5.3323774	2.309194
4.935304881070575	5.312076	2.304794
4.952847953792969	5.4270167	2.3295958
4.970391142669449	5.515814	2.348577
4.9879344481135055	5.4624424	2.3371868
5.005477870538642	5.366921	2.3166616
5.023021410358394	5.2364807	2.2883358
5.040565067986324	5.270939	2.2958524
5.05810884383601	5.3044844	2.3031466
5.075652738321066	5.287214	2.2993941
5.09319675185512	5.2363787	2.2883134
5.110740884851836	5.1976967	2.2798457
5.128285137724894	5.2786713	2.297536
5.145829510888007	5.245085	2.290215
5.163374004754908	5.332854	2.3092973
5.1809186197393595	5.3091135	2.3041513
5.198463356255145	5.3964915	2.323035
5.216008214716077	5.4029818	2.3244314
5.233553195535998	5.3039646	2.3030338
5.251098299128764	5.2676263	2.295131
5.268643525908272	5.153786	2.2701952
5.286188876288432	5.054646	2.248254
5.3037343506831895	5.0035267	2.2368565
5.32127994950651	4.990205	2.2338767
5.3388256731723915	4.9964976	2.2352848
5.356371522094851	5.0332313	2.2434864
5.373917496687938	5.104854	2.2593925
5.391463597365729	5.2443686	2.2900586
5.40900982454232	5.1791415	2.2757728
5.426556178631843	5.189717	2.278095
5.444102660048449	5.0757766	2.2529485
5.4616492692063225	5.065816	2.2507367
5.479196006519669	5.045881	2.2463038
5.496742872402727	5.074887	2.2527509
5.514289867269756	5.135535	2.266172
5.531836991535049	5.0907574	2.2562706
5.549384245612924	5.06117	2.2497044
5.566931629917724	4.9967732	2.2353463
5.584479144863822	4.936903	2.2219143
5.6020267908656205	4.9926333	2.23442
5.619574568337545	4.9822364	2.2320924
5.637122477694054	4.9323864	2.2208977
5.654670519349629	4.9284716	2.220016
5.672218693718784	4.8667026	2.2060604
5.689767001216059	4.9224796	2.218666
5.707315442256021	4.970446	2.2294497
5.724864017253266	5.0402665	2.2450538
5.7424127266224225	5.043496	2.2457728
5.75996157077814	5.005137	2.2372162
5.777510550135105	5.051518	2.247558
5.795059665108022	5.0561247	2.2485828
5.812608916111639	5.141622	2.2675145
5.830158303560715	5.1924357	2.2786918
5.847707827870055	5.1910434	2.278386
5.86525748945448	5.254075	2.292177
5.8828072887288485	5.385846	2.3207426
5.900357226108044	5.4911294	2.3433158
5.917907302006979	5.566678	2.359381
5.9354575168406	6.115492	2.4729521
5.9530078710238765	6.695405	2.587548
5.970558364971812	7.2210245	2.6871965
5.988108999099438	7.525095	2.7431908
6.005659773821818	8.044634	2.8363063
6.023210689554039	7.83088	2.798371
6.040761746711227	8.271338	2.8759935
6.058312945708531	7.564241	2.7503166
6.075864286961132	7.0582175	2.6567307
6.093415770884244	6.411001	2.5319955
6.1109673978931065	5.881718	2.4252255
6.128519168402993	5.337838	2.3103762
6.146071082829204	5.1705675	2.273888
6.163623141587075	5.052427	2.2477603
6.181175345091969	4.9954796	2.2350569
6.198727693759281	5.003758	2.2369082
6.216280188004435	4.952187	2.225351
6.233832828242885	5.027012	2.2420998
6.251385614890126	5.073256	2.252389
6.268938548361669	5.093749	2.2569335
6.286491629073067	4.997043	2.2354066
6.304044857439898	4.909379	2.2157118
6.321598233877777	4.8561645	2.2036707
6.339151758802344	4.8617773	2.204944
6.356705432629277	4.887139	2.2106874
6.37425925577428	4.912204	2.2163491
6.391813228653095	4.8894825	2.2112174
6.409367351681486	4.9028625	2.2142408
6.426921625275259	4.854394	2.203269
6.44447604985025	4.8230143	2.1961362
6.46203062582232	4.796877	2.1901774
6.47958535360737	4.8046393	2.1919487
6.497140233621328	4.8171186	2.1947935
6.514695266280161	4.832711	2.1983428
6.532250451999859	4.8746686	2.2078652
6.549805791196454	4.950556	2.2249844
6.567361284286002	5.0023565	2.236595
6.584916931684597	4.9818497	2.2320058
6.602472733808367	4.946275	2.2240224
6.6200286910734665	4.9255357	2.2193549
6.637584803896092	4.8990793	2.2133863
6.655141072692462	4.9398293	2.2225728
6.672697497878842	4.888254	2.2109396
6.690254079871514	4.866696	2.206059
6.707810819086808	4.866943	2.2061148
6.725367715941078	4.8576603	2.20401
6.742924770850719	4.8416753	2.2003808
6.760481984232151	4.8350163	2.198867
6.778039356501836	4.80746	2.1925921
6.795596888076266	4.8440614	2.2009227
6.813154579371963	4.877113	2.2084186
6.830712430805492	4.8683534	2.2064345
6.84827044279344	4.848694	2.2019749
6.865828615752445	4.74701	2.1787634
6.883386950099159	4.7039504	2.1688592
6.900945446250287	4.7193	2.172395
6.918504104622553	4.736346	2.1763148
6.936062925632727	4.851965	2.2027175
6.953621909697607	4.9056807	2.2148771
6.971181057234028	4.9575005	2.2265446
6.988740368658859	5.0311604	2.2430248
7.006299844389007	5.0604644	2.2495475
7.023859484841407	5.1686797	2.273473
7.041419290433036	5.301279	2.3024507
7.058979261580902	5.4039407	2.3246377
7.0765393987020495	5.570418	2.3601732
7.094099702213559	5.850316	2.4187427
7.111660172532549	6.213108	2.4926107
7.129220810076164	6.563315	2.5618968
7.146781615261595	7.1455393	2.673114
7.16434258850606	7.3683934	2.7144785
7.181903730226821	7.804421	2.7936394
7.1994650408411704	7.871603	2.8056378
7.217026520766437	8.148366	2.8545344
7.234588170419983	8.345268	2.8888178
7.252149990219215	8.369832	2.8930662
7.269711980581568	8.187842	2.8614407
7.2872741419245175	7.9608865	2.8215044
7.304836474665574	7.560681	2.7496693
7.322398979222286	7.276809	2.6975563
7.339961656012233	7.040988	2.653486
7.357524505453039	6.6627293	2.5812263
7.375087527962357	6.369889	2.5238638
7.392650723957886	6.1224327	2.474355
7.410214093857353	5.8177648	2.4120042
7.427777638078528	5.6375036	2.3743427
7.445341357039213	5.3847356	2.3205032
7.4629052511572525	5.2556405	2.2925184
7.480469320850524	5.1243124	2.2636945
7.498033566536948	5.032037	2.24322
7.5155979886344735	5.0050273	2.237192
7.5331625875610975	4.952746	2.2254765
7.550727363734844	5.0297756	2.242716
7.568292317573788	5.0925565	2.2566693
7.585857449496025	5.091094	2.2563453
7.603422759919705	5.0870566	2.2554505
7.620988249263007	5.0652266	2.2506058
7.638553917944147	5.081088	2.2541268
7.656119766381391	5.0655236	2.2506719
7.673685794993023	5.0551653	2.2483695
7.691252004197388	5.0615883	2.2497973
7.70881839441285	5.0735183	2.2524471
7.726384966057826	5.109049	2.2603204
7.743951719550762	5.0848393	2.2549589
7.761518655310149	4.991814	2.2342367
7.779085773754511	5.006886	2.2376072
7.796653075302419	5.0597844	2.2493966
7.814220560372475	5.1570873	2.2709222
7.831788229383323	5.196438	2.2795696
7.8493560827536495	5.230074	2.2869356
7.866924120902174	5.2637053	2.2942767
7.884492344247663	5.294362	2.3009481
7.9020607532089135	5.362092	2.3156192
7.919629348204771	5.283707	2.2986317
7.937198129654115	5.277048	2.2971826
7.954767097975865	5.3170147	2.3058653
7.972336253588986	5.3426447	2.3114161
7.989905596912472	5.3925395	2.3221843
8.007475128365371	5.3698497	2.3172936
8.025044848366756	5.3360176	2.309982
8.042614757335754	5.41413	2.3268282
8.060184855691523	5.4938107	2.343888
8.07775514385327	5.6593857	2.3789463
8.095325622240228	5.6840653	2.3841279
8.112896291271687	5.691302	2.385645
8.130467151366968	5.723463	2.392376
8.148038202945436	5.7530823	2.3985584
8.165609446426497	5.809723	2.4103367
8.183180882229594	5.814989	2.411429
8.200752510774217	5.790714	2.4063902
8.218324332479893	5.780768	2.4043229
8.235896347766193	5.7968936	2.4076738
8.253468557052724	5.8112035	2.4106438
8.27104096075914	5.8515425	2.418996
8.288613559305137	5.839602	2.4165268
8.306186353110448	5.9192896	2.432959
8.32375934259485	6.073176	2.4643815
8.341332528178162	6.129887	2.4758608
8.358905910280246	6.1184006	2.47354
8.376479489321003	6.1066546	2.4711647
8.394053265720377	6.1649766	2.482937
8.411627239898356	6.1851034	2.4869869
8.42920141227497	6.1438966	2.4786885
8.44677578327029	6.120804	2.4740257
8.464350353304427	6.043392	2.458331
8.48192512279754	6.0225887	2.4540963
8.499500092169827	5.947794	2.4388099
8.51707526184153	5.9265304	2.4344466
8.534650632232934	5.9854774	2.4465234
8.552226203764365	6.050755	2.4598281
8.569801976856192	6.1293807	2.4757586
8.587377951928834	6.1689167	2.4837303
8.60495412940274	6.1584144	2.4816153
8.622530509698416	6.1499143	2.479902
8.6401070932364	6.2316403	2.4963253
8.657683880437283	6.4063168	2.5310702
8.675260871721695	6.5439715	2.5581188
8.692838067510303	6.7165394	2.5916288
8.710415468223834	6.806107	2.6088517
8.727993074283043	6.945233	2.635381
8.745570886108737	6.974863	2.6409967
8.763148904121765	6.949568	2.6362033
8.78072712874302	6.948978	2.6360915
8.798305560393441	7.211384	2.685402
8.815884199494006	7.3657045	2.713983
8.833463046465745	7.5328164	2.7445977
8.851042101729728	7.639623	2.7639868
8.86862136570707	7.932214	2.8164186
8.886200838818924	8.0432825	2.8360682
8.903780521486505	8.132451	2.8517454
8.921360414131055	8.273627	2.8763914
8.938940517173874	8.375715	2.8940828
8.956520831036297	8.511098	2.9173787
8.97410135613971	8.725003	2.9538116
8.99168209290554	8.923177	2.9871688
9.009263041755265	9.155987	3.025886
9.026844203110405	9.400379	3.0660038
9.044425577392525	9.625902	3.1025639
9.062007165023239	9.804622	3.1312332
9.079588966424197	10.136942	3.1838565
9.097170982017108	10.256221	3.2025335
9.11475321222372	11.173718	3.3427112
9.132335657465825	11.955139	3.4576204
9.149918318165264	11.968868	3.4596052
9.167501194743924	12.509332	3.5368533
9.18508428762374	12.263487	3.5019262
9.202667597226693	12.355272	3.5150068
9.220251123974803	12.007625	3.4652019
9.237834868290143	11.698533	3.420312
9.255418830594836	11.494733	3.3903883
9.273003011311046	10.916884	3.304071
9.290587410860985	10.734746	3.2763922
9.308172029666911	10.122061	3.1815186
9.32575686815113	9.91804	3.149292
9.343341926735997	8.669821	2.9444559
9.360927205843916	8.464818	2.909436
9.378512705897327	8.231184	2.869004
9.396098427318728	8.022019	2.8323169
9.413684370530664	7.908889	2.8122747
9.431270535955722	7.806989	2.794099
9.448856924016539	7.762867	2.7861922
9.466443535135806	7.6249146	2.761325
9.484030369736251	7.6056595	2.757836
9.501617428240658	7.5372953	2.7454135
9.519204711071852	7.5372458	2.7454045
9.536792218652714	7.55444	2.7485342
9.55437995140617	7.6344023	2.7630422
9.571967909755191	7.679122	2.771123
9.589556094122802	7.64342	2.7646737
9.60714450493207	7.631956	2.7625995
9.624733142606116	7.6351476	2.7631772
9.642322007568108	7.6307206	2.7623758
9.659911100241267	7.7454677	2.783068
9.677500421048851	7.8158107	2.7956772
9.695089970414175	7.901709	2.810998
9.712679748760609	7.8892775	2.8087857
9.730269756511557	7.9056463	2.8116982
9.747859994090492	7.9550247	2.8204653
9.765450461920915	8.007702	2.8297882
9.78304116042639	8.052904	2.837764
9.800632090030527	8.064347	2.8397794
9.81822325115699	8.032316	2.834134
9.835814644229481	8.059916	2.838999
9.853406269671762	8.13019	2.8513489
9.870998127907646	8.194613	2.8626235
9.888590219360985	8.215946	2.866347
9.906182544455698	8.170131	2.858344
9.923775103615734	8.164561	2.8573697
9.941367897265108	8.187469	2.8613753
9.958960925827878	8.137194	2.8525767
9.97655418972816	8.182033	2.8604252
9.994147689390106	8.155717	2.8558216
10.011741425237934	8.152188	2.8552036
10.029335397695904	8.123476	2.8501713
10.04692960718833	8.108046	2.847463
10.06452405413958	8.16513	2.857469
10.082118738974064	8.267363	2.875302
10.099713662116246	8.296021	2.8802814
10.117308823990651	8.259056	2.8738573
10.134904225021844	8.173207	2.8588822
10.152499865634445	8.0401325	2.8355126
10.170095746253125	8.044272	2.8362427
10.18769186730261	8.131119	2.8515117
10.205288229207675	8.179727	2.860022
10.222884832393145	8.140593	2.8531723
10.2404816772839	7.987422	2.8262029
10.258078764304868	7.9795284	2.824806
10.275676093881035	7.981063	2.8250775
10.293273666437438	8.055517	2.8382244
10.310871482399158	8.114376	2.8485744
10.32846954219134	8.09404	2.8450027
10.346067846239173	8.07526	2.8417003
10.363666394967908	7.9964647	2.8278022
10.38126518880283	7.9651904	2.8222668
10.398864228169298	7.9417205	2.818106
10.416463513492713	7.9167295	2.8136683
10.434063045198531	7.899791	2.8106565
10.451662823712262	7.9469123	2.819027
10.469262849459467	8.002837	2.8289287
10.486863122865758	7.9467072	2.8189905
10.504463644356806	7.916426	2.8136144
10.522064414358338	7.858486	2.8032992
10.539665433296118	7.854548	2.8025966
10.557266701595987	7.868728	2.8051252
10.574868219683818	7.793028	2.7915995
10.592469987985552	7.6427674	2.7645555
10.610072006927185	7.4568567	2.7307246
10.627674276934751	7.355017	2.7120135
10.64527679843435	7.293235	2.700599
10.662879571852143	7.263672	2.69512
10.680482597614331	7.12326	2.6689436
10.698085876147173	6.9465947	2.6356394
10.715689407876988	6.8194046	2.611399
10.733293193230146	6.6904454	2.5865896
10.750897232633072	6.6461883	2.5780203
10.76850152651225	6.5476403	2.5588357
10.786106075294207	6.451862	2.5400515
10.803710879405534	6.354822	2.5208774
10.821315939272877	6.298276	2.5096366
10.83892125532294	6.181915	2.4863458
10.856526827982472	6.1132216	2.472493
10.874132657678285	6.1147738	2.472807
10.891738744837243	6.1051373	2.4708576
10.909345089886271	6.118826	2.4736261
10.926951693252343	6.0791283	2.4655888
10.944558555362494	5.977485	2.4448895
10.96216567664381	5.8602285	2.420791
10.979773057523436	5.751784	2.3982878
10.997380698428573	5.654642	2.3779492
11.014988599786477	5.5997267	2.3663743
11.032596762024461	5.5859284	2.363457
11.050205185569892	5.4978404	2.3447473
11.067813870850198	5.4467597	2.3338294
11.085422818292859	5.3550296	2.3140936
11.10303202832541	5.2885094	2.299676
11.120641501375454	5.238234	2.288719
11.138251237870636	5.1920786	2.2786133
11.155861238238671	5.158107	2.2711465
11.173471502907317	5.092728	2.2567074
11.191082032304402	5.030624	2.2429051
11.208692826857805	4.983193	2.2323067
11.226303886995465	4.930859	2.2205539
11.243915213145371	4.9076285	2.2153168
11.261526805735578	4.8202453	2.1955056
11.279138665194196	4.808699	2.1928747
11.296750791949393	4.76491	2.1828675
11.314363186429393	4.718793	2.1722782
11.331975849062479	4.649118	2.1561813
11.34958878027699	4.5910635	2.1426768
11.36720198050133	4.547246	2.1324272
11.384815450163948	4.522838	2.1266966
11.402429189693366	4.488552	2.1186204
11.420043199518153	4.434464	2.1058166
11.437657480066942	63.3835	7.961375
11.455272031768422	85.08445	9.224123
11.472886855051353	107.44159	10.365403
11.490501950344528	99.005165	9.950134
11.508117318076819	84.335526	9.183437
11.52573295867715	45.749214	6.7638164
11.543348872574514	4.0803967	2.0199993
11.560965060197946	4.042017	2.0104768
11.57858152197655	3.9913423	1.9978344
11.59619825833949	3.943494	1.9858233
11.613815269715985	3.8877585	1.97174
11.631432556535323	38.417107	6.1981535
11.649050119226837	82.965775	9.108555
11.666667958219929	93.372894	9.662965
11.68428607394406	107.63468	10.374714
11.701904466828756	82.449	9.080143
11.719523137303586	65.32531	8.082407
11.737142085798196	4.5941825	2.1434045
11.754761312742286	3.7120135	1.9266586
11.772380818565619	3.6369913	1.9070897
11.790000603698015	3.5239048	1.8772067
11.80762066856935	3.4843085	1.8666302
11.825241013609572	3.496284	1.8698353
11.842861639248683	3.4798362	1.8654319
11.860482545916748	3.4620872	1.8606684
11.878103734043883	3.4023151	1.8445365
11.895725204060282	3.3803737	1.8385793
11.91334695639619	3.3670862	1.8349621
11.930968991481919	3.3549387	1.8316492
11.948591309747824	3.3028738	1.817381
11.966213911624347	3.288438	1.8134052
11.98383679754198	3.2566867	1.8046292
12.001459967931268	3.2598438	1.8055037
12.019083423222835	3.2619817	1.8060957
12.036707163847352	3.2325306	1.7979239
12.05433119023556	3.2139347	1.792745
12.071955502818259	3.157908	1.7770504
12.089580102026313	3.1223123	1.7670066
12.107204988290643	3.1011894	1.7610195
12.12483016204224	3.143881	1.7730993
12.142455623712152	3.1679108	1.7798626
12.16008137373149	3.1224387	1.7670424
12.177707412531431	3.061748	1.7497852
12.19533374054321	3.0333982	1.7416654
12.212960358198126	3.015567	1.7365388
12.230587265927545	3.0078497	1.7343154
12.248214464162889	2.9432902	1.715602
12.265841953335649	2.9194887	1.7086512
12.283469733877375	2.9269679	1.7108383
12.301097806219685	2.9410605	1.7149521
12.31872617079425	2.9402957	1.7147291
12.336354828032825	2.889747	1.6999255
12.353983778367205	2.8510175	1.6884956
12.371613022229262	2.849134	1.6879377
12.389242560050928	2.878143	1.6965091
12.406872392264201	2.834046	1.6834625
12.424502519301143	2.8002403	1.6733918
12.442132941593874	2.77237	1.6650436
12.459763659574586	2.7615883	1.6618028
12.477394673675532	2.7621412	1.6619691
12.49502598432903	2.7689455	1.6640148
12.51265759196746	2.7720103	1.6649356
12.530289497023267	2.7372355	1.6544592
12.547921699928967	2.698108	1.6425918
12.565554201117134	2.6743999	1.6353593
12.583187001020404	2.694809	1.6415874
12.600820100071486	2.6981204	1.6425956
12.618453498703152	2.7163603	1.6481384
12.636087197348235	2.6898384	1.6400727
12.65372119643964	2.7219987	1.6498481
12.671355496410326	2.7230613	1.6501701
12.68899009769333	2.759577	1.6611974
12.706625000721749	2.791214	1.6706927
12.724260205928752	2.877016	1.6961769
12.741895713747551	2.9172516	1.7079964
12.759531524611454	2.9295962	1.7116063
12.777167638953818	2.9087346	1.7055013
12.794804057208072	2.9272704	1.7109268
12.812440779807702	2.9965098	1.731043
12.830077807186271	3.1647873	1.7789849
12.847715139777405	3.196034	1.7877455
12.865352778014795	3.3976398	1.8432688
12.882990722332197	3.5002668	1.8709
12.90062897316344	3.5615501	1.8872069
12.918267530942412	3.590217	1.8947868
12.935906396103071	3.4698088	1.8627423
12.953545569079449	3.6016164	1.8977925
12.971185050305628	3.4623823	1.8607478
12.988824840215775	3.4700568	1.8628088
13.006464939244115	3.5206516	1.8763399
13.024105347824943	3.399645	1.8438127
13.041746066392617	3.493312	1.8690404
13.05938709538157	3.2698512	1.808273
13.077028435226296	3.267633	1.8076595
13.094670086361363	3.1942747	1.7872534
13.112312049221401	3.1354609	1.7707232
13.129954324241112	3.050321	1.7465168
13.147596911855258	2.8470838	1.6873304
13.165239812498685	2.7887297	1.669949
13.182883026606293	2.722817	1.650096
13.200526554613058	2.6629457	1.6318535
13.218170396954017	2.6528873	1.6287687
13.235814554064284	2.6640072	1.6321787
13.253459026379034	2.6934185	1.6411637
13.271103814333523	2.6955764	1.641821
13.288748918363058	2.6805084	1.6372259
13.306394338903031	2.6612768	1.631342
13.32404007638889	2.639492	1.6246513
13.341686131256164	2.6713793	1.6344355
13.359332503940449	2.6691868	1.6337646
13.376979194877402	2.6389947	1.6244982
13.394626204502751	2.6395035	1.6246549
13.412273533252307	2.6407497	1.6250384
13.429921181561937	2.6362906	1.6236658
13.447569149867581	2.6570182	1.6300362
13.465217438605247	2.648904	1.6275455
13.482866048211022	2.630546	1.6218958
13.500514979121052	2.608033	1.6149405
13.518164231771568	2.59874	1.6120608
13.535813806598844	2.6443822	1.6261556
13.553463704039254	2.6905766	1.6402977
13.571113924529229	2.6709406	1.6343013
13.588764468505275	2.6511216	1.6282265
13.606415336403956	2.6658363	1.632739
13.624066528661917	2.6878765	1.6394744
13.641718045715882	2.7307737	1.6525053
13.659369888002635	2.7532384	1.6592885
13.67702205595903	2.7932432	1.6712998
13.694674550021993	2.889797	1.6999403
13.712327370628532	2.919461	1.7086431
13.729980518215713	3.0338547	1.7417964
13.747633993220681	3.086042	1.7567134
13.765287796080647	3.171597	1.7808979
13.7829419272329	3.2382064	1.7995017
13.800596387114801	3.2890942	1.813586
13.818251176163775	3.2995067	1.8164544
13.835906294817324	3.3240457	1.8231965
13.853561743513023	3.374595	1.837007
13.871217522688525	3.3949776	1.8425465
13.888873632781538	3.3854663	1.8399637
13.906530074229858	3.3928537	1.8419701
13.92418684747135	3.4293036	1.8518379
13.941843952943948	3.428642	1.8516593
13.959501391085665	3.4136558	1.8476081
13.977159162334578	3.3402312	1.8276299
13.994817267128846	3.3184419	1.8216591
14.012475705906693	3.2078595	1.7910498
14.030134479106424	3.1399403	1.7719877
14.047793587166414	3.0404654	1.743693
14.065453030525108	2.9918642	1.7297006
14.083112809621026	2.9517813	1.7180749
14.100772924892766	2.8611934	1.6915063
14.118433376778997	2.8417256	1.6857419
14.136094165718458	2.7703898	1.6644487
14.153755292149969	2.7452903	1.6568917
14.171416756512416	2.6873136	1.6393027
14.189078559244768	2.6407604	1.6250417
14.20674070078606	2.5862248	1.6081743
14.224403181575408	2.501501	1.5816134
14.242066002051999	2.4472067	1.564355
14.259729162655093	2.4375787	1.5612746
14.277392663824022	2.4256523	1.5574505
14.295056505998208	2.4196308	1.5555162
14.312720689617128	2.389953	1.5459472
14.330385215120348	2.3563612	1.5350443
14.348050082947497	2.3203385	1.5232657
14.3657152935383	2.2740915	1.5080091
14.383380847332528	2.318509	1.5226651
14.401046744770051	2.3567574	1.5351734
14.418712986290798	2.377694	1.5419773
14.436379572334793	2.3524575	1.5337723
14.454046503342123	2.34562	1.5315417
14.471713779752946	2.3132308	1.5209309
14.489381402007504	2.318587	1.5226908
14.507049370546113	2.3501031	1.5330046
14.524717685809168	2.3784041	1.5422076
14.542386348237134	2.3898687	1.54592
14.560055358270553	2.3528197	1.5338904
14.577724716350051	2.3879235	1.5452907
14.595394422916325	2.4093711	1.5522149
14.61306447841015	2.4707386	1.5718583
14.63073488327237	2.4560397	1.5671757
14.648405637943917	2.4614305	1.5688947
14.6660767428658	2.438683	1.5616283
14.683748198479094	2.4767034	1.5737545
14.701420005224954	2.5482042	1.5963095
14.719092163544628	2.6330972	1.6226821
14.73676467387942	2.666052	1.632805
14.754437536670727	2.6489139	1.6275485
14.772110752360014	2.628489	1.6212616
14.78978432138882	2.6529586	1.6287905
14.807458244198777	2.6872063	1.6392701
14.82513252123159	2.7266202	1.6512481
14.842807152929028	2.7071571	1.645344
14.860482139732962	2.6629102	1.6318426
14.87815748208531	2.6219456	1.6192423
14.8958331804281	2.6317306	1.6222609
14.91350923520342	2.620327	1.6187425
14.931185646853438	2.659448	1.6307814
14.948862415820408	2.6175156	1.6178738
14.966539542546656	2.6374865	1.624034
14.98421702747459	2.638207	1.6242558
15.001894871046696	2.6539764	1.629103
15.019573073705542	2.6557488	1.6296469
15.037251635893766	2.572168	1.603798
15.054930558054092	2.5911062	1.6096914
15.072609840629323	2.6529522	1.6287886
15.090289484062351	2.7802222	1.6673999
15.107969488796124	2.899247	1.7027175
15.125649855273691	3.0436223	1.744598
15.14333058393817	3.4496727	1.8573295
15.161011675232768	4.0140166	2.0035012
15.17869312960076	4.718099	2.1721187
15.196374947485506	5.4322715	2.3307233
15.214057129330447	6.808668	2.6093426
15.231739675579114	8.945292	2.990868
15.249422586675102	13.395277	3.659956
15.267105863062092	17.797136	4.218665
15.284789505183847	24.855492	4.985528
15.302473513484218	29.75015	5.45437
15.320157888407127	33.862686	5.819165
15.337842630396578	32.748295	5.7226124
15.355527739896656	29.939554	5.471705
15.37321321735153	23.408943	4.838279
15.39089906320545	15.995156	3.9993944
15.408585277902748	10.294953	3.208575
15.42627186188783	6.3188715	2.5137365
15.443958815605198	4.5288663	2.1281133
15.461646139499424	3.7494648	1.9363534
15.479333834015168	3.3656278	1.8345647
15.497021899597165	3.0559795	1.748136
15.514710336690234	2.8142822	1.6775823
15.53239914573928	2.6433604	1.6258414
15.550088327189297	2.5735025	1.604214
15.567777881485336	2.5581152	1.5994109
15.58546780907256	2.5640433	1.601263
15.6031581103962	2.530715	1.5908221
15.620848785901568	2.474783	1.5731443
15.638539836034063	2.4377725	1.5613368
15.656231261239173	2.4160686	1.5543708
15.673923061962451	2.3998556	1.5491468
15.691615238649552	2.3896978	1.5458647
15.709307791746202	2.37879	1.5423326
15.727000721698221	2.3442776	1.5311034
15.744694028951498	2.306415	1.5186886
15.76238771395202	2.308269	1.5192989
15.780081777145844	2.3522816	1.533715
15.797776218979125	2.363362	1.537323
15.815471039898094	2.3664188	1.5383168
15.833166240349064	2.3493056	1.5327445
15.850861820778437	2.346909	1.5319625
15.868557781632699	2.3759851	1.5414231
15.886254123358412	2.4048562	1.5507599
15.903950846402232	2.4232104	1.5566664
15.921647951210897	2.446612	1.5641649
15.939345438231225	2.4657838	1.5702815
15.957043307910133	2.5130382	1.5852565
15.974741560694602	2.5410368	1.594063
15.992440197031714	2.5141592	1.58561
16.01013921736862	2.4488125	1.5648682
16.02783862215259	2.412219	1.553132
16.045538411830933	2.4006855	1.5494146
16.06323858685107	2.386714	1.5448993
16.080939147660512	2.3966818	1.548122
16.09864009470684	2.394263	1.5473406
16.11634142843774	2.4014473	1.5496603
16.134043149300954	2.4066477	1.5513374
16.15174525774433	2.3715625	1.5399878
16.169447754215817	2.3610895	1.5365837
16.18715063916342	2.3608158	1.5364946
16.204853913035244	2.370024	1.5394882
16.222557576279478	2.41125	1.5528201
16.240261629344403	22.387224	4.731514
16.257966072678386	42.960934	6.554459
16.275670906729868	38.068485	6.169966
16.293376131947387	2.474339	1.5730032
16.31108174877957	2.4750729	1.5732365
16.328787757675133	2.4988244	1.580767
16.34649415908287	2.525748	1.5892602
16.364200953451657	2.5549846	1.598432
16.38190814123048	2.6040304	1.6137009
16.39961572286839	2.629186	1.6214764
16.41732369881455	2.6732504	1.6350077
16.43503206951817	2.7344108	1.6536053
16.45274083542859	2.7895494	1.6701944
16.47044999699522	2.8134544	1.6773355
16.488159554667558	2.8197577	1.6792134
16.505869508895184	2.8442428	1.6864883
16.523579860127786	2.8934777	1.7010225
16.541290608815117	2.9619415	1.7210292
16.559001755407035	3.0301716	1.7407389
16.57671330035348	3.1095839	1.7634013
16.59442524410448	3.2327554	1.7979865
16.61213758711015	3.408453	1.8461996
16.629850329820705	3.4489334	1.8571304
16.647563472686436	3.4813254	1.865831
16.665277016157724	3.4349391	1.8533589
16.682990960685053	3.5067039	1.8726195
16.70070530671898	3.4922192	1.8687481
16.718420054710155	3.4954722	1.8696182
16.736135205109335	3.4759965	1.8644024
16.753850758367335	3.5128245	1.874253
16.771566714935087	3.616147	1.9016169
16.789283075263597	3.6639175	1.9141363
16.80699983980398	3.7288377	1.9310199
16.82471700900741	3.7738981	1.9426523
16.84243458332518	3.8389266	1.9593179
16.860152563208665	3.9446566	1.9861159
16.87787094910932	3.998009	1.9995022
16.89558974147871	4.0408196	2.010179
16.913308940768466	4.068097	2.0169525
16.931028547430333	4.1586576	2.0392787
16.94874856191613	4.266885	2.065644
16.966468984677785	4.3413916	2.0836005
16.98418981616729	4.377416	2.0922275
17.00191105683676	4.410817	2.1001945
17.019632707138374	4.4443607	2.1081653
17.03735476752442	4.4500794	2.1095212
17.05507723844728	4.4409413	2.1073542
17.072800120359403	4.455474	2.1107993
17.090523413713353	4.5100536	2.1236887
17.108247118961785	4.550257	2.1331332
17.125971236557437	4.602912	2.1454399
17.143695766953133	4.6101494	2.147126
17.161420710601806	4.5820675	2.1405764
17.179146067956477	4.564771	2.1365325
17.19687183947025	4.598099	2.1443179
17.21459802559634	4.603595	2.145599
17.232324626788028	4.588684	2.1421213
17.25005164349871	4.5900707	2.142445
17.267779076181863	4.5571914	2.134758
17.285506925291074	4.5815945	2.140466
17.30323519127999	4.528439	2.128013
17.320963874602384	4.4684987	2.1138823
17.33869297571211	4.3638096	2.0889733
17.356422495063114	4.3395944	2.0831692
17.37415243310944	4.3684025	2.0900724
17.391882790305218	4.3769994	2.092128
17.40961356710468	4.412104	2.1005008
17.42734476396215	4.4596405	2.1117861
17.445076381332044	4.55119	2.1333518
17.462808419668868	4.570562	2.1378872
17.48054087942723	4.6594033	2.158565
17.498273761061835	4.832192	2.1982248
17.51600706502747	5.176411	2.2751727
17.533740791779024	5.760309	2.4000645
17.551474941771485	6.651262	2.579004
17.56920951545993	8.509805	2.917157
17.586944513299528	9.764507	3.1248212
17.60467993574556	12.568811	3.5452518
17.622415783253373	15.224232	3.9018242
17.64015205627843	17.890467	4.2297125
17.657888755276293	20.19127	4.4934697
17.675625880702604	21.706215	4.658993
17.69336343301311	20.23701	4.498556
17.71110141266366	18.17722	4.263475
17.728839820110178	15.572217	3.9461648
17.746578655808705	12.544306	3.541794
17.764317920215372	10.367268	3.219824
17.7820576137864	8.615462	2.9352107
17.79979773697811	7.303742	2.7025435
17.81753829024692	5.975879	2.4445612
17.835279274049356	5.176485	2.275189
17.85302068884201	4.4165964	2.10157
17.870762535081607	4.024225	2.0060472
17.888504813224934	3.7667205	1.9408041
17.90624752372891	3.6390307	1.9076244
17.923990667050536	3.5674975	1.888782
17.941734243646895	3.5088923	1.8732038
17.959478253975185	3.4599252	1.8600874
17.9772226984927	3.431423	1.8524101
17.994967577656833	3.364045	1.8341333
18.01271289192506	3.317971	1.8215299
18.030458641754965	3.2693532	1.8081353
18.04820482760425	3.3080354	1.8188006
18.06595144993067	3.3100042	1.8193417
18.083698509192125	3.2824748	1.8117601
18.101446005846576	3.21133	1.7920184
18.119193940352105	3.1493337	1.7746363
18.136942313166887	3.095528	1.7594112
18.1546911247492	3.063971	1.7504202
18.1724403755574	3.0683713	1.7516767
18.19019006604997	3.0642447	1.7504984
18.207940196685467	3.0446234	1.744885
18.225690767922575	3.080799	1.7552205
18.243441780220046	3.081291	1.7553606
18.261193234036764	3.0767567	1.7540686
18.278945129831676	3.0228648	1.7386388
18.29669746806386	2.989669	1.729066
18.314450249192483	2.998441	1.7316006
18.3322034736768	3.0088527	1.7346045
18.349957141976184	3.0187068	1.7374426
18.3677112545501	3.0520248	1.7470045
18.385465811858108	3.092124	1.7584436
18.403220814359884	3.1100204	1.763525
18.420976262515172	3.141198	1.7723424
18.43873215678387	3.1252909	1.7678492
18.456488497625923	3.1866374	1.7851155
18.474245285501407	3.2272446	1.7964534
18.492002520870486	3.2758074	1.8099191
18.50976020419343	3.3137946	1.8203831
18.527518335930615	3.5851958	1.8934613
18.545276916542516	4.153245	2.0379512
18.563035946489688	4.2873764	2.0705981
18.580795426232832	4.6508446	2.1565816
18.598555356232698	4.52632	2.127515
18.616315736950185	4.859285	2.2043786
18.63407656884626	4.6018906	2.1452017
18.65183785238201	4.8127875	2.1938066
18.669599588018617	4.617444	2.148824
18.68736177621737	4.602347	2.145308
18.705124417439652	4.533311	2.1291573
18.72288751214696	4.321986	2.0789387
18.740651060800886	4.4397445	2.1070702
18.758415063863115	4.1907854	2.0471408
18.77617952179546	4.3305426	2.0809956
18.793944435059814	4.127931	2.0317311
18.811709804118184	4.178415	2.0441172
18.829475629432675	4.15901	2.039365
18.8472419114655	3.9441125	1.985979
18.86500865067897	4.009866	2.002465
18.88277584753551	3.687109	1.9201846
18.90054350249763	3.722488	1.929375
18.918311616027957	3.401707	1.8443717
18.936080188589226	3.279986	1.8110732
18.953849220644265	2.9689045	1.723051
18.971618712656007	2.801585	1.6737936
18.9893886650875	2.7733688	1.6653434
19.007159078401887	7.981569	2.825167
19.024929953062408	32.819363	5.7288184
19.042701289532435	32.726788	5.720733
19.060473088275405	25.260218	5.0259542
19.07824534975489	2.535057	1.5921862
19.096018074434568	2.5449703	1.5952963
19.113791262778197	2.5545454	1.5982945
19.13156491524966	2.5593612	1.5998003
19.149339032312945	2.5311759	1.5909669
19.167113614432136	2.5080802	1.583692
19.184888662071433	2.4993868	1.5809449
19.202664175695123	2.5129561	1.5852306
19.220440155767623	2.508027	1.5836751
19.238216602753447	2.5199385	1.5874314
19.2559935171172	2.4932468	1.5790018
19.27377089932361	2.4980395	1.5805187
19.291548749837514	2.5262277	1.5894111
19.309327069123835	2.542608	1.5945557
19.32710585764763	2.5296795	1.5904967
19.344885115874032	2.4704342	1.5717615
19.362664844268313	2.4491417	1.5649734
19.380445043295822	2.4402883	1.5621423
19.39822571342203	2.4192488	1.5553935
19.41600685511252	2.40285	1.5501128
19.43378846883297	2.4084556	1.5519199
19.451570555049173	2.413636	1.5535882
19.469353114227037	2.403317	1.5502635
19.48713614683254	2.4246802	1.5571384
19.50491965333182	2.4332094	1.5598748
19.52270363419109	2.4602976	1.5685335
19.540488089876686	2.4643228	1.5698161
19.55827302085503	2.479415	1.5746158
19.576058427592674	2.4627504	1.5693153
19.593844310556282	2.4198174	1.5555762
19.611630670212598	2.381163	1.5431017
19.629417507028506	2.3935187	1.5471001
19.64720482147098	2.4363968	1.5608962
19.6649926140071	2.4569986	1.5674816
19.682780885104084	2.4382527	1.5614905
19.70056963522921	2.4390745	1.5617536
19.718358864849908	2.4493828	1.5650504
19.7361485744337	2.4706125	1.5718182
19.753938764448215	2.4277616	1.5581275
19.771729435361202	2.37843	1.542216
19.789520587640506	2.358458	1.5357273
19.807312221754092	2.4069295	1.5514282
19.825104338170043	2.4450595	1.5636686
19.842896937356517	2.4886887	1.5775578
19.860690019781824	2.476359	1.5736451
19.87848358591436	2.4489925	1.5649257
19.896277636222635	2.4477336	1.5645235
19.914072171175278	2.4747941	1.5731479
19.931867191241015	2.516129	1.5862311
19.94966269688869	2.4957256	1.5797865
19.967458688587264	2.4651048	1.5700653
19.985255166805807	2.4377124	1.5613176
20.00305213201348	2.4498963	1.5652145
20.020849584679578	2.426893	1.5578488
20.038647525273507	2.426961	1.5578706
20.05644595426477	2.4030735	1.550185
20.07424487212299	2.4102206	1.5524886
20.092044279317903	2.4058096	1.5510672
20.109844176319353	2.4209466	1.5559391
20.127644563597304	2.4102807	1.5525079
20.145445441621817	2.3958538	1.5478545
20.16324681086307	2.3796265	1.5426039
20.181048671791373	2.4256265	1.5574423
20.198851024877122	2.4297662	1.5587708
20.216653870590836	2.382171	1.5434283
20.234457209403146	2.3255725	1.5249828
20.252261041784802	2.3100746	1.5198929
20.270065368206662	2.2967224	1.5154941
20.287870189139685	2.3145854	1.5213761
20.305675505054968	2.3161023	1.5218745
20.323481316423702	2.329347	1.5262198
20.341287623717207	2.3236256	1.5243443
20.359094427406884	2.293916	1.514568
20.376901727964288	2.2863395	1.5120647
20.39470952586107	2.3091416	1.519586
20.41251782156899	2.3296204	1.5263094
20.430326615559935	2.3259277	1.5250993
20.448135908305886	2.308743	1.5194548
20.465945700278965	2.3219583	1.5237973
20.483755991951384	2.3359873	1.5283937
20.50156678379548	2.354514	1.5344425
20.519378076283708	2.3118353	1.520472
20.537189869888635	2.3023312	1.5173435
20.55500216508294	2.2684486	1.506137
20.572814962339415	2.3033001	1.5176628
20.59062826213098	2.317982	1.522492
20.60844206493066	2.3198316	1.5230993
20.626256371211593	2.297045	1.5156006
20.644071181447032	2.302077	1.5172597
20.66188649611036	2.3187	1.5227278
20.67970231567506	2.3073478	1.5189956
20.697518640614742	2.2669165	1.5056282
20.715335471403122	2.2702985	1.506751
20.73315280851404	2.3058121	1.5184901
20.750970652421447	2.3159015	1.5218086
20.768789003599412	2.2712817	1.5070772
20.786607862522136	2.2590692	1.50302
20.8044272296639	2.2382338	1.4960728
20.82224710549913	2.2535	1.5011662
20.84006749050237	2.2441862	1.4980608
20.857888385148268	3.8249888	1.9557579
20.8757097899116	45.936207	6.7776256
20.893531705267254	64.77915	8.04855
20.911354131690224	83.79031	9.153705
20.92917706965566	69.05493	8.30993
20.94700051963877	50.12657	7.0800123
20.96482448211493	29.359175	5.418411
20.982648957559622	4.082969	2.0206358
21.00047394644843	2.195436	1.4817004
21.01829944925707	2.2523332	1.5007775
21.036125466461375	2.2651827	1.5050524
21.053951998537297	2.2662883	1.5054196
21.071779045960906	2.243217	1.4977373
21.089606609208378	2.218546	1.4894783
21.10743468875603	2.191359	1.4803239
21.12526328508028	2.167418	1.4722153
21.143092398657675	2.1583676	1.4691384
21.16092202996488	2.171693	1.4736665
21.17875217947867	2.1833954	1.4776317
21.19658284767596	2.1615403	1.4702177
21.21441403503377	2.1523874	1.4671017
21.232245742029225	2.178732	1.4760528
21.2500779691396	2.172494	1.4739382
21.26791071684227	2.11905	1.4556957
21.28574398561475	2.0962253	1.4478347
21.30357777593465	2.1014917	1.4496523
21.321412088279704	2.1152742	1.4543983
21.339246923127792	2.1102638	1.4526747
21.357082280956888	2.1174514	1.4551466
21.3749181622451	2.1200545	1.4560407
21.392754567470647	2.1123009	1.4533757
21.41059149711187	2.0993996	1.4489305
21.42842895164726	2.0845492	1.4437968
21.446266931555378	2.1052263	1.4509398
21.464105437314945	2.0963464	1.4478765
21.481944469404798	2.1109898	1.4529246
21.49978402830388	2.0888572	1.445288
21.51762411449127	2.094216	1.4471407
21.53546472844617	2.0935028	1.4468942
21.553305870647876	2.0733624	1.4399174
21.571147541575865	2.0521736	1.432541
21.58898974170967	1.9981897	1.4135734
21.60683247152899	1.989869	1.4106271
21.62467573151363	2.014017	1.4191607
21.642519522143523	2.0458114	1.4303186
21.660363843898722	2.0455022	1.4302106
21.6782086972594	2.0368814	1.4271935
21.696054082705864	2.0002892	1.4143158
21.713900000718535	2.01652	1.4200423
21.73174645177795	2.028038	1.424092
21.749593436364794	2.0120075	1.4184525
21.767440954959845	1.9895247	1.4105052
21.785289008044032	1.9836766	1.4084306
21.803137596098388	1.9895672	1.4105202
21.820986719604086	2.009113	1.4174318
21.838836379042412	1.9894855	1.4104912
21.85668657489478	1.978805	1.4067
21.87453730764273	1.9711237	1.4039671
21.892388577767914	1.9671257	1.4025426
21.91024038575213	1.9783951	1.4065543
21.928092732077285	1.9766287	1.4059262
21.945945617225426	2.0087533	1.417305
21.963799041678694	2.05556	1.4337225
21.981653005919398	31.383633	5.6021094
21.999507510429943	78.201004	8.843133
22.01736255569286	73.1409	8.552245
22.035218142190818	4.21307	2.0525763
22.05307427040661	1.9839334	1.4085218
22.07093094082315	1.941158	1.3932545
22.088788153923474	1.9093394	1.3817885
22.106645910190746	1.9386219	1.392344
22.12450421010827	1.9435366	1.3941078
22.142363054159464	1.9461222	1.3950348
22.16022244282787	1.9566427	1.3988005
22.178082376597164	1.9989088	1.4138277
22.195942855951145	1.9801016	1.4071609
22.213803881373742	1.9917737	1.4113021
22.231665453349002	1.9579545	1.3992693
22.24952757236111	1.9448996	1.3945966
22.26739023889438	1.9338884	1.3906431
22.28525345343323	1.9439819	1.3942676
22.30311721646225	1.935359	1.3911718
22.320981528466113	1.9194764	1.3854517
22.33884638992964	1.9120463	1.3827677
22.356711801337788	1.9329685	1.3903124
22.37457776317561	1.9338067	1.3906138
22.392444275928337	1.9144129	1.3836231
22.410311340081282	1.8868368	1.3736218
22.428178956119904	1.9048864	1.3801762
22.446047124529805	1.9845095	1.4087262
22.46391584579669	1.9663478	1.4022652
22.481785120406414	1.9689095	1.4031783
22.49965494884496	1.9676476	1.4027286
22.51752533159841	1.975781	1.4056247
22.53539626915302	1.9618986	1.4006779
22.553267761995137	1.9588327	1.3995831
22.571139810611264	1.9187016	1.385172
22.589012415488025	1.8937938	1.3761518
22.60688557711216	1.8725892	1.3684258
22.624759295970566	1.904209	1.3799309
22.642633572550263	1.9370434	1.391777
22.660508407338362	1.9555216	1.3983996
22.67838380082217	1.9690181	1.4032171
22.696259753489077	1.9601928	1.4000689
22.714136265826614	1.9205631	1.3858439
22.73201333832246	1.9085128	1.3814894
22.74989097146439	1.9411699	1.3932587
22.76776916574035	1.9115502	1.3825883
22.785647921638393	1.9077373	1.3812087
22.803527239646712	1.9036301	1.379721
22.82140712025363	1.9441562	1.39433
22.839287563947593	1.920999	1.3860011
22.85716857121719	1.871951	1.3681926
22.875050142551135	1.8387877	1.356019
22.892932278438277	1.856701	1.3626082
22.910814979367604	1.8672498	1.3664736
22.928698245828222	1.8786132	1.3706251
22.946582078309387	1.9013569	1.378897
22.96446647730047	1.9595301	1.3998321
22.98235144329098	1.9691547	1.4032657
23.000236976770562	1.9222037	1.3864356
23.018123078229	1.9183706	1.3850526
23.03600974815619	1.9215081	1.3861847
23.053896987042194	1.9242649	1.3871788
23.071784795377173	1.8956335	1.3768201
23.08967317365145	1.8639673	1.3652719
23.10756212235546	1.8436184	1.357799
23.125451641979787	1.894042	1.376242
23.143341733015134	1.8839371	1.3725659
23.161232395952357	1.870025	1.3674886
23.179123631282426	1.8694575	1.3672811
23.197015439496468	1.9377668	1.3920369
23.214907821085717	1.9772604	1.4061509
23.23280077654157	1.949092	1.3960989
23.250694306355538	1.8952384	1.3766766
23.268588411019277	1.8785357	1.3705969
23.28648309102458	1.8622671	1.364649
23.304378346863356	1.9000127	1.3784095
23.322274179027676	1.9329189	1.3902946
23.340170588009723	1.9555886	1.3984236
23.358067574301852	1.9242074	1.387158
23.37596513839651	1.9310528	1.3896233
23.39386328078629	1.910873	1.3823433
23.411762001963947	1.8975905	1.3775306
23.429661302422353	1.8868159	1.3736142
23.4475611826545	1.8945144	1.3764136
23.46546164315356	1.9236139	1.386944
23.48336268441279	1.8977066	1.3775728
23.501264306925638	1.8793948	1.3709102
23.51916651118564	1.8960894	1.3769857
23.537069297686497	1.9358258	1.3913395
23.554972666922037	1.9547662	1.3981295
23.57287661938623	1.9088411	1.3816081
23.59078115557318	1.8912169	1.3752152
23.608686275977128	1.8867226	1.3735802
23.62659198109246	1.9125793	1.3829603
23.6444982714137	1.8799155	1.3711001
23.66240514743549	1.8669118	1.3663498
23.68031260965263	1.8604254	1.3639741
23.698220658560068	1.8694923	1.3672938
23.716129294652845	1.8789216	1.3707377
23.7340385184262	1.8492699	1.3598787
23.75194833037546	1.8700902	1.3675125
23.769858730996123	1.9419992	1.3935564
23.78776972078382	1.9540144	1.3978606
23.80568130023431	1.9220159	1.3863679
23.823593469843495	1.921727	1.3862636
23.841506230107424	1.9549601	1.3981988
23.859419581522275	1.9345227	1.3908712
23.87733352458438	1.8729237	1.368548
23.89524805979019	1.8610024	1.3641857
23.913163187636318	1.8659418	1.3659948
23.931078908619508	1.892783	1.3757845
23.948995223236633	1.9142905	1.3835789
23.966912131984735	1.9418019	1.3934855
23.98482963536096	2.006486	1.4165049
24.002747733862616	2.0509896	1.4321277
24.020666427987155	2.0425944	1.4291936
24.038585718232156	2.0110228	1.4181054
24.056505605095353	2.002747	1.4151845
24.074426089074617	2.0478752	1.4310399
24.092347170667946	2.0521832	1.4325444
24.110268850373515	2.053733	1.4330852
24.128191128689586	2.0174005	1.4203522
24.146114006114626	1.9939083	1.4120581
24.164037483147187	1.9904238	1.4108238
24.181961560286005	2.004994	1.4159781
24.199886238029926	2.0151849	1.4195721
24.21781151687797	2.057266	1.4343172
24.235737397329274	2.071562	1.4392922
24.253663879883135	2.0746577	1.4403672
24.271590965038975	2.0668926	1.4376692
24.289518653296376	2.0597456	1.4351814
24.30744694515505	2.1003618	1.4492625
24.32537584111486	2.116213	1.454721
24.34330534167581	2.0696206	1.4386176
24.361235447338046	2.0196712	1.4211514
24.379166158601876	2.016369	1.4199891
24.39709747596772	2.0015957	1.4147776
24.41502939993615	1.9697789	1.4034882
24.432961931007917	1.9577255	1.3991874
24.450895069683856	1.9927306	1.4116411
24.468828816465	1.9789535	1.4067528
24.4867631718525	1.9547406	1.3981204
24.504698136347656	1.9242795	1.387184
24.52263371045192	1.9094069	1.3818129
24.540569894666874	1.948906	1.3960322
24.558506689494266	1.9655565	1.401983
24.57644409543597	1.9856926	1.4091461
24.594382112994012	1.9369293	1.3917361
24.61232074267057	1.9337071	1.390578
24.630259984967953	1.9186037	1.3851367
24.64819984038863	1.8917692	1.375416
24.66614030943522	1.8857492	1.3732258
24.684081392610462	1.9416367	1.3934262
24.702023090417274	1.9854434	1.4090576
24.7199654033587	2.0096755	1.4176302
24.737908331937927	2.0100946	1.417778
24.755851876658305	2.0009801	1.4145601
24.773796038023324	2.048039	1.4310971
24.79174081653661	2.0657566	1.437274
24.809686212701962	2.076431	1.4409827
24.827632227023294	2.0648322	1.4369524
24.8455788600047	2.0701802	1.438812
24.8635261121504	2.0972834	1.4482
24.88147398396475	2.1142645	1.454051
24.899422475952303	2.128027	1.4587759
24.917371588617698	2.1290376	1.4591222
24.935321322465768	2.2077994	1.4858665
24.953271678001478	2.301371	1.517027
24.97122265572994	2.4475522	1.5644655
24.989174256156414	2.7837362	1.6684532
25.00712647978632	3.3904953	1.8413298
25.02507932712521	4.3998723	2.0975873
25.043032798678798	5.8892984	2.4267876
25.060986894952933	7.4783874	2.734664
25.078941616453637	8.957242	2.992865
25.096896963687055	9.9097595	3.147977
25.114852937159508	10.658227	3.264694
25.132809537377444	10.416101	3.2273986
25.150766764847468	9.775476	3.126576
25.168724620076347	8.42441	2.9024835
25.186683103570985	7.189315	2.6812897
25.204642215838426	5.71684	2.3909914
25.222601957385894	4.5279064	2.1278877
25.24056232872074	3.495025	1.8694986
25.25852333035048	2.8636675	1.6922374
25.276484962782778	2.4207103	1.5558633
25.294447226525435	2.2120497	1.4872961
25.312410122086423	2.1173117	1.4550985
25.330373649973843	2.0694659	1.4385638
25.348337810695988	2.009418	1.4175395
25.366302604761245	1.9755782	1.4055526
25.384268032678207	1.9344174	1.3908334
25.40223409495558	1.8961536	1.3770089
25.420200792102257	1.851181	1.3605812
25.438168124627246	1.8316376	1.3533801
25.45613609303974	1.8758638	1.3696218
25.474104697849057	1.913152	1.3831674
25.492073939564698	1.8876121	1.373904
25.510043818696285	1.8509945	1.3605126
25.528014335753614	1.8499907	1.3601437
25.54598549124664	1.8573273	1.362838
25.56395728568544	1.8180367	1.3483459
25.58192971958028	1.8129257	1.3464493
25.59990279344156	1.8471346	1.3590933
25.617876507779833	1.9216926	1.3862513
25.635850863105826	1.9007231	1.3786671
25.653825859930386	1.8525442	1.361082
25.671801498764548	1.8288583	1.3523529
25.68977778011949	1.8620255	1.3645606
25.707754704506524	1.913711	1.3833694
25.725732272437153	1.9117769	1.3826702
25.743710484423012	1.9053693	1.3803512
25.761689340975888	1.8908969	1.3750988
25.77966884260774	1.9317795	1.3898847
25.797648989830662	1.911323	1.382506
25.815629783156922	1.8601012	1.3638552
25.83361122309895	1.819446	1.3488684
25.85159331016929	1.803299	1.3428696
25.869576044880695	1.7859048	1.3363775
25.887559427746034	1.8490347	1.3597921
25.90554345927836	1.8745948	1.3691584
25.92352813999086	1.8339459	1.3542325
25.94151347039689	1.8129793	1.3464692
25.959499451009965	1.829032	1.3524171
25.97748608234374	1.8276832	1.3519183
25.995473364912062	1.7952338	1.3398634
26.013461299228904	1.7729834	1.3315343
26.03144988580839	1.748601	1.3223468
26.04943912516483	1.772534	1.3313655
26.067429017812675	1.8207884	1.349366
26.085419564266537	1.8491632	1.3598394
26.103410765041186	1.8579005	1.3630482
26.12140262065155	1.857432	1.3628764
26.139395131612723	1.8126386	1.3463427
26.157388298439948	1.7727314	1.3314396
26.17538212164861	1.7680765	1.3296903
26.193376601754295	1.7966745	1.3404008
26.211371739272714	1.8030045	1.3427601
26.229367534719746	1.8069425	1.3442256
26.247363988611433	1.805855	1.343821
26.26536110146397	1.8044595	1.3433017
26.283358873793727	1.7801515	1.3342232
26.301357306117204	1.7802788	1.3342708
26.319356398951104	1.8067064	1.3441378
26.33735615281224	1.7960129	1.340154
26.35535656821762	1.7326074	1.3162855
26.373357645684404	1.7175611	1.3105576
26.39135938572991	1.7781862	1.3334864
26.409361788871614	1.8351195	1.3546659
26.427364855627165	1.8241454	1.3506093
26.445368586514352	1.8043573	1.3432636
26.46337298205115	1.789592	1.3377564
26.48137804275568	1.7863307	1.3365369
26.499383769146217	1.8032109	1.3428369
26.517390161741215	1.8505856	1.3603623
26.53539722105928	1.8464968	1.3588587
26.553404947619182	1.8011975	1.342087
26.571413341939856	1.7745327	1.3321159
26.589422404540397	1.7132813	1.3089237
26.60743213594006	1.720832	1.3118049
26.62544253665827	1.7702814	1.3305192
26.64345360721459	1.8095549	1.345197
26.66146534812879	1.8218745	1.3497683
26.679477759920758	1.83272	1.3537799
26.69749084311057	1.7833999	1.3354399
26.71550459821847	1.7811698	1.3346047
26.733519025764842	1.7862717	1.3365147
26.751534126270258	1.7823445	1.3350447
26.769549900255434	1.776198	1.3327408
26.787566348241267	1.7968793	1.3404772
26.80558347074881	1.8210642	1.3494681
26.823601268299267	1.823303	1.3502973
26.841619741414036	1.792623	1.3388888
26.85963889061465	1.7418722	1.3198
26.877658716422832	1.7197602	1.3113962
26.89567921936045	1.7778208	1.3333495
26.913700399949544	1.8317184	1.3534099
26.93172225871233	1.901233	1.378852
26.949744796171174	1.8859061	1.3732829
26.967768012848605	1.8162311	1.3476762
26.98579190926733	1.7836704	1.3355412
27.003816485950225	1.7887892	1.3374562
27.021841743420318	1.7819998	1.3349156
27.039867682200814	1.7698245	1.3303475
27.057894302815072	1.760373	1.3267905
27.07592160578664	1.8027363	1.3426602
27.0939495916392	1.8217623	1.3497268
27.111978260896635	1.7723733	1.3313051
27.13000761408296	1.7685785	1.3298792
27.148037651722397	1.8165963	1.3478117
27.166068374339304	1.851318	1.3606315
27.184099782458215	1.8513262	1.3606344
27.20213187660384	1.8203973	1.349221
27.22016465730105	1.8105216	1.3455563
27.23819812507487	1.8014216	1.3421705
27.256232280450533	1.792873	1.3389821
27.274267123953383	1.7333934	1.316584
27.292302656108987	1.7013395	1.3043541
27.31033887744306	1.7551349	1.324815
27.32837578848146	1.857494	1.3628991
27.34641338975026	1.8429643	1.3575583
27.364451681775673	1.7623168	1.3275229
27.382490665084074	1.7348077	1.317121
27.400530340202046	1.7642167	1.3282381
27.41857070765629	1.7483009	1.3222333
27.436611767973726	1.710112	1.3077126
27.454653521681404	1.6936668	1.3014096
27.472695969306564	1.6920604	1.3007922
27.490739111376627	1.7202266	1.3115741
27.508782948419153	1.7598779	1.3266039
27.526827480961902	1.8041168	1.3431742
27.54487270953279	1.7996088	1.341495
27.562918634659898	1.7747359	1.3321922
27.580965256871508	1.7638662	1.3281063
27.599012576696026	1.7794449	1.3339584
27.617060594662068	1.8363274	1.3551116
27.63510931129842	1.8529973	1.3612485
27.65315872713401	1.8135926	1.3466969
27.67120884269797	1.8003498	1.3417711
27.68925965851958	1.7976907	1.3407799
27.707311175128307	1.8312991	1.353255
27.725363393053787	1.8496872	1.3600321
27.74341631282583	1.8661796	1.3660818
27.7614699349744	1.8857388	1.3732221
27.77952426002968	2.0556338	1.4337481
27.797579288521973	2.098491	1.4486169
27.815635020981784	2.5412612	1.5941334
27.83369145793979	2.6279268	1.6210881
27.85174859992682	2.5178468	1.5867724
27.869806447473923	2.4022515	1.5499198
27.887865001112267	2.1146507	1.4541838
27.905924261373233	1.9801756	1.4071871
27.92398422878836	1.9742929	1.4050953
27.94204490388936	1.9398931	1.3928005
27.96010628720813	1.857902	1.3630488
27.978168379276728	1.7971904	1.3405933
27.9962311806274	1.7995044	1.341456
28.014294691792568	1.8364117	1.3551427
28.0323589133048	1.847483	1.3592215
28.050423845696887	1.9192082	1.3853549
28.068489489501758	1.9245772	1.3872913
28.086555845252523	1.8947717	1.376507
28.104622913482487	1.83348	1.3540605
28.122690694725115	1.8027703	1.3426728
28.14075918951405	1.8851396	1.3730038
28.15882839838312	1.939117	1.3925217
28.176898321866304	1.9394939	1.3926572
28.1949689604978	1.9231867	1.38679
28.213040314811945	1.9552263	1.3982941
28.23111238534327	1.9844699	1.4087121
28.249185172626493	1.9516679	1.397021
28.267258677196473	1.9058924	1.3805406
28.285332899588294	1.8465732	1.3588867
28.303407840337172	1.8963404	1.3770767
28.321483499978545	1.9500766	1.3964515
28.33955987904799	1.9513497	1.3969072
28.357636978081285	1.9542	1.397927
28.37571479761439	1.9717463	1.4041889
28.393793338183425	1.9796307	1.4069935
28.41187260032469	1.9554472	1.398373
28.429952584574686	1.9173356	1.3846788
28.448033291470065	1.9665562	1.4023396
28.46611472154769	2.023176	1.4223839
28.484196875344566	1.9875368	1.4098003
28.502279753397914	1.9698833	1.4035254
28.52036335624511	1.975358	1.4054743
28.538447684423716	2.0085356	1.4172281
28.556532738471482	1.971649	1.4041542
28.574618518926325	1.9665241	1.4023281
28.59270502632635	1.9993368	1.413979
28.61079226120985	1.989113	1.4103591
28.628880224115274	1.9664688	1.4023083
28.646968915581287	1.9747494	1.4052578
28.66505833614671	2.0578103	1.434507
28.68314848635055	2.0974197	1.4482471
28.701239366732004	2.0886111	1.4452028
28.71933097783044	2.077244	1.4412647
28.737423320185403	2.12773	1.4586741
28.75551639433665	2.1214368	1.4565153
28.773610200824074	2.0607164	1.4355196
28.791704740187793	2.0596597	1.4351515
28.80980001296809	2.1387248	1.462438
28.827896019705413	2.1297102	1.4593526
28.845992760940433	2.1780634	1.4758264
28.86409023721397	2.2140489	1.4879681
28.88218844906704	2.1813881	1.4769523
28.900287397040845	2.1359315	1.4614826
28.918387081676755	2.1439192	1.4642129
28.936487503516343	2.1710134	1.4734359
28.954588663101365	2.17003	1.4731022
28.97269056097374	2.2203279	1.4900764
28.990793197675597	2.2773926	1.5091033
29.00889657374923	2.2943647	1.514716
29.027000689737125	2.3178518	1.5224493
29.04510554618196	2.3945928	1.5474472
29.06321114362659	2.3868692	1.5449495
29.08131748261405	2.3795817	1.5425893
29.099424563687567	2.4047508	1.5507259
29.11753238739057	2.5057843	1.5829669
29.13564095426663	2.5755124	1.6048403
29.15375026485954	2.6066928	1.6145256
29.171860319713275	2.6140215	1.6167936
29.18997111937199	2.6843665	1.6384037
29.20808266438002	2.7304785	1.652416
29.226194955281898	2.7942019	1.6715866
29.244307992622335	2.8096752	1.6762086
29.26242177694624	2.7852244	1.6688992
29.2805363087987	2.7837129	1.6684462
29.29865158872498	2.8857436	1.6987476
29.316767617270557	2.884853	1.6984855
29.334884394981064	2.9269009	1.7108188
29.353001922402367	2.9889796	1.7288666
29.37112020008047	3.0349493	1.7421106
29.389239228561596	3.121975	1.7669111
29.407359008392152	3.2926857	1.8145759
29.42547954011872	3.6599596	1.913102
29.44360082428809	4.180165	2.0445452
29.46172286144722	5.0904894	2.2562113
29.479845652143283	6.653191	2.5793781
29.497969196923606	9.317195	3.052408
29.516093496335728	13.176031	3.6298804
29.5342185509274	16.689983	4.0853376
29.55234436124651	19.773638	4.446756
29.570470927841175	20.997461	4.5822988
29.588598251259686	20.903648	4.5720506
29.60672633205055	19.552994	4.421877
29.624855170762405	16.502167	4.062286
29.642984767944146	12.924223	3.5950274
29.66111512414481	9.509257	3.0837083
29.67924623991366	7.0068536	2.647046
29.697378115800138	5.1589007	2.2713213
29.71551075235387	4.2855554	2.0701582
29.733644150124675	3.7934372	1.9476749
29.751778309662576	3.5653512	1.8882138
29.769913231517766	3.4554763	1.8588911
29.78804891624066	3.4437766	1.8557415
29.806185364381818	3.4409127	1.8549697
29.82432257649206	3.4277046	1.8514061
29.842460553122333	3.399188	1.8436887
29.86059929482382	3.3595812	1.832916
29.878738802147872	3.3136995	1.820357
29.896879075646048	3.3558068	1.8318862
29.915020115870114	3.3103516	1.8194371
29.933161923371976	3.2702491	1.808383
29.951304498703777	3.312441	1.8200113
29.969447842417857	3.2875156	1.8131508
29.987591955066733	3.26835	1.8078579
30.005736837203123	3.2502563	1.8028467
30.023882489379943	3.205039	1.7902622
30.04202891215028	3.1296475	1.769081
30.060176106067455	3.083231	1.7559131
30.078324071684946	3.159224	1.7774206
30.09647280955646	3.2045972	1.7901388
30.114622320235863	3.0747457	1.7534952
30.132772604277257	3.0296388	1.7405858
30.1509236622349	3.069244	1.7519258
30.16907549466328	3.0887656	1.7574885
30.18722810211705	3.0353258	1.7422186
30.205381485151097	2.975792	1.7250484
30.22353564432045	2.9913511	1.7295523
30.241690580180403	3.053226	1.7473483
30.25984629328638	3.1152463	1.7650061
30.278002784194037	3.0633252	1.7502358
30.296160053459246	2.9195018	1.708655
30.314318101638033	2.926559	1.7107189
30.332476929286646	2.939311	1.7144419
30.35063653696153	2.884459	1.6983695
30.368796925219307	2.865274	1.6927121
30.386958094616844	2.9051905	1.7044619
30.40512004571115	2.8706794	1.6943079
30.423282779059463	2.8668325	1.6931723
30.441446295219233	2.8343878	1.6835641
30.459610594748067	2.771145	1.6646757
30.47777567820382	2.791972	1.6709195
30.495941546144504	2.8260374	1.6810822
30.51410819912835	2.7789268	1.6670114
30.532275637713795	2.7693717	1.664143
30.55044386245946	2.8089855	1.6760029
30.56861287392416	2.8318846	1.6828204
30.586782672666956	2.7918143	1.6708723
30.604953259247047	2.7252772	1.6508414
30.623124634223885	2.7463331	1.6572064
30.641296798157075	2.781958	1.6679204
30.659469751606462	2.7456586	1.6570029
30.677643495132074	2.7125635	1.6469862
30.695818029294152	2.6561587	1.6297725
30.713993354653116	2.6427245	1.6256459
30.73216947176962	2.6562114	1.6297888
30.75034638120448	2.7264454	1.6511952
30.768524083518756	2.770881	1.6645963
30.786702579273673	2.7806733	1.6675351
30.80488186903069	2.81782	1.6786364
30.82306195335144	2.98421	1.7274866
30.841242832797782	3.2103362	1.7917411
30.85942450793176	3.5338733	1.8798599
30.877606979315637	3.8966396	1.9739908
30.895790247511883	4.305745	2.075029
30.913974313083134	4.8087606	2.1928887
30.932159176592283	5.3090343	2.3041341
30.95034483860237	5.588993	2.3641052
30.968531299676698	5.5065875	2.346612
30.98671856037873	5.1632595	2.2722807
31.00490662127215	4.753131	2.1801677
31.023095482920848	4.3112097	2.0763452
31.04128514588892	3.746132	1.9354926
31.059475610740662	3.2089956	1.7913669
31.07766687804056	2.7919993	1.6709276
31.09585894835335	2.5514302	1.5973197
31.11405182224393	2.4976156	1.5803846
31.132245500277417	2.493492	1.5790794
31.15043998301914	2.5118346	1.5848769
31.168635271034628	2.495422	1.5796905
31.18683136488964	2.444236	1.5634053
31.20502826515008	2.3883984	1.5454444
31.223225972382135	2.4356425	1.5606545
31.241424487152155	2.4888592	1.5776118
31.259623810026692	2.4874296	1.5771587
31.27782394157253	2.4106457	1.5526254
31.296024882356644	2.4369044	1.5610588
31.314226632946237	2.43604	1.5607818
31.332429193908684	2.4949348	1.5795363
31.350632565811598	2.4654455	1.5701737
31.368836749222787	2.441855	1.5626435
31.387041744710295	2.397947	1.5485306
31.40524755284232	2.4360135	1.5607734
31.423454174187317	2.4644816	1.5698668
31.441661609313922	2.5090256	1.5839905
31.459869858791002	2.4699395	1.5716041
31.478078923187628	2.411503	1.5529015
31.496288803073064	2.368182	1.5388899
31.514499499016807	2.3266232	1.5253272
31.532711011588546	2.2825997	1.5108275
31.550923341358178	2.27698	1.5089666
31.56913648889584	2.333256	1.5274999
31.587350454771844	2.4133847	1.5535072
31.605565239556732	2.4227402	1.5565155
31.62378084382127	2.3722517	1.5402116
31.641997268136382	2.3708751	1.5397646
31.660214513073274	2.3473454	1.5321048
31.67843257920331	2.301384	1.5170313
31.6966514670981	2.2493863	1.4997954
31.71487117732944	2.228303	1.4927502
31.733091710469346	2.292025	1.5139436
31.751313067090052	2.2961342	1.5153
31.769535247764008	2.2774606	1.5091257
31.787758253063878	2.3231468	1.5241872
31.805982083562526	2.3291047	1.5261405
31.824206739833024	2.2830205	1.5109668
31.84243222244869	2.2557132	1.5019032
31.860658531983013	2.3401618	1.5297587
31.878885669009737	2.3306358	1.526642
31.897113634102784	2.2794085	1.509771
31.91534242783632	2.2117248	1.4871869
31.933572050784694	2.1493254	1.4660578
31.951802503522508	2.0828252	1.4431996
31.970033786624548	2.097811	1.4483821
31.988265900665834	2.1299536	1.459436
32.006498846221575	2.2250733	1.491668
32.02473262386724	2.2622292	1.5040709
32.04296723417845	2.2030232	1.4842584
32.0612026777311	2.0966527	1.4479823
32.07943895510129	2.1537333	1.4675603
32.097676066865304	2.2223392	1.4907511
32.115914013599685	2.239448	1.4964786
32.13415279588115	2.179476	1.4763049
32.152392414286666	2.0640574	1.4366827
32.1706328693934	2.0285172	1.4242603
32.18887416177875	2.0700011	1.4387498
32.20711629202032	2.156385	1.4684634
32.225359260695924	2.2409506	1.4969805
32.243603068383614	2.2787924	1.5095669
32.26184771566166	2.1333363	1.4605945
32.28009320310852	2.0538614	1.4331299
32.2983395313029	2.0901208	1.445725
32.31658670082372	2.1356983	1.4614029
32.33483471225012	2.1323156	1.460245
32.35308356616143	2.1878912	1.4791522
32.371333263137245	2.1929033	1.4808455
32.38958380375734	2.1141112	1.4539983
32.407835188601744	2.138374	1.4623181
32.42608741825067	2.1295016	1.4592812
32.444340493284585	2.0443141	1.4297951
32.46259441428416	1.9817935	1.4077619
32.48084918183028	2.0607386	1.4355273
32.49910479650405	2.1249342	1.4577154
32.51736125888683	2.0746593	1.4403678
32.53561856956014	2.002037	1.4149336
32.5538767291058	2.0599196	1.435242
32.572135738105764	2.1470315	1.4652753
32.59039559714228	2.1256158	1.4579492
32.608656306797776	2.073719	1.4400413
32.62691786765491	1.9971849	1.4132179
32.645180280296586	2.000497	1.4143893
32.663443545305896	1.9700977	1.4036016
32.68170766326619	1.9498563	1.3963726
32.69997263476099	1.9391993	1.3925514
32.7182384603741	1.9311212	1.3896478
32.7365051406895	2.0267785	1.4236497
32.75477267629144	2.075629	1.4407043
32.77304106776434	1.9955367	1.4126346
32.79131031569289	1.9315238	1.3897927
32.809580420661966	1.9152949	1.3839418
32.827851383256714	1.9464879	1.3951659
32.84612320406245	1.9247439	1.3873514
32.86439588366476	1.9323217	1.3900797
32.88266942264945	1.9795941	1.4069805
32.9009438216025	1.9979576	1.4134912
32.9192190811102	2.0206752	1.4215045
32.937495201758985	2.1040802	1.4505448
32.95577218413556	2.0271416	1.4237772
32.974050028826866	1.9402862	1.3929416
32.992328736420035	1.9535135	1.3976815
33.010608307502444	2.039016	1.4279412
33.02888874266169	2.0284312	1.42423
33.047170042485604	1.9855497	1.4090953
33.06545220756225	1.9650208	1.4017919
33.083735238479896	2.0097694	1.4176633
33.10201913582707	2.0184617	1.4207258
33.12030390019248	1.956344	1.3986937
33.138589532165135	1.9226347	1.3865911
33.15687603233419	1.9160362	1.3842096
33.17516340128909	1.9692436	1.4032974
33.19345163961947	1.8787047	1.3706585
33.211740747915215	1.8726428	1.3684454
33.23003072676643	1.8870279	1.3736913
33.248321576763466	1.8848344	1.3728927
33.266613298496885	1.9206398	1.3858715
33.28490589255747	1.8726445	1.368446
33.30319935953626	1.8833469	1.3723509
33.32149370002451	1.9858273	1.4091939
33.339788914613706	2.0333233	1.4259465
33.358085003895575	1.9206516	1.3858757
33.376381968462034	1.9107352	1.3822935
33.39467980890529	2.0049815	1.4159737
33.41297852581774	2.0273337	1.4238447
33.43127811979204	1.9534236	1.3976493
33.44957859142105	1.9742386	1.405076
33.467879941297866	2.095085	1.4474409
33.486182170015844	2.1305377	1.4596362
33.50448527816853	2.0156825	1.4197474
33.522789266349754	1.9808593	1.40743
33.541094135153514	1.9162341	1.384281
33.55939988517411	1.8766989	1.3699266
33.57770651700602	1.8416127	1.3570603
33.59601403124398	1.8543353	1.3617398
33.61432242848296	1.8326265	1.3537453
33.632631709318154	1.8292435	1.3524953
33.650941874344994	1.8003594	1.3417747
33.66925292415916	1.7968539	1.3404678
33.68756485935654	1.8439268	1.3579127
33.70587768053328	1.9359727	1.3913924
33.724191388285746	2.0155272	1.4196926
33.74250598321054	2.0302808	1.4248792
33.760821465904506	2.0974326	1.4482516
33.77913783696474	2.219878	1.4899255
33.79745509698852	2.0826192	1.4431282
33.815773246573414	1.9047028	1.3801097
33.8340922863172	1.8744422	1.3691027
33.852412216817896	1.8499736	1.3601373
33.87073303867377	1.8969171	1.3772862
33.889054752483304	2.0323024	1.4255885
33.907377358845245	1.9599919	1.3999971
33.92570085835853	1.9384676	1.3922887
33.94402525162239	1.9757669	1.4056197
33.96235053923627	2.0493717	1.4315627
33.980676721799824	2.082632	1.4431328
33.999003799912984	1.9985046	1.4136847
34.01733177417592	1.902972	1.3794825
34.03566064518901	1.8492852	1.3598843
34.0539904135529	1.9179146	1.3848879
34.07232107986846	1.949359	1.3961945
34.090652644736785	1.8476211	1.3592722
34.108985108759235	1.8724793	1.3683857
34.12731847253742	1.9622605	1.4008071
34.14565273667313	2.0049593	1.4159659
34.16398790176847	2.0836954	1.4435011
34.18232396842574	2.068362	1.4381801
34.20066093724749	1.9446195	1.3944962
34.21899880883651	1.8332952	1.3539923
34.23733758379583	1.8195657	1.3489127
34.25567726272874	1.8289868	1.3524004
34.27401784623872	1.8367772	1.3552775
34.29235933492957	1.9149561	1.3838193
34.31070172940526	2.0411446	1.4286864
34.32904503027003	2.1209948	1.4563636
34.347389238128386	2.0704284	1.4388983
34.36573435358502	1.8862934	1.3734239
34.38408037724492	1.8014901	1.342196
34.402427309713296	1.9144092	1.3836218
34.42077515159559	1.942902	1.3938801
34.43912390349752	1.7878727	1.3371136
34.45747356602499	1.7570562	1.32554
34.47582413978423	1.8669505	1.366364
34.49417562538163	1.895565	1.3767952
34.51252802342388	1.9839189	1.4085165
34.53088133451789	1.9455502	1.3948299
34.54923555927084	1.9685781	1.4030603
34.567590698290104	1.9803166	1.4072373
34.58594675218336	2.1130667	1.4536391
34.6043037215585	2.084847	1.4438999
34.62266160702365	1.96987	1.4035206
34.641020409187234	1.9478003	1.3956362
34.65938012865785	1.951792	1.3970655
34.677740766044394	1.9867725	1.4095292
34.69610232195598	2.000537	1.4144034
34.714464797002016	1.9789693	1.4067584
34.73282819179208	1.9189645	1.3852669
34.751192506936064	1.9792612	1.4068621
34.76955774304408	1.8943907	1.3763686
34.7879239007265	1.7418526	1.3197926
34.80629098059391	1.9604937	1.4001763
34.824658983257194	2.105769	1.4511268
34.843027909327446	2.1338828	1.4607816
34.86139775941603	1.8899032	1.3747375
34.879768534134534	1.785044	1.3360554
34.89814023409483	1.8314227	1.3533007
34.91651285990901	1.8876768	1.3739275
34.93488641218944	2.1952143	1.4816256
34.95326089154871	2.3141625	1.5212371
34.97163629859967	2.258838	1.502943
34.99001263395542	2.0664186	1.4375043
35.00838989822934	1.9177567	1.384831
35.02676809203499	1.8523744	1.3610196
35.04514721598624	1.9190192	1.3852867
35.063527270697215	1.9468577	1.3952985
35.081908256782256	2.1927042	1.4807782
35.10029017485597	2.2211807	1.4903626
35.11867302553321	2.0846727	1.4438396
35.137056809429104	1.9791667	1.4068286
35.155441527159006	2.1212628	1.4564556
35.173827179338524	2.4283817	1.5583266
35.19221376658354	2.3766248	1.5416306
35.21060128951017	1.9841235	1.4085891
35.2289897487348	1.8981915	1.3777487
35.24737914487405	2.221142	1.4903497
35.26576947854479	2.3511193	1.533336
35.28416075036418	2.1704476	1.473244
35.30255296094958	2.2589827	1.5029912
35.32094611091867	2.2797024	1.5098684
35.33934020088932	2.009298	1.4174972
35.35773523147969	1.8721529	1.3682663
35.3761312033082	2.0319567	1.4254671
35.394528116993506	2.3144822	1.5213423
35.41292597315452	2.1821322	1.4772042
35.431324772410434	2.1004553	1.4492948
35.449724515380666	2.300797	1.5168378
35.46812520268491	2.4931505	1.5789714
35.486526834943106	2.443682	1.563228
35.504929412775454	2.188987	1.4795226
35.52333293680242	1.909392	1.3818076
35.54173740764471	1.8834814	1.3723998
35.560142825923286	1.7758104	1.3325953
35.5785491922594	1.6614631	1.2889775
35.59695650727454	1.3114891	1.1452026
35.61536477159042	0.92330575	0.960888
