0.008763373481513119	0.61777776	0.7859884
0.026290120649546365	0.373186	0.6108895
0.043816868432600686	0.21454643	0.46319157
0.06134361724069026	0.08536854	0.29217896
0.07887036748382949	0.020615311	0.14358033
0.0963971195720331	0.14302967	0.37819263
0.11392387391531617	0.17639029	0.41998845
0.1314506309236943	0.17717089	0.42091674
0.1489773910071836	0.1490231	0.3860351
0.16650415457580078	0.19366223	0.44007072
0.18403092203956356	0.29551318	0.5436112
0.20155769380849	0.2720408	0.52157533
0.2190844702925996	0.21451578	0.4631585
0.2366112519019124	0.14300524	0.37816033
0.2541380390464497	0.15222932	0.39016578
0.27166483213623416	0.14753905	0.38410813
0.28919163158128947	0.12402691	0.35217455
0.3067184377916406	0.086371	0.29388943
0.324245251177314	0.13699816	0.37013263
0.34177207214833777	0.18112203	0.42558435
0.3592989011147415	0.24523482	0.4952119
0.37682573848655654	0.28429216	0.53319055
0.39435258467381573	0.27582097	0.5251866
0.41187944008655414	0.24875724	0.4987557
0.42940630513480854	0.20959157	0.4578117
0.446933180228618	0.14944802	0.3865851
0.4644600657780234	0.11678916	0.3417443
0.48198696219306775	0.17201029	0.41474122
0.49951386988379676	0.19185673	0.43801454
0.5170407892602581	0.21448292	0.463123
0.5345677207325025	0.22814	0.47764003
0.5520946647105822	0.20684563	0.45480284
0.5696216216045534	0.21147974	0.45986927
0.5871485918244737	0.21177036	0.46018514
0.6046755757804043	0.20990057	0.45814908
0.6222025738824094	0.24464929	0.49462035
0.6397295865405557	0.22078408	0.46987668
0.6572566141649129	0.19664682	0.44344878
0.6747836571655547	0.16659772	0.40816385
0.6923107159525568	0.16497281	0.40616846
0.7098377909359992	0.16073403	0.4009165
0.7273648825259653	0.16852692	0.41052032
0.7448919911325411	0.17176738	0.4144483
0.762419117165817	0.19191743	0.43808383
0.7799462610358868	0.2193652	0.4683644
0.7974734231528482	0.24565443	0.4956354
0.8150006039268024	0.22145456	0.47058958
0.8325278037678551	0.19354363	0.43993592
0.8500550230861152	0.18916433	0.43493026
0.8675822622916969	0.16130593	0.4016291
0.8851095217947171	0.15706973	0.39632022
0.9026368020052984	0.16056615	0.40070707
0.9201641033335665	0.16125193	0.40156186
0.9376914261896523	0.1737808	0.41687024
0.9552187709836915	0.17247592	0.41530222
0.9727461381258234	0.20710066	0.45508313
0.990273528026193	0.26254472	0.5123912
1.0078009410949496	0.24952257	0.49952233
1.0253283777422473	0.29692754	0.5449106
1.0428558383782454	0.27695107	0.5262614
1.0603833234131086	0.28284875	0.53183526
1.0779108332570058	0.28856152	0.53717923
1.0954383683201119	0.3040962	0.5514492
1.112965929012607	0.33172294	0.57595396
1.1304935157446763	0.41858113	0.64697844
1.1480211289265108	0.43441474	0.6591015
1.1655487689683062	1.3757579	1.172927
1.1830764362802655	1.754181	1.324455
1.200604131272596	2.2008984	1.4835426
1.2181318543555117	2.4845238	1.5762372
1.235659605939232	2.4307303	1.55908
1.253187386433982	3.8775108	1.9691396
1.270715196249994	6.220243	2.4940414
1.2882430357975057	11.789903	3.4336429
1.3057709054867608	16.736902	4.091076
1.3232988057280106	22.401781	4.733052
1.3408267369315112	27.375628	5.2321725
1.358354699507526	30.975359	5.5655513
1.3758826938663256	34.950615	5.9119043
1.3934107204181858	36.485313	6.0403075
1.410938779573391	36.667202	6.055345
1.4284668717422309	37.60568	6.132347
1.4459949973350033	37.669228	6.137526
1.4635231567620117	37.580627	6.130304
1.4810513504335687	36.63588	6.052758
1.4985795787599925	35.76727	5.980574
1.5161078421516088	35.5265	5.960411
1.5336361410187505	34.832157	5.9018774
1.5511644757717598	35.026848	5.9183483
1.5686928468209842	35.945187	5.9954305
1.58622125457678	36.541798	6.044981
1.6037496994495108	37.681755	6.1385465
1.621278181849548	37.301525	6.107497
1.6388067021872719	37.812107	6.149155
1.6563352608730693	37.087467	6.089948
1.673863858317336	36.185947	6.0154757
1.6913924949304753	35.82599	5.9854813
1.7089211711228998	35.02845	5.9184837
1.7264498873050296	34.302227	5.85681
1.7439786438872935	33.673138	5.802856
1.7615074412801288	32.749035	5.722677
1.779036279893981	31.74184	5.63399
1.796565160139305	30.18243	5.493854
1.814094082426564	29.271603	5.4103236
1.8316230471662298	28.710648	5.3582315
1.849152054768784	27.956306	5.2873726
1.8666811056447168	27.617132	5.2552004
1.8842102002045273	26.922277	5.1886683
1.901739338858724	26.463863	5.144304
1.9192685220178245	25.705343	5.0700436
1.9367977500923557	25.069847	5.00698
1.9543270234928547	24.487335	4.9484677
1.971856342629867	23.829512	4.881548
1.9893857079139496	23.375877	4.834861
2.006915119755667	22.58074	4.7519197
2.0244445785655945	21.971264	4.6873517
2.0419740847543175	21.702188	4.6585608
2.0595036387324317	21.585245	4.6459923
2.0770332409105414	21.226206	4.6071906
2.094562891699263	20.817753	4.5626473
2.1120925915092217	20.150095	4.488886
2.129622340751053	19.708681	4.439446
2.1471521398354043	188.02873	13.712357
2.1646819891729323	444.33554	21.079268
2.182211889174303	440.6809	20.992401
2.1997418402501974	453.1773	21.287962
2.2172718428113023	433.1701	20.812738
2.234801897268317	321.23663	17.923075
2.2523320040319548	17.408867	4.1723933
2.269862163512935	16.916147	4.1129246
2.287392376121992	16.471685	4.058532
2.304922642269869	16.159554	4.0198946
2.322452962367322	15.774471	3.9717088
2.3399833368251164	15.315153	3.9134579
2.357513766054032	15.018393	3.8753572
2.3750442504648586	14.923891	3.863145
2.3925747904683963	14.83251	3.8512998
2.410105386475459	14.554196	3.8149962
2.4276360388968707	14.172919	3.7646937
2.445166748143469	14.106267	3.755831
2.4626975146261025	14.039538	3.7469373
2.4802283387556323	13.864376	3.7234898
2.4977592209429305	13.41988	3.6633155
2.5152901615988825	13.010452	3.6070004
2.5328211611343865	12.876744	3.588418
2.5503522199603523	12.729015	3.5677745
2.5678833384877024	12.487803	3.5338087
2.5854145171273712	12.100845	3.478627
2.6029457562903064	11.853772	3.4429307
2.620477056387469	11.598648	3.4056787
2.6380084178298326	11.54461	3.397736
2.655539841028383	11.361579	3.3706942
2.673071326394119	11.21924	3.3495135
2.6906028743380523	11.052256	3.3244934
2.708134485271211	10.86787	3.2966454
2.7256661596046325	10.721695	3.2744
2.743197897749369	10.465193	3.2349951
2.760729700116486	10.286903	3.2073202
2.778261567117063	10.031087	3.1671891
2.795793499162193	10.053552	3.1707337
2.8133254966629817	10.102492	3.1784418
2.830857560030551	9.970679	3.1576383
2.8483896896760337	9.830557	3.135372
2.865921886010578	9.644466	3.105554
2.883454149445347	9.566801	3.0930245
2.9009864803915177	9.367346	3.060612
2.91851887926028	9.218437	3.036188
2.9360513464628384	9.271105	3.044849
2.953583882410413	9.183727	3.0304666
2.9711164875142373	9.162739	3.0270016
2.9886491621855606	9.068426	3.0113828
3.0061819068356455	8.832272	2.9719138
3.023714721875769	8.625809	2.9369726
3.041247607717225	8.35908	2.8912075
3.0587805647713213	8.237419	2.8700905
3.0763135934493806	8.138549	2.8528142
3.0938466941627407	7.9990287	2.8282554
3.1113798673227544	7.980484	2.824975
3.1289131133407904	8.010978	2.830367
3.1464464326282315	7.9379325	2.8174336
3.1639798255964786	7.7906284	2.7911696
3.1815132926569443	7.5868106	2.7544165
3.1990468342210603	7.6351023	2.7631688
3.216580450700272	7.6241894	2.7611935
3.2341141425060416	7.6063304	2.7579577
3.251647910049847	7.5361447	2.745204
3.2691817537431813	7.4409547	2.7278113
3.286715673997555	7.383263	2.717216
3.3042496712244938	7.2278132	2.6884592
3.32178374583554	7.0860467	2.661963
3.339317898242251	6.9783363	2.641654
3.3568521288562034	6.9486547	2.6360302
3.3743864380889876	6.8838606	2.623711
3.3919208263522127	6.869893	2.621048
3.4094552940575023	6.7455616	2.5972219
3.4269898416164972	6.7149873	2.5913293
3.444524469440858	6.643268	2.5774539
3.4620591779422587	6.634102	2.575675
3.479593967532391	6.636025	2.5760484
3.4971288386229658	6.722762	2.592829
3.5146637916257086	6.7259355	2.5934408
3.5321988269523628	6.551048	2.5595014
3.5497339450146903	6.421514	2.5340707
3.5672691462244708	6.3096075	2.5118933
3.5848044309934988	6.2654014	2.5030785
3.60233979973359	6.319156	2.5137932
3.619875252856575	6.2616544	2.5023298
3.6374107907743034	6.2850842	2.5070071
3.6549464138986427	6.281548	2.5063016
3.6724821226414788	6.276527	2.5052998
3.690017917414714	6.339902	2.5179162
3.7075537986302702	6.3871584	2.5272827
3.7250897667000857	6.42536	2.5348294
3.7426258220361235	6.43851	2.537422
3.7601619650503553	6.7735677	2.602608
3.777698196154779	7.3506575	2.7112095
3.7952345157614067	8.451813	2.9072
3.8127709242822716	9.272183	3.045026
3.830307422129425	11.434987	3.3815658
3.847844009714936	30.313562	5.5057755
3.8653806874508954	97.84328	9.891576
3.882917455749409	97.17802	9.857891
3.900454315022606	96.935936	9.845605
3.917991265682631	41.50436	6.4423876
3.9355283081416506	11.062019	3.3259614
3.9530654428118495	8.761373	2.9599617
3.970602670105433	7.477776	2.7345521
3.9881399904346244	6.60997	2.5709863
4.005677404211669	6.600007	2.569048
4.023214911848827	6.640174	2.5768535
4.0407525137583855	6.5726924	2.5637262
4.058290210352644	6.4914885	2.5478399
4.075828002043927	6.386739	2.5271997
4.0933658892445814	6.303547	2.5106866
4.110903872366966	6.215367	2.4930637
4.128441951823468	6.119028	2.473667
4.145980128026488	6.1310787	2.4761014
4.163518401388452	6.1316385	2.4762146
4.181056772321807	6.0810337	2.4659753
4.1985952412390155	6.0424743	2.4581444
4.216133808552567	6.135015	2.4768963
4.233672474674966	6.2200317	2.4939992
4.251211240018741	6.4352894	2.5367873
4.268750104996445	6.5830727	2.56575
4.286289070020643	7.5041676	2.7393737
4.303828135503928	9.103853	3.0172591
4.3213673018589125	29.404478	5.42259
4.3389065694982305	90.59007	9.517881
4.356445938834537	165.93774	12.881682
4.3739854102805085	171.54076	13.097357
4.391524984248844	172.43033	13.131273
4.409064661152262	136.43143	11.680387
4.426604441403504	96.72102	9.834684
4.444144325415337	75.49038	8.68852
4.461684313600543	21.443007	4.6306596
4.47922440637193	21.810036	4.6701217
4.496764604142329	20.362839	4.5125203
4.5143049073245916	18.85432	4.3421564
4.531845316331589	16.740788	4.091551
4.5493858315762195	13.785288	3.7128544
4.566926453471405	11.279927	3.3585603
4.584467182430081	9.180474	3.0299296
4.602008018865218	8.114671	2.8486261
4.619548963189798	7.4948444	2.7376714
4.637090015816834	6.959948	2.6381714
4.654631177159353	6.6946225	2.5873969
4.672172447630417	6.372345	2.5243504
4.689713827643102	6.1832256	2.4866092
4.7072553176105085	6.1008396	2.4699879
4.724796917945764	6.007645	2.4510498
4.742338629062015	5.903918	2.429798
4.759880451372434	5.7553935	2.3990402
4.777422385290215	5.711089	2.3897886
4.794964431228581	5.7163777	2.3908947
4.812506589600768	5.677227	2.3826933
4.830048860820047	5.628906	2.3725314
4.847591245299709	5.4981823	2.3448203
4.8651337434530655	5.503749	2.346007
4.882676355693457	5.541271	2.3539906
4.900219082434242	5.562016	2.3583927
4.917761924088813	5.527763	2.3511195
4.935304881070575	5.5124598	2.3478627
4.952847953792969	5.54916	2.3556654
4.970391142669449	5.5853977	2.3633447
4.9879344481135055	5.529697	2.3515308
5.005477870538642	5.4752836	2.3399324
5.023021410358394	5.4171767	2.327483
5.040565067986324	5.377072	2.3188515
5.05810884383601	5.3953137	2.3227816
5.075652738321066	5.492293	2.343564
5.09319675185512	5.4838305	2.341758
5.110740884851836	5.4029503	2.3244247
5.128285137724894	5.3526773	2.3135853
5.145829510888007	5.306136	2.3035052
5.163374004754908	5.3520412	2.313448
5.1809186197393595	5.3078656	2.3038805
5.198463356255145	5.249436	2.2911646
5.216008214716077	5.167448	2.2732022
5.233553195535998	5.145222	2.2683082
5.251098299128764	5.165644	2.2728055
5.268643525908272	5.2293315	2.2867732
5.286188876288432	5.236189	2.2882721
5.3037343506831895	5.2695093	2.2955413
5.32127994950651	5.253326	2.2920134
5.3388256731723915	5.310875	2.3045335
5.356371522094851	5.3305078	2.3087893
5.373917496687938	5.2891755	2.2998207
5.391463597365729	5.282033	2.2982674
5.40900982454232	5.260613	2.2936027
5.426556178631843	5.1655083	2.2727754
5.444102660048449	5.118255	2.262356
5.4616492692063225	5.084639	2.2549145
5.479196006519669	5.128858	2.2646983
5.496742872402727	5.111303	2.260819
5.514289867269756	5.1666207	2.2730203
5.531836991535049	5.1791487	2.2757742
5.549384245612924	5.144015	2.268042
5.566931629917724	5.133696	2.2657661
5.584479144863822	5.0852776	2.255056
5.6020267908656205	5.0670085	2.2510016
5.619574568337545	5.0688925	2.25142
5.637122477694054	5.0134525	2.239074
5.654670519349629	5.0369277	2.2443101
5.672218693718784	5.036625	2.2442427
5.689767001216059	5.029124	2.2425709
5.707315442256021	5.1084647	2.2601912
5.724864017253266	5.0830016	2.2545514
5.7424127266224225	5.2226787	2.2853181
5.75996157077814	5.2099967	2.2825418
5.777510550135105	5.202038	2.2807977
5.795059665108022	5.136629	2.2664132
5.812608916111639	5.112551	2.261095
5.830158303560715	5.2557774	2.2925482
5.847707827870055	5.338305	2.3104773
5.86525748945448	5.4450383	2.3334606
5.8828072887288485	5.5930486	2.3649628
5.900357226108044	5.668556	2.380873
5.917907302006979	5.6991534	2.38729
5.9354575168406	6.262127	2.5024242
5.9530078710238765	6.9364305	2.6337104
5.970558364971812	7.4672904	2.7326343
5.988108999099438	7.8652782	2.8045104
6.005659773821818	8.446937	2.9063613
6.023210689554039	8.166131	2.8576443
6.040761746711227	8.575812	2.9284487
6.058312945708531	7.724048	2.7792172
6.075864286961132	7.206519	2.6844962
6.093415770884244	6.5730915	2.5638041
6.1109673978931065	6.0533757	2.460361
6.128519168402993	5.492518	2.3436122
6.146071082829204	5.3132796	2.3050551
6.163623141587075	5.1764126	2.2751732
6.181175345091969	5.1604996	2.2716732
6.198727693759281	5.1602964	2.2716286
6.216280188004435	5.15759	2.2710328
6.233832828242885	5.1462526	2.2685354
6.251385614890126	5.156813	2.2708619
6.268938548361669	5.1359086	2.2662544
6.286491629073067	5.1019597	2.2587519
6.304044857439898	5.0425673	2.2455661
6.321598233877777	5.011953	2.238739
6.339151758802344	4.97693	2.2309034
6.356705432629277	5.006581	2.237539
6.37425925577428	5.0058355	2.2373724
6.391813228653095	4.993574	2.2346306
6.409367351681486	4.9701047	2.2293732
6.426921625275259	4.933938	2.221247
6.44447604985025	4.9553614	2.2260642
6.46203062582232	4.9443994	2.2236006
6.47958535360737	4.970314	2.2294202
6.497140233621328	4.9756813	2.2306235
6.514695266280161	4.985067	2.2327263
6.532250451999859	4.984293	2.232553
6.549805791196454	4.9876523	2.2333052
6.567361284286002	4.9807115	2.2317507
6.584916931684597	4.971623	2.2297137
6.602472733808367	4.9715414	2.2296953
6.6200286910734665	5.001155	2.2363262
6.637584803896092	5.0238924	2.241404
6.655141072692462	4.9966965	2.2353292
6.672697497878842	4.9819007	2.2320173
6.690254079871514	4.92579	2.219412
6.707810819086808	4.926551	2.2195835
6.725367715941078	4.939073	2.2224026
6.742924770850719	5.0123982	2.2388387
6.760481984232151	5.0441823	2.2459257
6.778039356501836	5.0597296	2.2493842
6.795596888076266	5.030386	2.2428522
6.813154579371963	5.008522	2.2379727
6.830712430805492	4.944439	2.2236094
6.84827044279344	4.9168963	2.2174075
6.865828615752445	4.9403186	2.2226827
6.883386950099159	5.0003533	2.236147
6.900945446250287	5.05872	2.2491598
6.918504104622553	5.032124	2.2432396
6.936062925632727	5.0377474	2.2444928
6.953621909697607	5.033615	2.243572
6.971181057234028	5.051632	2.2475836
6.988740368658859	5.108347	2.2601652
7.006299844389007	5.1201286	2.2627702
7.023859484841407	5.214942	2.2836246
7.041419290433036	5.356458	2.3144023
7.058979261580902	5.5475535	2.3553245
7.0765393987020495	5.704061	2.3883176
7.094099702213559	6.093176	2.468436
7.111660172532549	6.3760443	2.525083
7.129220810076164	6.719124	2.5921273
7.146781615261595	7.2874675	2.699531
7.16434258850606	7.549436	2.7476237
7.181903730226821	7.9958534	2.827694
7.1994650408411704	8.053319	2.837837
7.217026520766437	8.113224	2.8483722
7.234588170419983	8.35587	2.8906522
7.252149990219215	8.418016	2.9013817
7.269711980581568	8.396066	2.8975966
7.2872741419245175	8.158456	2.856301
7.304836474665574	7.726028	2.7795734
7.322398979222286	7.4696865	2.7330728
7.339961656012233	7.217264	2.6864967
7.357524505453039	6.9320326	2.6328754
7.375087527962357	6.639056	2.5766366
7.392650723957886	6.346347	2.5191958
7.410214093857353	6.0065384	2.450824
7.427777638078528	5.730729	2.3938942
7.445341357039213	5.5334606	2.352331
7.4629052511572525	5.3986044	2.3234897
7.480469320850524	5.295114	2.3011115
7.498033566536948	5.317749	2.3060246
7.5155979886344735	5.220542	2.2848506
7.5331625875610975	5.2029247	2.280992
7.550727363734844	5.17612	2.2751088
7.568292317573788	5.1650767	2.2726805
7.585857449496025	5.1705146	2.2738767
7.603422759919705	5.149746	2.2693052
7.620988249263007	5.16448	2.2725494
7.638553917944147	5.1603317	2.2716362
7.656119766381391	5.125527	2.2639627
7.673685794993023	5.1637597	2.2723908
7.691252004197388	5.174138	2.2746732
7.70881839441285	5.1990995	2.2801535
7.726384966057826	5.223467	2.2854905
7.743951719550762	5.247555	2.290754
7.761518655310149	5.2841682	2.2987318
7.779085773754511	5.3095284	2.3042414
7.796653075302419	5.3097997	2.3043003
7.814220560372475	5.297995	2.3017373
7.831788229383323	5.285562	2.299035
7.8493560827536495	5.247548	2.2907526
7.866924120902174	5.2326255	2.2874932
7.884492344247663	5.272087	2.2961025
7.9020607532089135	5.283061	2.298491
7.919629348204771	5.3062725	2.3035347
7.937198129654115	5.310551	2.3044634
7.954767097975865	5.3122287	2.3048272
7.972336253588986	5.33952	2.3107402
7.989905596912472	5.3579984	2.314735
8.007475128365371	5.370719	2.3174813
8.025044848366756	5.381596	2.3198268
8.042614757335754	5.554593	2.3568184
8.060184855691523	5.6538286	2.377778
8.07775514385327	5.795256	2.4073339
8.095325622240228	5.8219485	2.4128714
8.112896291271687	5.8824043	2.4253669
8.130467151366968	5.890667	2.4270697
8.148038202945436	5.9014997	2.4293003
8.165609446426497	5.7926917	2.4068012
8.183180882229594	5.892754	2.4274995
8.200752510774217	5.8890405	2.4267344
8.218324332479893	5.916452	2.4323757
8.235896347766193	5.8605127	2.4208496
8.253468557052724	5.814928	2.4114163
8.27104096075914	5.8391304	2.4164293
8.288613559305137	5.9355855	2.4363058
8.306186353110448	6.1350937	2.476912
8.32375934259485	6.2730694	2.5046096
8.341332528178162	6.316391	2.5132432
8.358905910280246	6.354307	2.520775
8.376479489321003	6.2832	2.5066311
8.394053265720377	6.2398515	2.4979694
8.411627239898356	6.2359533	2.497189
8.42920141227497	6.1895742	2.4878855
8.44677578327029	6.2530117	2.5006022
8.464350353304427	6.2407794	2.498155
8.48192512279754	6.208487	2.4916835
8.499500092169827	6.1417704	2.4782596
8.51707526184153	6.155169	2.4809613
8.534650632232934	6.2453713	2.499074
8.552226203764365	6.2427382	2.4985473
8.569801976856192	6.232282	2.496454
8.587377951928834	6.2372494	2.4974487
8.60495412940274	6.3132567	2.5126195
8.622530509698416	6.43555	2.5368385
8.6401070932364	6.516204	2.5526857
8.657683880437283	6.5902743	2.567153
8.675260871721695	6.7770844	2.6032834
8.692838067510303	7.0267034	2.650793
8.710415468223834	7.1798286	2.6795201
8.727993074283043	7.2580233	2.6940718
8.745570886108737	7.199553	2.6831982
8.763148904121765	7.2174306	2.6865275
8.78072712874302	7.167709	2.6772578
8.798305560393441	7.391107	2.7186592
8.815884199494006	7.5013046	2.738851
8.833463046465745	7.7047806	2.7757487
8.851042101729728	7.809397	2.79453
8.86862136570707	8.132581	2.851768
8.886200838818924	8.317145	2.8839462
8.903780521486505	8.371704	2.8933897
8.921360414131055	8.4395075	2.905083
8.938940517173874	8.597133	2.9320867
8.956520831036297	8.774735	2.962218
8.97410135613971	9.053344	3.0088775
8.99168209290554	9.205616	3.0340757
9.009263041755265	9.547274	3.0898664
9.026844203110405	9.807654	3.1317174
9.044425577392525	9.996465	3.1617186
9.062007165023239	10.060602	3.1718452
9.079588966424197	10.31494	3.211688
9.097170982017108	10.410572	3.2265418
9.11475321222372	11.396773	3.3759108
9.132335657465825	12.210497	3.494352
9.149918318165264	12.280719	3.5043857
9.167501194743924	12.764097	3.5726876
9.18508428762374	12.468083	3.5310173
9.202667597226693	12.55093	3.5427291
9.220251123974803	12.237282	3.4981825
9.237834868290143	11.884082	3.4473298
9.255418830594836	11.711279	3.4221747
9.273003011311046	11.127481	3.335788
9.290587410860985	10.954722	3.3097918
9.308172029666911	10.351369	3.2173543
9.32575686815113	10.139756	3.1842983
9.343341926735997	8.824845	2.970664
9.360927205843916	8.61649	2.935386
9.378512705897327	8.381656	2.895109
9.396098427318728	8.169185	2.8581786
9.413684370530664	8.072493	2.8412132
9.431270535955722	7.9730787	2.823664
9.448856924016539	7.9411874	2.8180113
9.466443535135806	7.867395	2.8048878
9.484030369736251	7.79395	2.7917647
9.501617428240658	7.750078	2.7838962
9.519204711071852	7.71668	2.7778914
9.536792218652714	7.6836677	2.7719429
9.55437995140617	7.7783194	2.7889638
9.571967909755191	7.831422	2.7984679
9.589556094122802	7.931471	2.8162868
9.60714450493207	7.9545813	2.8203866
9.624733142606116	7.952373	2.8199952
9.642322007568108	7.9057207	2.8117113
9.659911100241267	7.907015	2.8119414
9.677500421048851	7.968483	2.8228502
9.695089970414175	8.044422	2.8362691
9.712679748760609	8.068876	2.8405766
9.730269756511557	8.132932	2.8518295
9.747859994090492	8.146585	2.8542223
9.765450461920915	8.247976	2.871929
9.78304116042639	8.1285715	2.851065
9.800632090030527	8.132613	2.8517737
9.81822325115699	8.134283	2.8520665
9.835814644229481	8.193225	2.862381
9.853406269671762	8.220686	2.867174
9.870998127907646	8.223922	2.867738
9.888590219360985	8.273472	2.8763642
9.906182544455698	8.310866	2.8828573
9.923775103615734	8.24525	2.8714542
9.941367897265108	8.194642	2.8626285
9.958960925827878	8.125268	2.8504856
9.97655418972816	8.167106	2.8578148
9.994147689390106	8.216609	2.8664627
10.011741425237934	8.213487	2.8659182
10.029335397695904	8.172536	2.8587646
10.04692960718833	8.127721	2.8509157
10.06452405413958	8.142201	2.8534544
10.082118738974064	8.227066	2.8682864
10.099713662116246	8.263726	2.8746698
10.117308823990651	8.241859	2.870864
10.134904225021844	8.129912	2.8513002
10.152499865634445	8.131567	2.8515902
10.170095746253125	8.170554	2.8584182
10.18769186730261	8.1789055	2.8598785
10.205288229207675	8.122193	2.8499463
10.222884832393145	8.056111	2.838329
10.2404816772839	8.024423	2.8327413
10.258078764304868	8.047125	2.8367455
10.275676093881035	8.01368	2.8308444
10.293273666437438	8.037135	2.834984
10.310871482399158	8.03202	2.834082
10.32846954219134	8.06399	2.8397164
10.346067846239173	8.08302	2.8430653
10.363666394967908	8.133069	2.8518536
10.38126518880283	8.153183	2.855378
10.398864228169298	8.217025	2.8665354
10.416463513492713	8.148806	2.8546114
10.434063045198531	8.121154	2.8497639
10.451662823712262	8.126346	2.8506746
10.469262849459467	8.197176	2.863071
10.486863122865758	8.158057	2.8562312
10.504463644356806	8.066595	2.8401752
10.522064414358338	7.970738	2.8232496
10.539665433296118	7.955789	2.8206007
10.557266701595987	7.8600354	2.8035755
10.574868219683818	7.7413316	2.7823248
10.592469987985552	7.6213255	2.7606747
10.610072006927185	7.5307927	2.744229
10.627674276934751	7.492071	2.7371647
10.64527679843435	7.339067	2.7090712
10.662879571852143	7.1959534	2.6825273
10.680482597614331	7.1237144	2.6690288
10.698085876147173	7.0507836	2.6553311
10.715689407876988	7.018637	2.649271
10.733293193230146	6.926459	2.6318166
10.750897232633072	6.792787	2.6062975
10.76850152651225	6.674732	2.5835502
10.786106075294207	6.574927	2.564162
10.803710879405534	6.4803357	2.5456502
10.821315939272877	6.3714304	2.5241692
10.83892125532294	6.2423534	2.4984703
10.856526827982472	6.20298	2.4905782
10.874132657678285	6.206823	2.4913497
10.891738744837243	6.2801013	2.506013
10.909345089886271	6.249326	2.4998653
10.926951693252343	6.178851	2.4857295
10.944558555362494	6.1178765	2.4734342
10.96216567664381	6.027121	2.4550195
10.979773057523436	5.916225	2.4323292
10.997380698428573	5.8204155	2.4125538
11.014988599786477	5.7698584	2.4020529
11.032596762024461	5.6810503	2.3834953
11.050205185569892	5.650789	2.3771389
11.067813870850198	5.557375	2.3574085
11.085422818292859	5.527445	2.3510518
11.10303202832541	5.4878936	2.3426254
11.120641501375454	5.476578	2.340209
11.138251237870636	5.431749	2.3306112
11.155861238238671	5.314346	2.3052864
11.173471502907317	5.2200823	2.28475
11.191082032304402	5.1799307	2.2759461
11.208692826857805	5.137378	2.2665784
11.226303886995465	5.102462	2.258863
11.243915213145371	5.034248	2.243713
11.261526805735578	4.952324	2.2253819
11.279138665194196	4.9001117	2.2136195
11.296750791949393	4.8239293	2.1963446
11.314363186429393	4.7938004	2.1894748
11.331975849062479	4.7116504	2.1706336
11.34958878027699	4.664653	2.1597807
11.36720198050133	4.621206	2.149699
11.384815450163948	4.619083	2.1492052
11.402429189693366	4.562342	2.135964
11.420043199518153	4.46535	2.1131375
11.437657480066942	63.42999	7.9642944
11.455272031768422	85.16769	9.228634
11.472886855051353	107.58484	10.372312
11.490501950344528	99.17833	9.958832
11.508117318076819	84.51518	9.193213
11.52573295867715	45.92805	6.777024
11.543348872574514	4.2363706	2.0582445
11.560965060197946	4.200057	2.0494041
11.57858152197655	4.1115594	2.027698
11.59619825833949	4.0460267	2.0114737
11.613815269715985	3.984628	1.9961532
11.631432556535323	38.505116	6.205249
11.649050119226837	83.06071	9.113765
11.666667958219929	93.42885	9.66586
11.68428607394406	107.63619	10.374786
11.701904466828756	82.44374	9.079854
11.719523137303586	65.329704	8.08268
11.737142085798196	4.5956736	2.143752
11.754761312742286	3.7030697	1.9243362
11.772380818565619	3.620677	1.9028077
11.790000603698015	3.6291885	1.9050429
11.80762066856935	3.5789487	1.891811
11.825241013609572	3.594476	1.8959104
11.842861639248683	3.532235	1.8794241
11.860482545916748	3.4771547	1.8647131
11.878103734043883	3.4617488	1.8605776
11.895725204060282	3.4376657	1.8540943
11.91334695639619	3.4242284	1.8504671
11.930968991481919	3.4029362	1.8447049
11.948591309747824	3.3534136	1.8312328
11.966213911624347	3.3341286	1.8259597
11.98383679754198	3.3020682	1.8171594
12.001459967931268	3.2647634	1.8068656
12.019083423222835	3.23093	1.7974788
12.036707163847352	3.200168	1.7889013
12.05433119023556	3.1593683	1.7774612
12.071955502818259	3.1439784	1.7731267
12.089580102026313	3.1519039	1.7753602
12.107204988290643	3.1871262	1.7852525
12.12483016204224	3.2026074	1.789583
12.142455623712152	3.185963	1.7849265
12.16008137373149	3.1527464	1.7755975
12.177707412531431	3.1192997	1.7661539
12.19533374054321	3.0793002	1.7547935
12.212960358198126	3.0329964	1.74155
12.230587265927545	3.0052264	1.7335589
12.248214464162889	3.0011563	1.7323846
12.265841953335649	3.0077055	1.7342738
12.283469733877375	3.0086493	1.7345458
12.301097806219685	2.9803805	1.7263778
12.31872617079425	2.9403813	1.714754
12.336354828032825	2.9294693	1.7115693
12.353983778367205	2.9518788	1.7181033
12.371613022229262	2.9610271	1.7207636
12.389242560050928	2.9527001	1.7183423
12.406872392264201	2.9479117	1.7169484
12.424502519301143	2.925097	1.7102915
12.442132941593874	2.891216	1.7003577
12.459763659574586	2.837369	1.6844492
12.477394673675532	2.8624532	1.6918786
12.49502598432903	2.8372657	1.6844186
12.51265759196746	2.8246691	1.6806751
12.530289497023267	2.7494	1.6581315
12.547921699928967	2.7123015	1.6469066
12.565554201117134	2.7288888	1.6519349
12.583187001020404	2.7409344	1.6555767
12.600820100071486	2.7791865	1.6670892
12.618453498703152	2.8022974	1.6740063
12.636087197348235	2.789913	1.6703032
12.65372119643964	2.7913888	1.670745
12.671355496410326	2.802633	1.6741066
12.68899009769333	2.8483026	1.6876915
12.706625000721749	2.847012	1.6873091
12.724260205928752	2.8943248	1.7012715
12.741895713747551	2.9239788	1.7099645
12.759531524611454	3.0190701	1.7375472
12.777167638953818	3.0227754	1.7386131
12.794804057208072	3.0355496	1.7422829
12.812440779807702	3.040273	1.7436378
12.830077807186271	3.1655486	1.7791989
12.847715139777405	3.191695	1.7865316
12.865352778014795	3.4036007	1.844885
12.882990722332197	3.5448008	1.8827641
12.90062897316344	3.6785808	1.9179627
12.918267530942412	3.7927656	1.9475024
12.935906396103071	3.6447139	1.9091134
12.953545569079449	3.7610292	1.9393374
12.971185050305628	3.596671	1.8964891
12.988824840215775	3.6170795	1.9018621
13.006464939244115	3.628131	1.9047654
13.024105347824943	3.4932852	1.8690332
13.041746066392617	3.5949538	1.8960364
13.05938709538157	3.3988304	1.8435917
13.077028435226296	3.3597357	1.8329582
13.094670086361363	3.1882687	1.7855724
13.112312049221401	3.1019359	1.7612313
13.129954324241112	3.037252	1.7427714
13.147596911855258	2.870719	1.6943196
13.165239812498685	2.8705194	1.6942607
13.182883026606293	2.8135602	1.6773671
13.200526554613058	2.8120198	1.6769078
13.218170396954017	2.7513447	1.6587178
13.235814554064284	2.7182827	1.6487216
13.253459026379034	2.6596816	1.630853
13.271103814333523	2.647577	1.6271377
13.288748918363058	2.6169276	1.6176921
13.306394338903031	2.6420856	1.6254493
13.32404007638889	2.6787376	1.636685
13.341686131256164	2.76399	1.6625252
13.359332503940449	2.7237098	1.6503665
13.376979194877402	2.6891954	1.6398766
13.394626204502751	2.6908307	1.6403751
13.412273533252307	2.703293	1.6441694
13.429921181561937	2.7091825	1.6459595
13.447569149867581	2.726843	1.6513156
13.465217438605247	2.695751	1.6418742
13.482866048211022	2.6768434	1.6361061
13.500514979121052	2.6777673	1.6363885
13.518164231771568	2.63462	1.6231512
13.535813806598844	2.6386542	1.6243935
13.553463704039254	2.6709766	1.6343123
13.571113924529229	2.683014	1.6379908
13.588764468505275	2.7346022	1.6536633
13.606415336403956	2.7430832	1.6562256
13.624066528661917	2.7338178	1.653426
13.641718045715882	2.7468548	1.6573638
13.659369888002635	2.8066819	1.6753155
13.67702205595903	2.8967853	1.7019945
13.694674550021993	2.967651	1.7226871
13.712327370628532	3.0369809	1.7426935
13.729980518215713	3.0962405	1.7596138
13.747633993220681	3.18148	1.7836703
13.765287796080647	3.2430007	1.8008333
13.7829419272329	3.3217797	1.822575
13.800596387114801	3.3387768	1.827232
13.818251176163775	3.351886	1.8308157
13.835906294817324	3.365905	1.8346403
13.853561743513023	3.3953066	1.8426358
13.871217522688525	3.4586349	1.8597405
13.888873632781538	3.480702	1.8656639
13.906530074229858	3.5305376	1.8789725
13.92418684747135	3.5021443	1.8714017
13.941843952943948	3.504354	1.871992
13.959501391085665	3.460331	1.8601965
13.977159162334578	3.362366	1.8336755
13.994817267128846	3.2697554	1.8082465
14.012475705906693	3.1786072	1.7828649
14.030134479106424	3.154938	1.7762145
14.047793587166414	3.1170912	1.7655286
14.065453030525108	3.0902832	1.7579201
14.083112809621026	3.050518	1.7465732
14.100772924892766	2.9585478	1.720043
14.118433376778997	2.9028342	1.7037705
14.136094165718458	2.8204193	1.6794105
14.153755292149969	2.7703068	1.6644238
14.171416756512416	2.7320957	1.6529052
14.189078559244768	2.6919942	1.6407298
14.20674070078606	2.6067884	1.6145551
14.224403181575408	2.5174134	1.5866358
14.242066002051999	2.4490223	1.5649352
14.259729162655093	2.4523056	1.5659839
14.277392663824022	2.470563	1.5718025
14.295056505998208	2.4569201	1.5674566
14.312720689617128	2.402822	1.5501039
14.330385215120348	2.375548	1.5412812
14.348050082947497	2.3776667	1.5419685
14.3657152935383	2.3774843	1.5419093
14.383380847332528	2.3684635	1.5389813
14.401046744770051	2.374934	1.541082
14.418712986290798	2.384317	1.5441233
14.436379572334793	2.4150333	1.5540378
14.454046503342123	2.4081519	1.5518221
14.471713779752946	2.4180005	1.5549921
14.489381402007504	2.3843393	1.5441306
14.507049370546113	2.3655412	1.5380316
14.524717685809168	2.3466785	1.5318872
14.542386348237134	2.4021363	1.5498827
14.560055358270553	2.454089	1.5665532
14.577724716350051	2.4666238	1.5705489
14.595394422916325	2.4315317	1.5593369
14.61306447841015	2.4207172	1.5558654
14.63073488327237	2.4433513	1.5631223
14.648405637943917	2.4853928	1.5765128
14.6660767428658	2.4839063	1.5760413
14.683748198479094	2.5475714	1.5961113
14.701420005224954	2.5659413	1.6018556
14.719092163544628	2.624114	1.6199118
14.73676467387942	2.6429865	1.6257265
14.754437536670727	2.6813505	1.637483
14.772110752360014	2.7145221	1.6475807
14.78978432138882	2.7321	1.6529065
14.807458244198777	2.7239623	1.6504431
14.82513252123159	2.673031	1.6349407
14.842807152929028	2.6692536	1.633785
14.860482139732962	2.6614475	1.6313944
14.87815748208531	2.6958277	1.6418976
14.8958331804281	2.6935794	1.6412128
14.91350923520342	2.660096	1.63098
14.931185646853438	2.6637537	1.632101
14.948862415820408	2.6244776	1.620024
14.966539542546656	2.630007	1.6217296
14.98421702747459	2.6069157	1.6145946
15.001894871046696	2.6192026	1.6183951
15.019573073705542	2.6622066	1.631627
15.037251635893766	2.6903882	1.6402403
15.054930558054092	2.7287192	1.6518835
15.072609840629323	2.757768	1.6606529
15.090289484062351	2.8723955	1.6948143
15.107969488796124	3.1277847	1.7685544
15.125649855273691	3.47245	1.8634511
15.14333058393817	4.023115	2.0057704
15.161011675232768	5.030619	2.2429042
15.17869312960076	6.3792763	2.525723
15.196374947485506	8.143546	2.85369
15.214057129330447	11.207508	3.3477616
15.231739675579114	16.05515	4.006888
15.249422586675102	21.231815	4.6077995
15.267105863062092	24.431358	4.9428086
15.284789505183847	24.628849	4.962746
15.302473513484218	22.49328	4.742708
15.320157888407127	18.937496	4.351723
15.337842630396578	14.783334	3.8449101
15.355527739896656	11.469318	3.3866382
15.37321321735153	8.899027	2.9831238
15.39089906320545	6.463812	2.5424027
15.408585277902748	4.8317704	2.198129
15.42627186188783	3.696738	1.9226903
15.443958815605198	3.1705134	1.7805935
15.461646139499424	2.9180534	1.7082311
15.479333834015168	2.77579	1.6660702
15.497021899597165	2.6681538	1.6334485
15.514710336690234	2.6522627	1.6285769
15.53239914573928	2.611285	1.6159471
15.550088327189297	2.5863836	1.6082237
15.567777881485336	2.5087376	1.5838995
15.58546780907256	2.4827468	1.5756735
15.6031581103962	2.4410582	1.5623887
15.620848785901568	2.4205492	1.5558114
15.638539836034063	2.4375284	1.5612586
15.656231261239173	2.47274	1.5724949
15.673923061962451	2.4914417	1.5784302
15.691615238649552	2.4795864	1.5746702
15.709307791746202	2.462842	1.5693444
15.727000721698221	2.4274182	1.5580174
15.744694028951498	2.4036605	1.5503743
15.76238771395202	2.3716204	1.5400066
15.780081777145844	2.383197	1.5437607
15.797776218979125	2.3604453	1.5363741
15.815471039898094	2.3388994	1.5293461
15.833166240349064	2.320363	1.5232738
15.850861820778437	2.3345575	1.5279258
15.868557781632699	2.3631377	1.53725
15.886254123358412	2.3649292	1.5378326
15.903950846402232	2.322277	1.5239019
15.921647951210897	2.324435	1.5246098
15.939345438231225	2.3590248	1.5359117
15.957043307910133	2.4113784	1.5528613
15.974741560694602	2.4431906	1.5630709
15.992440197031714	2.444932	1.5636278
16.01013921736862	2.4177365	1.5549072
16.02783862215259	2.3988426	1.5488198
16.045538411830933	2.4028096	1.5500998
16.06323858685107	2.4262319	1.5576366
16.080939147660512	2.4385095	1.5615728
16.09864009470684	2.419737	1.5555505
16.11634142843774	2.4162471	1.5544282
16.134043149300954	2.420171	1.5556899
16.15174525774433	2.4424498	1.5628339
16.169447754215817	2.4315948	1.5593572
16.18715063916342	2.41544	1.5541686
16.204853913035244	2.4569256	1.5674584
16.222557576279478	2.461909	1.5690472
16.240261629344403	22.438871	4.7369685
16.257966072678386	42.985428	6.5563273
16.275670906729868	38.10366	6.1728163
16.293376131947387	2.538977	1.5934167
16.31108174877957	2.504045	1.5824175
16.328787757675133	2.473134	1.5726202
16.34649415908287	2.4951842	1.5796152
16.364200953451657	2.535152	1.592216
16.38190814123048	2.5887487	1.6089588
16.39961572286839	2.6076229	1.6148136
16.41732369881455	2.6801324	1.637111
16.43503206951817	2.753225	1.6592845
16.45274083542859	2.8338606	1.6834074
16.47044999699522	2.81809	1.6787168
16.488159554667558	2.8198943	1.679254
16.505869508895184	2.831313	1.6826506
16.523579860127786	2.898715	1.7025613
16.541290608815117	2.9549086	1.7189847
16.559001755407035	3.0142758	1.736167
16.57671330035348	3.0626647	1.7500471
16.59442524410448	3.1185367	1.7659379
16.61213758711015	3.1779132	1.7826703
16.629850329820705	3.2313282	1.7975895
16.647563472686436	3.3237324	1.8231106
16.665277016157724	3.3673546	1.8350353
16.682990960685053	3.398781	1.8435783
16.70070530671898	3.4415798	1.8551495
16.718420054710155	3.5275707	1.8781828
16.736135205109335	3.5424917	1.8821508
16.753850758367335	3.5662184	1.8884434
16.771566714935087	3.6498241	1.9104513
16.789283075263597	3.7209625	1.9289796
16.80699983980398	3.801994	1.9498702
16.82471700900741	3.887041	1.9715581
16.84243458332518	3.9667866	1.9916793
16.860152563208665	4.0024757	2.000619
16.87787094910932	4.0074472	2.0018609
16.89558974147871	4.060577	2.0150874
16.913308940768466	4.1798744	2.0444741
16.931028547430333	4.255921	2.0629883
16.94874856191613	4.3110347	2.0763032
16.966468984677785	4.3500485	2.085677
16.98418981616729	4.376021	2.0918941
17.00191105683676	4.4574714	2.1112723
17.019632707138374	4.5077972	2.1231573
17.03735476752442	4.5621753	2.1359248
17.05507723844728	4.5620894	2.1359048
17.072800120359403	4.5875983	2.1418679
17.090523413713353	4.6021094	2.1452527
17.108247118961785	4.5742955	2.1387603
17.125971236557437	4.5695186	2.1376433
17.143695766953133	4.5450573	2.131914
17.161420710601806	4.598169	2.144334
17.179146067956477	4.6484127	2.1560178
17.19687183947025	4.6842647	2.1643162
17.21459802559634	4.6532364	2.1571362
17.232324626788028	4.6378565	2.1535683
17.25005164349871	4.673275	2.1617758
17.267779076181863	4.678011	2.162871
17.285506925291074	4.653192	2.157126
17.30323519127999	4.68554	2.1646109
17.320963874602384	4.6389914	2.1538317
17.33869297571211	4.6081243	2.1466541
17.356422495063114	4.526144	2.1274736
17.37415243310944	4.491522	2.119321
17.391882790305218	4.494463	2.120015
17.40961356710468	4.4985437	2.1209772
17.42734476396215	4.5191956	2.12584
17.445076381332044	4.5150776	2.1248713
17.462808419668868	4.599013	2.144531
17.48054087942723	4.730659	2.1750078
17.498273761061835	5.02137	2.2408414
17.51600706502747	5.485015	2.342011
17.533740791779024	6.2064915	2.4912832
17.551474941771485	7.688508	2.772816
17.56920951545993	8.87555	2.979186
17.586944513299528	11.122338	3.335017
17.60467993574556	12.703467	3.5641923
17.622415783253373	14.337158	3.786444
17.64015205627843	15.674645	3.9591217
17.657888755276293	16.796787	4.098388
17.675625880702604	17.311262	4.1606803
17.69336343301311	17.182873	4.1452227
17.71110141266366	16.351517	4.0437007
17.728839820110178	15.354133	3.9184349
17.746578655808705	14.309458	3.7827845
17.764317920215372	12.8183565	3.5802732
17.7820576137864	11.320931	3.364659
17.79979773697811	9.386316	3.0637095
17.81753829024692	7.492589	2.7372594
17.835279274049356	5.863645	2.4214964
17.85302068884201	4.860481	2.20465
17.870762535081607	4.2618217	2.064418
17.888504813224934	3.9394433	1.9848031
17.90624752372891	3.7576654	1.9384699
17.923990667050536	3.60663	1.8991129
17.941734243646895	3.513744	1.8744984
17.959478253975185	3.5052104	1.8722208
17.9772226984927	3.4887686	1.8678246
17.994967577656833	3.465513	1.8615888
18.01271289192506	3.4179542	1.848771
18.030458641754965	3.3725019	1.8364372
18.04820482760425	3.3317957	1.8253207
18.06595144993067	3.2893963	1.8136693
18.083698509192125	3.256202	1.804495
18.101446005846576	3.1926389	1.7867957
18.119193940352105	3.1814334	1.7836573
18.136942313166887	3.1821678	1.7838632
18.1546911247492	3.1936169	1.7870693
18.1724403755574	3.1741958	1.7816273
18.19019006604997	3.18716	1.7852619
18.207940196685467	3.216692	1.7935139
18.225690767922575	3.1996312	1.7887512
18.243441780220046	3.1087148	1.7631547
18.261193234036764	3.0388074	1.7432176
18.278945129831676	3.030901	1.7409483
18.29669746806386	3.0488546	1.746097
18.314450249192483	3.0755854	1.7537347
18.3322034736768	3.1010532	1.7609807
18.349957141976184	3.1049545	1.7620881
18.3677112545501	3.082757	1.7557782
18.385465811858108	3.0678172	1.7515185
18.403220814359884	3.0639958	1.7504274
18.420976262515172	3.1243806	1.7675917
18.43873215678387	3.1573687	1.7768986
18.456488497625923	3.154648	1.776133
18.474245285501407	3.2271893	1.796438
18.492002520870486	3.2851927	1.81251
18.50976020419343	3.3936727	1.8421924
18.527518335930615	3.701617	1.9239587
18.545276916542516	4.3377843	2.0827348
18.563035946489688	4.4765253	2.11578
18.580795426232832	4.8839865	2.2099743
18.598555356232698	4.7243595	2.1735592
18.616315736950185	5.0468984	2.2465303
18.63407656884626	4.723656	2.1733973
18.65183785238201	4.9173427	2.2175083
18.669599588018617	4.6805167	2.1634502
18.68736177621737	4.6854753	2.1645958
18.705124417439652	4.6856346	2.1646326
18.72288751214696	4.514627	2.1247652
18.740651060800886	4.669396	2.1608784
18.758415063863115	4.392254	2.0957704
18.77617952179546	4.589832	2.1423893
18.793944435059814	4.304234	2.0746648
18.811709804118184	4.304445	2.0747156
18.829475629432675	4.2484016	2.061165
18.8472419114655	4.0587916	2.0146444
18.86500865067897	4.154375	2.0382285
18.88277584753551	3.810321	1.9520044
18.90054350249763	3.768344	1.9412223
18.918311616027957	3.4143357	1.8477921
18.936080188589226	3.3039405	1.8176745
18.953849220644265	2.9974337	1.7313098
18.971618712656007	2.8244157	1.6805998
18.9893886650875	2.7883923	1.669848
19.007159078401887	7.9809384	2.8250554
19.024929953062408	32.856598	5.7320676
19.042701289532435	32.810745	5.7280664
19.060473088275405	25.401442	5.039984
19.07824534975489	2.684068	1.6383126
19.096018074434568	2.6369452	1.6238674
19.113791262778197	2.6429527	1.6257161
19.13156491524966	2.6439898	1.626035
19.149339032312945	2.633476	1.6227988
19.167113614432136	2.576086	1.605019
19.184888662071433	2.56585	1.6018271
19.202664175695123	2.5842955	1.6075745
19.220440155767623	2.580124	1.6062764
19.238216602753447	2.5267372	1.5895714
19.2559935171172	2.5079083	1.5836377
19.27377089932361	2.4981549	1.5805552
19.291548749837514	2.5007114	1.5813638
19.309327069123835	2.5028908	1.5820527
19.32710585764763	2.5045283	1.5825702
19.344885115874032	2.4989636	1.580811
19.362664844268313	2.4651477	1.5700788
19.380445043295822	2.474135	1.5729383
19.39822571342203	2.473276	1.5726652
19.41600685511252	2.4918582	1.5785621
19.43378846883297	2.5055313	1.582887
19.451570555049173	2.5235093	1.5885557
19.469353114227037	2.5130093	1.5852474
19.48713614683254	2.469246	1.5713835
19.50491965333182	2.4513357	1.5656742
19.52270363419109	2.4445872	1.5635176
19.540488089876686	2.440156	1.5620998
19.55827302085503	2.4561117	1.5671986
19.576058427592674	2.5008214	1.5813985
19.593844310556282	2.5603182	1.6000994
19.611630670212598	2.5609045	1.6002827
19.629417507028506	2.499053	1.5808393
19.64720482147098	2.4326174	1.559685
19.6649926140071	2.4162045	1.5544145
19.682780885104084	2.4477592	1.5645316
19.70056963522921	2.4952004	1.5796204
19.718358864849908	2.5476356	1.5961314
19.7361485744337	2.5517612	1.5974233
19.753938764448215	2.5327163	1.591451
19.771729435361202	2.518483	1.5869728
19.789520587640506	2.4984546	1.5806501
19.807312221754092	2.4476624	1.5645007
19.825104338170043	2.466872	1.5706279
19.842896937356517	2.5219777	1.5880736
19.860690019781824	2.4918869	1.5785712
19.87848358591436	2.406824	1.5513942
19.896277636222635	2.3714883	1.5399637
19.914072171175278	2.4029543	1.5501466
19.931867191241015	2.4474347	1.5644279
19.94966269688869	2.468885	1.5712686
19.967458688587264	2.4545357	1.5666958
19.985255166805807	2.467973	1.5709784
20.00305213201348	2.4927018	1.5788293
20.020849584679578	2.5080762	1.5836906
20.038647525273507	2.5020907	1.5817999
20.05644595426477	2.49786	1.580462
20.07424487212299	2.5176842	1.5867212
20.092044279317903	2.50058	1.5813223
20.109844176319353	2.441606	1.5625639
20.127644563597304	2.3696034	1.5393516
20.145445441621817	2.337702	1.5289545
20.16324681086307	2.342167	1.530414
20.181048671791373	2.3827126	1.5436038
20.198851024877122	2.3666897	1.538405
20.216653870590836	2.3942606	1.5473399
20.234457209403146	2.3865712	1.5448531
20.252261041784802	2.3973339	1.5483326
20.270065368206662	2.354547	1.5344533
20.287870189139685	2.338947	1.5293616
20.305675505054968	2.3484728	1.5324727
20.323481316423702	2.3592649	1.5359899
20.341287623717207	2.3471215	1.5320318
20.359094427406884	2.3328214	1.5273577
20.376901727964288	2.347241	1.5320708
20.39470952586107	2.3407288	1.5299441
20.41251782156899	2.3151102	1.5215486
20.430326615559935	2.3161843	1.5219015
20.448135908305886	2.3391278	1.5294207
20.465945700278965	2.3231993	1.5242045
20.483755991951384	2.2951293	1.5149684
20.50156678379548	2.2720075	1.507318
20.519378076283708	2.3242075	1.5245352
20.537189869888635	2.3482633	1.5324044
20.55500216508294	2.3640153	1.5375354
20.572814962339415	2.3512657	1.5333837
20.59062826213098	2.352718	1.5338572
20.60844206493066	2.3189793	1.5228195
20.626256371211593	2.2874498	1.5124317
20.644071181447032	2.2951694	1.5149816
20.66188649611036	2.3189888	1.5228226
20.67970231567506	2.340685	1.5299298
20.697518640614742	2.3349051	1.5280397
20.715335471403122	2.308502	1.5193756
20.73315280851404	2.2963133	1.5153592
20.750970652421447	2.2838945	1.511256
20.768789003599412	2.2767117	1.5088776
20.786607862522136	2.2699845	1.5066468
20.8044272296639	2.2331374	1.4943686
20.82224710549913	2.2500935	1.5000311
20.84006749050237	2.2833014	1.5110596
20.857888385148268	3.8858063	1.9712448
20.8757097899116	45.992065	6.781745
20.893531705267254	64.85482	8.053249
20.911354131690224	83.81876	9.155259
20.92917706965566	69.07298	8.311016
20.94700051963877	50.131435	7.0803556
20.96482448211493	29.384903	5.4207845
20.982648957559622	4.0762124	2.018963
21.00047394644843	2.1863644	1.478636
21.01829944925707	2.22034	1.4900806
21.036125466461375	2.2384727	1.4961526
21.053951998537297	2.203964	1.4845754
21.071779045960906	2.1958988	1.4818566
21.089606609208378	2.2079062	1.4859025
21.10743468875603	2.2254345	1.491789
21.12526328508028	2.2182903	1.4893926
21.143092398657675	2.1991086	1.4829391
21.16092202996488	2.1854067	1.4783121
21.17875217947867	2.2033708	1.4843756
21.19658284767596	2.1937685	1.4811375
21.21441403503377	2.1908946	1.480167
21.232245742029225	2.170829	1.4733734
21.2500779691396	2.14355	1.4640868
21.26791071684227	2.1351085	1.4612011
21.28574398561475	2.152163	1.4670253
21.30357777593465	2.1682217	1.4724883
21.321412088279704	2.186059	1.4785327
21.339246923127792	2.1851566	1.4782275
21.357082280956888	2.1667035	1.4719726
21.3749181622451	2.1453018	1.4646848
21.392754567470647	2.150505	1.46646
21.41059149711187	2.1652014	1.4714624
21.42842895164726	2.1922393	1.4806212
21.446266931555378	2.197848	1.4825141
21.464105437314945	2.189386	1.4796574
21.481944469404798	2.1512716	1.4667214
21.49978402830388	2.1299078	1.4594203
21.51762411449127	2.1070023	1.4515517
21.53546472844617	2.0775514	1.4413713
21.553305870647876	2.0672867	1.4378062
21.571147541575865	2.0554793	1.4336942
21.58898974170967	2.038154	1.4276392
21.60683247152899	2.061449	1.4357747
21.62467573151363	2.0914602	1.4461882
21.642519522143523	2.0789444	1.4418545
21.660363843898722	2.06583	1.4372995
21.6782086972594	2.0664523	1.437516
21.696054082705864	2.0898967	1.4456475
21.713900000718535	2.0977554	1.4483631
21.73174645177795	2.0615976	1.4358264
21.749593436364794	2.044966	1.4300231
21.767440954959845	2.025263	1.4231174
21.785289008044032	2.0400202	1.4282928
21.803137596098388	2.0375302	1.4274209
21.820986719604086	1.998774	1.4137801
21.838836379042412	1.9590981	1.3996779
21.85668657489478	1.9514946	1.3969591
21.87453730764273	1.9954621	1.4126083
21.892388577767914	2.0052452	1.4160668
21.91024038575213	1.997282	1.4132522
21.928092732077285	1.9749287	1.4053216
21.945945617225426	1.9895647	1.4105192
21.963799041678694	2.0055294	1.4161671
21.981653005919398	31.331802	5.5974817
21.999507510429943	78.13125	8.839189
22.01736255569286	73.04415	8.546587
22.035218142190818	4.1135364	2.0281854
22.05307427040661	1.9569315	1.3989036
22.07093094082315	2.013616	1.4190195
22.088788153923474	2.012893	1.4187646
22.106645910190746	2.0086854	1.4172809
22.12450421010827	2.0064545	1.4164938
22.142363054159464	2.0219467	1.4219517
22.16022244282787	1.9899633	1.4106606
22.178082376597164	1.9879551	1.4099486
22.195942855951145	2.0082605	1.4171311
22.213803881373742	2.005858	1.4162831
22.231665453349002	1.9654583	1.401948
22.24952757236111	1.9436226	1.3941387
22.26739023889438	1.9456306	1.3948586
22.28525345343323	1.9586848	1.3995302
22.30311721646225	1.9540118	1.3978597
22.320981528466113	1.9543589	1.3979839
22.33884638992964	1.9473724	1.3954829
22.356711801337788	1.9499352	1.3964008
22.37457776317561	1.9304804	1.3894173
22.392444275928337	1.9052447	1.380306
22.410311340081282	1.9391712	1.3925413
22.428178956119904	1.974292	1.405095
22.446047124529805	1.9978138	1.4134405
22.46391584579669	2.0000381	1.414227
22.481785120406414	1.9849677	1.4088888
22.49965494884496	1.9807038	1.4073749
22.51752533159841	1.9577506	1.3991964
22.53539626915302	1.9727811	1.4045572
22.553267761995137	1.9645193	1.4016131
22.571139810611264	1.9923658	1.4115119
22.589012415488025	1.9486563	1.3959428
22.60688557711216	1.9223279	1.3864805
22.624759295970566	1.9197105	1.3855362
22.642633572550263	1.9251789	1.3875082
22.660508407338362	1.9237641	1.3869983
22.67838380082217	1.9265852	1.3880148
22.696259753489077	1.9762223	1.4057817
22.714136265826614	1.9807829	1.4074029
22.73201333832246	1.947647	1.3955812
22.74989097146439	1.8958195	1.3768877
22.76776916574035	1.880254	1.3712236
22.785647921638393	1.8697894	1.3674024
22.803527239646712	1.8923684	1.3756338
22.82140712025363	1.9100155	1.3820331
22.839287563947593	1.9170299	1.3845685
22.85716857121719	1.8859979	1.3733164
22.875050142551135	1.8473382	1.3591682
22.892932278438277	1.8289155	1.352374
22.910814979367604	1.852693	1.3611367
22.928698245828222	1.8779671	1.3703895
22.946582078309387	1.9359444	1.3913822
22.96446647730047	1.9427549	1.3938274
22.98235144329098	1.9312543	1.3896958
23.000236976770562	1.9022521	1.3792216
23.018123078229	1.8846035	1.3728086
23.03600974815619	1.858695	1.3633397
23.053896987042194	1.8601888	1.3638874
23.071784795377173	1.848129	1.359459
23.08967317365145	1.8837763	1.3725073
23.10756212235546	1.9114406	1.3825486
23.125451641979787	1.948	1.3957077
23.143341733015134	1.9505833	1.3966329
23.161232395952357	1.8973761	1.3774527
23.179123631282426	1.864831	1.3655882
23.197015439496468	1.8913145	1.3752507
23.214907821085717	1.9271679	1.3882247
23.23280077654157	1.9022717	1.3792287
23.250694306355538	1.9242642	1.3871785
23.268588411019277	1.9623961	1.4008555
23.28648309102458	1.9712116	1.4039984
23.304378346863356	1.9316914	1.389853
23.322274179027676	1.9376363	1.3919901
23.340170588009723	1.9510922	1.3968151
23.358067574301852	1.9134436	1.3832728
23.37596513839651	1.8794643	1.3709356
23.39386328078629	1.8927873	1.3757861
23.411762001963947	1.9272674	1.3882606
23.429661302422353	1.955609	1.398431
23.4475611826545	1.9900032	1.4106747
23.46546164315356	2.017496	1.420386
23.48336268441279	2.0051453	1.4160315
23.501264306925638	1.9693599	1.4033388
23.51916651118564	1.9736471	1.4048655
23.537069297686497	1.9512987	1.396889
23.554972666922037	1.9325622	1.3901663
23.57287661938623	1.9021207	1.3791739
23.59078115557318	1.9091755	1.3817291
23.608686275977128	1.9120615	1.3827732
23.62659198109246	1.9528466	1.3974429
23.6444982714137	1.9545279	1.3980443
23.66240514743549	1.9375697	1.3919661
23.68031260965263	1.8951918	1.3766596
23.698220658560068	1.8970772	1.3773443
23.716129294652845	1.8803129	1.371245
23.7340385184262	1.9054736	1.380389
23.75194833037546	1.9414301	1.3933522
23.769858730996123	1.9586129	1.3995045
23.78776972078382	1.922941	1.3867015
23.80568130023431	1.8601215	1.3638628
23.823593469843495	1.8296303	1.3526382
23.841506230107424	1.8545643	1.3618239
23.859419581522275	1.9265027	1.3879851
23.87733352458438	1.940109	1.3928779
23.89524805979019	1.8981489	1.3777332
23.913163187636318	1.8871086	1.3737206
23.931078908619508	1.9251015	1.3874803
23.948995223236633	1.9706533	1.4037995
23.966912131984735	1.9996333	1.414084
23.98482963536096	2.013118	1.4188439
24.002747733862616	1.9792205	1.4068477
24.020666427987155	1.9921027	1.4114187
24.038585718232156	2.0201087	1.4213053
24.056505605095353	1.9606653	1.4002376
24.074426089074617	1.9672164	1.4025749
24.092347170667946	2.0014713	1.4147336
24.110268850373515	2.066471	1.4375225
24.128191128689586	2.0788534	1.4418229
24.146114006114626	2.0377693	1.4275045
24.164037483147187	2.034474	1.4263499
24.181961560286005	2.044893	1.4299976
24.199886238029926	2.0578294	1.4345137
24.21781151687797	2.0654943	1.4371828
24.235737397329274	2.0910366	1.4460417
24.253663879883135	2.085348	1.4440733
24.271590965038975	2.0701928	1.4388164
24.289518653296376	2.0081382	1.4170879
24.30744694515505	2.0063374	1.4164524
24.32537584111486	2.042052	1.4290038
24.34330534167581	2.0492296	1.4315131
24.361235447338046	2.00903	1.4174026
24.379166158601876	2.0074983	1.4168621
24.39709747596772	2.0109832	1.4180914
24.41502939993615	2.0356143	1.4267496
24.432961931007917	2.0206687	1.4215022
24.450895069683856	2.0260835	1.4234056
24.468828816465	2.0168202	1.4201479
24.4867631718525	1.9554564	1.3983763
24.504698136347656	1.9458292	1.3949298
24.52263371045192	1.9293226	1.3890005
24.540569894666874	1.9390515	1.3924983
24.558506689494266	1.9384443	1.3922802
24.57644409543597	1.9702309	1.4036491
24.594382112994012	1.9948956	1.4124078
24.61232074267057	1.9877402	1.4098724
24.630259984967953	1.9734766	1.4048048
24.64819984038863	1.9629743	1.4010619
24.66614030943522	1.9941206	1.4121333
24.684081392610462	1.9984324	1.4136592
24.702023090417274	1.9774212	1.406208
24.7199654033587	2.0069342	1.416663
24.737908331937927	1.9852637	1.4089938
24.755851876658305	1.9553128	1.398325
24.773796038023324	1.9956466	1.4126736
24.79174081653661	2.0392842	1.4280351
24.809686212701962	2.0619385	1.4359452
24.827632227023294	2.0741644	1.4401959
24.8455788600047	2.0543573	1.4333029
24.8635261121504	2.0789416	1.4418535
24.88147398396475	2.0989702	1.4487823
24.899422475952303	2.0945213	1.4472461
24.917371588617698	2.0733738	1.4399215
24.935321322465768	2.1252744	1.4578321
24.953271678001478	2.2485664	1.4995221
24.97122265572994	2.4406006	1.5622422
24.989174256156414	2.780215	1.6673977
25.00712647978632	3.2013257	1.7892249
25.02507932712521	3.7561314	1.9380741
25.043032798678798	4.3273954	2.0802393
25.060986894952933	5.0507092	2.2473783
25.078941616453637	5.839444	2.4164941
25.096896963687055	6.7950993	2.6067412
25.114852937159508	7.8570538	2.8030436
25.132809537377444	8.284684	2.8783128
25.150766764847468	8.290235	2.8792768
25.168724620076347	7.7850266	2.7901661
25.186683103570985	6.7272334	2.593691
25.204642215838426	5.6459703	2.376125
25.222601957385894	4.3128366	2.076737
25.24056232872074	3.275847	1.8099301
25.25852333035048	2.601116	1.6127975
25.276484962782778	2.2031446	1.4842993
25.294447226525435	1.9713874	1.4040611
25.312410122086423	1.9099534	1.3820106
25.330373649973843	1.9161552	1.3842525
25.348337810695988	1.9350032	1.3910439
25.366302604761245	1.901847	1.3790747
25.384268032678207	1.8904572	1.374939
25.40223409495558	1.9145387	1.3836685
25.420200792102257	1.9602917	1.4001042
25.438168124627246	1.9336258	1.3905487
25.45613609303974	1.9184564	1.3850836
25.474104697849057	1.8842837	1.3726921
25.492073939564698	1.8566502	1.3625895
25.510043818696285	1.8469878	1.3590393
25.528014335753614	1.8429348	1.3575474
25.54598549124664	1.8754537	1.369472
25.56395728568544	1.8778726	1.3703549
25.58192971958028	1.8327355	1.3537856
25.59990279344156	1.7614452	1.3271945
25.617876507779833	1.8070105	1.3442509
25.635850863105826	1.8724384	1.3683708
25.653825859930386	1.8575482	1.362919
25.671801498764548	1.8583139	1.3631998
25.68977778011949	1.8415041	1.3570203
25.707754704506524	1.8565353	1.3625474
25.725732272437153	1.8541558	1.3616738
25.743710484423012	1.8815641	1.3717012
25.761689340975888	1.9118366	1.3826919
25.77966884260774	1.9140594	1.3834953
25.797648989830662	1.8643109	1.3653977
25.815629783156922	1.8138816	1.3468043
25.83361122309895	1.8276694	1.3519132
25.85159331016929	1.8153764	1.3473591
25.869576044880695	1.819123	1.3487487
25.887559427746034	1.8029853	1.3427529
25.90554345927836	1.7896533	1.3377793
25.92352813999086	1.7966162	1.3403791
25.94151347039689	1.8554188	1.3621376
25.959499451009965	1.837123	1.3554051
25.97748608234374	1.837623	1.3555895
25.995473364912062	1.8405414	1.3566655
26.013461299228904	1.8283385	1.3521607
26.03144988580839	1.8121128	1.3461474
26.04943912516483	1.8300054	1.3527769
26.067429017812675	1.8594515	1.3636171
26.085419564266537	1.8329049	1.3538482
26.103410765041186	1.8186625	1.348578
26.12140262065155	1.7936997	1.3392907
26.139395131612723	1.801439	1.342177
26.157388298439948	1.8141644	1.3469092
26.17538212164861	1.8010814	1.3420438
26.193376601754295	1.7671504	1.3293421
26.211371739272714	1.7652562	1.3286294
26.229367534719746	1.809904	1.3453267
26.247363988611433	1.8218222	1.349749
26.26536110146397	1.8212056	1.3495206
26.283358873793727	1.7964622	1.3403217
26.301357306117204	1.7843162	1.335783
26.319356398951104	1.7983675	1.3410323
26.33735615281224	1.8456583	1.3585501
26.35535656821762	1.8946949	1.3764791
26.373357645684404	1.8931048	1.3759015
26.39135938572991	1.8424447	1.3573668
26.409361788871614	1.8046775	1.3433828
26.427364855627165	1.7761707	1.3327305
26.445368586514352	1.808973	1.3449806
26.46337298205115	1.8472213	1.3591251
26.48137804275568	1.8488384	1.35972
26.499383769146217	1.8364016	1.3551389
26.517390161741215	1.8194343	1.3488641
26.53539722105928	1.8222194	1.3498961
26.553404947619182	1.8170886	1.3479943
26.571413341939856	1.8106332	1.3455977
26.589422404540397	1.7768915	1.3330009
26.60743213594006	1.7992729	1.3413697
26.62544253665827	1.7930281	1.33904
26.64345360721459	1.8264219	1.3514518
26.66146534812879	1.8083303	1.3447417
26.679477759920758	1.8145523	1.3470532
26.69749084311057	1.7574011	1.32567
26.71550459821847	1.7401079	1.3191315
26.733519025764842	1.7647618	1.3284434
26.751534126270258	1.7644295	1.3283182
26.769549900255434	1.777185	1.333111
26.787566348241267	1.7768664	1.3329915
26.80558347074881	1.8096094	1.3452172
26.823601268299267	1.8262228	1.3513781
26.841619741414036	1.8312739	1.3532457
26.85963889061465	1.8478026	1.359339
26.877658716422832	1.8670354	1.366395
26.89567921936045	1.8029616	1.342744
26.913700399949544	1.7522119	1.3237114
26.93172225871233	1.7903649	1.3380451
26.949744796171174	1.8390062	1.3560996
26.967768012848605	1.8346976	1.3545101
26.98579190926733	1.8670335	1.3663943
27.003816485950225	1.8790448	1.3707825
27.021841743420318	1.8290166	1.3524114
27.039867682200814	1.7734764	1.3317193
27.057894302815072	1.7700073	1.3304162
27.07592160578664	1.811788	1.3460268
27.0939495916392	1.854744	1.3618898
27.111978260896635	1.8402479	1.3565574
27.13000761408296	1.7829964	1.3352889
27.148037651722397	1.7524577	1.3238043
27.166068374339304	1.7298967	1.3152554
27.184099782458215	1.7722296	1.3312511
27.20213187660384	1.8001431	1.3416941
27.22016465730105	1.8566021	1.3625718
27.23819812507487	1.8638005	1.3652108
27.256232280450533	1.7953187	1.339895
27.274267123953383	1.7684745	1.3298401
27.292302656108987	1.7340227	1.316823
27.31033887744306	1.738247	1.318426
27.32837578848146	1.7854617	1.3362117
27.34641338975026	1.802996	1.3427569
27.364451681775673	1.7525696	1.3238465
27.382490665084074	1.7306322	1.315535
27.400530340202046	1.7438855	1.3205626
27.41857070765629	1.754512	1.32458
27.436611767973726	1.7947507	1.339683
27.454653521681404	1.8405864	1.3566822
27.472695969306564	1.8713529	1.367974
27.490739111376627	1.8756081	1.3695284
27.508782948419153	1.8534039	1.3613977
27.526827480961902	1.800332	1.3417645
27.54487270953279	1.777921	1.333387
27.562918634659898	1.7796814	1.334047
27.580965256871508	1.7957804	1.3400673
27.599012576696026	1.8539509	1.3615986
27.617060594662068	1.8876874	1.3739314
27.63510931129842	1.8424237	1.357359
27.65315872713401	1.7961684	1.3402121
27.67120884269797	1.7879308	1.3371353
27.68925965851958	1.7938166	1.3393344
27.707311175128307	1.7849251	1.3360109
27.725363393053787	1.8200194	1.3490809
27.74341631282583	1.8649235	1.365622
27.7614699349744	1.8490005	1.3597796
27.77952426002968	2.0151386	1.4195558
27.797579288521973	2.0628226	1.436253
27.815635020981784	2.5481584	1.5962952
27.83369145793979	2.642787	1.6256651
27.85174859992682	2.442883	1.5629725
27.869806447473923	2.232827	1.4942647
27.887865001112267	1.9910616	1.4110498
27.905924261373233	1.8696568	1.3673539
27.92398422878836	1.8242784	1.3506585
27.94204490388936	1.8137573	1.3467581
27.96010628720813	1.8400458	1.3564829
27.978168379276728	1.8469489	1.359025
27.9962311806274	1.8495785	1.3599921
28.014294691792568	1.8228127	1.3501158
28.0323589133048	1.8200904	1.3491073
28.050423845696887	1.8563775	1.3624895
28.068489489501758	1.8696795	1.3673623
28.086555845252523	1.8431153	1.3576138
28.104622913482487	1.8368411	1.3553011
28.122690694725115	1.8640745	1.3653111
28.14075918951405	1.8863621	1.373449
28.15882839838312	1.8977287	1.3775808
28.176898321866304	1.8878506	1.3739908
28.1949689604978	1.9367943	1.3916875
28.213040314811945	1.9843471	1.4086685
28.23111238534327	1.9476508	1.3955826
28.249185172626493	1.895901	1.3769172
28.267258677196473	1.893198	1.3759353
28.285332899588294	1.9161038	1.3842341
28.303407840337172	1.9174181	1.3847086
28.321483499978545	1.921987	1.3863574
28.33955987904799	1.9568789	1.3988849
28.357636978081285	1.9750392	1.4053609
28.37571479761439	1.919613	1.385501
28.393793338183425	1.8976418	1.3775492
28.41187260032469	1.9438922	1.3942354
28.429952584574686	2.0263836	1.423511
28.448033291470065	2.046669	1.4306184
28.46611472154769	1.9938163	1.4120256
28.484196875344566	1.9495968	1.3962796
28.502279753397914	1.9502686	1.3965201
28.52036335624511	1.947174	1.3954117
28.538447684423716	1.9867038	1.4095048
28.556532738471482	1.9705433	1.4037604
28.574618518926325	1.963458	1.4012344
28.59270502632635	1.9410967	1.3932325
28.61079226120985	1.958762	1.3995578
28.628880224115274	2.0061498	1.4163861
28.646968915581287	2.0478158	1.4310192
28.66505833614671	2.0346684	1.4264181
28.68314848635055	2.0264888	1.423548
28.701239366732004	2.0412703	1.4287302
28.71933097783044	2.0869887	1.4446414
28.737423320185403	2.1185114	1.4555107
28.75551639433665	2.139712	1.4627755
28.773610200824074	2.144621	1.4644524
28.791704740187793	2.1977994	1.4824977
28.80980001296809	2.1740594	1.4744692
28.827896019705413	2.1052158	1.4509362
28.845992760940433	2.0873249	1.4447577
28.86409023721397	2.080266	1.4423127
28.88218844906704	2.1275713	1.4586197
28.900287397040845	2.2137885	1.4878806
28.918387081676755	2.2014892	1.4837416
28.936487503516343	2.1620355	1.4703861
28.954588663101365	2.2404084	1.4967993
28.97269056097374	2.345912	1.5316371
28.990793197675597	2.3580413	1.5355915
29.00889657374923	2.3604975	1.536391
29.027000689737125	2.370223	1.5395529
29.04510554618196	2.3484297	1.5324587
29.06321114362659	2.3939714	1.5472465
29.08131748261405	2.4274006	1.5580118
29.099424563687567	2.463095	1.569425
29.11753238739057	2.4541674	1.5665783
29.13564095426663	2.54979	1.5968062
29.15375026485954	2.6258774	1.6204559
29.171860319713275	2.6800056	1.6370722
29.18997111937199	2.7146413	1.6476169
29.20808266438002	2.7524407	1.6590481
29.226194955281898	2.7055933	1.6448689
29.244307992622335	2.775694	1.6660414
29.26242177694624	2.862821	1.6919873
29.2805363087987	2.931938	1.7122903
29.29865158872498	2.9603498	1.7205667
29.316767617270557	2.9695947	1.7232512
29.334884394981064	3.0074887	1.7342113
29.353001922402367	3.0590892	1.7490252
29.37112020008047	3.1201546	1.7663959
29.389239228561596	3.2265868	1.7962703
29.407359008392152	3.4131613	1.8474743
29.42547954011872	3.7641103	1.9401315
29.44360082428809	4.3928394	2.09591
29.46172286144722	5.3762984	2.3186846
29.479845652143283	6.8692183	2.6209195
29.497969196923606	8.873593	2.9788578
29.516093496335728	11.538234	3.3967977
29.5342185509274	14.343004	3.787216
29.55234436124651	16.520737	4.064571
29.570470927841175	17.835665	4.2232294
29.588598251259686	17.528156	4.186664
29.60672633205055	16.24935	4.0310483
29.624855170762405	14.09628	3.7545013
29.642984767944146	11.316833	3.36405
29.66111512414481	8.715701	2.9522367
29.67924623991366	6.5803857	2.5652263
29.697378115800138	5.0781727	2.2534802
29.71551075235387	4.1077814	2.0267663
29.733644150124675	3.683448	1.919231
29.751778309662576	3.5202038	1.8762206
29.769913231517766	3.4085248	1.8462191
29.78804891624066	3.3472672	1.8295538
29.806185364381818	3.3722072	1.836357
29.82432257649206	3.4089086	1.846323
29.842460553122333	3.374063	1.8368623
29.86059929482382	3.3319438	1.8253613
29.878738802147872	3.3633034	1.8339311
29.896879075646048	3.3359034	1.8264456
29.915020115870114	3.2918878	1.814356
29.933161923371976	3.343898	1.8286328
29.951304498703777	3.3176713	1.8214476
29.969447842417857	3.2306821	1.7974099
29.987591955066733	3.170313	1.7805372
30.005736837203123	3.213596	1.7926506
30.023882489379943	3.208752	1.791299
30.04202891215028	3.1856987	1.7848526
30.060176106067455	3.2075365	1.7909596
30.078324071684946	3.1571755	1.7768443
30.09647280955646	3.1873403	1.7853124
30.114622320235863	3.139178	1.7717726
30.132772604277257	3.0716603	1.7526152
30.1509236622349	3.056981	1.7484225
30.16907549466328	3.0912507	1.7581953
30.18722810211705	3.0733376	1.7530937
30.205381485151097	3.0578208	1.7486626
30.22353564432045	3.041002	1.7438469
30.241690580180403	3.0598176	1.7492334
30.25984629328638	3.059323	1.7490921
30.278002784194037	2.9707778	1.7235944
30.296160053459246	2.9234996	1.7098244
30.314318101638033	2.881339	1.6974508
30.332476929286646	2.8705635	1.6942737
30.35063653696153	2.8964744	1.7019031
30.368796925219307	2.978331	1.7257842
30.386958094616844	3.01687	1.7369139
30.40512004571115	2.9648721	1.7218804
30.423282779059463	2.9234488	1.7098095
30.441446295219233	2.9211109	1.7091258
30.459610594748067	2.9132988	1.7068388
30.47777567820382	2.8815782	1.6975212
30.495941546144504	2.8689892	1.693809
30.51410819912835	2.8416655	1.685724
30.532275637713795	2.8083394	1.6758101
30.55044386245946	2.8306317	1.6824481
30.56861287392416	2.8029957	1.674215
30.586782672666956	2.7663016	1.6632203
30.604953259247047	2.7728448	1.6651862
30.623124634223885	2.7843547	1.6686386
30.641296798157075	2.7486427	1.6579031
30.659469751606462	2.7110546	1.646528
30.677643495132074	2.6871476	1.6392522
30.695818029294152	2.7345183	1.6536379
30.713993354653116	2.7924955	1.6710762
30.73216947176962	2.7534196	1.6593431
30.75034638120448	2.7421227	1.6559355
30.768524083518756	2.7384715	1.6548327
30.786702579273673	2.7541196	1.659554
30.80488186903069	2.7836053	1.668414
30.82306195335144	2.8873456	1.6992191
30.841242832797782	3.094551	1.7591336
30.85942450793176	3.4042974	1.8450738
30.877606979315637	3.7288268	1.931017
30.895790247511883	4.089509	2.0222535
30.913974313083134	4.489113	2.1187527
30.932159176592283	4.782121	2.1868062
30.95034483860237	4.903094	2.214293
30.968531299676698	4.7168503	2.1718311
30.98671856037873	4.3410788	2.0835257
31.00490662127215	3.9946887	1.9986718
31.023095482920848	3.5975904	1.8967315
31.04128514588892	3.1079814	1.7629468
31.059475610740662	2.8096325	1.6761959
31.07766687804056	2.6776686	1.6363584
31.09585894835335	2.5155785	1.5860575
31.11405182224393	2.4381852	1.561469
31.132245500277417	2.4921136	1.578643
31.15043998301914	2.4963937	1.579998
31.168635271034628	2.4719205	1.5722343
31.18683136488964	2.4832308	1.575827
31.20502826515008	2.4483476	1.5647197
31.223225972382135	2.3930736	1.5469562
31.241424487152155	2.350793	1.5332296
31.259623810026692	2.3576355	1.5354594
31.27782394157253	2.4257894	1.5574945
31.296024882356644	2.4378936	1.5613755
31.314226632946237	2.3759868	1.5414237
31.332429193908684	2.4528472	1.5661569
31.350632565811598	2.581953	1.6068457
31.368836749222787	2.6247902	1.6201204
31.387041744710295	2.5541947	1.5981848
31.40524755284232	2.478987	1.5744799
31.423454174187317	2.5447836	1.5952377
31.441661609313922	2.5396912	1.5936409
31.459869858791002	2.5215158	1.5879282
31.478078923187628	2.4568746	1.567442
31.496288803073064	2.340518	1.5298752
31.514499499016807	2.295155	1.5149769
31.532711011588546	2.3708043	1.5397416
31.550923341358178	2.3516586	1.5335119
31.56913648889584	2.2979448	1.5158974
31.587350454771844	2.2509453	1.5003151
31.605565239556732	2.259897	1.5032954
31.62378084382127	2.3007066	1.516808
31.641997268136382	2.294577	1.5147861
31.660214513073274	2.25131	1.5004367
31.67843257920331	2.233927	1.4946327
31.6966514670981	2.2811956	1.5103627
31.71487117732944	2.2703161	1.5067568
31.733091710469346	2.2644649	1.5048139
31.751313067090052	2.3156245	1.5217175
31.769535247764008	2.3286877	1.5260038
31.787758253063878	2.3268113	1.525389
31.805982083562526	2.343379	1.5308099
31.824206739833024	2.3072948	1.5189782
31.84243222244869	2.217429	1.4891034
31.860658531983013	2.19947	1.4830611
31.878885669009737	2.214317	1.4880582
31.897113634102784	2.21041	1.4867448
31.91534242783632	2.2393258	1.4964377
31.933572050784694	2.2916281	1.5138124
31.951802503522508	2.295784	1.5151845
31.970033786624548	2.2564793	1.5021582
31.988265900665834	2.2541883	1.5013955
32.006498846221575	2.2759433	1.508623
32.02473262386724	2.2163322	1.4887351
32.04296723417845	2.1440344	1.4642521
32.0612026777311	2.1636374	1.4709308
32.07943895510129	2.1644702	1.4712138
32.097676066865304	2.0765483	1.4410233
32.115914013599685	2.1031406	1.4502208
32.13415279588115	2.0987723	1.448714
32.152392414286666	2.058408	1.4347153
32.1706328693934	2.0480595	1.4311043
32.18887416177875	2.1293545	1.4592308
32.20711629202032	2.2018042	1.4838477
32.225359260695924	2.200729	1.4834853
32.243603068383614	2.2057822	1.4851875
32.26184771566166	2.142474	1.4637192
32.28009320310852	2.0948129	1.4473468
32.2983395313029	2.0879867	1.4449867
32.31658670082372	2.1634657	1.4708724
32.33483471225012	2.2163541	1.4887425
32.35308356616143	2.2523446	1.5007813
32.371333263137245	2.2180042	1.4892966
32.38958380375734	2.2102618	1.4866949
32.407835188601744	2.1876595	1.4790739
32.42608741825067	2.0847664	1.443872
32.444340493284585	1.9814069	1.4076246
32.46259441428416	1.996947	1.4131337
32.48084918183028	2.082986	1.4432554
32.49910479650405	2.0872886	1.4447452
32.51736125888683	2.0217032	1.421866
32.53561856956014	1.9789144	1.4067389
32.5538767291058	1.9541329	1.3979031
32.572135738105764	1.9486997	1.3959583
32.59039559714228	1.925187	1.3875111
32.608656306797776	1.9805751	1.4073291
32.62691786765491	2.0564349	1.4340276
32.645180280296586	2.1410372	1.4632283
32.663443545305896	2.0676355	1.4379275
32.68170766326619	1.9605428	1.4001938
32.69997263476099	1.9776858	1.4063022
32.7182384603741	2.0246637	1.4229068
32.7365051406895	2.0367365	1.4271427
32.75477267629144	1.9649398	1.4017631
32.77304106776434	1.8653378	1.3657737
32.79131031569289	1.9103705	1.3821615
32.809580420661966	2.000804	1.4144977
32.827851383256714	2.0343633	1.426311
32.84612320406245	2.0157418	1.4197682
32.86439588366476	2.002303	1.4150275
32.88266942264945	1.9544417	1.3980135
32.9009438216025	1.9236792	1.3869677
32.9192190811102	1.9020677	1.3791547
32.937495201758985	1.9836683	1.4084276
32.95577218413556	2.0033302	1.4153905
32.974050028826866	1.9878675	1.4099176
32.992328736420035	1.9791031	1.406806
33.010608307502444	2.0582662	1.4346659
33.02888874266169	2.0333018	1.425939
33.047170042485604	2.0362997	1.4269898
33.06545220756225	1.9977571	1.4134203
33.083735238479896	1.985016	1.408906
33.10201913582707	1.91586	1.384146
33.12030390019248	1.9356174	1.3912647
33.138589532165135	1.8930913	1.3758966
33.15687603233419	1.8427795	1.3574902
33.17516340128909	1.9092824	1.3817679
33.19345163961947	2.026974	1.4237183
33.211740747915215	2.0180027	1.4205643
33.23003072676643	1.9156525	1.384071
33.248321576763466	1.8457348	1.3585782
33.266613298496885	1.8751574	1.3693639
33.28490589255747	1.9064305	1.3807355
33.30319935953626	1.9141444	1.3835261
33.32149370002451	1.8987664	1.3779573
33.339788914613706	1.9589355	1.3996198
33.358085003895575	1.9611329	1.4004046
33.376381968462034	1.9165642	1.3844004
33.39467980890529	1.9344358	1.3908399
33.41297852581774	2.0029848	1.4152684
33.43127811979204	1.9722028	1.4043514
33.44957859142105	1.9021409	1.3791813
33.467879941297866	1.8718611	1.3681598
33.486182170015844	1.7737814	1.3318338
33.50448527816853	1.7844173	1.3358208
33.522789266349754	1.8596151	1.363677
33.541094135153514	1.9505073	1.3966056
33.55939988517411	1.9055647	1.3804219
33.57770651700602	1.8804777	1.3713051
33.59601403124398	1.8430557	1.3575919
33.61432242848296	1.9533995	1.3976407
33.632631709318154	1.976765	1.4059747
33.650941874344994	1.9013598	1.378898
33.66925292415916	1.8721504	1.3682655
33.68756485935654	1.8398741	1.3564196
33.70587768053328	1.8323573	1.3536459
33.724191388285746	1.9003713	1.3785396
33.74250598321054	1.9886081	1.4101802
33.760821465904506	2.0650773	1.4370377
33.77913783696474	2.0319002	1.4254473
33.79745509698852	2.0244572	1.4228343
33.815773246573414	1.9588104	1.3995751
33.8340922863172	1.889506	1.374593
33.852412216817896	1.984152	1.4085993
33.87073303867377	2.01344	1.4189574
33.889054752483304	1.9700001	1.403567
33.907377358845245	1.9161459	1.3842492
33.92570085835853	1.8765601	1.3698759
33.94402525162239	1.9446604	1.3945109
33.96235053923627	1.9825324	1.4080243
33.980676721799824	1.8676344	1.3666142
33.999003799912984	1.8734187	1.3687289
34.01733177417592	2.0053432	1.4161015
34.03566064518901	2.0794137	1.4420172
34.0539904135529	1.9502614	1.3965176
34.07232107986846	1.8109355	1.34571
34.090652644736785	1.7973876	1.3406669
34.108985108759235	1.8808739	1.3714496
34.12731847253742	1.8197874	1.348995
34.14565273667313	1.7747337	1.3321913
34.16398790176847	1.7806762	1.3344198
34.18232396842574	1.8041726	1.343195
34.20066093724749	1.9839435	1.4085252
34.21899880883651	2.038713	1.4278351
34.23733758379583	2.036603	1.427096
34.25567726272874	1.897004	1.3773177
34.27401784623872	1.9322164	1.3900418
34.29235933492957	2.0438828	1.4296443
34.31070172940526	1.858993	1.363449
34.32904503027003	1.7741097	1.3319571
34.347389238128386	1.9454838	1.394806
34.36573435358502	2.0368803	1.4271932
34.38408037724492	1.9961945	1.4128674
34.402427309713296	1.9428065	1.3938459
34.42077515159559	1.9269599	1.3881499
34.43912390349752	1.9309434	1.3895838
34.45747356602499	1.9745979	1.4052038
34.47582413978423	2.019284	1.4210151
34.49417562538163	2.057615	1.434439
34.51252802342388	2.0383928	1.4277229
34.53088133451789	1.8543309	1.3617382
34.54923555927084	1.703252	1.305087
34.567590698290104	1.8574846	1.3628956
34.58594675218336	2.1145735	1.4541574
34.6043037215585	2.0661416	1.437408
34.62266160702365	1.9516307	1.3970078
34.641020409187234	2.0034647	1.4154379
34.65938012865785	1.9574494	1.3990887
34.677740766044394	1.8603773	1.3639565
34.69610232195598	1.8537276	1.3615166
34.714464797002016	1.869552	1.3673156
34.73282819179208	1.9156076	1.3840548
34.751192506936064	2.0155566	1.419703
34.76955774304408	2.1048071	1.4507953
34.7879239007265	2.1755068	1.47496
34.80629098059391	2.089148	1.4453886
34.824658983257194	1.9515561	1.3969811
34.843027909327446	1.8676249	1.3666108
34.86139775941603	1.9821336	1.4078827
34.879768534134534	1.9288841	1.3888427
34.89814023409483	1.808939	1.3449681
34.91651285990901	1.7316706	1.3159295
34.93488641218944	1.6658205	1.2906667
34.95326089154871	1.7082953	1.3070177
34.97163629859967	1.8432807	1.3576747
34.99001263395542	1.8449535	1.3582907
35.00838989822934	1.8088515	1.3449355
35.02676809203499	1.7282425	1.3146263
35.04514721598624	1.7273692	1.3142942
35.063527270697215	1.6533147	1.2858129
35.081908256782256	1.8524132	1.3610339
35.10029017485597	1.8634511	1.3650829
35.11867302553321	1.7442508	1.3207009
35.137056809429104	1.8805901	1.3713461
35.155441527159006	2.13913	1.4625765
35.173827179338524	2.0948875	1.4473727
35.19221376658354	1.9305475	1.3894414
35.21060128951017	2.014022	1.4191625
35.2289897487348	1.9338616	1.3906336
35.24737914487405	1.8417906	1.3571259
35.26576947854479	1.8962348	1.3770384
35.28416075036418	2.1519887	1.4669658
35.30255296094958	2.266086	1.5053525
35.32094611091867	2.273494	1.507811
35.33934020088932	2.276781	1.5089006
35.35773523147969	2.0792062	1.4419453
35.3761312033082	1.9986554	1.4137381
35.394528116993506	2.1973112	1.4823331
35.41292597315452	2.28102	1.5103046
35.431324772410434	2.1447942	1.4645116
35.449724515380666	2.4761307	1.5735726
35.46812520268491	2.4355776	1.5606338
35.486526834943106	2.0952232	1.4474885
35.504929412775454	1.9548287	1.3981519
35.52333293680242	1.8751227	1.3693511
35.54173740764471	1.684755	1.2979811
35.560142825923286	1.5244447	1.234684
35.5785491922594	1.4450114	1.2020862
35.59695650727454	1.4957781	1.2230201
35.61536477159042	1.4857981	1.2189332
