0.008763373481513119	0.0	0.0
0.026290120649546365	0.0	0.0
0.043816868432600686	0.0	0.0
0.06134361724069026	0.0	0.0
0.07887036748382949	0.05312639	0.23049162
0.0963971195720331	0.15839194	0.39798483
0.11392387391531617	0.14273846	0.37780744
0.1314506309236943	0.121898554	0.34913972
0.1489773910071836	0.019099072	0.13819939
0.16650415457580078	0.046603564	0.21587859
0.18403092203956356	0.14290845	0.37803236
0.20155769380849	0.18897407	0.4347115
0.2190844702925996	0.2464357	0.49642292
0.2366112519019124	0.1937419	0.44016123
0.2541380390464497	0.11108001	0.33328667
0.27166483213623416	0.07980367	0.28249544
0.28919163158128947	0.10921573	0.33047804
0.3067184377916406	0.12456755	0.35294127
0.324245251177314	0.21830611	0.4672324
0.34177207214833777	0.18128052	0.4257705
0.3592989011147415	0.15471028	0.39333227
0.37682573848655654	0.088914275	0.29818496
0.39435258467381573	0.1251193	0.35372207
0.41187944008655414	0.14520574	0.3810587
0.42940630513480854	0.15950167	0.3993766
0.446933180228618	0.113105215	0.3363112
0.4644600657780234	0.102129675	0.31957734
0.48198696219306775	0.09477502	0.30785552
0.49951386988379676	0.10911783	0.33032987
0.5170407892602581	0.10846324	0.32933757
0.5345677207325025	0.12609124	0.3550933
0.5520946647105822	0.16802527	0.40990886
0.5696216216045534	0.20161816	0.4490191
0.5871485918244737	0.21184504	0.46026626
0.6046755757804043	0.15520112	0.39395574
0.6222025738824094	0.15007079	0.38738972
0.6397295865405557	0.14881766	0.38576892
0.6572566141649129	0.17888147	0.4229438
0.6747836571655547	0.19425729	0.44074628
0.6923107159525568	0.16180594	0.4022511
0.7098377909359992	0.18501998	0.43013948
0.7273648825259653	0.1964825	0.44326347
0.7448919911325411	0.20168215	0.44909036
0.762419117165817	0.1840737	0.4290381
0.7799462610358868	0.18473674	0.42981014
0.7974734231528482	0.17744468	0.42124182
0.8150006039268024	0.19202738	0.4382093
0.8325278037678551	0.18742695	0.43292835
0.8500550230861152	0.20947626	0.45768577
0.8675822622916969	0.20766988	0.45570812
0.8851095217947171	0.18098773	0.42542654
0.9026368020052984	0.15128194	0.38894978
0.9201641033335665	0.17987256	0.42411384
0.9376914261896523	0.21670733	0.46551836
0.9552187709836915	0.22230506	0.47149238
0.9727461381258234	0.21146725	0.45985568
0.990273528026193	0.21995138	0.46898973
1.0078009410949496	0.2590381	0.50895786
1.0253283777422473	0.27743196	0.5267181
1.0428558383782454	0.33173257	0.5759623
1.0603833234131086	0.33026284	0.574685
1.0779108332570058	0.36434153	0.6036071
1.0954383683201119	0.32241282	0.56781405
1.112965929012607	0.35529256	0.5960642
1.1304935157446763	0.5053795	0.7109005
1.1480211289265108	0.53499544	0.7314338
1.1655487689683062	1.3179824	1.1480342
1.1830764362802655	1.5714866	1.2535895
1.200604131272596	2.0742366	1.4402211
1.2181318543555117	2.4718716	1.5722187
1.235659605939232	2.5580275	1.5993835
1.253187386433982	4.1947565	2.0481105
1.270715196249994	6.4725285	2.5441165
1.2882430357975057	11.783817	3.4327564
1.3057709054867608	16.173435	4.0216208
1.3232988057280106	22.064342	4.69727
1.3408267369315112	27.220453	5.2173223
1.358354699507526	31.13115	5.5795293
1.3758826938663256	35.35085	5.945658
1.3934107204181858	37.2263	6.101336
1.410938779573391	37.657093	6.1365376
1.4284668717422309	38.09917	6.1724524
1.4459949973350033	37.792103	6.147528
1.4635231567620117	38.011345	6.165334
1.4810513504335687	37.598675	6.131776
1.4985795787599925	37.15186	6.0952325
1.5161078421516088	37.109234	6.091735
1.5336361410187505	36.294483	6.0244904
1.5511644757717598	36.462185	6.0383925
1.5686928468209842	36.261147	6.021723
1.58622125457678	36.607647	6.0504255
1.6037496994495108	37.23443	6.102002
1.621278181849548	36.97289	6.0805335
1.6388067021872719	37.77524	6.146157
1.6563352608730693	37.172947	6.096962
1.673863858317336	36.325054	6.027027
1.6913924949304753	35.589066	5.965657
1.7089211711228998	34.536396	5.8767676
1.7264498873050296	34.031384	5.8336425
1.7439786438872935	33.187416	5.760852
1.7615074412801288	32.375294	5.689929
1.779036279893981	31.425455	5.605841
1.796565160139305	30.604385	5.532123
1.814094082426564	29.91052	5.4690514
1.8316230471662298	29.335382	5.416215
1.849152054768784	28.700882	5.3573203
1.8666811056447168	28.024805	5.293846
1.8842102002045273	26.9115	5.1876297
1.901739338858724	26.194561	5.118062
1.9192685220178245	25.497398	5.0494947
1.9367977500923557	25.036787	5.0036774
1.9543270234928547	24.540808	4.953868
1.971856342629867	23.880478	4.8867655
1.9893857079139496	23.568104	4.854699
2.006915119755667	22.979208	4.7936635
2.0244445785655945	22.21831	4.71363
2.0419740847543175	21.942719	4.6843057
2.0595036387324317	21.681044	4.6562905
2.0770332409105414	21.348856	4.6204824
2.094562891699263	20.811079	4.5619164
2.1120925915092217	20.18984	4.4933105
2.129622340751053	19.93468	4.464827
2.1471521398354043	188.299	13.722208
2.1646819891729323	444.66385	21.087053
2.182211889174303	440.65228	20.99172
2.1997418402501974	452.64566	21.27547
2.2172718428113023	432.71027	20.80169
2.234801897268317	320.9092	17.913939
2.2523320040319548	17.73511	4.2113075
2.269862163512935	17.361746	4.166743
2.287392376121992	16.775154	4.0957484
2.304922642269869	16.400188	4.0497146
2.322452962367322	16.049837	4.0062246
2.3399833368251164	15.716132	3.9643576
2.357513766054032	15.513708	3.9387445
2.3750442504648586	15.211112	3.9001427
2.3925747904683963	14.889831	3.8587344
2.410105386475459	14.763778	3.8423662
2.4276360388968707	14.61353	3.8227646
2.445166748143469	14.65134	3.8277068
2.4626975146261025	14.236754	3.7731624
2.4802283387556323	14.029526	3.745601
2.4977592209429305	13.565109	3.6830842
2.5152901615988825	13.237309	3.6383114
2.5328211611343865	12.883169	3.5893133
2.5503522199603523	12.64943	3.5566037
2.5678833384877024	12.544454	3.541815
2.5854145171273712	12.399149	3.5212426
2.6029457562903064	12.227377	3.4967666
2.620477056387469	11.9147415	3.4517736
2.6380084178298326	11.716458	3.4229312
2.655539841028383	11.531097	3.395747
2.673071326394119	11.492386	3.390042
2.6906028743380523	11.338698	3.3672984
2.708134485271211	11.322347	3.3648696
2.7256661596046325	11.245215	3.3533885
2.743197897749369	10.893511	3.3005319
2.760729700116486	10.755179	3.279509
2.778261567117063	10.5584545	3.2493775
2.795793499162193	10.500964	3.240519
2.8133254966629817	10.467525	3.2353554
2.830857560030551	10.171431	3.189268
2.8483896896760337	9.992465	3.161086
2.865921886010578	9.901013	3.1465876
2.883454149445347	9.927838	3.1508472
2.9009864803915177	9.900426	3.1464942
2.91851887926028	9.711012	3.1162496
2.9360513464628384	9.3559	3.0587416
2.953583882410413	8.983705	2.997283
2.9711164875142373	8.944073	2.9906642
2.9886491621855606	8.877712	2.979549
3.0061819068356455	8.74464	2.9571338
3.023714721875769	8.645547	2.940331
3.041247607717225	8.448745	2.9066725
3.0587805647713213	8.42767	2.903045
3.0763135934493806	8.276331	2.8768613
3.0938466941627407	8.218081	2.8667197
3.1113798673227544	8.084488	2.8433235
3.1289131133407904	7.9592705	2.821218
3.1464464326282315	7.820285	2.7964773
3.1639798255964786	7.7221684	2.778879
3.1815132926569443	7.752809	2.7843866
3.1990468342210603	7.7022877	2.7752995
3.216580450700272	7.5851326	2.754112
3.2341141425060416	7.513726	2.7411177
3.251647910049847	7.420939	2.72414
3.2691817537431813	7.2654276	2.6954458
3.286715673997555	7.181873	2.6799016
3.3042496712244938	7.198721	2.6830432
3.32178374583554	7.278156	2.6978056
3.339317898242251	7.3326235	2.7078817
3.3568521288562034	7.1115026	2.6667402
3.3743864380889876	6.95936	2.6380599
3.3919208263522127	6.8647213	2.6200614
3.4094552940575023	6.7947197	2.6066682
3.4269898416164972	6.7287664	2.5939865
3.444524469440858	6.69831	2.5881093
3.4620591779422587	6.6758466	2.583766
3.479593967532391	6.6603117	2.5807579
3.4971288386229658	6.6729	2.5831957
3.5146637916257086	6.59886	2.5688245
3.5321988269523628	6.4953346	2.5485947
3.5497339450146903	6.328771	2.5157049
3.5672691462244708	6.2451267	2.499025
3.5848044309934988	6.332947	2.5165346
3.60233979973359	6.400187	2.529859
3.619875252856575	6.4518924	2.5400577
3.6374107907743034	6.4533267	2.54034
3.6549464138986427	6.5082183	2.551121
3.6724821226414788	6.49236	2.548011
3.690017917414714	6.37395	2.5246682
3.7075537986302702	6.338806	2.5176985
3.7250897667000857	6.302089	2.5103962
3.7426258220361235	6.5230436	2.554025
3.7601619650503553	6.9158797	2.629806
3.777698196154779	7.536662	2.7452981
3.7952345157614067	8.4361315	2.904502
3.8127709242822716	9.225816	3.0374029
3.830307422129425	11.32224	3.3648536
3.847844009714936	12.704031	3.5642715
3.8653806874508954	16.117218	4.0146255
3.882917455749409	15.790486	3.9737246
3.900454315022606	16.13081	4.016318
3.917991265682631	13.147625	3.6259654
3.9355283081416506	11.212622	3.3485253
3.9530654428118495	8.907727	2.9845815
3.970602670105433	7.67396	2.7701914
3.9881399904346244	6.7074494	2.5898745
4.005677404211669	6.6236153	2.5736384
4.023214911848827	6.4465036	2.5389967
4.0407525137583855	6.424895	2.5347376
4.058290210352644	6.4917755	2.5478964
4.075828002043927	6.5721245	2.5636156
4.0933658892445814	6.5577397	2.5608084
4.110903872366966	6.486423	2.5468457
4.128441951823468	6.314525	2.512872
4.145980128026488	6.3062496	2.5112247
4.163518401388452	6.2007494	2.4901304
4.181056772321807	6.2048006	2.4909437
4.1985952412390155	6.146182	2.4791496
4.216133808552567	6.186875	2.4873428
4.233672474674966	6.213599	2.4927092
4.251211240018741	6.403545	2.5305226
4.268750104996445	6.640504	2.5769174
4.286289070020643	7.5964622	2.7561681
4.303828135503928	9.364661	3.0601735
4.3213673018589125	29.750063	5.454362
4.3389065694982305	90.9385	9.536168
4.356445938834537	166.16199	12.890384
4.3739854102805085	171.80948	13.107612
4.391524984248844	172.77162	13.144262
4.409064661152262	136.90063	11.700455
4.426604441403504	97.06361	9.852086
4.444144325415337	75.78375	8.705386
4.461684313600543	21.56167	4.6434546
4.47922440637193	21.83681	4.672987
4.496764604142329	20.162989	4.4903216
4.5143049073245916	18.45009	4.2953568
4.531845316331589	16.529734	4.0656776
4.5493858315762195	13.853963	3.7220912
4.566926453471405	11.601601	3.4061122
4.584467182430081	9.492308	3.0809588
4.602008018865218	8.330185	2.886206
4.619548963189798	7.6308055	2.7623913
4.637090015816834	7.154017	2.6746993
4.654631177159353	6.989881	2.6438384
4.672172447630417	6.6644616	2.5815618
4.689713827643102	6.4414287	2.537997
4.7072553176105085	6.080304	2.4658272
4.724796917945764	5.95827	2.4409568
4.742338629062015	5.8999314	2.4289775
4.759880451372434	5.8273315	2.4139867
4.777422385290215	5.7417045	2.3961854
4.794964431228581	5.759321	2.3998585
4.812506589600768	5.8801804	2.4249084
4.830048860820047	5.901861	2.4293747
4.847591245299709	5.871659	2.4231505
4.8651337434530655	5.764922	2.4010253
4.882676355693457	5.6593294	2.3789346
4.900219082434242	5.622051	2.3710864
4.917761924088813	5.507642	2.3468366
4.935304881070575	5.519863	2.349439
4.952847953792969	5.527492	2.3510618
4.970391142669449	5.5137453	2.3481367
4.9879344481135055	5.5277286	2.3511121
5.005477870538642	5.4664164	2.3380368
5.023021410358394	5.4427147	2.3329628
5.040565067986324	5.39072	2.3217924
5.05810884383601	5.413486	2.32669
5.075652738321066	5.4137444	2.3267455
5.09319675185512	5.4662457	2.3380003
5.110740884851836	5.4339914	2.3310924
5.128285137724894	5.468265	2.338432
5.145829510888007	5.433046	2.3308895
5.163374004754908	5.4231853	2.3287733
5.1809186197393595	5.443924	2.333222
5.198463356255145	5.445571	2.3335748
5.216008214716077	5.406924	2.3252792
5.233553195535998	5.3547916	2.3140423
5.251098299128764	5.329573	2.3085868
5.268643525908272	5.2773314	2.2972443
5.286188876288432	5.281882	2.2982345
5.3037343506831895	5.3059683	2.3034687
5.32127994950651	5.2905	2.3001087
5.3388256731723915	5.27912	2.2976336
5.356371522094851	5.184001	2.2768402
5.373917496687938	5.145191	2.2683015
5.391463597365729	5.105909	2.259626
5.40900982454232	5.1508703	2.269553
5.426556178631843	5.182763	2.2765682
5.444102660048449	5.1677456	2.2732675
5.4616492692063225	5.217068	2.2840903
5.479196006519669	5.211909	2.2829607
5.496742872402727	5.210388	2.2826276
5.514289867269756	5.21371	2.283355
5.531836991535049	5.153873	2.2702143
5.549384245612924	5.1986904	2.2800636
5.566931629917724	5.1631794	2.272263
5.584479144863822	5.1756682	2.2750094
5.6020267908656205	5.219745	2.284676
5.619574568337545	5.2277694	2.2864316
5.637122477694054	5.308991	2.3041248
5.654670519349629	5.2900763	2.3000166
5.672218693718784	5.2508464	2.2914724
5.689767001216059	5.213721	2.2833574
5.707315442256021	5.137577	2.2666223
5.724864017253266	5.213376	2.2832818
5.7424127266224225	5.172322	2.2742739
5.75996157077814	5.228027	2.2864878
5.777510550135105	5.179189	2.2757833
5.795059665108022	5.2222514	2.2852247
5.812608916111639	5.2639985	2.2943406
5.830158303560715	5.386108	2.3207989
5.847707827870055	5.381773	2.3198647
5.86525748945448	5.422207	2.3285632
5.8828072887288485	5.560431	2.3580565
5.900357226108044	5.607749	2.3680687
5.917907302006979	5.6817217	2.3836362
5.9354575168406	6.352718	2.52046
5.9530078710238765	6.995783	2.6449542
5.970558364971812	7.609746	2.7585769
5.988108999099438	7.932933	2.8165462
6.005659773821818	8.415455	2.9009404
6.023210689554039	8.093923	2.844982
6.040761746711227	8.421875	2.9020467
6.058312945708531	7.790158	2.7910855
6.075864286961132	7.351231	2.7113154
6.093415770884244	6.6945662	2.587386
6.1109673978931065	6.1642675	2.4827943
6.128519168402993	5.595079	2.365392
6.146071082829204	5.43168	2.3305964
6.163623141587075	5.330799	2.3088524
6.181175345091969	5.264241	2.2943935
6.198727693759281	5.2663035	2.2948427
6.216280188004435	5.229256	2.2867568
6.233832828242885	5.2111654	2.2827978
6.251385614890126	5.2423067	2.2896085
6.268938548361669	5.2022657	2.2808475
6.286491629073067	5.1965423	2.2795925
6.304044857439898	5.186655	2.277423
6.321598233877777	5.1431036	2.267841
6.339151758802344	5.079341	2.2537394
6.356705432629277	4.929328	2.220209
6.37425925577428	4.9507	2.2250168
6.391813228653095	4.9615355	2.2274504
6.409367351681486	5.0138555	2.239164
6.426921625275259	5.095013	2.2572136
6.44447604985025	5.1394324	2.2670317
6.46203062582232	5.129326	2.2648015
6.47958535360737	4.9859247	2.2329185
6.497140233621328	4.963189	2.2278216
6.514695266280161	4.937504	2.2220495
6.532250451999859	5.045896	2.2463071
6.549805791196454	5.069046	2.251454
6.567361284286002	5.113424	2.2612882
6.584916931684597	5.096894	2.25763
6.602472733808367	5.0863643	2.255297
6.6200286910734665	5.1154838	2.2617435
6.637584803896092	5.1298747	2.2649226
6.655141072692462	5.136854	2.2664628
6.672697497878842	5.098426	2.2579694
6.690254079871514	5.038395	2.244637
6.707810819086808	4.9984727	2.2357264
6.725367715941078	5.021112	2.2407837
6.742924770850719	5.018782	2.240264
6.760481984232151	4.9995656	2.2359707
6.778039356501836	4.9812565	2.2318728
6.795596888076266	4.940089	2.2226312
6.813154579371963	4.9572506	2.2264884
6.830712430805492	5.025043	2.2416608
6.84827044279344	5.0807166	2.2540445
6.865828615752445	5.082409	2.2544198
6.883386950099159	5.075818	2.2529576
6.900945446250287	5.0309567	2.2429795
6.918504104622553	4.9962406	2.235227
6.936062925632727	4.9940705	2.2347417
6.953621909697607	5.0735483	2.2524538
6.971181057234028	5.1743975	2.2747302
6.988740368658859	5.284145	2.2987268
7.006299844389007	5.324742	2.3075402
7.023859484841407	5.3215184	2.3068416
7.041419290433036	5.317038	2.3058703
7.058979261580902	5.3880844	2.3212247
7.0765393987020495	5.6855536	2.38444
7.094099702213559	6.1153045	2.4729142
7.111660172532549	6.5501776	2.5593314
7.129220810076164	6.8664055	2.6203828
7.146781615261595	7.4095964	2.7220573
7.16434258850606	7.5439234	2.7466204
7.181903730226821	7.9734206	2.8237245
7.1994650408411704	8.060076	2.8390272
7.217026520766437	8.280178	2.8775299
7.234588170419983	8.49855	2.9152274
7.252149990219215	8.497549	2.9150555
7.269711980581568	8.388653	2.896317
7.2872741419245175	8.190639	2.8619292
7.304836474665574	7.895687	2.8099265
7.322398979222286	7.6298547	2.7622192
7.339961656012233	7.2866764	2.6993845
7.357524505453039	6.966799	2.6394694
7.375087527962357	6.7081585	2.5900114
7.392650723957886	6.454448	2.5405607
7.410214093857353	6.1238117	2.4746337
7.427777638078528	5.8533044	2.4193604
7.445341357039213	5.6374297	2.3743272
7.4629052511572525	5.5108676	2.3475237
7.480469320850524	5.4854336	2.3421001
7.498033566536948	5.4549546	2.3355844
7.5155979886344735	5.343315	2.311561
7.5331625875610975	5.2846932	2.298846
7.550727363734844	5.193214	2.2788625
7.568292317573788	5.222026	2.2851753
7.585857449496025	5.2099214	2.2825253
7.603422759919705	5.2730765	2.296318
7.620988249263007	5.286039	2.2991388
7.638553917944147	5.3105845	2.3044705
7.656119766381391	5.2841544	2.298729
7.673685794993023	5.2884417	2.2996612
7.691252004197388	5.2493234	2.29114
7.70881839441285	5.233569	2.2876995
7.726384966057826	5.2556353	2.2925172
7.743951719550762	5.2700076	2.2956498
7.761518655310149	5.299511	2.3020666
7.779085773754511	5.354891	2.3140638
7.796653075302419	5.3538427	2.3138373
7.814220560372475	5.353486	2.31376
7.831788229383323	5.412228	2.3264196
7.8493560827536495	5.3980846	2.3233778
7.866924120902174	5.4178104	2.327619
7.884492344247663	5.3659267	2.316447
7.9020607532089135	5.410034	2.325948
7.919629348204771	5.405632	2.3250015
7.937198129654115	5.3585496	2.3148541
7.954767097975865	5.339777	2.3107958
7.972336253588986	5.3414173	2.3111506
7.989905596912472	5.375756	2.3185675
8.007475128365371	5.402294	2.3242836
8.025044848366756	5.470218	2.3388498
8.042614757335754	5.659665	2.379005
8.060184855691523	5.738533	2.3955235
8.07775514385327	5.8561306	2.4199443
8.095325622240228	5.9073024	2.4304943
8.112896291271687	5.8865476	2.426221
8.130467151366968	5.870888	2.4229915
8.148038202945436	5.9531693	2.4399118
8.165609446426497	6.065398	2.462803
8.183180882229594	6.132497	2.476388
8.200752510774217	6.088298	2.4674475
8.218324332479893	5.991278	2.4477088
8.235896347766193	5.975255	2.4444335
8.253468557052724	5.9885345	2.4471483
8.27104096075914	6.0336194	2.4563427
8.288613559305137	6.1328983	2.476469
8.306186353110448	6.2506065	2.5001214
8.32375934259485	6.2882586	2.5076401
8.341332528178162	6.2640343	2.5028052
8.358905910280246	6.245246	2.499049
8.376479489321003	6.231738	2.496345
8.394053265720377	6.325965	2.5151472
8.411627239898356	6.402941	2.5304034
8.42920141227497	6.372896	2.5244596
8.44677578327029	6.373136	2.524507
8.464350353304427	6.3149037	2.5129473
8.48192512279754	6.2935095	2.5086868
8.499500092169827	6.281752	2.5063424
8.51707526184153	6.158605	2.4816537
8.534650632232934	6.1761975	2.4851956
8.552226203764365	6.196038	2.4891841
8.569801976856192	6.311137	2.5121977
8.587377951928834	6.3612714	2.522156
8.60495412940274	6.415372	2.5328584
8.622530509698416	6.4106627	2.5319285
8.6401070932364	6.5453806	2.5583942
8.657683880437283	6.7167897	2.591677
8.675260871721695	6.8985863	2.626516
8.692838067510303	7.0426407	2.6537974
8.710415468223834	7.1224427	2.6687906
8.727993074283043	7.2799478	2.6981378
8.745570886108737	7.297091	2.7013128
8.763148904121765	7.323446	2.7061865
8.78072712874302	7.264059	2.6951919
8.798305560393441	7.4515886	2.7297597
8.815884199494006	7.6294894	2.7621531
8.833463046465745	7.7643785	2.7864635
8.851042101729728	7.906422	2.811836
8.86862136570707	8.202807	2.8640544
8.886200838818924	8.400031	2.8982806
8.903780521486505	8.494235	2.9144871
8.921360414131055	8.602611	2.9330208
8.938940517173874	8.752993	2.9585457
8.956520831036297	8.886396	2.981006
8.97410135613971	9.128791	3.021389
8.99168209290554	9.264644	3.0437877
9.009263041755265	9.606423	3.0994232
9.026844203110405	9.849455	3.138384
9.044425577392525	10.059319	3.1716428
9.062007165023239	10.172065	3.1893675
9.079588966424197	10.426562	3.2290187
9.097170982017108	10.487282	3.2384074
9.11475321222372	11.395869	3.3757768
9.132335657465825	12.279108	3.5041559
9.149918318165264	12.435612	3.5264163
9.167501194743924	12.97158	3.6016078
9.18508428762374	12.671901	3.5597613
9.202667597226693	12.612101	3.551352
9.220251123974803	12.255863	3.5008376
9.237834868290143	11.956786	3.4578586
9.255418830594836	11.73547	3.425707
9.273003011311046	11.16687	3.3416867
9.290587410860985	10.945292	3.308367
9.308172029666911	10.346312	3.2165682
9.32575686815113	10.081532	3.1751428
9.343341926735997	8.827032	2.9710321
9.360927205843916	8.55825	2.9254487
9.378512705897327	8.388397	2.896273
9.396098427318728	8.160167	2.8566005
9.413684370530664	8.090395	2.844362
9.431270535955722	7.975662	2.8241215
9.448856924016539	7.953725	2.8202348
9.466443535135806	7.932283	2.8164308
9.484030369736251	7.9460244	2.8188694
9.501617428240658	7.850039	2.8017921
9.519204711071852	7.875716	2.8063707
9.536792218652714	7.914308	2.813238
9.55437995140617	8.008967	2.8300118
9.571967909755191	7.9791627	2.8247411
9.589556094122802	7.885412	2.8080976
9.60714450493207	7.8230977	2.7969801
9.624733142606116	7.836092	2.799302
9.642322007568108	7.912606	2.8129354
9.659911100241267	7.9880295	2.8263102
9.677500421048851	7.988773	2.8264418
9.695089970414175	7.9826355	2.8253558
9.712679748760609	8.048088	2.8369153
9.730269756511557	8.156434	2.8559473
9.747859994090492	8.23195	2.8691375
9.765450461920915	8.239919	2.8705258
9.78304116042639	8.257631	2.8736095
9.800632090030527	8.238019	2.870195
9.81822325115699	8.220646	2.867167
9.835814644229481	8.267291	2.8752897
9.853406269671762	8.395709	2.897535
9.870998127907646	8.44199	2.9055102
9.888590219360985	8.431868	2.9037678
9.906182544455698	8.435739	2.9044342
9.923775103615734	8.394855	2.8973875
9.941367897265108	8.390461	2.8966293
9.958960925827878	8.3199415	2.884431
9.97655418972816	8.37188	2.89342
9.994147689390106	8.388427	2.8962781
10.011741425237934	8.409214	2.8998644
10.029335397695904	8.321259	2.8846593
10.04692960718833	8.312557	2.8831506
10.06452405413958	8.305023	2.8818438
10.082118738974064	8.2618475	2.874343
10.099713662116246	8.319517	2.8843572
10.117308823990651	8.316911	2.8839054
10.134904225021844	8.32334	2.88502
10.152499865634445	8.265765	2.8750243
10.170095746253125	8.24655	2.8716807
10.18769186730261	8.226907	2.8682585
10.205288229207675	8.217983	2.8667026
10.222884832393145	8.162604	2.8570273
10.2404816772839	8.259187	2.8738801
10.258078764304868	8.288763	2.8790212
10.275676093881035	8.252466	2.8727107
10.293273666437438	8.163545	2.8571918
10.310871482399158	8.224379	2.8678176
10.32846954219134	8.292336	2.8796418
10.346067846239173	8.407984	2.8996522
10.363666394967908	8.41733	2.9012635
10.38126518880283	8.437283	2.9047
10.398864228169298	8.384466	2.8955944
10.416463513492713	8.251568	2.8725543
10.434063045198531	8.202739	2.8640423
10.451662823712262	8.18416	2.8607972
10.469262849459467	8.201406	2.8638096
10.486863122865758	8.090485	2.8443778
10.504463644356806	8.185957	2.8611112
10.522064414358338	8.150391	2.854889
10.539665433296118	8.096715	2.8454728
10.557266701595987	7.96829	2.822816
10.574868219683818	7.793498	2.7916837
10.592469987985552	7.726409	2.7796419
10.610072006927185	7.6419783	2.7644129
10.627674276934751	7.5515385	2.7480063
10.64527679843435	7.4046445	2.7211475
10.662879571852143	7.295022	2.7009299
10.680482597614331	7.174723	2.6785674
10.698085876147173	7.1089106	2.666254
10.715689407876988	7.0728645	2.6594858
10.733293193230146	7.010301	2.6476972
10.750897232633072	6.9495745	2.6362045
10.76850152651225	6.8230114	2.6120894
10.786106075294207	6.6869984	2.5859232
10.803710879405534	6.6024423	2.569522
10.821315939272877	6.471719	2.5439572
10.83892125532294	6.4083304	2.5314682
10.856526827982472	6.2790236	2.505798
10.874132657678285	6.257273	2.501454
10.891738744837243	6.280227	2.5060382
10.909345089886271	6.2468557	2.499371
10.926951693252343	6.187286	2.4874256
10.944558555362494	6.12253	2.4743748
10.96216567664381	6.052789	2.4602418
10.979773057523436	6.0000415	2.4494982
10.997380698428573	5.9150963	2.4320972
11.014988599786477	5.8095145	2.4102933
11.032596762024461	5.7588267	2.3997555
11.050205185569892	5.763569	2.4007435
11.067813870850198	5.697198	2.3868804
11.085422818292859	5.6152315	2.369648
11.10303202832541	5.5223856	2.3499756
11.120641501375454	5.4699464	2.3387916
11.138251237870636	5.4418993	2.332788
11.155861238238671	5.4335556	2.330999
11.173471502907317	5.310394	2.304429
11.191082032304402	5.1886225	2.2778547
11.208692826857805	5.0857177	2.2551537
11.226303886995465	5.064827	2.2505171
11.243915213145371	5.0529523	2.2478774
11.261526805735578	5.011511	2.2386403
11.279138665194196	4.9788017	2.2313228
11.296750791949393	4.885534	2.2103243
11.314363186429393	4.836229	2.1991427
11.331975849062479	4.8226185	2.196046
11.34958878027699	4.784808	2.1874204
11.36720198050133	4.6606402	2.1588516
11.384815450163948	4.5463133	2.1322086
11.402429189693366	4.453687	2.1103761
11.420043199518153	4.4930305	2.119677
11.437657480066942	63.472633	7.9669714
11.455272031768422	85.20198	9.230492
11.472886855051353	107.588646	10.372495
11.490501950344528	99.15808	9.957815
11.508117318076819	84.49186	9.191945
11.52573295867715	45.871525	6.772852
11.543348872574514	4.179571	2.0444
11.560965060197946	4.178385	2.0441098
11.57858152197655	4.130157	2.0322788
11.59619825833949	4.072458	2.0180333
11.613815269715985	4.0370264	2.0092354
11.631432556535323	38.58328	6.211544
11.649050119226837	83.16199	9.11932
11.666667958219929	93.53197	9.671192
11.68428607394406	107.76298	10.380895
11.701904466828756	82.577805	9.087233
11.719523137303586	65.37383	8.085408
11.737142085798196	4.605236	2.1459813
11.754761312742286	3.7325528	1.9319816
11.772380818565619	3.7596073	1.9389707
11.790000603698015	3.7264683	1.9304062
11.80762066856935	3.6595314	1.9129902
11.825241013609572	3.6026523	1.8980654
11.842861639248683	3.5703912	1.8895478
11.860482545916748	3.5299275	1.8788102
11.878103734043883	3.4819553	1.8659998
11.895725204060282	3.4314988	1.8524305
11.91334695639619	3.4523888	1.8580605
11.930968991481919	3.4863865	1.8671868
11.948591309747824	3.4988298	1.870516
11.966213911624347	3.4637372	1.8611119
11.98383679754198	3.3914387	1.8415859
12.001459967931268	3.2989297	1.8162956
12.019083423222835	3.2521617	1.8033751
12.036707163847352	3.2304034	1.7973323
12.05433119023556	3.248748	1.8024284
12.071955502818259	3.2436032	1.8010006
12.089580102026313	3.1992235	1.7886373
12.107204988290643	3.14618	1.7737474
12.12483016204224	3.1210463	1.7666483
12.142455623712152	3.117747	1.7657143
12.16008137373149	3.118988	1.7660657
12.177707412531431	3.1492078	1.7746007
12.19533374054321	3.1434593	1.7729803
12.212960358198126	3.1590774	1.7773794
12.230587265927545	3.126358	1.768151
12.248214464162889	3.0939865	1.7589731
12.265841953335649	3.087266	1.7570617
12.283469733877375	3.0943506	1.7590766
12.301097806219685	3.0512784	1.7467909
12.31872617079425	3.0113924	1.7353364
12.336354828032825	2.9753878	1.7249312
12.353983778367205	2.9542203	1.7187846
12.371613022229262	2.94484	1.7160536
12.389242560050928	2.9580214	1.71989
12.406872392264201	2.9447968	1.716041
12.424502519301143	2.9003613	1.7030448
12.442132941593874	2.856771	1.6901985
12.459763659574586	2.8332174	1.6832163
12.477394673675532	2.859891	1.6911212
12.49502598432903	2.8706346	1.6942947
12.51265759196746	2.8711505	1.6944469
12.530289497023267	2.8279483	1.6816505
12.547921699928967	2.813817	1.6774436
12.565554201117134	2.8213665	1.6796924
12.583187001020404	2.8081596	1.6757565
12.600820100071486	2.7972198	1.672489
12.618453498703152	2.8068793	1.6753744
12.636087197348235	2.8018303	1.6738669
12.65372119643964	2.8266776	1.6812726
12.671355496410326	2.8182428	1.6787623
12.68899009769333	2.8403676	1.685339
12.706625000721749	2.824395	1.6805936
12.724260205928752	2.8654249	1.6927565
12.741895713747551	2.9208994	1.7090639
12.759531524611454	3.032538	1.7414184
12.777167638953818	2.9778302	1.7256391
12.794804057208072	2.9831326	1.7271748
12.812440779807702	3.032187	1.7413176
12.830077807186271	3.2528646	1.8035699
12.847715139777405	3.2753124	1.8097824
12.865352778014795	3.476237	1.8644669
12.882990722332197	3.6298618	1.9052197
12.90062897316344	3.7520306	1.9370159
12.918267530942412	3.8560052	1.9636713
12.935906396103071	3.685316	1.9197177
12.953545569079449	3.8585455	1.964318
12.971185050305628	3.6813595	1.918687
12.988824840215775	3.6597378	1.9130441
13.006464939244115	3.6196814	1.902546
13.024105347824943	3.4408772	1.8549602
13.041746066392617	3.5565393	1.8858789
13.05938709538157	3.358593	1.8326465
13.077028435226296	3.3920686	1.8417569
13.094670086361363	3.3209279	1.8223413
13.112312049221401	3.2429504	1.8008194
13.129954324241112	3.1067197	1.762589
13.147596911855258	2.850025	1.6882017
13.165239812498685	2.8350403	1.6837578
13.182883026606293	2.8018603	1.6738758
13.200526554613058	2.7932029	1.6712878
13.218170396954017	2.7440054	1.656504
13.235814554064284	2.767435	1.663561
13.253459026379034	2.7656026	1.6630101
13.271103814333523	2.7735622	1.6654015
13.288748918363058	2.7279098	1.6516385
13.306394338903031	2.6925662	1.6409041
13.32404007638889	2.6874943	1.6393579
13.341686131256164	2.7400763	1.6553175
13.359332503940449	2.760536	1.661486
13.376979194877402	2.7425296	1.6560584
13.394626204502751	2.7750247	1.6658405
13.412273533252307	2.7603636	1.6614342
13.429921181561937	2.784279	1.6686159
13.447569149867581	2.7736025	1.6654136
13.465217438605247	2.7967644	1.6723529
13.482866048211022	2.7775443	1.6665967
13.500514979121052	2.767108	1.6634626
13.518164231771568	2.7626278	1.6621155
13.535813806598844	2.7127473	1.647042
13.553463704039254	2.7004328	1.6432993
13.571113924529229	2.7047255	1.6446049
13.588764468505275	2.6885657	1.6396847
13.606415336403956	2.7363539	1.6541928
13.624066528661917	2.7064352	1.6451247
13.641718045715882	2.7587628	1.6609523
13.659369888002635	2.7605283	1.6614838
13.67702205595903	2.8562741	1.6900516
13.694674550021993	2.955233	1.7190791
13.712327370628532	3.0137053	1.7360027
13.729980518215713	3.1066518	1.7625697
13.747633993220681	3.2083752	1.7911938
13.765287796080647	3.304667	1.8178743
13.7829419272329	3.3568227	1.8321635
13.800596387114801	3.3431711	1.8284341
13.818251176163775	3.3342636	1.8259966
13.835906294817324	3.3744125	1.8369575
13.853561743513023	3.4365432	1.8537916
13.871217522688525	3.4634123	1.8610245
13.888873632781538	3.4956486	1.8696654
13.906530074229858	3.493447	1.8690765
13.92418684747135	3.51201	1.8740358
13.941843952943948	3.483472	1.8664062
13.959501391085665	3.5236688	1.8771437
13.977159162334578	3.4646413	1.8613547
13.994817267128846	3.4528203	1.8581766
14.012475705906693	3.3621507	1.8336169
14.030134479106424	3.2547717	1.8040986
14.047793587166414	3.1502423	1.7748922
14.065453030525108	3.108729	1.7631588
14.083112809621026	3.0859363	1.7566833
14.100772924892766	3.032195	1.7413199
14.118433376778997	2.936566	1.7136412
14.136094165718458	2.8087695	1.6759384
14.153755292149969	2.768691	1.6639384
14.171416756512416	2.6841621	1.6383413
14.189078559244768	2.6433947	1.625852
14.20674070078606	2.5915232	1.6098208
14.224403181575408	2.5612779	1.6003993
14.242066002051999	2.500305	1.5812353
14.259729162655093	2.4517255	1.5657986
14.277392663824022	2.4027174	1.5500702
14.295056505998208	2.3927228	1.5468428
14.312720689617128	2.4021993	1.549903
14.330385215120348	2.4187777	1.5552421
14.348050082947497	2.4627473	1.5693142
14.3657152935383	2.4873705	1.57714
14.383380847332528	2.4659486	1.570334
14.401046744770051	2.4375129	1.5612537
14.418712986290798	2.3928814	1.5468941
14.436379572334793	2.371216	1.5398754
14.454046503342123	2.3769982	1.5417516
14.471713779752946	2.3889227	1.545614
14.489381402007504	2.3857756	1.5445956
14.507049370546113	2.37879	1.5423326
14.524717685809168	2.3765373	1.5416021
14.542386348237134	2.4021177	1.5498767
14.560055358270553	2.3931043	1.5469662
14.577724716350051	2.4196095	1.5555094
14.595394422916325	2.4275143	1.5580482
14.61306447841015	2.4852152	1.5764565
14.63073488327237	2.5298057	1.5905362
14.648405637943917	2.5732267	1.604128
14.6660767428658	2.570183	1.6031791
14.683748198479094	2.5862362	1.6081779
14.701420005224954	2.6306818	1.6219376
14.719092163544628	2.703748	1.6443077
14.73676467387942	2.72421	1.6505181
14.754437536670727	2.744443	1.656636
14.772110752360014	2.741397	1.6557164
14.78978432138882	2.750618	1.6584988
14.807458244198777	2.7519279	1.6588936
14.82513252123159	2.7119892	1.6468118
14.842807152929028	2.7359054	1.6540573
14.860482139732962	2.7027588	1.644007
14.87815748208531	2.7057514	1.6449169
14.8958331804281	2.7084577	1.6457393
14.91350923520342	2.6905715	1.6402962
14.931185646853438	2.7513728	1.6587262
14.948862415820408	2.723391	1.65027
14.966539542546656	2.707406	1.6454197
14.98421702747459	2.6440542	1.6260548
15.001894871046696	2.655107	1.62945
15.019573073705542	2.7087913	1.6458406
15.037251635893766	2.725041	1.6507698
15.054930558054092	2.7045224	1.6445432
15.072609840629323	2.7324634	1.6530164
15.090289484062351	2.9161243	1.7076664
15.107969488796124	3.228558	1.7968189
15.125649855273691	3.620973	1.9028854
15.14333058393817	4.0522146	2.0130112
15.161011675232768	4.9671936	2.2287202
15.17869312960076	6.352432	2.5204031
15.196374947485506	8.194786	2.8626537
15.214057129330447	11.232732	3.3515267
15.231739675579114	15.941121	3.9926333
15.249422586675102	21.07376	4.590616
15.267105863062092	24.257856	4.9252267
15.284789505183847	24.601269	4.9599667
15.302473513484218	22.589212	4.752811
15.320157888407127	19.110086	4.3715086
15.337842630396578	15.027457	3.8765264
15.355527739896656	11.665186	3.4154334
15.37321321735153	8.994745	2.999124
15.39089906320545	6.4595857	2.5415714
15.408585277902748	4.849284	2.202109
15.42627186188783	3.7730794	1.9424416
15.443958815605198	3.2768097	1.810196
15.461646139499424	2.969058	1.7230955
15.479333834015168	2.8040662	1.6745346
15.497021899597165	2.7478294	1.6576579
15.514710336690234	2.7094102	1.6460286
15.53239914573928	2.6715279	1.634481
15.550088327189297	2.5640998	1.6012807
15.567777881485336	2.4804115	1.5749322
15.58546780907256	2.4004514	1.549339
15.6031581103962	2.39946	1.5490191
15.620848785901568	2.4112985	1.5528356
15.638539836034063	2.443227	1.5630826
15.656231261239173	2.457403	1.5676106
15.673923061962451	2.419097	1.5553446
15.691615238649552	2.37908	1.5424267
15.709307791746202	2.407927	1.5517497
15.727000721698221	2.4351256	1.5604889
15.744694028951498	2.4222853	1.5563693
15.76238771395202	2.4050045	1.5508077
15.780081777145844	2.3917253	1.5465204
15.797776218979125	2.40797	1.5517635
15.815471039898094	2.4178157	1.5549327
15.833166240349064	2.3858972	1.5446349
15.850861820778437	2.3624423	1.5370238
15.868557781632699	2.3479228	1.5322933
15.886254123358412	2.3615444	1.5367317
15.903950846402232	2.379828	1.542669
15.921647951210897	2.3910172	1.5462915
15.939345438231225	2.4254231	1.557377
15.957043307910133	2.4086912	1.5519959
15.974741560694602	2.3797941	1.5426581
15.992440197031714	2.3828673	1.5436538
16.01013921736862	2.426061	1.5575818
16.02783862215259	2.4374104	1.5612208
16.045538411830933	2.4446936	1.5635515
16.06323858685107	2.438867	1.5616872
16.080939147660512	2.433951	1.5601125
16.09864009470684	2.4508095	1.5655061
16.11634142843774	2.4712381	1.5720172
16.134043149300954	2.486066	1.5767264
16.15174525774433	2.447094	1.564319
16.169447754215817	2.436595	1.5609596
16.18715063916342	2.4754555	1.573358
16.204853913035244	2.455552	1.5670202
16.222557576279478	2.466251	1.5704302
16.240261629344403	22.4338	4.736433
16.257966072678386	43.010216	6.5582175
16.275670906729868	38.139793	6.175742
16.293376131947387	2.523664	1.5886045
16.31108174877957	2.4993675	1.5809388
16.328787757675133	2.5205472	1.5876231
16.34649415908287	2.5773828	1.605423
16.364200953451657	2.579679	1.6061379
16.38190814123048	2.5830638	1.6071913
16.39961572286839	2.6125157	1.6163279
16.41732369881455	2.6985424	1.642724
16.43503206951817	2.7390292	1.6550013
16.45274083542859	2.797672	1.6726243
16.47044999699522	2.8352983	1.6838344
16.488159554667558	2.903009	1.7038219
16.505869508895184	2.9417634	1.7151569
16.523579860127786	2.958486	1.7200251
16.541290608815117	2.9508703	1.7178097
16.559001755407035	2.9947262	1.7305278
16.57671330035348	3.0343678	1.7419437
16.59442524410448	3.090393	1.7579514
16.61213758711015	3.1433291	1.7729436
16.629850329820705	3.2529287	1.8035878
16.647563472686436	3.385654	1.8400147
16.665277016157724	3.462493	1.8607775
16.682990960685053	3.5012462	1.8711617
16.70070530671898	3.5042214	1.8719566
16.718420054710155	3.4895303	1.8680284
16.736135205109335	3.5150833	1.8748555
16.753850758367335	3.5744526	1.8906223
16.771566714935087	3.6502175	1.9105543
16.789283075263597	3.7314355	1.9316924
16.80699983980398	3.7969186	1.9485683
16.82471700900741	3.8536577	1.9630735
16.84243458332518	3.8969126	1.9740599
16.860152563208665	3.9102404	1.9774327
16.87787094910932	3.9818137	1.9954482
16.89558974147871	4.092977	2.0231106
16.913308940768466	4.2322354	2.0572398
16.931028547430333	4.31512	2.0772867
16.94874856191613	4.3495708	2.0855625
16.966468984677785	4.3750076	2.091652
16.98418981616729	4.4069576	2.0992756
17.00191105683676	4.460611	2.1120157
17.019632707138374	4.458502	2.1115165
17.03735476752442	4.4828486	2.1172738
17.05507723844728	4.5402937	2.1307964
17.072800120359403	4.59251	2.1430142
17.090523413713353	4.6459045	2.155436
17.108247118961785	4.654729	2.1574821
17.125971236557437	4.6770864	2.1626573
17.143695766953133	4.6569743	2.1580024
17.161420710601806	4.681971	2.1637862
17.179146067956477	4.7152205	2.1714559
17.19687183947025	4.730581	2.17499
17.21459802559634	4.7121153	2.1707406
17.232324626788028	4.7067194	2.1694975
17.25005164349871	4.759185	2.1815555
17.267779076181863	4.7497635	2.1793952
17.285506925291074	4.6919627	2.1660938
17.30323519127999	4.6491	2.156177
17.320963874602384	4.6680403	2.160565
17.33869297571211	4.6611943	2.15898
17.356422495063114	4.6546526	2.1574645
17.37415243310944	4.6473947	2.1557817
17.391882790305218	4.6066775	2.1463172
17.40961356710468	4.5835085	2.140913
17.42734476396215	4.5755997	2.139065
17.445076381332044	4.5439577	2.1316562
17.462808419668868	4.5975437	2.1441884
17.48054087942723	4.720338	2.172634
17.498273761061835	5.0204234	2.2406301
17.51600706502747	5.54318	2.3543959
17.533740791779024	6.300263	2.5100324
17.551474941771485	7.734591	2.7811134
17.56920951545993	8.818987	2.969678
17.586944513299528	11.08022	3.3286965
17.60467993574556	12.682422	3.5612388
17.622415783253373	14.330519	3.785567
17.64015205627843	15.778876	3.9722633
17.657888755276293	16.88731	4.1094174
17.675625880702604	17.321648	4.161928
17.69336343301311	17.020243	4.12556
17.71110141266366	16.222725	4.0277443
17.728839820110178	15.281848	3.9092004
17.746578655808705	14.460627	3.8027132
17.764317920215372	13.112845	3.6211662
17.7820576137864	11.577193	3.4025276
17.79979773697811	9.477758	3.0785968
17.81753829024692	7.5100446	2.740446
17.835279274049356	5.8529663	2.4192905
17.85302068884201	4.8470984	2.2016127
17.870762535081607	4.253695	2.0624487
17.888504813224934	3.9888864	1.9972197
17.90624752372891	3.8196013	1.95438
17.923990667050536	3.6598651	1.9130774
17.941734243646895	3.5327451	1.8795599
17.959478253975185	3.516822	1.8753192
17.9772226984927	3.5031047	1.8716583
17.994967577656833	3.4859543	1.867071
18.01271289192506	3.4660559	1.8617346
18.030458641754965	3.493912	1.869201
18.04820482760425	3.4433792	1.8556345
18.06595144993067	3.385449	1.8399589
18.083698509192125	3.3202343	1.8221511
18.101446005846576	3.2425725	1.8007145
18.119193940352105	3.2697654	1.8082492
18.136942313166887	3.27632	1.8100607
18.1546911247492	3.2782269	1.8105874
18.1724403755574	3.239103	1.7997508
18.19019006604997	3.192213	1.7866765
18.207940196685467	3.1564362	1.7766362
18.225690767922575	3.1213949	1.766747
18.243441780220046	3.0963852	1.7596549
18.261193234036764	3.056981	1.7484225
18.278945129831676	3.05895	1.7489854
18.29669746806386	3.0590758	1.7490214
18.314450249192483	3.0641065	1.750459
18.3322034736768	3.0632448	1.7502128
18.349957141976184	3.069992	1.7521393
18.3677112545501	3.0789785	1.7547019
18.385465811858108	3.0943544	1.7590777
18.403220814359884	3.1443906	1.773243
18.420976262515172	3.1952152	1.7875165
18.43873215678387	3.1932929	1.7869787
18.456488497625923	3.2230282	1.7952794
18.474245285501407	3.2994275	1.8164326
18.492002520870486	3.3841233	1.8395987
18.50976020419343	3.4379323	1.8541662
18.527518335930615	3.738186	1.9334389
18.545276916542516	4.4034276	2.0984344
18.563035946489688	4.5756598	2.139079
18.580795426232832	5.0353665	2.2439623
18.598555356232698	4.8914175	2.211655
18.616315736950185	5.2012534	2.2806256
18.63407656884626	4.771142	2.1842945
18.65183785238201	4.9684596	2.2290041
18.669599588018617	4.7218637	2.172985
18.68736177621737	4.7186933	2.1722553
18.705124417439652	4.7186966	2.172256
18.72288751214696	4.564805	2.1365404
18.740651060800886	4.698521	2.1676073
18.758415063863115	4.3585167	2.087706
18.77617952179546	4.5490365	2.132847
18.793944435059814	4.3086	2.0757167
18.811709804118184	4.3228183	2.0791388
18.829475629432675	4.2379394	2.0586257
18.8472419114655	4.0342655	2.008548
18.86500865067897	4.134671	2.033389
18.88277584753551	3.8372161	1.9588814
18.90054350249763	3.8323991	1.9576514
18.918311616027957	3.500112	1.8708587
18.936080188589226	3.4077625	1.8460126
18.953849220644265	3.114024	1.7646598
18.971618712656007	2.9386961	1.7142626
18.9893886650875	2.829106	1.6819947
19.007159078401887	7.9595294	2.8212638
19.024929953062408	32.83151	5.7298784
19.042701289532435	32.83798	5.730443
19.060473088275405	25.43996	5.043804
19.07824534975489	2.7161465	1.6480736
19.096018074434568	2.6921258	1.6407698
19.113791262778197	2.6521435	1.6285403
19.13156491524966	2.5875697	1.6085925
19.149339032312945	2.6091387	1.6152829
19.167113614432136	2.6342537	1.6230384
19.184888662071433	2.6177244	1.6179383
19.202664175695123	2.5833182	1.6072705
19.220440155767623	2.5651984	1.6016237
19.238216602753447	2.5708892	1.6033993
19.2559935171172	2.5653217	1.6016622
19.27377089932361	2.534991	1.5921655
19.291548749837514	2.542391	1.5944877
19.309327069123835	2.5434322	1.5948142
19.32710585764763	2.5568402	1.5990123
19.344885115874032	2.5485976	1.5964328
19.362664844268313	2.5389001	1.5933926
19.380445043295822	2.514823	1.5858194
19.39822571342203	2.5257866	1.5892724
19.41600685511252	2.5312488	1.5909898
19.43378846883297	2.5477653	1.5961721
19.451570555049173	2.534532	1.5920213
19.469353114227037	2.5054991	1.5828768
19.48713614683254	2.5241594	1.5887604
19.50491965333182	2.5554032	1.5985628
19.52270363419109	2.575249	1.6047583
19.540488089876686	2.5661037	1.6019063
19.55827302085503	2.5620153	1.6006297
19.576058427592674	2.5165603	1.586367
19.593844310556282	2.4964576	1.5800182
19.611630670212598	2.4753528	1.5733254
19.629417507028506	2.501202	1.5815189
19.64720482147098	2.5039413	1.5823847
19.6649926140071	2.507706	1.5835738
19.682780885104084	2.4921687	1.5786604
19.70056963522921	2.4867887	1.5769556
19.718358864849908	2.5051758	1.5827748
19.7361485744337	2.5215504	1.587939
19.753938764448215	2.5456562	1.5955113
19.771729435361202	2.5628185	1.6008805
19.789520587640506	2.572283	1.6038338
19.807312221754092	2.5746734	1.6045789
19.825104338170043	2.5597486	1.5999215
19.842896937356517	2.5549476	1.5984204
19.860690019781824	2.5268197	1.5895973
19.87848358591436	2.507797	1.5836025
19.896277636222635	2.4859293	1.576683
19.914072171175278	2.4531038	1.5662388
19.931867191241015	2.4622645	1.5691605
19.94966269688869	2.5144193	1.585692
19.967458688587264	2.5632815	1.6010251
19.985255166805807	2.5276034	1.5898439
20.00305213201348	2.53978	1.5936687
20.020849584679578	2.5252697	1.5891098
20.038647525273507	2.4978197	1.5804492
20.05644595426477	2.469438	1.5714446
20.07424487212299	2.503231	1.5821602
20.092044279317903	2.5240715	1.5887326
20.109844176319353	2.4984024	1.5806335
20.127644563597304	2.4654458	1.5701737
20.145445441621817	2.4367158	1.5609983
20.16324681086307	2.4476173	1.5644863
20.181048671791373	2.411113	1.5527759
20.198851024877122	2.4288359	1.5584723
20.216653870590836	2.4076197	1.5516506
20.234457209403146	2.4207919	1.5558894
20.252261041784802	2.4036233	1.5503623
20.270065368206662	2.4104402	1.5525593
20.287870189139685	2.3755	1.5412657
20.305675505054968	2.3623574	1.5369962
20.323481316423702	2.3712924	1.5399001
20.341287623717207	2.3679566	1.5388167
20.359094427406884	2.3482904	1.5324132
20.376901727964288	2.3496969	1.5328721
20.39470952586107	2.3495853	1.5328357
20.41251782156899	2.361254	1.5366372
20.430326615559935	2.3878381	1.5452632
20.448135908305886	2.365667	1.5380726
20.465945700278965	2.346006	1.5316677
20.483755991951384	2.3496103	1.5328438
20.50156678379548	2.3757544	1.5413482
20.519378076283708	2.3640563	1.5375488
20.537189869888635	2.3481283	1.5323604
20.55500216508294	2.3282373	1.5258563
20.572814962339415	2.3380659	1.5290735
20.59062826213098	2.3256881	1.5250207
20.60844206493066	2.3398225	1.5296478
20.626256371211593	2.3696349	1.5393618
20.644071181447032	2.4107523	1.5526597
20.66188649611036	2.3953726	1.5476991
20.67970231567506	2.3795426	1.5425766
20.697518640614742	2.3410523	1.5300498
20.715335471403122	2.3491828	1.5327045
20.73315280851404	2.34632	1.5317702
20.750970652421447	2.331365	1.5268809
20.768789003599412	2.3174438	1.5223153
20.786607862522136	2.2985528	1.5160979
20.8044272296639	2.2832093	1.5110292
20.82224710549913	2.261288	1.503758
20.84006749050237	2.2881033	1.5126477
20.857888385148268	3.8479378	1.9616162
20.8757097899116	45.959293	6.7793283
20.893531705267254	64.82777	8.051569
20.911354131690224	83.85151	9.157047
20.92917706965566	69.12826	8.314341
20.94700051963877	50.20436	7.0855036
20.96482448211493	29.427362	5.4246993
20.982648957559622	4.143067	2.0354526
21.00047394644843	2.211128	1.4869862
21.01829944925707	2.2043447	1.4847035
21.036125466461375	2.2164295	1.4887677
21.053951998537297	2.2295585	1.4931706
21.071779045960906	2.2575135	1.5025024
21.089606609208378	2.263637	1.5045388
21.10743468875603	2.2663753	1.5054486
21.12526328508028	2.2549374	1.5016448
21.143092398657675	2.2507539	1.5002513
21.16092202996488	2.2155669	1.4884781
21.17875217947867	2.1991918	1.4829673
21.19658284767596	2.2100194	1.4866134
21.21441403503377	2.224008	1.4913108
21.232245742029225	2.1946535	1.4814363
21.2500779691396	2.1943	1.4813169
21.26791071684227	2.1792696	1.4762349
21.28574398561475	2.1843064	1.47794
21.30357777593465	2.2112753	1.4870358
21.321412088279704	2.251803	1.5006008
21.339246923127792	2.2310696	1.4936765
21.357082280956888	2.1441162	1.4642801
21.3749181622451	2.0784624	1.4416873
21.392754567470647	2.0722852	1.4395434
21.41059149711187	2.106787	1.4514775
21.42842895164726	2.125816	1.4580178
21.446266931555378	2.149513	1.4661218
21.464105437314945	2.1674144	1.4722141
21.481944469404798	2.159987	1.4696894
21.49978402830388	2.1417155	1.4634601
21.51762411449127	2.125804	1.4580137
21.53546472844617	2.1453404	1.4646981
21.553305870647876	2.1519084	1.4669385
21.571147541575865	2.105942	1.4511864
21.58898974170967	2.0920715	1.4463995
21.60683247152899	2.107979	1.4518881
21.62467573151363	2.1250947	1.4577705
21.642519522143523	2.1242476	1.4574798
21.660363843898722	2.126742	1.4583353
21.6782086972594	2.0939307	1.4470421
21.696054082705864	2.0812066	1.4426388
21.713900000718535	2.0889642	1.4453249
21.73174645177795	2.0850844	1.4439821
21.749593436364794	2.0511837	1.4321954
21.767440954959845	2.060164	1.4353272
21.785289008044032	2.0364187	1.4270314
21.803137596098388	1.9826653	1.4080715
21.820986719604086	1.9864713	1.4094223
21.838836379042412	2.035621	1.4267519
21.85668657489478	2.037598	1.4274446
21.87453730764273	2.0314596	1.4252928
21.892388577767914	2.0153933	1.4196454
21.91024038575213	2.01867	1.4207991
21.928092732077285	2.0370562	1.4272548
21.945945617225426	2.0341172	1.4262248
21.963799041678694	2.0124495	1.4186083
21.981653005919398	31.315157	5.595995
21.999507510429943	78.11413	8.83822
22.01736255569286	73.055725	8.547264
22.035218142190818	4.118957	2.0295215
22.05307427040661	1.9490652	1.3960892
22.07093094082315	1.9689679	1.4031992
22.088788153923474	1.9747318	1.4052515
22.106645910190746	1.9825349	1.4080251
22.12450421010827	1.9772053	1.4061313
22.142363054159464	1.9806598	1.4073591
22.16022244282787	1.9706751	1.4038074
22.178082376597164	1.9850894	1.408932
22.195942855951145	1.9872758	1.4097077
22.213803881373742	2.002316	1.4150321
22.231665453349002	2.0218108	1.421904
22.24952757236111	2.0388231	1.4278736
22.26739023889438	2.0443745	1.4298162
22.28525345343323	2.0131607	1.4188589
22.30311721646225	1.9770968	1.4060928
22.320981528466113	1.9934106	1.4118819
22.33884638992964	2.010069	1.417769
22.356711801337788	1.9980807	1.4135349
22.37457776317561	1.965876	1.402097
22.392444275928337	1.9568006	1.3988569
22.410311340081282	2.0097103	1.4176425
22.428178956119904	1.996557	1.4129957
22.446047124529805	1.9983286	1.4136225
22.46391584579669	1.967725	1.4027562
22.481785120406414	1.939624	1.3927038
22.49965494884496	1.8975466	1.3775147
22.51752533159841	1.9167688	1.3844742
22.53539626915302	1.9227483	1.386632
22.553267761995137	1.9301555	1.3893003
22.571139810611264	1.9359232	1.3913746
22.589012415488025	1.9240398	1.3870976
22.60688557711216	1.9104165	1.3821782
22.624759295970566	1.9352608	1.3911365
22.642633572550263	1.9938743	1.4120462
22.660508407338362	2.0303187	1.4248925
22.67838380082217	2.0174706	1.4203769
22.696259753489077	1.9482452	1.3957956
22.714136265826614	1.9172331	1.3846419
22.73201333832246	1.9311275	1.3896501
22.74989097146439	1.949569	1.3962697
22.76776916574035	1.9447201	1.3945322
22.785647921638393	1.9302605	1.3893381
22.803527239646712	1.9224799	1.3865352
22.82140712025363	1.953929	1.3978301
22.839287563947593	1.928147	1.3885773
22.85716857121719	1.9095206	1.381854
22.875050142551135	1.8893934	1.3745521
22.892932278438277	1.8741683	1.3690027
22.910814979367604	1.9139171	1.383444
22.928698245828222	1.9338576	1.390632
22.946582078309387	1.9600401	1.4000143
22.96446647730047	1.9425464	1.3937526
22.98235144329098	1.916746	1.3844659
23.000236976770562	1.9098806	1.3819844
23.018123078229	1.8975188	1.3775046
23.03600974815619	1.9158016	1.3841249
23.053896987042194	1.926761	1.3880782
23.071784795377173	1.930282	1.3893459
23.08967317365145	1.8926859	1.3757492
23.10756212235546	1.9068818	1.380899
23.125451641979787	1.8989577	1.3780267
23.143341733015134	1.915364	1.3839668
23.161232395952357	1.913566	1.383317
23.179123631282426	1.9399941	1.3928367
23.197015439496468	1.9386402	1.3923507
23.214907821085717	1.9447683	1.3945495
23.23280077654157	1.9268569	1.3881127
23.250694306355538	1.9274575	1.388329
23.268588411019277	1.9345335	1.3908751
23.28648309102458	1.937177	1.3918251
23.304378346863356	1.9537532	1.3977672
23.322274179027676	1.9449576	1.3946173
23.340170588009723	1.931515	1.3897896
23.358067574301852	1.9494756	1.3962363
23.37596513839651	1.9441445	1.3943259
23.39386328078629	1.929215	1.3889618
23.411762001963947	1.954616	1.3980758
23.429661302422353	1.9503152	1.3965368
23.4475611826545	1.9199296	1.3856152
23.46546164315356	1.8925893	1.3757141
23.48336268441279	1.914622	1.3836987
23.501264306925638	1.91655	1.3843952
23.51916651118564	1.9450266	1.3946421
23.537069297686497	1.9306505	1.3894784
23.554972666922037	1.9382961	1.392227
23.57287661938623	1.9422847	1.3936588
23.59078115557318	1.9534556	1.3976607
23.608686275977128	1.9601378	1.4000492
23.62659198109246	1.9348025	1.3909718
23.6444982714137	1.8906008	1.3749912
23.66240514743549	1.8762302	1.3697555
23.68031260965263	1.8950016	1.3765906
23.698220658560068	1.9201705	1.3857021
23.716129294652845	1.9318713	1.3899177
23.7340385184262	1.9162083	1.3842717
23.75194833037546	1.8923302	1.3756199
23.769858730996123	1.8517911	1.3608053
23.78776972078382	1.8591999	1.3635248
23.80568130023431	1.8719082	1.3681769
23.823593469843495	1.9302406	1.389331
23.841506230107424	1.9650216	1.4017923
23.859419581522275	1.9919462	1.4113632
23.87733352458438	1.9879117	1.4099332
23.89524805979019	1.9994681	1.4140255
23.913163187636318	1.9733135	1.4047468
23.931078908619508	1.9786929	1.4066602
23.948995223236633	1.9893847	1.4104555
23.966912131984735	2.0115376	1.4182868
23.98482963536096	2.046045	1.4304004
24.002747733862616	2.0612993	1.4357226
24.020666427987155	2.072115	1.4394842
24.038585718232156	2.0521734	1.4325409
24.056505605095353	2.0274777	1.4238952
24.074426089074617	2.0716143	1.4393103
24.092347170667946	2.109115	1.4522792
24.110268850373515	2.150038	1.4663008
24.128191128689586	2.1270063	1.458426
24.146114006114626	2.101501	1.4496554
24.164037483147187	2.0747283	1.4403917
24.181961560286005	2.0490117	1.4314369
24.199886238029926	2.0261457	1.4234275
24.21781151687797	2.027232	1.4238089
24.235737397329274	2.039586	1.4281408
24.253663879883135	2.0681334	1.4381006
24.271590965038975	2.0812027	1.4426374
24.289518653296376	2.0765328	1.441018
24.30744694515505	2.0711274	1.4391412
24.32537584111486	2.0697606	1.4386662
24.34330534167581	2.0511189	1.4321728
24.361235447338046	2.045985	1.4303793
24.379166158601876	2.0589771	1.4349136
24.39709747596772	2.0736763	1.4400265
24.41502939993615	2.089442	1.4454902
24.432961931007917	2.0875702	1.4448426
24.450895069683856	2.0524015	1.4326205
24.468828816465	2.024972	1.4230151
24.4867631718525	1.9880222	1.4099724
24.504698136347656	1.9573733	1.3990616
24.52263371045192	1.9377939	1.3920467
24.540569894666874	1.917532	1.3847498
24.558506689494266	1.9472277	1.395431
24.57644409543597	1.9422185	1.393635
24.594382112994012	1.9699355	1.403544
24.61232074267057	1.9835042	1.4083693
24.630259984967953	1.9781388	1.4064633
24.64819984038863	1.9783072	1.4065231
24.66614030943522	1.9944693	1.4122568
24.684081392610462	1.9969087	1.4131202
24.702023090417274	2.000758	1.4144815
24.7199654033587	1.9754186	1.4054959
24.737908331937927	2.035901	1.4268501
24.755851876658305	2.051757	1.4323956
24.773796038023324	2.0742474	1.4402248
24.79174081653661	2.0504653	1.4319446
24.809686212701962	2.0815823	1.4427689
24.827632227023294	2.1415524	1.4634044
24.8455788600047	2.1629386	1.4706932
24.8635261121504	2.1583018	1.469116
24.88147398396475	2.1177683	1.4552554
24.899422475952303	2.0768974	1.4411445
24.917371588617698	2.0762835	1.4409314
24.935321322465768	2.1846054	1.478041
24.953271678001478	2.3676975	1.5387324
24.97122265572994	2.551481	1.5973356
24.989174256156414	2.8217828	1.6798164
25.00712647978632	3.2404845	1.8001345
25.02507932712521	3.75448	1.937648
25.043032798678798	4.277868	2.0683007
25.060986894952933	4.9247913	2.219187
25.078941616453637	5.6144404	2.369481
25.096896963687055	6.503922	2.550279
25.114852937159508	7.6709337	2.769645
25.132809537377444	8.164481	2.8573556
25.150766764847468	8.253501	2.8728907
25.168724620076347	7.6765637	2.7706614
25.186683103570985	6.689456	2.5863984
25.204642215838426	5.527627	2.3510907
25.222601957385894	4.207069	2.051114
25.24056232872074	3.2119024	1.7921782
25.25852333035048	2.637203	1.6239468
25.276484962782778	2.299826	1.5165176
25.294447226525435	2.1581228	1.469055
25.312410122086423	2.0717685	1.439364
25.330373649973843	1.9961177	1.4128402
25.348337810695988	1.9495928	1.3962783
25.366302604761245	1.956067	1.3985946
25.384268032678207	1.9789251	1.4067427
25.40223409495558	1.9503365	1.3965445
25.420200792102257	1.8908757	1.3750912
25.438168124627246	1.8743151	1.3690563
25.45613609303974	1.9034867	1.3796691
25.474104697849057	1.9262848	1.3879067
25.492073939564698	1.9026169	1.3793538
25.510043818696285	1.9005245	1.3785951
25.528014335753614	1.8693861	1.367255
25.54598549124664	1.8551528	1.3620399
25.56395728568544	1.8549633	1.3619704
25.58192971958028	1.8878686	1.3739973
25.59990279344156	1.8869114	1.3736489
25.617876507779833	1.886907	1.3736473
25.635850863105826	1.8789122	1.3707342
25.653825859930386	1.868905	1.367079
25.671801498764548	1.8661253	1.3660619
25.68977778011949	1.8735001	1.3687586
25.707754704506524	1.9451455	1.3946847
25.725732272437153	1.9212061	1.3860759
25.743710484423012	1.9115875	1.3826017
25.761689340975888	1.8770736	1.3700634
25.77966884260774	1.8882821	1.3741478
25.797648989830662	1.8815999	1.3717142
25.815629783156922	1.8755244	1.3694979
25.83361122309895	1.8653642	1.3657833
25.85159331016929	1.8980135	1.3776841
25.869576044880695	1.9391613	1.3925377
25.887559427746034	1.927744	1.3884323
25.90554345927836	1.9066573	1.3808177
25.92352813999086	1.8942477	1.3763167
25.94151347039689	1.8613635	1.364318
25.959499451009965	1.8316911	1.3533999
25.97748608234374	1.8390988	1.3561338
25.995473364912062	1.8115196	1.345927
26.013461299228904	1.7920804	1.3386861
26.03144988580839	1.8083031	1.3447316
26.04943912516483	1.8480246	1.3594207
26.067429017812675	1.8626848	1.3648021
26.085419564266537	1.8384653	1.3559002
26.103410765041186	1.7812631	1.3346397
26.12140262065155	1.8063705	1.3440129
26.139395131612723	1.8718904	1.3681705
26.157388298439948	1.8984314	1.3778358
26.17538212164861	1.8792701	1.3708647
26.193376601754295	1.9194258	1.3854334
26.211371739272714	1.9139324	1.3834494
26.229367534719746	1.9020606	1.3791522
26.247363988611433	1.8448402	1.358249
26.26536110146397	1.8253453	1.3510534
26.283358873793727	1.8012114	1.3420922
26.301357306117204	1.7728689	1.3314912
26.319356398951104	1.7456379	1.3212259
26.33735615281224	1.783599	1.3355145
26.35535656821762	1.7997677	1.3415542
26.373357645684404	1.8469331	1.3590192
26.39135938572991	1.8362314	1.3550762
26.409361788871614	1.816075	1.3476182
26.427364855627165	1.7888424	1.3374761
26.445368586514352	1.8025651	1.3425964
26.46337298205115	1.7892567	1.337631
26.48137804275568	1.8395307	1.356293
26.499383769146217	1.8234179	1.3503399
26.517390161741215	1.783825	1.3355992
26.53539722105928	1.7452495	1.3210789
26.553404947619182	1.7789767	1.3337828
26.571413341939856	1.8057396	1.3437781
26.589422404540397	1.7893347	1.3376602
26.60743213594006	1.7988003	1.3411937
26.62544253665827	1.8418394	1.3571439
26.64345360721459	1.8618639	1.3645014
26.66146534812879	1.8083901	1.344764
26.679477759920758	1.772176	1.331231
26.69749084311057	1.7837266	1.3355622
26.71550459821847	1.8130884	1.3465097
26.733519025764842	1.8529289	1.3612233
26.751534126270258	1.8285345	1.3522332
26.769549900255434	1.7995473	1.341472
26.787566348241267	1.7648383	1.3284721
26.80558347074881	1.7699385	1.3303903
26.823601268299267	1.7968572	1.340469
26.841619741414036	1.7770224	1.33305
26.85963889061465	1.7678062	1.3295888
26.877658716422832	1.776032	1.3326784
26.89567921936045	1.8113579	1.3458669
26.913700399949544	1.8012164	1.3420941
26.93172225871233	1.7571666	1.3255817
26.949744796171174	1.7454672	1.3211613
26.967768012848605	1.8013551	1.3421457
26.98579190926733	1.8258677	1.3512467
27.003816485950225	1.7437646	1.3205168
27.021841743420318	1.7191556	1.3111657
27.039867682200814	1.8077356	1.3445206
27.057894302815072	1.8360351	1.3550037
27.07592160578664	1.82114	1.3494962
27.0939495916392	1.8196485	1.3489435
27.111978260896635	1.8241616	1.3506153
27.13000761408296	1.8547647	1.3618975
27.148037651722397	1.8274125	1.3518182
27.166068374339304	1.7804682	1.3343419
27.184099782458215	1.7852874	1.3361465
27.20213187660384	1.8296025	1.352628
27.22016465730105	1.8543595	1.3617487
27.23819812507487	1.8739244	1.3689135
27.256232280450533	1.8923731	1.3756355
27.274267123953383	1.858554	1.3632879
27.292302656108987	1.8406761	1.3567152
27.31033887744306	1.835497	1.3548051
27.32837578848146	1.8279978	1.3520347
27.34641338975026	1.8415997	1.3570555
27.364451681775673	1.857848	1.363029
27.382490665084074	1.8291804	1.352472
27.400530340202046	1.7706947	1.3306745
27.41857070765629	1.7620249	1.3274128
27.436611767973726	1.7536086	1.3242389
27.454653521681404	1.7811528	1.3345984
27.472695969306564	1.8251091	1.350966
27.490739111376627	1.7868087	1.3367157
27.508782948419153	1.7503315	1.3230009
27.526827480961902	1.7709444	1.3307683
27.54487270953279	1.8288394	1.352346
27.562918634659898	1.8772304	1.3701205
27.580965256871508	1.9003193	1.3785207
27.599012576696026	1.9100734	1.3820541
27.617060594662068	1.8779474	1.3703822
27.63510931129842	1.856827	1.3626544
27.65315872713401	1.8270297	1.3516766
27.67120884269797	1.8427993	1.3574975
27.68925965851958	1.8835819	1.3724365
27.707311175128307	1.8993418	1.3781661
27.725363393053787	1.8300282	1.3527853
27.74341631282583	1.7708358	1.3307276
27.7614699349744	1.8280444	1.352052
27.77952426002968	2.0534313	1.4329798
27.797579288521973	2.1650093	1.471397
27.815635020981784	2.550221	1.5969411
27.83369145793979	2.5835614	1.607346
27.85174859992682	2.4105597	1.5525978
27.869806447473923	2.2900565	1.5132933
27.887865001112267	2.0256035	1.423237
27.905924261373233	1.9161808	1.3842618
27.92398422878836	1.8580738	1.3631119
27.94204490388936	1.8269972	1.3516645
27.96010628720813	1.8301765	1.3528402
27.978168379276728	1.8656546	1.3658897
27.9962311806274	1.9333824	1.3904612
28.014294691792568	1.9042203	1.3799349
28.0323589133048	1.8453737	1.3584453
28.050423845696887	1.8195171	1.3488948
28.068489489501758	1.860242	1.3639069
28.086555845252523	1.8809595	1.3714808
28.104622913482487	1.8937353	1.3761306
28.122690694725115	1.8642042	1.3653586
28.14075918951405	1.8810658	1.3715196
28.15882839838312	1.9282452	1.3886126
28.176898321866304	2.0005476	1.4144071
28.1949689604978	2.0065308	1.4165206
28.213040314811945	1.9780349	1.4064263
28.23111238534327	1.979381	1.4069047
28.249185172626493	1.990637	1.4108993
28.267258677196473	1.9374274	1.391915
28.285332899588294	1.9187928	1.385205
28.303407840337172	1.9426978	1.3938069
28.321483499978545	1.9420909	1.3935893
28.33955987904799	1.9438072	1.3942049
28.357636978081285	1.931392	1.3897452
28.37571479761439	1.9588141	1.3995764
28.393793338183425	1.9563237	1.3986864
28.41187260032469	1.9584486	1.3994459
28.429952584574686	1.9542463	1.3979436
28.448033291470065	1.9517057	1.3970346
28.46611472154769	1.9683365	1.4029741
28.484196875344566	1.9638596	1.4013777
28.502279753397914	2.0214977	1.4217938
28.52036335624511	1.9979485	1.413488
28.538447684423716	1.9826641	1.408071
28.556532738471482	2.0385692	1.4277847
28.574618518926325	2.0428267	1.4292749
28.59270502632635	2.0238879	1.4226341
28.61079226120985	2.0176568	1.4204425
28.628880224115274	2.043747	1.4295968
28.646968915581287	2.0505075	1.4319594
28.66505833614671	2.0480134	1.4310882
28.68314848635055	2.035817	1.4268205
28.701239366732004	2.037887	1.4275458
28.71933097783044	2.082826	1.4431999
28.737423320185403	2.0889366	1.4453154
28.75551639433665	2.1125646	1.4534664
28.773610200824074	2.1500387	1.4663011
28.791704740187793	2.1596801	1.4695851
28.80980001296809	2.164917	1.4713657
28.827896019705413	2.167092	1.4721047
28.845992760940433	2.1729934	1.4741076
28.86409023721397	2.1581788	1.4690741
28.88218844906704	2.2243845	1.4914371
28.900287397040845	2.2487538	1.4995846
28.918387081676755	2.2187915	1.4895608
28.936487503516343	2.220929	1.4902781
28.954588663101365	2.2564204	1.5021386
28.97269056097374	2.2924922	1.5140978
28.990793197675597	2.3094728	1.5196949
29.00889657374923	2.3403857	1.5298319
29.027000689737125	2.3824332	1.5435133
29.04510554618196	2.433399	1.5599356
29.06321114362659	2.4488268	1.5648727
29.08131748261405	2.4366112	1.5609648
29.099424563687567	2.4052663	1.5508921
29.11753238739057	2.4578922	1.5677667
29.13564095426663	2.5558379	1.5986989
29.15375026485954	2.6783655	1.6365713
29.171860319713275	2.7620924	1.6619544
29.18997111937199	2.7453954	1.6569235
29.20808266438002	2.7065034	1.6451454
29.226194955281898	2.7321198	1.6529125
29.244307992622335	2.8353348	1.6838453
29.26242177694624	2.8974497	1.7021897
29.2805363087987	2.9072692	1.7050716
29.29865158872498	2.90273	1.70374
29.316767617270557	2.88751	1.6992675
29.334884394981064	2.9147334	1.707259
29.353001922402367	2.9650774	1.72194
29.37112020008047	3.0350761	1.742147
29.389239228561596	3.156063	1.7765312
29.407359008392152	3.3938808	1.8422488
29.42547954011872	3.7255857	1.9301777
29.44360082428809	4.300795	2.0738358
29.46172286144722	5.473499	2.339551
29.479845652143283	7.003382	2.6463904
29.497969196923606	8.903994	2.983956
29.516093496335728	11.223657	3.3501725
29.5342185509274	13.927324	3.731933
29.55234436124651	16.40808	4.0506887
29.570470927841175	17.731264	4.2108507
29.588598251259686	17.46998	4.1797104
29.60672633205055	16.074255	4.009271
29.624855170762405	14.024611	3.7449448
29.642984767944146	11.289527	3.3599892
29.66111512414481	8.710885	2.9514208
29.67924623991366	6.4679813	2.5432227
29.697378115800138	5.032119	2.2432384
29.71551075235387	4.225655	2.0556397
29.733644150124675	3.8329792	1.9577996
29.751778309662576	3.6033618	1.8982524
29.769913231517766	3.426288	1.8510234
29.78804891624066	3.3711464	1.8360682
29.806185364381818	3.3997078	1.8438296
29.82432257649206	3.3816783	1.8389341
29.842460553122333	3.344348	1.8287559
29.86059929482382	3.3053606	1.818065
29.878738802147872	3.2921062	1.8144162
29.896879075646048	3.302456	1.8172661
29.915020115870114	3.3487506	1.8299592
29.933161923371976	3.3561265	1.8319734
29.951304498703777	3.3686476	1.8353876
29.969447842417857	3.3340592	1.8259406
29.987591955066733	3.2557173	1.8043606
30.005736837203123	3.2507672	1.8029884
30.023882489379943	3.2713528	1.8086882
30.04202891215028	3.2549877	1.8041584
30.060176106067455	3.2068784	1.7907759
30.078324071684946	3.1897721	1.7859933
30.09647280955646	3.154086	1.7759748
30.114622320235863	3.1531916	1.7757229
30.132772604277257	3.1566136	1.7766861
30.1509236622349	3.1469715	1.7739705
30.16907549466328	3.0629838	1.7501382
30.18722810211705	3.024653	1.7391529
30.205381485151097	3.0246296	1.7391462
30.22353564432045	3.031338	1.7410738
30.241690580180403	3.0126712	1.7357048
30.25984629328638	3.0167387	1.7368761
30.278002784194037	3.0222056	1.7384492
30.296160053459246	2.9631386	1.7213769
30.314318101638033	2.945542	1.7162582
30.332476929286646	2.9841926	1.7274816
30.35063653696153	2.9612575	1.7208304
30.368796925219307	2.9362302	1.7135432
30.386958094616844	3.0323045	1.7413514
30.40512004571115	3.0056944	1.7336938
30.423282779059463	2.8535097	1.6892334
30.441446295219233	2.8420138	1.6858274
30.459610594748067	2.8811772	1.6974031
30.47777567820382	2.854494	1.6895248
30.495941546144504	2.8122787	1.676985
30.51410819912835	2.7878096	1.6696736
30.532275637713795	2.880974	1.6973432
30.55044386245946	2.9215245	1.7092468
30.56861287392416	2.907251	1.7050662
30.586782672666956	2.8239267	1.6804543
30.604953259247047	2.73621	1.6541494
30.623124634223885	2.7508774	1.658577
30.641296798157075	2.820292	1.6793725
30.659469751606462	2.8055713	1.674984
30.677643495132074	2.8096292	1.6761949
30.695818029294152	2.7953846	1.6719403
30.713993354653116	2.7139928	1.64742
30.73216947176962	2.7359283	1.6540642
30.75034638120448	2.8318067	1.6827973
30.768524083518756	2.861421	1.6915735
30.786702579273673	2.839336	1.685033
30.80488186903069	2.8930216	1.7008885
30.82306195335144	2.963171	1.7213863
30.841242832797782	3.1308734	1.7694274
30.85942450793176	3.4268887	1.8511858
30.877606979315637	3.7663214	1.9407012
30.895790247511883	4.091953	2.0228577
30.913974313083134	4.5459933	2.1321335
30.932159176592283	4.850854	2.2024655
30.95034483860237	4.901065	2.2138348
30.968531299676698	4.7364306	2.1763341
30.98671856037873	4.4610047	2.1121092
31.00490662127215	4.0533786	2.0133004
31.023095482920848	3.5693445	1.8892709
31.04128514588892	3.0880222	1.7572769
31.059475610740662	2.6857152	1.6388152
31.07766687804056	2.5332959	1.5916331
31.09585894835335	2.5348132	1.5921097
31.11405182224393	2.5360615	1.5925016
31.132245500277417	2.519876	1.5874118
31.15043998301914	2.4445488	1.5635053
31.168635271034628	2.5162349	1.5862645
31.18683136488964	2.5243108	1.588808
31.20502826515008	2.4754257	1.5733485
31.223225972382135	2.3874576	1.54514
31.241424487152155	2.4151003	1.5540593
31.259623810026692	2.4714866	1.5720962
31.27782394157253	2.500929	1.5814326
31.296024882356644	2.4991336	1.5808648
31.314226632946237	2.457978	1.567794
31.332429193908684	2.4270618	1.557903
31.350632565811598	2.4442303	1.5634035
31.368836749222787	2.451377	1.5656874
31.387041744710295	2.4631152	1.5694315
31.40524755284232	2.525391	1.5891479
31.423454174187317	2.5705929	1.6033069
31.441661609313922	2.5766358	1.6051903
31.459869858791002	2.4975262	1.5803564
31.478078923187628	2.4111333	1.5527824
31.496288803073064	2.4643793	1.5698341
31.514499499016807	2.443973	1.5633211
31.532711011588546	2.4460516	1.5639858
31.550923341358178	2.4119856	1.5530568
31.56913648889584	2.3740063	1.540781
31.587350454771844	2.3705926	1.5396729
31.605565239556732	2.3586645	1.5357944
31.62378084382127	2.3367584	1.5286459
31.641997268136382	2.348089	1.5323476
31.660214513073274	2.3188891	1.52279
31.67843257920331	2.3351545	1.5281212
31.6966514670981	2.317405	1.5223025
31.71487117732944	2.2996428	1.5164573
31.733091710469346	2.288662	1.5128324
31.751313067090052	2.246281	1.4987597
31.769535247764008	2.2318285	1.4939306
31.787758253063878	2.2248635	1.4915977
31.805982083562526	2.2565525	1.5021826
31.824206739833024	2.341401	1.5301638
31.84243222244869	2.3533878	1.5340756
31.860658531983013	2.338777	1.529306
31.878885669009737	2.3907738	1.5462127
31.897113634102784	2.4051578	1.5508571
31.91534242783632	2.3287876	1.5260365
31.933572050784694	2.2456741	1.4985573
31.951802503522508	2.2371278	1.4957031
31.970033786624548	2.360878	1.5365149
31.988265900665834	2.3236403	1.5243492
32.006498846221575	2.2277267	1.492557
32.02473262386724	2.1504552	1.4664431
32.04296723417845	2.1806972	1.4767184
32.0612026777311	2.2379515	1.4959785
32.07943895510129	2.2381818	1.4960554
32.097676066865304	2.2054338	1.4850703
32.115914013599685	2.1834073	1.4776357
32.13415279588115	2.1379294	1.462166
32.152392414286666	2.1317136	1.4600389
32.1706328693934	2.2016816	1.4838065
32.18887416177875	2.206459	1.4854155
32.20711629202032	2.0893161	1.4454467
32.225359260695924	2.0127664	1.41872
32.243603068383614	2.1240623	1.4574163
32.26184771566166	2.1818428	1.4771062
32.28009320310852	2.2035117	1.484423
32.2983395313029	2.1662283	1.4718112
32.31658670082372	2.1980083	1.4825681
32.33483471225012	2.1134834	1.4537824
32.35308356616143	2.0835388	1.4434469
32.371333263137245	2.1350694	1.4611876
32.38958380375734	2.136739	1.4617589
32.407835188601744	2.1047208	1.4507656
32.42608741825067	2.0736156	1.4400054
32.444340493284585	2.129749	1.459366
32.46259441428416	2.1433036	1.4640026
32.48084918183028	2.097471	1.4482648
32.49910479650405	2.0088577	1.4173418
32.51736125888683	2.1091158	1.4522796
32.53561856956014	2.1653488	1.4715124
32.5538767291058	2.0906205	1.4458978
32.572135738105764	1.9960766	1.4128257
32.59039559714228	2.0591116	1.4349605
32.608656306797776	2.0673554	1.4378301
32.62691786765491	2.1135483	1.4538047
32.645180280296586	2.1761725	1.4751856
32.663443545305896	2.137679	1.4620804
32.68170766326619	2.1079743	1.4518864
32.69997263476099	2.1214373	1.4565154
32.7182384603741	2.132351	1.4602572
32.7365051406895	2.0935616	1.4469146
32.75477267629144	2.0329428	1.4258131
32.77304106776434	1.8924046	1.375647
32.79131031569289	1.9291784	1.3889487
32.809580420661966	2.0286918	1.4243215
32.827851383256714	2.0636284	1.4365335
32.84612320406245	2.0057178	1.4162337
32.86439588366476	1.9414878	1.3933728
32.88266942264945	1.9080501	1.3813219
32.9009438216025	1.9960263	1.412808
32.9192190811102	2.0574076	1.4343666
32.937495201758985	2.0519733	1.432471
32.95577218413556	2.0367594	1.4271508
32.974050028826866	2.0464272	1.4305339
32.992328736420035	2.0645688	1.4368607
33.010608307502444	1.9560314	1.398582
33.02888874266169	1.8860888	1.3733495
33.047170042485604	1.9986641	1.4137412
33.06545220756225	2.0707781	1.4390198
33.083735238479896	2.1240652	1.4574172
33.10201913582707	2.118721	1.4555827
33.12030390019248	2.0760005	1.4408332
33.138589532165135	2.0565894	1.4340813
33.15687603233419	2.0805752	1.4424199
33.17516340128909	1.9899927	1.410671
33.19345163961947	1.9251721	1.3875057
33.211740747915215	2.006566	1.4165331
33.23003072676643	2.0096793	1.4176316
33.248321576763466	1.947949	1.3956895
33.266613298496885	1.9204515	1.3858036
33.28490589255747	1.8736398	1.3688096
33.30319935953626	1.8393154	1.3562137
33.32149370002451	1.864789	1.3655728
33.339788914613706	1.9422591	1.3936496
33.358085003895575	1.9917884	1.4113073
33.376381968462034	1.953771	1.3977736
33.39467980890529	1.9088703	1.3816187
33.41297852581774	1.9173088	1.3846692
33.43127811979204	1.8380506	1.3557472
33.44957859142105	1.7594553	1.3264446
33.467879941297866	1.8052907	1.3436111
33.486182170015844	1.9442184	1.3943523
33.50448527816853	1.9314634	1.389771
33.522789266349754	1.9534593	1.397662
33.541094135153514	1.9830568	1.4082105
33.55939988517411	1.9170177	1.384564
33.57770651700602	1.8681306	1.3667958
33.59601403124398	1.8642958	1.3653922
33.61432242848296	2.0103652	1.4178735
33.632631709318154	1.9967085	1.4130493
33.650941874344994	1.917172	1.3846198
33.66925292415916	1.8722007	1.3682839
33.68756485935654	1.8623198	1.3646684
33.70587768053328	1.7998809	1.3415964
33.724191388285746	1.9180557	1.3849388
33.74250598321054	1.858722	1.3633496
33.760821465904506	1.7722504	1.331259
33.77913783696474	1.9044248	1.3800089
33.79745509698852	2.015668	1.4197422
33.815773246573414	2.0722964	1.4395473
33.8340922863172	2.046738	1.4306425
33.852412216817896	1.9992965	1.4139649
33.87073303867377	1.9330553	1.3903435
33.889054752483304	1.9206632	1.38588
33.907377358845245	1.9122255	1.3828324
33.92570085835853	1.926653	1.3880392
33.94402525162239	2.0374343	1.4273872
33.96235053923627	1.9797953	1.407052
33.980676721799824	1.8624231	1.3647063
33.999003799912984	1.9278145	1.3884575
34.01733177417592	2.0337434	1.4260937
34.03566064518901	1.9960711	1.4128238
34.0539904135529	1.9761361	1.4057511
34.07232107986846	1.9577273	1.399188
34.090652644736785	1.9176366	1.3847876
34.108985108759235	1.9349195	1.3910139
34.12731847253742	1.8407739	1.3567512
34.14565273667313	1.8158875	1.3475487
34.16398790176847	1.9403993	1.3929821
34.18232396842574	2.0406911	1.4285276
34.20066093724749	1.9844846	1.4087174
34.21899880883651	1.9181347	1.3849674
34.23733758379583	1.9620172	1.4007202
34.25567726272874	2.028365	1.4242067
34.27401784623872	2.0623374	1.436084
34.29235933492957	2.0065796	1.4165379
34.31070172940526	1.956672	1.3988109
34.32904503027003	1.9651643	1.4018432
34.347389238128386	1.9711529	1.4039775
34.36573435358502	1.995681	1.4126858
34.38408037724492	1.8622376	1.3646382
34.402427309713296	1.809468	1.3451647
34.42077515159559	1.9921259	1.4114269
34.43912390349752	2.0375767	1.4274371
34.45747356602499	2.0810077	1.4425699
34.47582413978423	2.1919014	1.4805071
34.49417562538163	2.0852013	1.4440227
34.51252802342388	1.9413047	1.3933071
34.53088133451789	2.0040762	1.415654
34.54923555927084	2.0453846	1.4301695
34.567590698290104	2.067216	1.4377816
34.58594675218336	2.0981064	1.4484842
34.6043037215585	2.1602871	1.4697915
34.62266160702365	2.0296247	1.424649
34.641020409187234	1.8684976	1.36693
34.65938012865785	1.9093777	1.3818023
34.677740766044394	1.9364735	1.3915724
34.69610232195598	2.0159326	1.4198354
34.714464797002016	2.0516906	1.4323723
34.73282819179208	1.9493259	1.3961827
34.751192506936064	1.8853632	1.3730853
34.76955774304408	1.9272926	1.3882697
34.7879239007265	1.8814019	1.371642
34.80629098059391	1.8633661	1.3650517
34.824658983257194	1.9635371	1.4012626
34.843027909327446	1.9877414	1.4098728
34.86139775941603	1.8781952	1.3704726
34.879768534134534	1.9459219	1.394963
34.89814023409483	2.2177653	1.4892163
34.91651285990901	2.2124615	1.4874345
34.93488641218944	2.1439447	1.4642216
34.95326089154871	2.0389414	1.4279151
34.97163629859967	1.8972654	1.3774126
34.99001263395542	1.9117881	1.3826742
35.00838989822934	1.9484246	1.3958598
35.02676809203499	1.867563	1.3665881
35.04514721598624	1.8847347	1.3728564
35.063527270697215	1.905831	1.3805183
35.081908256782256	1.9974414	1.4133086
35.10029017485597	2.1531742	1.4673698
35.11867302553321	2.1562498	1.4684174
35.137056809429104	1.9399354	1.3928157
35.155441527159006	1.9515147	1.3969662
35.173827179338524	2.1073225	1.451662
35.19221376658354	1.9998782	1.4141705
35.21060128951017	1.9182265	1.3850006
35.2289897487348	1.8217381	1.3497177
35.24737914487405	1.8015546	1.3422201
35.26576947854479	1.8207502	1.3493518
35.28416075036418	1.7801423	1.3342197
35.30255296094958	1.9494821	1.3962386
35.32094611091867	2.3256764	1.5250169
35.33934020088932	2.4625988	1.5692669
35.35773523147969	2.3715646	1.5399885
35.3761312033082	2.0692947	1.4385043
35.394528116993506	1.994156	1.4121459
35.41292597315452	2.3133252	1.5209619
35.431324772410434	2.290328	1.513383
35.449724515380666	2.1219244	1.4566827
35.46812520268491	1.8086587	1.3448638
35.486526834943106	2.1968212	1.4821677
35.504929412775454	2.5592148	1.5997546
35.52333293680242	2.0729196	1.4397638
35.54173740764471	1.945331	1.3947512
35.560142825923286	2.1110299	1.4529383
35.5785491922594	2.2066345	1.4854745
35.59695650727454	2.2580333	1.5026754
35.61536477159042	1.8569168	1.3626873
