0.008763373481513119	0.051685803	0.22734512
0.026290120649546365	0.18429624	0.4292974
0.043816868432600686	0.12367553	0.35167533
0.06134361724069026	0.15665877	0.39580142
0.07887036748382949	0.08475578	0.29112846
0.0963971195720331	0.08242517	0.28709784
0.11392387391531617	0.07670106	0.27694955
0.1314506309236943	0.04118473	0.20294021
0.1489773910071836	0.104840614	0.323791
0.16650415457580078	0.19929369	0.4464232
0.18403092203956356	0.20118678	0.44853848
0.20155769380849	0.19827935	0.4452857
0.2190844702925996	0.12279471	0.35042077
0.2366112519019124	0.1534504	0.39172745
0.2541380390464497	0.148838	0.3857953
0.27166483213623416	0.10800927	0.32864764
0.28919163158128947	0.11781168	0.34323707
0.3067184377916406	0.11792223	0.34339806
0.324245251177314	0.12073723	0.34747264
0.34177207214833777	0.094658345	0.30766597
0.3592989011147415	0.07561393	0.27497986
0.37682573848655654	0.061196435	0.24737914
0.39435258467381573	0.10550693	0.32481828
0.41187944008655414	0.11044232	0.33232862
0.42940630513480854	0.15125036	0.3889092
0.446933180228618	0.13962348	0.37366226
0.4644600657780234	0.16194262	0.40242094
0.48198696219306775	0.17128742	0.41386884
0.49951386988379676	0.19035088	0.4362922
0.5170407892602581	0.1922328	0.4384436
0.5345677207325025	0.19633001	0.44309142
0.5520946647105822	0.1853905	0.43056998
0.5696216216045534	0.13979	0.373885
0.5871485918244737	0.11458438	0.33850315
0.6046755757804043	0.12917888	0.35941464
0.6222025738824094	0.14303203	0.37819576
0.6397295865405557	0.1645164	0.4056062
0.6572566141649129	0.15289044	0.39101207
0.6747836571655547	0.13683899	0.36991754
0.6923107159525568	0.16439955	0.40546215
0.7098377909359992	0.18036208	0.42469057
0.7273648825259653	0.1732695	0.41625652
0.7448919911325411	0.16293499	0.40365207
0.762419117165817	0.16354145	0.40440258
0.7799462610358868	0.16277578	0.4034548
0.7974734231528482	0.17505446	0.4183951
0.8150006039268024	0.16658765	0.4081515
0.8325278037678551	0.1808111	0.42521888
0.8500550230861152	0.18546373	0.430655
0.8675822622916969	0.16990216	0.4121919
0.8851095217947171	0.1764098	0.42001167
0.9026368020052984	0.15503539	0.39374533
0.9201641033335665	0.13452162	0.36677188
0.9376914261896523	0.13208736	0.36343825
0.9552187709836915	0.17257708	0.415424
0.9727461381258234	0.21184716	0.46026856
0.990273528026193	0.26309183	0.5129248
1.0078009410949496	0.27301472	0.5225081
1.0253283777422473	0.27718925	0.52648765
1.0428558383782454	0.28493887	0.53379667
1.0603833234131086	0.28883678	0.53743535
1.0779108332570058	0.34664246	0.5887635
1.0954383683201119	0.36568794	0.60472137
1.112965929012607	0.42120826	0.6490056
1.1304935157446763	0.4882565	0.69875354
1.1480211289265108	0.52815247	0.726741
1.1655487689683062	1.3422332	1.1585479
1.1830764362802655	1.6542376	1.2861717
1.200604131272596	2.0579264	1.4345474
1.2181318543555117	2.3079262	1.519186
1.235659605939232	2.3063571	1.5186695
1.253187386433982	3.6982152	1.9230745
1.270715196249994	5.899934	2.428978
1.2882430357975057	11.15104	3.3393173
1.3057709054867608	16.07764	4.009693
1.3232988057280106	21.881628	4.67778
1.3408267369315112	27.004028	5.19654
1.358354699507526	30.73376	5.5438037
1.3758826938663256	34.609467	5.8829813
1.3934107204181858	36.682293	6.056591
1.410938779573391	36.863445	6.0715275
1.4284668717422309	37.57523	6.1298637
1.4459949973350033	37.026993	6.084981
1.4635231567620117	36.960094	6.0794816
1.4810513504335687	36.145283	6.0120945
1.4985795787599925	35.38751	5.94874
1.5161078421516088	35.11031	5.9253955
1.5336361410187505	34.13646	5.8426414
1.5511644757717598	34.19861	5.8479576
1.5686928468209842	34.887306	5.9065475
1.58622125457678	35.3464	5.945284
1.6037496994495108	36.38563	6.03205
1.621278181849548	36.292583	6.0243325
1.6388067021872719	36.97899	6.081035
1.6563352608730693	36.634552	6.0526485
1.673863858317336	35.773407	5.981087
1.6913924949304753	35.238983	5.936243
1.7089211711228998	33.915333	5.823687
1.7264498873050296	32.96432	5.7414565
1.7439786438872935	32.386635	5.6909256
1.7615074412801288	31.776295	5.637047
1.779036279893981	31.200169	5.585711
1.796565160139305	30.396637	5.5133147
1.814094082426564	29.526232	5.4338045
1.8316230471662298	28.82842	5.3692102
1.849152054768784	27.977236	5.289351
1.8666811056447168	27.460861	5.240311
1.8842102002045273	26.583109	5.155881
1.901739338858724	25.796316	5.0790076
1.9192685220178245	25.092258	5.0092173
1.9367977500923557	24.523811	4.9521523
1.9543270234928547	24.394836	4.939113
1.971856342629867	23.962858	4.8951874
1.9893857079139496	23.343637	4.8315253
2.006915119755667	22.375118	4.7302346
2.0244445785655945	21.733795	4.661952
2.0419740847543175	21.312658	4.6165633
2.0595036387324317	20.868795	4.568238
2.0770332409105414	20.294088	4.504896
2.094562891699263	19.896275	4.460524
2.1120925915092217	19.466862	4.4121265
2.129622340751053	19.196243	4.381352
2.1471521398354043	187.29689	13.685645
2.1646819891729323	443.48215	21.059015
2.182211889174303	439.8316	20.972162
2.1997418402501974	452.49677	21.27197
2.2172718428113023	432.44357	20.795279
2.234801897268317	320.45444	17.901241
2.2523320040319548	16.618427	4.0765705
2.269862163512935	16.280012	4.0348496
2.287392376121992	15.927786	3.990963
2.304922642269869	15.656996	3.9568923
2.322452962367322	15.549887	3.9433346
2.3399833368251164	15.245362	3.904531
2.357513766054032	15.238903	3.9037037
2.3750442504648586	15.154985	3.8929405
2.3925747904683963	14.773199	3.843592
2.410105386475459	14.451874	3.801562
2.4276360388968707	13.91073	3.7297091
2.445166748143469	13.800858	3.7149506
2.4626975146261025	13.494681	3.6735108
2.4802283387556323	13.270816	3.642913
2.4977592209429305	13.188202	3.6315565
2.5152901615988825	12.990876	3.6042857
2.5328211611343865	12.887256	3.5898824
2.5503522199603523	12.632589	3.5542355
2.5678833384877024	12.55741	3.5436437
2.5854145171273712	12.424606	3.5248556
2.6029457562903064	12.172129	3.4888577
2.620477056387469	11.849206	3.4422677
2.6380084178298326	11.514193	3.393257
2.655539841028383	11.383281	3.3739119
2.673071326394119	11.162255	3.3409963
2.6906028743380523	10.934355	3.3067136
2.708134485271211	10.750349	3.2787726
2.7256661596046325	10.757923	3.2799273
2.743197897749369	10.699096	3.2709472
2.760729700116486	10.524719	3.2441823
2.778261567117063	10.265233	3.2039402
2.795793499162193	9.923746	3.1501977
2.8133254966629817	9.7823925	3.1276817
2.830857560030551	9.646451	3.1058736
2.8483896896760337	9.543082	3.0891879
2.865921886010578	9.288545	3.0477114
2.883454149445347	9.124035	3.0206017
2.9009864803915177	8.960374	2.9933884
2.91851887926028	9.085318	3.0141861
2.9360513464628384	9.185935	3.0308309
2.953583882410413	9.234418	3.0388186
2.9711164875142373	9.031522	3.005249
2.9886491621855606	8.8351345	2.9723954
3.0061819068356455	8.567192	2.9269767
3.023714721875769	8.379567	2.8947482
3.041247607717225	8.207311	2.8648405
3.0587805647713213	8.107487	2.847365
3.0763135934493806	8.035985	2.8347814
3.0938466941627407	7.9817758	2.8252037
3.1113798673227544	8.070732	2.8409033
3.1289131133407904	7.937591	2.817373
3.1464464326282315	7.826944	2.7976675
3.1639798255964786	7.4769626	2.7344036
3.1815132926569443	7.3209786	2.7057307
3.1990468342210603	7.4217525	2.7242894
3.216580450700272	7.483094	2.7355244
3.2341141425060416	7.436483	2.7269917
3.251647910049847	7.2132506	2.6857495
3.2691817537431813	7.0867434	2.6620939
3.286715673997555	7.0040526	2.646517
3.3042496712244938	6.8986154	2.6265216
3.32178374583554	6.8356524	2.6145082
3.339317898242251	6.9423323	2.6348307
3.3568521288562034	6.8850327	2.6239345
3.3743864380889876	6.7204757	2.592388
3.3919208263522127	6.518111	2.553059
3.4094552940575023	6.389697	2.527785
3.4269898416164972	6.4212203	2.5340128
3.444524469440858	6.4887543	2.5473034
3.4620591779422587	6.5812078	2.5653865
3.479593967532391	6.5587554	2.5610068
3.4971288386229658	6.353437	2.5206025
3.5146637916257086	6.187874	2.4875438
3.5321988269523628	6.1328864	2.4764664
3.5497339450146903	6.174602	2.4848747
3.5672691462244708	6.3129787	2.5125642
3.5848044309934988	6.3043265	2.5108418
3.60233979973359	6.2280645	2.495609
3.619875252856575	6.242187	2.498437
3.6374107907743034	6.1720953	2.4843702
3.6549464138986427	6.1257586	2.475027
3.6724821226414788	6.123581	2.474587
3.690017917414714	6.1357355	2.4770417
3.7075537986302702	6.231514	2.4963
3.7250897667000857	6.296779	2.5093384
3.7426258220361235	6.479261	2.5454392
3.7601619650503553	6.6918144	2.5868542
3.777698196154779	7.2183633	2.6867013
3.7952345157614067	8.209576	2.8652358
3.8127709242822716	8.9951315	2.9991884
3.830307422129425	11.136479	3.3371365
3.847844009714936	12.431342	3.525811
3.8653806874508954	15.766362	3.9706879
3.882917455749409	15.377618	3.9214306
3.900454315022606	15.457543	3.9316082
3.917991265682631	12.528773	3.5396006
3.9355283081416506	10.624637	3.2595456
3.9530654428118495	8.627844	2.9373193
3.970602670105433	7.4209127	2.7241352
3.9881399904346244	6.539987	2.55734
4.005677404211669	6.3216987	2.514299
4.023214911848827	6.2378054	2.4975598
4.0407525137583855	6.2207804	2.4941492
4.058290210352644	6.2931447	2.508614
4.075828002043927	6.219976	2.493988
4.0933658892445814	6.1590004	2.4817333
4.110903872366966	6.1207876	2.4740226
4.128441951823468	6.0700827	2.4637537
4.145980128026488	6.0902586	2.467845
4.163518401388452	6.0464597	2.458955
4.181056772321807	6.052358	2.460154
4.1985952412390155	6.08368	2.4665117
4.216133808552567	6.102999	2.470425
4.233672474674966	6.0634513	2.4624076
4.251211240018741	6.2348185	2.4969618
4.268750104996445	6.5531764	2.5599172
4.286289070020643	7.6257043	2.7614677
4.303828135503928	9.436269	3.071851
4.3213673018589125	29.643066	5.444545
4.3389065694982305	90.73864	9.525683
4.356445938834537	165.55412	12.866784
4.3739854102805085	170.89664	13.072744
4.391524984248844	171.73494	13.104768
4.409064661152262	136.09605	11.666021
4.426604441403504	96.62321	9.82971
4.444144325415337	75.53844	8.691285
4.461684313600543	21.508535	4.6377296
4.47922440637193	21.490574	4.6357927
4.496764604142329	19.878057	4.4584813
4.5143049073245916	18.125666	4.257425
4.531845316331589	16.161663	4.020157
4.5493858315762195	13.347251	3.653389
4.566926453471405	11.033793	3.3217154
4.584467182430081	9.088196	3.0146635
4.602008018865218	7.947513	2.8191333
4.619548963189798	7.274411	2.6971116
4.637090015816834	6.716102	2.5915444
4.654631177159353	6.3967624	2.5291822
4.672172447630417	6.2143717	2.4928641
4.689713827643102	6.15951	2.481836
4.7072553176105085	5.981182	2.4456456
4.724796917945764	5.784477	2.405094
4.742338629062015	5.7162566	2.3908694
4.759880451372434	5.675349	2.3822992
4.777422385290215	5.655937	2.3782215
4.794964431228581	5.665713	2.3802757
4.812506589600768	5.635049	2.3738258
4.830048860820047	5.5918083	2.3647006
4.847591245299709	5.5538917	2.3566697
4.8651337434530655	5.566618	2.359368
4.882676355693457	5.568634	2.3597953
4.900219082434242	5.525731	2.3506873
4.917761924088813	5.4869366	2.342421
4.935304881070575	5.4335356	2.3309946
4.952847953792969	5.3933787	2.3223648
4.970391142669449	5.322116	2.306971
4.9879344481135055	5.302672	2.3027532
5.005477870538642	5.3005733	2.3022974
5.023021410358394	5.3164387	2.3057404
5.040565067986324	5.311491	2.3046672
5.05810884383601	5.339014	2.3106306
5.075652738321066	5.2999887	2.3021705
5.09319675185512	5.344439	2.3118043
5.110740884851836	5.3249545	2.3075862
5.128285137724894	5.257101	2.292837
5.145829510888007	5.3286595	2.308389
5.163374004754908	5.3432403	2.311545
5.1809186197393595	5.311168	2.3045971
5.198463356255145	5.305349	2.3033342
5.216008214716077	5.278676	2.2975368
5.233553195535998	5.2983804	2.301821
5.251098299128764	5.3636937	2.315965
5.268643525908272	5.282561	2.2983823
5.286188876288432	5.18836	2.2777972
5.3037343506831895	5.1436243	2.267956
5.32127994950651	5.101272	2.2585995
5.3388256731723915	5.1573114	2.2709715
5.356371522094851	5.129141	2.2647607
5.373917496687938	5.116568	2.2619832
5.391463597365729	5.1022105	2.2588074
5.40900982454232	5.0179477	2.2400775
5.426556178631843	4.978754	2.2313123
5.444102660048449	4.955007	2.2259846
5.4616492692063225	4.998223	2.2356706
5.479196006519669	5.066498	2.250888
5.496742872402727	5.068335	2.2512963
5.514289867269756	5.1189814	2.2625165
5.531836991535049	5.182382	2.2764845
5.549384245612924	5.232111	2.2873807
5.566931629917724	5.1722517	2.2742586
5.584479144863822	5.0954876	2.2573187
5.6020267908656205	5.066631	2.2509177
5.619574568337545	5.1446023	2.2681715
5.637122477694054	5.0959644	2.2574244
5.654670519349629	5.0357237	2.244042
5.672218693718784	5.019856	2.2405035
5.689767001216059	5.071492	2.2519975
5.707315442256021	5.135941	2.2662616
5.724864017253266	5.1562295	2.2707334
5.7424127266224225	5.0780697	2.2534573
5.75996157077814	4.9897413	2.233773
5.777510550135105	4.9783645	2.2312248
5.795059665108022	5.0181756	2.2401285
5.812608916111639	5.0980144	2.2578783
5.830158303560715	5.2060986	2.2816877
5.847707827870055	5.3293753	2.308544
5.86525748945448	5.3232975	2.3072271
5.8828072887288485	5.445073	2.333468
5.900357226108044	5.430913	2.330432
5.917907302006979	5.5012794	2.3454807
5.9354575168406	6.072584	2.4642613
5.9530078710238765	6.711902	2.590734
5.970558364971812	7.259248	2.6942992
5.988108999099438	7.6366177	2.763443
6.005659773821818	8.076523	2.8419223
6.023210689554039	7.805129	2.793766
6.040761746711227	8.190824	2.8619616
6.058312945708531	7.665107	2.7685928
6.075864286961132	7.208651	2.6848931
6.093415770884244	6.5746384	2.5641057
6.1109673978931065	6.047573	2.4591813
6.128519168402993	5.4603114	2.336731
6.146071082829204	5.3164053	2.3057332
6.163623141587075	5.1845326	2.2769568
6.181175345091969	5.136644	2.2664165
6.198727693759281	5.0856795	2.255145
6.216280188004435	5.070662	2.251813
6.233832828242885	5.013193	2.239016
6.251385614890126	5.0221663	2.241019
6.268938548361669	5.0865574	2.2553399
6.286491629073067	4.9900665	2.2338457
6.304044857439898	4.98366	2.2324114
6.321598233877777	4.867338	2.2062044
6.339151758802344	4.907137	2.215206
6.356705432629277	4.8877535	2.2108264
6.37425925577428	4.812273	2.1936893
6.391813228653095	4.799495	2.190775
6.409367351681486	4.880201	2.2091177
6.426921625275259	4.9413934	2.2229245
6.44447604985025	4.935766	2.2216585
6.46203062582232	4.8549676	2.2033992
6.47958535360737	4.8451157	2.2011623
6.497140233621328	4.8351903	2.1989067
6.514695266280161	4.8683767	2.2064397
6.532250451999859	4.9697137	2.2292855
6.549805791196454	5.023937	2.241414
6.567361284286002	5.0424066	2.2455304
6.584916931684597	5.0858135	2.2551749
6.602472733808367	5.0420136	2.2454429
6.6200286910734665	5.030681	2.242918
6.637584803896092	5.0052958	2.2372518
6.655141072692462	4.926873	2.219656
6.672697497878842	4.913709	2.2166889
6.690254079871514	4.9017744	2.2139952
6.707810819086808	4.951413	2.225177
6.725367715941078	4.9772325	2.230971
6.742924770850719	4.9385123	2.2222764
6.760481984232151	4.873502	2.2076008
6.778039356501836	4.823316	2.196205
6.795596888076266	4.7856483	2.1876125
6.813154579371963	4.812098	2.1936495
6.830712430805492	4.8361983	2.1991358
6.84827044279344	4.8379498	2.199534
6.865828615752445	4.8265734	2.1969464
6.883386950099159	4.836857	2.1992855
6.900945446250287	4.8874483	2.2107575
6.918504104622553	4.938918	2.2223678
6.936062925632727	5.055492	2.2484422
6.953621909697607	5.110096	2.2605522
6.971181057234028	5.097485	2.257761
6.988740368658859	5.1265	2.2641776
7.006299844389007	5.145941	2.2684667
7.023859484841407	5.2390857	2.288905
7.041419290433036	5.3038616	2.3030114
7.058979261580902	5.4154806	2.3271186
7.0765393987020495	5.634908	2.3737962
7.094099702213559	5.990114	2.447471
7.111660172532549	6.2826166	2.5065148
7.129220810076164	6.6535206	2.579442
7.146781615261595	7.308044	2.7033393
7.16434258850606	7.533571	2.744735
7.181903730226821	7.9105425	2.8125687
7.1994650408411704	7.868326	2.8050537
7.217026520766437	8.034608	2.8345385
7.234588170419983	8.311649	2.8829932
7.252149990219215	8.432272	2.9038374
7.269711980581568	8.245287	2.8714607
7.2872741419245175	8.027292	2.8332477
7.304836474665574	7.5686955	2.7511263
7.322398979222286	7.3154874	2.7047157
7.339961656012233	7.107325	2.6659567
7.357524505453039	6.7430096	2.5967305
7.375087527962357	6.3697777	2.5238419
7.392650723957886	6.036535	2.4569361
7.410214093857353	5.7740884	2.4029334
7.427777638078528	5.6100683	2.3685582
7.445341357039213	5.5249434	2.35052
7.4629052511572525	5.407445	2.3253913
7.480469320850524	5.352874	2.313628
7.498033566536948	5.2523713	2.2918053
7.5155979886344735	5.160374	2.2716458
7.5331625875610975	5.112411	2.261064
7.550727363734844	5.07851	2.2535548
7.568292317573788	5.130668	2.2650979
7.585857449496025	5.13017	2.264988
7.603422759919705	5.1620193	2.2720077
7.620988249263007	5.1455016	2.26837
7.638553917944147	5.2023277	2.2808611
7.656119766381391	5.194564	2.2791586
7.673685794993023	5.2184753	2.2843983
7.691252004197388	5.193797	2.2789903
7.70881839441285	5.1434565	2.267919
7.726384966057826	5.1070914	2.2598875
7.743951719550762	5.1101713	2.2605689
7.761518655310149	5.142865	2.2677886
7.779085773754511	5.1982446	2.2799659
7.796653075302419	5.2715216	2.2959795
7.814220560372475	5.353981	2.313867
7.831788229383323	5.366668	2.316607
7.8493560827536495	5.405647	2.3250046
7.866924120902174	5.366309	2.3165295
7.884492344247663	5.3084087	2.3039985
7.9020607532089135	5.304777	2.3032103
7.919629348204771	5.311457	2.3046598
7.937198129654115	5.371106	2.3175647
7.954767097975865	5.367574	2.3168025
7.972336253588986	5.340133	2.3108728
7.989905596912472	5.2755146	2.2968488
8.007475128365371	5.345622	2.31206
8.025044848366756	5.3992486	2.3236284
8.042614757335754	5.5720015	2.3605087
8.060184855691523	5.5904765	2.3644187
8.07775514385327	5.684196	2.3841553
8.095325622240228	5.706409	2.3888092
8.112896291271687	5.738575	2.3955324
8.130467151366968	5.8162584	2.4116921
8.148038202945436	5.8510857	2.4189017
8.165609446426497	5.8752446	2.4238904
8.183180882229594	5.924478	2.434025
8.200752510774217	5.926548	2.4344501
8.218324332479893	5.932788	2.4357314
8.235896347766193	5.9317737	2.4355233
8.253468557052724	5.892453	2.4274375
8.27104096075914	5.8836703	2.4256277
8.288613559305137	5.932126	2.4355955
8.306186353110448	6.0462956	2.4589217
8.32375934259485	6.13526	2.4769456
8.341332528178162	6.125131	2.4749002
8.358905910280246	6.0937667	2.4685557
8.376479489321003	6.084954	2.46677
8.394053265720377	6.111979	2.4722416
8.411627239898356	6.12353	2.4745767
8.42920141227497	6.0830903	2.4663923
8.44677578327029	6.0642533	2.4625704
8.464350353304427	6.026878	2.4549701
8.48192512279754	6.0255604	2.4547017
8.499500092169827	6.032017	2.4560165
8.51707526184153	6.0480824	2.459285
8.534650632232934	6.128741	2.4756293
8.552226203764365	6.1283164	2.4755437
8.569801976856192	6.145013	2.4789135
8.587377951928834	6.170818	2.484113
8.60495412940274	6.24015	2.4980292
8.622530509698416	6.219406	2.4938738
8.6401070932364	6.300357	2.5100513
8.657683880437283	6.394585	2.5287516
8.675260871721695	6.549243	2.5591488
8.692838067510303	6.744109	2.5969422
8.710415468223834	6.8881745	2.6245332
8.727993074283043	7.0108614	2.647803
8.745570886108737	7.0065255	2.6469843
8.763148904121765	7.0416703	2.6536145
8.78072712874302	7.08706	2.6621532
8.798305560393441	7.332622	2.7078815
8.815884199494006	7.427429	2.725331
8.833463046465745	7.62511	2.7613602
8.851042101729728	7.7388263	2.7818747
8.86862136570707	8.099382	2.8459413
8.886200838818924	8.228801	2.8685887
8.903780521486505	8.289859	2.8792114
8.921360414131055	8.350715	2.8897603
8.938940517173874	8.544377	2.9230766
8.956520831036297	8.686535	2.9472928
8.97410135613971	9.017549	3.0029233
8.99168209290554	9.079437	3.0132105
9.009263041755265	9.3384	3.0558796
9.026844203110405	9.533734	3.0876746
9.044425577392525	9.785627	3.1281986
9.062007165023239	9.838566	3.136649
9.079588966424197	10.106277	3.179037
9.097170982017108	10.226554	3.1978984
9.11475321222372	11.199496	3.3465648
9.132335657465825	12.0803585	3.475681
9.149918318165264	12.067921	3.4738913
9.167501194743924	12.529016	3.539635
9.18508428762374	12.162256	3.4874427
9.202667597226693	12.229669	3.4970944
9.220251123974803	12.034258	3.4690428
9.237834868290143	11.838292	3.440682
9.255418830594836	11.430422	3.3808906
9.273003011311046	10.827781	3.2905593
9.290587410860985	10.542942	3.2469897
9.308172029666911	10.040113	3.168614
9.32575686815113	9.89943	3.146336
9.343341926735997	8.677	2.945675
9.360927205843916	8.409397	2.8998961
9.378512705897327	8.204467	2.8643441
9.396098427318728	8.099965	2.8460438
9.413684370530664	8.041507	2.835755
9.431270535955722	7.895105	2.809823
9.448856924016539	7.754221	2.78464
9.466443535135806	7.5686755	2.7511225
9.484030369736251	7.559053	2.7493732
9.501617428240658	7.543261	2.7464998
9.519204711071852	7.5883775	2.754701
9.536792218652714	7.6218567	2.760771
9.55437995140617	7.651322	2.7661023
9.571967909755191	7.6697683	2.7694347
9.589556094122802	7.765561	2.7866757
9.60714450493207	7.839914	2.7999847
9.624733142606116	7.8464327	2.8011484
9.642322007568108	7.829757	2.7981703
9.659911100241267	7.80209	2.7932222
9.677500421048851	7.8821826	2.8075225
9.695089970414175	7.9528413	2.8200781
9.712679748760609	8.015877	2.8312323
9.730269756511557	8.019884	2.83194
9.747859994090492	8.00742	2.8297384
9.765450461920915	8.0274515	2.8332758
9.78304116042639	8.078916	2.8423433
9.800632090030527	8.153166	2.8553748
9.81822325115699	8.155588	2.855799
9.835814644229481	8.170087	2.8583364
9.853406269671762	8.230674	2.868915
9.870998127907646	8.25544	2.873228
9.888590219360985	8.326306	2.885534
9.906182544455698	8.300948	2.8811367
9.923775103615734	8.212566	2.8657575
9.941367897265108	8.132213	2.8517034
9.958960925827878	8.03654	2.8348792
9.97655418972816	8.105081	2.8469424
9.994147689390106	8.106793	2.847243
10.011741425237934	8.081948	2.8428767
10.029335397695904	8.075023	2.8416584
10.04692960718833	8.137609	2.8526495
10.06452405413958	8.180518	2.8601606
10.082118738974064	8.251553	2.8725517
10.099713662116246	8.16492	2.8574324
10.117308823990651	8.132395	2.8517354
10.134904225021844	8.108859	2.847606
10.152499865634445	8.059843	2.8389862
10.170095746253125	8.110132	2.8478293
10.18769186730261	8.018213	2.831645
10.205288229207675	8.056076	2.8383226
10.222884832393145	8.050516	2.8373432
10.2404816772839	8.049157	2.8371036
10.258078764304868	8.037373	2.835026
10.275676093881035	7.9798756	2.8248672
10.293273666437438	7.9393444	2.8176842
10.310871482399158	8.010846	2.8303437
10.32846954219134	7.9986577	2.8281898
10.346067846239173	8.040491	2.835576
10.363666394967908	8.028659	2.8334887
10.38126518880283	8.074929	2.841642
10.398864228169298	8.12688	2.8507683
10.416463513492713	8.136764	2.8525014
10.434063045198531	8.10868	2.8475745
10.451662823712262	8.030315	2.833781
10.469262849459467	8.095895	2.8453286
10.486863122865758	8.05858	2.838764
10.504463644356806	8.084604	2.8433437
10.522064414358338	8.034175	2.834462
10.539665433296118	7.9321737	2.8164115
10.557266701595987	7.8102193	2.794677
10.574868219683818	7.7037683	2.7755663
10.592469987985552	7.72175	2.7788036
10.610072006927185	7.602373	2.75724
10.627674276934751	7.4768414	2.7343814
10.64527679843435	7.27686	2.6975656
10.662879571852143	7.1534057	2.674585
10.680482597614331	7.0786934	2.6605814
10.698085876147173	6.9742146	2.640874
10.715689407876988	6.802845	2.6082263
10.733293193230146	6.6756597	2.5837297
10.750897232633072	6.613366	2.5716467
10.76850152651225	6.583184	2.5657716
10.786106075294207	6.5092087	2.551315
10.803710879405534	6.508548	2.5511856
10.821315939272877	6.4615846	2.5419648
10.83892125532294	6.4095235	2.5317037
10.856526827982472	6.3281407	2.5155797
10.874132657678285	6.2511954	2.5002391
10.891738744837243	6.1760435	2.4851646
10.909345089886271	6.141684	2.4782422
10.926951693252343	6.0779223	2.4653442
10.944558555362494	6.0724626	2.4642367
10.96216567664381	6.0111523	2.451765
10.979773057523436	6.005146	2.4505398
10.997380698428573	5.913855	2.4318419
11.014988599786477	5.731366	2.3940272
11.032596762024461	5.6487513	2.3767102
11.050205185569892	5.5620036	2.35839
11.067813870850198	5.5493283	2.3557012
11.085422818292859	5.490299	2.3431387
11.10303202832541	5.450757	2.3346856
11.120641501375454	5.3761516	2.3186529
11.138251237870636	5.2777376	2.2973328
11.155861238238671	5.2319174	2.2873385
11.173471502907317	5.1926875	2.2787468
11.191082032304402	5.1234756	2.2635095
11.208692826857805	5.0649495	2.2505443
11.226303886995465	4.9774585	2.231022
11.243915213145371	4.949779	2.22481
11.261526805735578	4.8451047	2.20116
11.279138665194196	4.8097324	2.1931102
11.296750791949393	4.798462	2.1905391
11.314363186429393	4.780248	2.1863778
11.331975849062479	4.694167	2.1666026
11.34958878027699	4.6058407	2.1461222
11.36720198050133	4.565704	2.1367507
11.384815450163948	4.557617	2.1348577
11.402429189693366	4.5230565	2.1267478
11.420043199518153	4.4511576	2.1097767
11.437657480066942	63.37334	7.960737
11.455272031768422	85.07403	9.223558
11.472886855051353	107.46618	10.36659
11.490501950344528	98.99272	9.949509
11.508117318076819	84.34593	9.184004
11.52573295867715	45.74183	6.7632704
11.543348872574514	4.090966	2.0226138
11.560965060197946	4.056445	2.014062
11.57858152197655	4.013191	2.0032952
11.59619825833949	3.972654	1.9931518
11.613815269715985	3.9456542	1.9863671
11.631432556535323	38.48559	6.2036757
11.649050119226837	83.02209	9.111646
11.666667958219929	93.43416	9.666135
11.68428607394406	107.69595	10.377666
11.701904466828756	82.51374	9.083708
11.719523137303586	65.343735	8.083548
11.737142085798196	4.5353394	2.1296337
11.754761312742286	3.6227462	1.9033513
11.772380818565619	3.5856926	1.8935925
11.790000603698015	3.547197	1.8834004
11.80762066856935	3.528418	1.8784084
11.825241013609572	3.4840353	1.866557
11.842861639248683	3.475133	1.8641708
11.860482545916748	3.4614265	1.8604909
11.878103734043883	3.4147878	1.8479145
11.895725204060282	3.3425372	1.8282607
11.91334695639619	3.3382962	1.8271005
11.930968991481919	3.3477163	1.8296765
11.948591309747824	3.2932901	1.8147424
11.966213911624347	3.2633488	1.8064741
11.98383679754198	3.2473135	1.8020303
12.001459967931268	3.2197592	1.7943687
12.019083423222835	3.228355	1.7967623
12.036707163847352	3.2140703	1.7927828
12.05433119023556	3.150103	1.774853
12.071955502818259	3.105698	1.7622991
12.089580102026313	3.1205816	1.7665168
12.107204988290643	3.1563888	1.7766229
12.12483016204224	3.1311564	1.7695074
12.142455623712152	3.0728793	1.7529631
12.16008137373149	3.0715497	1.7525837
12.177707412531431	3.0886908	1.7574672
12.19533374054321	3.07811	1.7544544
12.212960358198126	3.0193782	1.7376359
12.230587265927545	2.9900184	1.729167
12.248214464162889	2.9765015	1.725254
12.265841953335649	2.9661343	1.7222469
12.283469733877375	2.9678745	1.722752
12.301097806219685	2.9650943	1.7219449
12.31872617079425	2.9750223	1.7248253
12.336354828032825	2.954673	1.7189163
12.353983778367205	2.951944	1.7181222
12.371613022229262	2.951245	1.7179189
12.389242560050928	2.954665	1.7189139
12.406872392264201	2.917144	1.7079649
12.424502519301143	2.8796284	1.6969467
12.442132941593874	2.8445506	1.6865796
12.459763659574586	2.824186	1.6805315
12.477394673675532	2.822035	1.6798913
12.49502598432903	2.8397293	1.6851497
12.51265759196746	2.8021386	1.6739589
12.530289497023267	2.8073804	1.6755239
12.547921699928967	2.7659416	1.663112
12.565554201117134	2.77099	1.6646291
12.583187001020404	2.7332072	1.6532414
12.600820100071486	2.7523494	1.6590207
12.618453498703152	2.7783673	1.6668435
12.636087197348235	2.8049345	1.6747938
12.65372119643964	2.7989707	1.6730125
12.671355496410326	2.7851963	1.6688907
12.68899009769333	2.844021	1.6864226
12.706625000721749	2.9065466	1.7048597
12.724260205928752	2.9549546	1.7189982
12.741895713747551	2.91832	1.708309
12.759531524611454	2.9412966	1.7150209
12.777167638953818	2.9635017	1.7214824
12.794804057208072	2.9573343	1.7196902
12.812440779807702	3.0052154	1.7335557
12.830077807186271	3.1512737	1.7751827
12.847715139777405	3.2210612	1.7947315
12.865352778014795	3.4301329	1.8520617
12.882990722332197	3.5339603	1.879883
12.90062897316344	3.601625	1.8977947
12.918267530942412	3.7073076	1.925437
12.935906396103071	3.605573	1.8988346
12.953545569079449	3.7470262	1.9357237
12.971185050305628	3.5015886	1.8712533
12.988824840215775	3.5039217	1.8718765
13.006464939244115	3.4774017	1.8647792
13.024105347824943	3.3387177	1.8272158
13.041746066392617	3.439278	1.854529
13.05938709538157	3.2965078	1.8156288
13.077028435226296	3.3522096	1.830904
13.094670086361363	3.246052	1.8016803
13.112312049221401	3.1388016	1.7716663
13.129954324241112	3.0483463	1.7459514
13.147596911855258	2.8928416	1.7008356
13.165239812498685	2.854954	1.6896609
13.182883026606293	2.776323	1.6662302
13.200526554613058	2.7422526	1.6559749
13.218170396954017	2.7012982	1.6435627
13.235814554064284	2.6526334	1.6286907
13.253459026379034	2.629217	1.6214861
13.271103814333523	2.604832	1.6139492
13.288748918363058	2.6191905	1.6183913
13.306394338903031	2.5986125	1.6120212
13.32404007638889	2.628192	1.6211699
13.341686131256164	2.6205	1.6187959
13.359332503940449	2.6381922	1.6242512
13.376979194877402	2.6115496	1.616029
13.394626204502751	2.6323128	1.6224403
13.412273533252307	2.6575673	1.6302047
13.429921181561937	2.6628785	1.6318328
13.447569149867581	2.7182822	1.6487213
13.465217438605247	2.7138052	1.6473631
13.482866048211022	2.7085195	1.645758
13.500514979121052	2.6891804	1.6398721
13.518164231771568	2.64682	1.6269051
13.535813806598844	2.6237798	1.6198086
13.553463704039254	2.632838	1.6226022
13.571113924529229	2.6356416	1.6234659
13.588764468505275	2.664797	1.6324207
13.606415336403956	2.687788	1.6394475
13.624066528661917	2.6982315	1.6426294
13.641718045715882	2.7621684	1.6619773
13.659369888002635	2.8274333	1.6814973
13.67702205595903	2.8972642	1.7021352
13.694674550021993	2.9633563	1.7214402
13.712327370628532	3.0045161	1.733354
13.729980518215713	3.0540867	1.7475946
13.747633993220681	3.1650214	1.7790507
13.765287796080647	3.2084184	1.7912059
13.7829419272329	3.2536829	1.8037968
13.800596387114801	3.2700777	1.8083357
13.818251176163775	3.3371968	1.8267996
13.835906294817324	3.4118001	1.8471059
13.853561743513023	3.4328184	1.8527867
13.871217522688525	3.4117482	1.8470918
13.888873632781538	3.3669848	1.8349346
13.906530074229858	3.3972452	1.8431617
13.92418684747135	3.4208937	1.8495659
13.941843952943948	3.4311647	1.8523403
13.959501391085665	3.3844085	1.8396761
13.977159162334578	3.3462296	1.8292702
13.994817267128846	3.3569162	1.832189
14.012475705906693	3.2499166	1.8027525
14.030134479106424	3.2017162	1.789334
14.047793587166414	3.091064	1.7581422
14.065453030525108	3.0741115	1.7533144
14.083112809621026	2.9947464	1.7305336
14.100772924892766	2.9270527	1.7108631
14.118433376778997	2.8776088	1.6963516
14.136094165718458	2.796954	1.6724097
14.153755292149969	2.7041485	1.6444296
14.171416756512416	2.6264126	1.6206211
14.189078559244768	2.59011	1.6093819
14.20674070078606	2.5706246	1.6033168
14.224403181575408	2.5278447	1.5899197
14.242066002051999	2.4905846	1.5781586
14.259729162655093	2.4613786	1.5688782
14.277392663824022	2.4235392	1.556772
14.295056505998208	2.402799	1.5500964
14.312720689617128	2.4105253	1.5525867
14.330385215120348	2.402345	1.54995
14.348050082947497	2.3781843	1.5421363
14.3657152935383	2.3469691	1.5319821
14.383380847332528	2.3632386	1.5372828
14.401046744770051	2.3779123	1.5420481
14.418712986290798	2.383777	1.5439485
14.436379572334793	2.3636212	1.5374073
14.454046503342123	2.3694642	1.5393064
14.471713779752946	2.385363	1.5444621
14.489381402007504	2.3889968	1.545638
14.507049370546113	2.3990238	1.5488782
14.524717685809168	2.4025464	1.550015
14.542386348237134	2.4164653	1.5544984
14.560055358270553	2.401467	1.5496668
14.577724716350051	2.408636	1.5519781
14.595394422916325	2.4134462	1.553527
14.61306447841015	2.428961	1.5585124
14.63073488327237	2.423984	1.5569149
14.648405637943917	2.4345026	1.5602893
14.6660767428658	2.4349167	1.560422
14.683748198479094	2.4770405	1.5738617
14.701420005224954	2.5126934	1.5851477
14.719092163544628	2.6015203	1.6129229
14.73676467387942	2.630226	1.6217971
14.754437536670727	2.6384583	1.6243331
14.772110752360014	2.637304	1.6239779
14.78978432138882	2.6495326	1.6277385
14.807458244198777	2.6483614	1.6273787
14.82513252123159	2.627059	1.6208205
14.842807152929028	2.6543248	1.6292099
14.860482139732962	2.6842592	1.6383709
14.87815748208531	2.6778939	1.6364272
14.8958331804281	2.7008536	1.6434274
14.91350923520342	2.6919146	1.6407055
14.931185646853438	2.7387862	1.6549278
14.948862415820408	2.7153156	1.6478214
14.966539542546656	2.6911817	1.6404822
14.98421702747459	2.6483464	1.627374
15.001894871046696	2.6534488	1.628941
15.019573073705542	2.6105266	1.6157124
15.037251635893766	2.597827	1.6117775
15.054930558054092	2.6565995	1.6299078
15.072609840629323	2.7136443	1.6473143
15.090289484062351	2.814863	1.6777554
15.107969488796124	2.9205074	1.7089492
15.125649855273691	3.152465	1.7755183
15.14333058393817	3.529199	1.8786162
15.161011675232768	4.089567	2.0222678
15.17869312960076	4.7482185	2.1790407
15.196374947485506	5.435561	2.331429
15.214057129330447	6.7567077	2.5993667
15.231739675579114	8.917071	2.9861467
15.249422586675102	13.40262	3.660959
15.267105863062092	17.825888	4.2220716
15.284789505183847	24.843307	4.9843063
15.302473513484218	29.58136	5.4388747
15.320157888407127	33.797123	5.8135295
15.337842630396578	32.86287	5.7326145
15.355527739896656	30.10747	5.487027
15.37321321735153	23.351355	4.832324
15.39089906320545	15.880098	3.9849842
15.408585277902748	10.164018	3.1881056
15.42627186188783	6.367738	2.5234377
15.443958815605198	4.6266184	2.1509576
15.461646139499424	3.8198302	1.9544386
15.479333834015168	3.4018571	1.8444124
15.497021899597165	3.089243	1.7576243
15.514710336690234	2.8990488	1.7026594
15.53239914573928	2.7786574	1.6669306
15.550088327189297	2.6576674	1.6302354
15.567777881485336	2.5565338	1.5989164
15.58546780907256	2.4864755	1.5768563
15.6031581103962	2.5187166	1.5870465
15.620848785901568	2.5285218	1.5901326
15.638539836034063	2.5166657	1.5864003
15.656231261239173	2.4750392	1.5732257
15.673923061962451	2.4410598	1.5623891
15.691615238649552	2.4359353	1.5607483
15.709307791746202	2.4259813	1.5575562
15.727000721698221	2.4076922	1.551674
15.744694028951498	2.3897824	1.5458921
15.76238771395202	2.3915045	1.546449
15.780081777145844	2.4094915	1.5522537
15.797776218979125	2.3964443	1.5480453
15.815471039898094	2.3575172	1.5354209
15.833166240349064	2.3262565	1.525207
15.850861820778437	2.322253	1.5238941
15.868557781632699	2.358832	1.5358489
15.886254123358412	2.4506197	1.5654455
15.903950846402232	2.5079968	1.5836656
15.921647951210897	2.5305731	1.5907775
15.939345438231225	2.516582	1.5863738
15.957043307910133	2.493286	1.5790142
15.974741560694602	2.487908	1.5773103
15.992440197031714	2.4850311	1.5763981
16.01013921736862	2.466689	1.5705696
16.02783862215259	2.4664915	1.5705068
16.045538411830933	2.4458883	1.5639336
16.06323858685107	2.425695	1.5574642
16.080939147660512	2.3857183	1.5445771
16.09864009470684	2.3591425	1.5359501
16.11634142843774	2.3797572	1.5426462
16.134043149300954	2.383115	1.5437341
16.15174525774433	2.378186	1.5421368
16.169447754215817	2.3844726	1.5441737
16.18715063916342	2.38808	1.5453414
16.204853913035244	2.4199834	1.5556296
16.222557576279478	2.418506	1.5551547
16.240261629344403	22.422056	4.7351933
16.257966072678386	42.95944	6.554345
16.275670906729868	38.048443	6.168342
16.293376131947387	2.470173	1.5716784
16.31108174877957	2.489403	1.5777842
16.328787757675133	2.5301852	1.5906556
16.34649415908287	2.560678	1.6002119
16.364200953451657	2.608798	1.6151774
16.38190814123048	2.622116	1.6192949
16.39961572286839	2.634176	1.6230145
16.41732369881455	2.6336126	1.6228409
16.43503206951817	2.6852436	1.6386713
16.45274083542859	2.7090194	1.6459099
16.47044999699522	2.7451897	1.6568614
16.488159554667558	2.800061	1.6733383
16.505869508895184	2.9127207	1.7066694
16.523579860127786	2.9349644	1.7131737
16.541290608815117	2.936176	1.7135273
16.559001755407035	2.9828193	1.727084
16.57671330035348	3.080642	1.7551758
16.59442524410448	3.214298	1.7928463
16.61213758711015	3.39295	1.8419962
16.629850329820705	3.4900286	1.8681618
16.647563472686436	3.5613325	1.8871493
16.665277016157724	3.4992115	1.870618
16.682990960685053	3.4651358	1.8614875
16.70070530671898	3.4636734	1.8610947
16.718420054710155	3.4821508	1.8660522
16.736135205109335	3.505846	1.8723905
16.753850758367335	3.5595329	1.8866724
16.771566714935087	3.685498	1.9197651
16.789283075263597	3.7742174	1.9427345
16.80699983980398	3.8476548	1.961544
16.82471700900741	3.858511	1.9643093
16.84243458332518	3.8732176	1.9680492
16.860152563208665	3.905828	1.9763168
16.87787094910932	3.9262984	1.981489
16.89558974147871	4.026966	2.0067303
16.913308940768466	4.1074758	2.0266907
16.931028547430333	4.220585	2.0544062
16.94874856191613	4.2528796	2.062251
16.966468984677785	4.332018	2.08135
16.98418981616729	4.3540187	2.0866284
17.00191105683676	4.382884	2.0935338
17.019632707138374	4.4208817	2.1025894
17.03735476752442	4.4741244	2.1152127
17.05507723844728	4.506631	2.1228826
17.072800120359403	4.483557	2.1174412
17.090523413713353	4.5190134	2.125797
17.108247118961785	4.5735517	2.1385863
17.125971236557437	4.59242	2.1429932
17.143695766953133	4.6386228	2.1537461
17.161420710601806	4.5962863	2.1438951
17.179146067956477	4.6113815	2.1474128
17.19687183947025	4.6482954	2.1559906
17.21459802559634	4.625373	2.150668
17.232324626788028	4.611051	2.1473358
17.25005164349871	4.6163206	2.1485624
17.267779076181863	4.659626	2.1586168
17.285506925291074	4.633068	2.1524563
17.30323519127999	4.562953	2.136107
17.320963874602384	4.5128183	2.1243396
17.33869297571211	4.484098	2.117569
17.356422495063114	4.4961214	2.120406
17.37415243310944	4.4459534	2.108543
17.391882790305218	4.4017005	2.098023
17.40961356710468	4.4121966	2.100523
17.42734476396215	4.4550176	2.1106913
17.445076381332044	4.525503	2.127323
17.462808419668868	4.5904922	2.1425433
17.48054087942723	4.6519794	2.1568449
17.498273761061835	4.7482204	2.1790411
17.51600706502747	5.148569	2.2690458
17.533740791779024	5.813457	2.411111
17.551474941771485	6.7368093	2.5955365
17.56920951545993	8.623225	2.936533
17.586944513299528	9.905899	3.147364
17.60467993574556	12.83966	3.5832472
17.622415783253373	15.443402	3.9298093
17.64015205627843	18.17077	4.2627187
17.657888755276293	20.406883	4.517398
17.675625880702604	21.925638	4.6824822
17.69336343301311	20.39841	4.51646
17.71110141266366	18.323261	4.2805676
17.728839820110178	15.547742	3.9430625
17.746578655808705	12.349941	3.5142484
17.764317920215372	10.152758	3.1863391
17.7820576137864	8.451598	2.9071631
17.79979773697811	7.170812	2.6778371
17.81753829024692	5.913598	2.4317892
17.835279274049356	5.1690993	2.2735653
17.85302068884201	4.4431963	2.1078892
17.870762535081607	4.0481915	2.0120118
17.888504813224934	3.8638773	1.9656748
17.90624752372891	3.7162547	1.9277589
17.923990667050536	3.5824869	1.8927459
17.941734243646895	3.4839227	1.866527
17.959478253975185	3.4233704	1.8502352
17.9772226984927	3.3712997	1.83611
17.994967577656833	3.3330634	1.825668
18.01271289192506	3.304531	1.8178369
18.030458641754965	3.3084388	1.8189114
18.04820482760425	3.304856	1.8179263
18.06595144993067	3.2778404	1.8104807
18.083698509192125	3.230242	1.7972873
18.101446005846576	3.2384439	1.7995677
18.119193940352105	3.228263	1.7967367
18.136942313166887	3.2200606	1.7944527
18.1546911247492	3.1964126	1.7878513
18.1724403755574	3.137442	1.7712827
18.19019006604997	3.0764897	1.7539926
18.207940196685467	3.0783286	1.7545166
18.225690767922575	3.0797544	1.7549229
18.243441780220046	3.0790746	1.7547293
18.261193234036764	3.0817537	1.7554924
18.278945129831676	3.0759974	1.7538521
18.29669746806386	3.0345159	1.7419862
18.314450249192483	2.9661872	1.7222623
18.3322034736768	2.943001	1.7155178
18.349957141976184	2.9323664	1.7124153
18.3677112545501	2.9736202	1.7244188
18.385465811858108	2.976005	1.7251102
18.403220814359884	2.9939108	1.7302921
18.420976262515172	3.0148053	1.7363194
18.43873215678387	3.0754724	1.7537025
18.456488497625923	3.0944963	1.7591181
18.474245285501407	3.1988301	1.7885274
18.492002520870486	3.298347	1.8161352
18.50976020419343	3.3946989	1.8424709
18.527518335930615	3.714738	1.9273655
18.545276916542516	4.2872458	2.0705664
18.563035946489688	4.456621	2.111071
18.580795426232832	4.865161	2.205711
18.598555356232698	4.7420135	2.1776164
18.616315736950185	5.0611086	2.2496908
18.63407656884626	4.7356524	2.1761553
18.65183785238201	4.917994	2.2176552
18.669599588018617	4.714956	2.1713948
18.68736177621737	4.7124305	2.1708133
18.705124417439652	4.6914325	2.1659715
18.72288751214696	4.46991	2.114216
18.740651060800886	4.5957236	2.1437638
18.758415063863115	4.252175	2.0620801
18.77617952179546	4.4266186	2.1039531
18.793944435059814	4.240512	2.0592504
18.811709804118184	4.270365	2.0664861
18.829475629432675	4.2216644	2.054669
18.8472419114655	3.9876022	1.9968982
18.86500865067897	4.0625596	2.0155792
18.88277584753551	3.7486455	1.936142
18.90054350249763	3.761136	1.9393649
18.918311616027957	3.4532351	1.8582883
18.936080188589226	3.3103938	1.8194487
18.953849220644265	2.980957	1.7265449
18.971618712656007	2.8059814	1.6751064
18.9893886650875	2.7481868	1.6577656
19.007159078401887	7.9501615	2.819603
19.024929953062408	32.876392	5.7337937
19.042701289532435	32.873672	5.7335567
19.060473088275405	25.44638	5.0444407
19.07824534975489	2.693916	1.6413153
19.096018074434568	2.6502523	1.6279596
19.113791262778197	2.617689	1.6179273
19.13156491524966	2.5794022	1.6060518
19.149339032312945	2.581564	1.6067246
19.167113614432136	2.5893402	1.6091427
19.184888662071433	2.610395	1.6156716
19.202664175695123	2.5979476	1.611815
19.220440155767623	2.5991862	1.6121992
19.238216602753447	2.5871556	1.6084638
19.2559935171172	2.5531597	1.5978609
19.27377089932361	2.503691	1.5823056
19.291548749837514	2.4964187	1.5800059
19.309327069123835	2.5478008	1.5961832
19.32710585764763	2.5327585	1.5914643
19.344885115874032	2.4748974	1.5731807
19.362664844268313	2.415698	1.5542516
19.380445043295822	2.4251513	1.5572897
19.39822571342203	2.451136	1.5656104
19.41600685511252	2.497457	1.5803344
19.43378846883297	2.527114	1.5896899
19.451570555049173	2.5143046	1.5856559
19.469353114227037	2.4659164	1.5703237
19.48713614683254	2.4458694	1.5639275
19.50491965333182	2.4586458	1.568007
19.52270363419109	2.4687145	1.5712143
19.540488089876686	2.4872758	1.5771099
19.55827302085503	2.4431853	1.5630692
19.576058427592674	2.4057708	1.5510547
19.593844310556282	2.412021	1.5530683
19.611630670212598	2.4895546	1.5778322
19.629417507028506	2.5096512	1.5841879
19.64720482147098	2.5119987	1.5849286
19.6649926140071	2.488547	1.577513
19.682780885104084	2.4819648	1.5754253
19.70056963522921	2.4534447	1.5663476
19.718358864849908	2.4545026	1.5666852
19.7361485744337	2.4658346	1.5702976
19.753938764448215	2.5021026	1.5818036
19.771729435361202	2.5049078	1.5826901
19.789520587640506	2.4846616	1.576281
19.807312221754092	2.5087767	1.5839118
19.825104338170043	2.546635	1.5958179
19.842896937356517	2.5483162	1.5963446
19.860690019781824	2.487075	1.5770463
19.87848358591436	2.4347355	1.5603639
19.896277636222635	2.4341002	1.5601603
19.914072171175278	2.4890864	1.5776839
19.931867191241015	2.5119226	1.5849046
19.94966269688869	2.4849672	1.5763779
19.967458688587264	2.4365158	1.5609343
19.985255166805807	2.4399996	1.5620497
20.00305213201348	2.475838	1.5734795
20.020849584679578	2.4609215	1.5687325
20.038647525273507	2.4570966	1.5675129
20.05644595426477	2.46496	1.5700191
20.07424487212299	2.4685023	1.5711468
20.092044279317903	2.4470148	1.5642937
20.109844176319353	2.42375	1.5568397
20.127644563597304	2.4178128	1.5549318
20.145445441621817	2.438345	1.5615201
20.16324681086307	2.4229116	1.5565705
20.181048671791373	2.4115436	1.5529145
20.198851024877122	2.4233143	1.5566999
20.216653870590836	2.4463785	1.5640903
20.234457209403146	2.420394	1.5557616
20.252261041784802	2.4124844	1.5532174
20.270065368206662	2.4104004	1.5525464
20.287870189139685	2.4271417	1.5579287
20.305675505054968	2.417026	1.5546788
20.323481316423702	2.3888948	1.545605
20.341287623717207	2.3486607	1.5325341
20.359094427406884	2.3131452	1.5209028
20.376901727964288	2.3317213	1.5269974
20.39470952586107	2.3242688	1.5245553
20.41251782156899	2.3260803	1.5251492
20.430326615559935	2.3115063	1.5203638
20.448135908305886	2.3167596	1.5220906
20.465945700278965	2.3231988	1.5242044
20.483755991951384	2.3256352	1.5250033
20.50156678379548	2.3412821	1.5301249
20.519378076283708	2.3562317	1.5350022
20.537189869888635	2.325613	1.524996
20.55500216508294	2.3241637	1.5245208
20.572814962339415	2.313211	1.5209243
20.59062826213098	2.3008	1.5168388
20.60844206493066	2.269961	1.506639
20.626256371211593	2.293987	1.5145913
20.644071181447032	2.3298783	1.5263939
20.66188649611036	2.3533413	1.5340604
20.67970231567506	2.335605	1.5282686
20.697518640614742	2.3256147	1.5249966
20.715335471403122	2.324347	1.524581
20.73315280851404	2.2979321	1.5158932
20.750970652421447	2.2563283	1.502108
20.768789003599412	2.2565606	1.5021852
20.786607862522136	2.2728329	1.5075917
20.8044272296639	2.2717288	1.5072255
20.82224710549913	2.2583234	1.502772
20.84006749050237	2.2414927	1.4971615
20.857888385148268	3.8490329	1.9618952
20.8757097899116	45.986225	6.7813144
20.893531705267254	64.849365	8.052911
20.911354131690224	83.8633	9.157691
20.92917706965566	69.11126	8.313318
20.94700051963877	50.15585	7.0820794
20.96482448211493	29.422293	5.424232
20.982648957559622	4.1845345	2.0456135
21.00047394644843	2.3018901	1.5171981
21.01829944925707	2.267243	1.5057367
21.036125466461375	2.2388954	1.4962939
21.053951998537297	2.243972	1.4979893
21.071779045960906	2.2574008	1.5024649
21.089606609208378	2.2687082	1.5062232
21.10743468875603	2.250684	1.500228
21.12526328508028	2.223069	1.490996
21.143092398657675	2.2024512	1.4840658
21.16092202996488	2.2007778	1.4835019
21.17875217947867	2.227667	1.4925371
21.19658284767596	2.2099733	1.4865979
21.21441403503377	2.1775198	1.4756422
21.232245742029225	2.1480627	1.4656271
21.2500779691396	2.1899621	1.4798521
21.26791071684227	2.2101514	1.4866579
21.28574398561475	2.175639	1.4750047
21.30357777593465	2.1681514	1.4724644
21.321412088279704	2.161388	1.470166
21.339246923127792	2.1711895	1.4734957
21.357082280956888	2.1800716	1.4765066
21.3749181622451	2.1791692	1.4762009
21.392754567470647	2.1464787	1.4650866
21.41059149711187	2.1090488	1.4522564
21.42842895164726	2.108881	1.4521986
21.446266931555378	2.0940855	1.4470955
21.464105437314945	2.1059313	1.4511827
21.481944469404798	2.1166966	1.4548872
21.49978402830388	2.1053128	1.4509696
21.51762411449127	2.0670695	1.4377307
21.53546472844617	2.056296	1.4339792
21.553305870647876	2.0649884	1.4370067
21.571147541575865	2.0606046	1.4354806
21.58898974170967	2.0523806	1.4326131
21.60683247152899	2.0685635	1.4382502
21.62467573151363	2.0486045	1.4312947
21.642519522143523	2.0279844	1.4240732
21.660363843898722	1.9896917	1.4105643
21.6782086972594	2.000294	1.4143175
21.696054082705864	2.0036147	1.415491
21.713900000718535	2.019733	1.4211731
21.73174645177795	2.051585	1.4323355
21.749593436364794	2.0574677	1.4343876
21.767440954959845	2.0575333	1.4344105
21.785289008044032	2.0535018	1.4330045
21.803137596098388	2.01823	1.4206442
21.820986719604086	1.9809722	1.4074701
21.838836379042412	1.9896448	1.4105477
21.85668657489478	2.0080426	1.4170542
21.87453730764273	2.0153294	1.419623
21.892388577767914	1.9914585	1.4111905
21.91024038575213	1.9604156	1.4001484
21.928092732077285	1.9504205	1.3965746
21.945945617225426	1.9314947	1.3897823
21.963799041678694	1.9452108	1.3947082
21.981653005919398	31.317036	5.596163
21.999507510429943	78.13988	8.839676
22.01736255569286	73.10421	8.5501
22.035218142190818	4.161377	2.0399454
22.05307427040661	1.9854769	1.4090695
22.07093094082315	1.9943727	1.4122226
22.088788153923474	2.035446	1.4266906
22.106645910190746	2.0149543	1.4194908
22.12450421010827	2.00441	1.4157718
22.142363054159464	2.0013402	1.4146873
22.16022244282787	2.0483887	1.4312193
22.178082376597164	2.023226	1.4224015
22.195942855951145	2.0023715	1.4150518
22.213803881373742	1.9697487	1.4034774
22.231665453349002	2.0199652	1.4212548
22.24952757236111	2.032261	1.4255738
22.26739023889438	2.0145967	1.4193649
22.28525345343323	1.972997	1.4046341
22.30311721646225	1.9589956	1.3996413
22.320981528466113	1.9655898	1.401995
22.33884638992964	1.9538314	1.3977952
22.356711801337788	1.9740192	1.404998
22.37457776317561	1.9691266	1.4032557
22.392444275928337	2.007384	1.4168218
22.410311340081282	2.0137787	1.4190767
22.428178956119904	1.9810523	1.4074986
22.446047124529805	1.9402888	1.3929425
22.46391584579669	1.9475168	1.3955346
22.481785120406414	1.9694579	1.4033737
22.49965494884496	1.9501057	1.3964618
22.51752533159841	1.9380413	1.3921355
22.53539626915302	1.9531755	1.3975606
22.553267761995137	1.9260472	1.3878211
22.571139810611264	1.9381411	1.3921714
22.589012415488025	1.9267015	1.3880568
22.60688557711216	1.9599162	1.39997
22.624759295970566	1.9727005	1.4045286
22.642633572550263	1.9731301	1.4046814
22.660508407338362	1.9654763	1.4019544
22.67838380082217	1.954293	1.3979603
22.696259753489077	1.9402384	1.3929244
22.714136265826614	1.9642544	1.4015186
22.73201333832246	1.995681	1.4126858
22.74989097146439	2.022188	1.4220365
22.76776916574035	1.9607322	1.4002615
22.785647921638393	1.9009724	1.3787576
22.803527239646712	1.8789489	1.3707476
22.82140712025363	1.9312303	1.3896872
22.839287563947593	1.9332361	1.3904086
22.85716857121719	1.9210204	1.3860087
22.875050142551135	1.8805184	1.37132
22.892932278438277	1.8760936	1.3697057
22.910814979367604	1.8899297	1.3747472
22.928698245828222	1.9285252	1.3887135
22.946582078309387	1.9613411	1.4004788
22.96446647730047	1.9621485	1.4007671
22.98235144329098	1.9113435	1.3825134
23.000236976770562	1.8789302	1.3707408
23.018123078229	1.8911875	1.3752046
23.03600974815619	1.8953807	1.3767283
23.053896987042194	1.8893257	1.3745275
23.071784795377173	1.8832024	1.3722982
23.08967317365145	1.8848466	1.3728971
23.10756212235546	1.8801535	1.3711869
23.125451641979787	1.8919618	1.375486
23.143341733015134	1.9229218	1.3866946
23.161232395952357	1.9335376	1.390517
23.179123631282426	1.9492457	1.3961539
23.197015439496468	1.9764589	1.4058659
23.214907821085717	1.9647323	1.401689
23.23280077654157	1.9255129	1.3876286
23.250694306355538	1.9090365	1.3816788
23.268588411019277	1.9135598	1.3833147
23.28648309102458	1.9365131	1.3915865
23.304378346863356	1.9622827	1.400815
23.322274179027676	1.9594623	1.3998079
23.340170588009723	1.938384	1.3922586
23.358067574301852	1.8943274	1.3763456
23.37596513839651	1.8876888	1.3739319
23.39386328078629	1.8846143	1.3728125
23.411762001963947	1.9042469	1.3799446
23.429661302422353	1.9038517	1.3798014
23.4475611826545	1.9159377	1.384174
23.46546164315356	1.9379057	1.3920867
23.48336268441279	1.9393284	1.3925977
23.501264306925638	1.9441422	1.394325
23.51916651118564	1.9368246	1.3916985
23.537069297686497	1.944612	1.3944935
23.554972666922037	1.9197181	1.3855389
23.57287661938623	1.883049	1.3722423
23.59078115557318	1.8641075	1.3653232
23.608686275977128	1.8753173	1.3694223
23.62659198109246	1.8826796	1.3721077
23.6444982714137	1.8831112	1.372265
23.66240514743549	1.8934392	1.3760229
23.68031260965263	1.9116124	1.3826107
23.698220658560068	1.8683016	1.3668584
23.716129294652845	1.8621552	1.364608
23.7340385184262	1.8518296	1.3608195
23.75194833037546	1.8806762	1.3713775
23.769858730996123	1.860199	1.3638911
23.78776972078382	1.8814393	1.3716557
23.80568130023431	1.9260375	1.3878175
23.823593469843495	1.9397458	1.3927475
23.841506230107424	1.9067965	1.380868
23.859419581522275	1.9153936	1.3839774
23.87733352458438	1.9488145	1.3959994
23.89524805979019	1.9883263	1.4100802
23.913163187636318	2.0012534	1.4146566
23.931078908619508	2.008611	1.4172547
23.948995223236633	2.043221	1.4294128
23.966912131984735	2.0377614	1.4275018
23.98482963536096	2.0448742	1.429991
24.002747733862616	2.0563657	1.4340034
24.020666427987155	2.0476463	1.4309599
24.038585718232156	2.016992	1.4202085
24.056505605095353	2.0001423	1.4142638
24.074426089074617	2.031936	1.4254599
24.092347170667946	2.0203183	1.421379
24.110268850373515	2.0287983	1.424359
24.128191128689586	2.0297065	1.4246777
24.146114006114626	2.0138986	1.419119
24.164037483147187	2.0305107	1.4249599
24.181961560286005	2.0723226	1.4395564
24.199886238029926	2.0825632	1.4431088
24.21781151687797	2.0395842	1.4281402
24.235737397329274	2.0125632	1.4186484
24.253663879883135	1.9744575	1.4051539
24.271590965038975	1.9603486	1.4001245
24.289518653296376	1.9805846	1.4073324
24.30744694515505	2.0562923	1.4339778
24.32537584111486	2.0930672	1.4467436
24.34330534167581	2.1248987	1.4577032
24.361235447338046	2.0685725	1.4382533
24.379166158601876	2.0425878	1.4291914
24.39709747596772	2.031959	1.425468
24.41502939993615	2.0806394	1.4424422
24.432961931007917	2.076169	1.4408917
24.450895069683856	2.0514534	1.4322896
24.468828816465	1.9769145	1.4060279
24.4867631718525	1.9383093	1.3922318
24.504698136347656	1.9257927	1.3877293
24.52263371045192	1.9103355	1.3821489
24.540569894666874	1.932484	1.3901381
24.558506689494266	1.958159	1.3993423
24.57644409543597	1.9741809	1.4050555
24.594382112994012	1.9997573	1.4141277
24.61232074267057	1.9722469	1.4043671
24.630259984967953	1.9428897	1.3938758
24.64819984038863	1.9269114	1.3881323
24.66614030943522	1.9992064	1.4139329
24.684081392610462	2.0585346	1.4347594
24.702023090417274	2.0511773	1.4321932
24.7199654033587	2.0090337	1.4174038
24.737908331937927	2.0100982	1.4177793
24.755851876658305	2.0266142	1.423592
24.773796038023324	2.106054	1.451225
24.79174081653661	2.1035476	1.4503611
24.809686212701962	2.082291	1.4430145
24.827632227023294	2.0527248	1.4327333
24.8455788600047	2.0619068	1.4359341
24.8635261121504	2.0307548	1.4250455
24.88147398396475	2.066988	1.4377023
24.899422475952303	2.0996609	1.4490206
24.917371588617698	2.1423864	1.4636893
24.935321322465768	2.1743054	1.4745526
24.953271678001478	2.266442	1.5054708
24.97122265572994	2.4382856	1.561501
24.989174256156414	2.8344376	1.6835788
25.00712647978632	3.4637117	1.861105
25.02507932712521	4.492715	2.1196024
25.043032798678798	5.925991	2.434336
25.060986894952933	7.5197964	2.7422247
25.078941616453637	9.008724	3.0014536
25.096896963687055	10.028449	3.1667726
25.114852937159508	10.732429	3.2760386
25.132809537377444	10.425199	3.2288077
25.150766764847468	9.665944	3.1090102
25.168724620076347	8.418502	2.9014654
25.186683103570985	7.268712	2.696055
25.204642215838426	5.815363	2.4115064
25.222601957385894	4.544491	2.131781
25.24056232872074	3.5047212	1.8720901
25.25852333035048	2.8440955	1.6864446
25.276484962782778	2.4605858	1.5686255
25.294447226525435	2.2241266	1.4913505
25.312410122086423	2.1038947	1.4504808
25.330373649973843	2.0694618	1.4385624
25.348337810695988	1.9812964	1.4075853
25.366302604761245	1.9109298	1.3823638
25.384268032678207	1.8946631	1.3764676
25.40223409495558	1.9280968	1.3885592
25.420200792102257	1.8923962	1.375644
25.438168124627246	1.8445493	1.3581419
25.45613609303974	1.8186532	1.3485745
25.474104697849057	1.8285289	1.352231
25.492073939564698	1.8371649	1.3554206
25.510043818696285	1.8723658	1.3683442
25.528014335753614	1.887677	1.3739276
25.54598549124664	1.9326073	1.3901825
25.56395728568544	1.9548075	1.3981444
25.58192971958028	1.9389508	1.3924621
25.59990279344156	1.8950369	1.3766034
25.617876507779833	1.9001762	1.3784688
25.635850863105826	1.9033313	1.3796127
25.653825859930386	1.8199158	1.3490425
25.671801498764548	1.7771362	1.3330927
25.68977778011949	1.7610726	1.3270541
25.707754704506524	1.7966425	1.3403889
25.725732272437153	1.8473483	1.359172
25.743710484423012	1.9108838	1.3823472
25.761689340975888	1.9049289	1.3801917
25.77966884260774	1.8692328	1.3671988
25.797648989830662	1.8471307	1.3590919
25.815629783156922	1.7956913	1.340034
25.83361122309895	1.778871	1.3337432
25.85159331016929	1.8151927	1.3472909
25.869576044880695	1.870847	1.367789
25.887559427746034	1.8689768	1.3671052
25.90554345927836	1.8822985	1.3719689
25.92352813999086	1.9025973	1.3793467
25.94151347039689	1.9165965	1.3844119
25.959499451009965	1.8476686	1.3592898
25.97748608234374	1.8055383	1.3437032
25.995473364912062	1.8100369	1.3453761
26.013461299228904	1.8308668	1.3530953
26.03144988580839	1.8524728	1.3610557
26.04943912516483	1.8311921	1.3532155
26.067429017812675	1.7836779	1.3355441
26.085419564266537	1.7644871	1.32834
26.103410765041186	1.8148651	1.3471693
26.12140262065155	1.830545	1.3529763
26.139395131612723	1.8801054	1.3711693
26.157388298439948	1.8739411	1.3689196
26.17538212164861	1.842273	1.3573036
26.193376601754295	1.8345764	1.3544654
26.211371739272714	1.8364983	1.3551747
26.229367534719746	1.8243666	1.3506912
26.247363988611433	1.8241098	1.3505961
26.26536110146397	1.8493859	1.3599212
26.283358873793727	1.8516198	1.3607423
26.301357306117204	1.7991737	1.3413328
26.319356398951104	1.7662735	1.3290123
26.33735615281224	1.7589847	1.3262672
26.35535656821762	1.7875366	1.3369879
26.373357645684404	1.7767026	1.3329301
26.39135938572991	1.78425	1.3357582
26.409361788871614	1.7913733	1.338422
26.427364855627165	1.8232814	1.3502893
26.445368586514352	1.8539934	1.3616142
26.46337298205115	1.8753285	1.3694264
26.48137804275568	1.8537765	1.3615346
26.499383769146217	1.826282	1.3514
26.517390161741215	1.8391268	1.3561441
26.53539722105928	1.8333838	1.354025
26.553404947619182	1.7745261	1.3321134
26.571413341939856	1.7263573	1.3139092
26.589422404540397	1.7470201	1.3217489
26.60743213594006	1.7949568	1.33976
26.62544253665827	1.8509195	1.3604851
26.64345360721459	1.8338687	1.354204
26.66146534812879	1.81413	1.3468964
26.679477759920758	1.7529671	1.3239967
26.69749084311057	1.7337669	1.3167259
26.71550459821847	1.7449592	1.3209691
26.733519025764842	1.786598	1.3366368
26.751534126270258	1.795428	1.3399358
26.769549900255434	1.7937279	1.3393012
26.787566348241267	1.8229363	1.3501616
26.80558347074881	1.8340878	1.354285
26.823601268299267	1.8084439	1.344784
26.841619741414036	1.7763773	1.332808
26.85963889061465	1.735315	1.3173136
26.877658716422832	1.7471958	1.3218154
26.89567921936045	1.7766718	1.3329185
26.913700399949544	1.7798105	1.3340954
26.93172225871233	1.8019258	1.3423582
26.949744796171174	1.7603954	1.3267989
26.967768012848605	1.7384659	1.318509
26.98579190926733	1.7282578	1.3146322
27.003816485950225	1.746725	1.3216373
27.021841743420318	1.7597619	1.3265601
27.039867682200814	1.7788059	1.3337188
27.057894302815072	1.7753468	1.3324214
27.07592160578664	1.7828257	1.335225
27.0939495916392	1.7868184	1.3367193
27.111978260896635	1.8114258	1.3458922
27.13000761408296	1.8005519	1.3418465
27.148037651722397	1.758227	1.3259815
27.166068374339304	1.8000344	1.3416536
27.184099782458215	1.8208103	1.349374
27.20213187660384	1.8144228	1.3470051
27.22016465730105	1.8128078	1.3464055
27.23819812507487	1.7997715	1.3415556
27.256232280450533	1.8047614	1.3434141
27.274267123953383	1.8519253	1.3608546
27.292302656108987	1.8343152	1.3543689
27.31033887744306	1.821516	1.3496355
27.32837578848146	1.8370724	1.3553864
27.34641338975026	1.8450353	1.3583207
27.364451681775673	1.8050404	1.3435179
27.382490665084074	1.8110486	1.3457521
27.400530340202046	1.8069386	1.3442242
27.41857070765629	1.8010849	1.3420451
27.436611767973726	1.8044009	1.34328
27.454653521681404	1.7905883	1.3381287
27.472695969306564	1.7755499	1.3324976
27.490739111376627	1.7907438	1.3381867
27.508782948419153	1.8126135	1.3463334
27.526827480961902	1.7965015	1.3403363
27.54487270953279	1.7520663	1.3236564
27.562918634659898	1.7717595	1.3310746
27.580965256871508	1.8244203	1.350711
27.599012576696026	1.8262615	1.3513924
27.617060594662068	1.8329155	1.3538522
27.63510931129842	1.7984113	1.3410486
27.65315872713401	1.8051808	1.3435701
27.67120884269797	1.7989379	1.3412449
27.68925965851958	1.8337681	1.354167
27.707311175128307	1.9060602	1.3806014
27.725363393053787	1.947261	1.395443
27.74341631282583	1.9786342	1.4066393
27.7614699349744	1.9759465	1.4056836
27.77952426002968	2.1294694	1.4592701
27.797579288521973	2.1355872	1.4613649
27.815635020981784	2.6403282	1.6249087
27.83369145793979	2.731323	1.6526715
27.85174859992682	2.5484676	1.596392
27.869806447473923	2.3720417	1.5401434
27.887865001112267	2.0262663	1.4234698
27.905924261373233	1.9696308	1.4034353
27.92398422878836	1.9744606	1.4051551
27.94204490388936	1.9446986	1.3945245
27.96010628720813	1.8953148	1.3767043
27.978168379276728	1.8600391	1.3638325
27.9962311806274	1.8451091	1.3583479
28.014294691792568	1.8645185	1.3654737
28.0323589133048	1.8829266	1.3721977
28.050423845696887	1.8834146	1.3723755
28.068489489501758	1.8865819	1.373529
28.086555845252523	1.8719597	1.3681958
28.104622913482487	1.8937013	1.3761182
28.122690694725115	1.9633813	1.4012071
28.14075918951405	1.9512603	1.3968751
28.15882839838312	1.9058529	1.3805263
28.176898321866304	1.920199	1.3857125
28.1949689604978	1.9460013	1.3949915
28.213040314811945	1.9298116	1.3891766
28.23111238534327	1.9360486	1.3914196
28.249185172626493	1.9657737	1.4020605
28.267258677196473	1.9674485	1.4026576
28.285332899588294	1.9461358	1.3950397
28.303407840337172	1.9402686	1.3929353
28.321483499978545	1.943899	1.3942378
28.33955987904799	1.8909315	1.3751115
28.357636978081285	1.8926938	1.3757521
28.37571479761439	1.9428663	1.3938674
28.393793338183425	1.9656236	1.402007
28.41187260032469	2.0066504	1.4165629
28.429952584574686	2.0376465	1.4274616
28.448033291470065	2.0144036	1.4192969
28.46611472154769	1.9843549	1.4086713
28.484196875344566	2.039297	1.4280396
28.502279753397914	2.0572007	1.4342945
28.52036335624511	2.0190594	1.4209361
28.538447684423716	2.0380712	1.4276103
28.556532738471482	2.0202687	1.4213616
28.574618518926325	1.972128	1.4043248
28.59270502632635	1.9831762	1.408253
28.61079226120985	2.0088274	1.4173311
28.628880224115274	2.0047545	1.4158936
28.646968915581287	2.0162008	1.4199299
28.66505833614671	2.0593112	1.43503
28.68314848635055	2.0781078	1.4415643
28.701239366732004	2.046128	1.4304293
28.71933097783044	2.064357	1.436787
28.737423320185403	2.0752501	1.4405729
28.75551639433665	2.038125	1.4276291
28.773610200824074	2.0261173	1.4234174
28.791704740187793	1.9989079	1.4138274
28.80980001296809	2.067642	1.4379297
28.827896019705413	2.1379733	1.462181
28.845992760940433	2.149512	1.4661214
28.86409023721397	2.135001	1.4611642
28.88218844906704	2.141115	1.4632549
28.900287397040845	2.2114325	1.4870886
28.918387081676755	2.2460058	1.498668
28.936487503516343	2.2461896	1.4987293
28.954588663101365	2.216063	1.4886447
28.97269056097374	2.2826972	1.5108597
28.990793197675597	2.3830276	1.5437058
29.00889657374923	2.4060283	1.5511377
29.027000689737125	2.3916981	1.5465117
29.04510554618196	2.4352994	1.5605446
29.06321114362659	2.488096	1.5773699
29.08131748261405	2.4790866	1.5745115
29.099424563687567	2.47952	1.5746492
29.11753238739057	2.5451455	1.5953512
29.13564095426663	2.6483047	1.6273613
29.15375026485954	2.6244423	1.6200131
29.171860319713275	2.5928519	1.6102334
29.18997111937199	2.663557	1.6320407
29.20808266438002	2.734424	1.6536094
29.226194955281898	2.805714	1.6750265
29.244307992622335	2.8632467	1.692113
29.26242177694624	2.8878164	1.6993576
29.2805363087987	2.9162457	1.7077019
29.29865158872498	2.935385	1.7132965
29.316767617270557	2.9299183	1.7117004
29.334884394981064	2.9648204	1.7218654
29.353001922402367	3.0560575	1.7481583
29.37112020008047	3.1118584	1.7640461
29.389239228561596	3.2061796	1.7905807
29.407359008392152	3.364924	1.8343729
29.42547954011872	3.6421077	1.9084307
29.44360082428809	4.1260567	2.0312698
29.46172286144722	5.0134506	2.2390735
29.479845652143283	6.57019	2.5632381
29.497969196923606	9.223856	3.0370803
29.516093496335728	12.936507	3.5967357
29.5342185509274	16.476585	4.059136
29.55234436124651	19.521358	4.4182982
29.570470927841175	20.84341	4.5654583
29.588598251259686	20.798374	4.5605235
29.60672633205055	19.175415	4.3789744
29.624855170762405	16.089634	4.0111885
29.642984767944146	12.746487	3.5702221
29.66111512414481	9.583716	3.0957577
29.67924623991366	7.1174574	2.6678562
29.697378115800138	5.2608843	2.2936618
29.71551075235387	4.3090944	2.075836
29.733644150124675	3.8197255	1.9544119
29.751778309662576	3.6199956	1.9026287
29.769913231517766	3.4864812	1.8672122
29.78804891624066	3.4112878	1.8469672
29.806185364381818	3.337108	1.8267753
29.82432257649206	3.3001168	1.8166224
29.842460553122333	3.2872727	1.8130838
29.86059929482382	3.2125516	1.7923592
29.878738802147872	3.2831478	1.8119459
29.896879075646048	3.2589114	1.8052455
29.915020115870114	3.2514079	1.803166
29.933161923371976	3.2687047	1.807956
29.951304498703777	3.2301576	1.797264
29.969447842417857	3.2038293	1.7899244
29.987591955066733	3.1833937	1.7842067
30.005736837203123	3.172919	1.781269
30.023882489379943	3.1908634	1.7862988
30.04202891215028	3.1851244	1.7846917
30.060176106067455	3.2148032	1.7929872
30.078324071684946	3.1916301	1.7865134
30.09647280955646	3.1598945	1.7776092
30.114622320235863	3.0817714	1.7554975
30.132772604277257	3.008841	1.7346011
30.1509236622349	3.0937176	1.7588967
30.16907549466328	3.1654053	1.7791586
30.18722810211705	3.1358275	1.7708268
30.205381485151097	3.053724	1.7474908
30.22353564432045	3.021284	1.7381841
30.241690580180403	3.0051222	1.7335289
30.25984629328638	2.9942768	1.7303978
30.278002784194037	2.9644475	1.721757
30.296160053459246	2.9481745	1.7170249
30.314318101638033	2.946388	1.7165046
30.332476929286646	3.027122	1.7398627
30.35063653696153	3.0801013	1.7550217
30.368796925219307	3.0499258	1.7464037
30.386958094616844	2.940433	1.7147691
30.40512004571115	2.8883471	1.6995138
30.423282779059463	2.915674	1.7075344
30.441446295219233	2.8291755	1.6820153
30.459610594748067	2.7473283	1.6575067
30.47777567820382	2.82495	1.6807587
30.495941546144504	2.9353878	1.7132974
30.51410819912835	2.8742452	1.69536
30.532275637713795	2.8329332	1.6831319
30.55044386245946	2.8042479	1.6745889
30.56861287392416	2.7428787	1.6561638
30.586782672666956	2.7193387	1.6490418
30.604953259247047	2.7464345	1.6572369
30.623124634223885	2.7771506	1.6664785
30.641296798157075	2.7815912	1.6678103
30.659469751606462	2.778443	1.6668663
30.677643495132074	2.7767076	1.6663456
30.695818029294152	2.7976696	1.6726236
30.713993354653116	2.721732	1.6497673
30.73216947176962	2.6606903	1.6311623
30.75034638120448	2.635767	1.6235045
30.768524083518756	2.6987553	1.6427889
30.786702579273673	2.7268531	1.6513186
30.80488186903069	2.8317025	1.6827663
30.82306195335144	3.0000818	1.7320744
30.841242832797782	3.2520757	1.8033513
30.85942450793176	3.5964231	1.8964238
30.877606979315637	3.9684625	1.9921
30.895790247511883	4.3204637	2.0785725
30.913974313083134	4.782291	2.186845
30.932159176592283	5.293845	2.3008358
30.95034483860237	5.6261024	2.3719406
30.968531299676698	5.625041	2.371717
30.98671856037873	5.35366	2.3137977
31.00490662127215	5.0428305	2.2456248
31.023095482920848	4.6102047	2.1471388
31.04128514588892	4.012429	2.003105
31.059475610740662	3.326261	1.823804
31.07766687804056	2.87979	1.6969944
31.09585894835335	2.658236	1.6304097
31.11405182224393	2.5310905	1.5909401
31.132245500277417	2.4576135	1.5676777
31.15043998301914	2.438744	1.5616479
31.168635271034628	2.4134858	1.5535398
31.18683136488964	2.408807	1.5520332
31.20502826515008	2.3821592	1.5434245
31.223225972382135	2.4194343	1.5554531
31.241424487152155	2.4172688	1.5547568
31.259623810026692	2.45762	1.5676798
31.27782394157253	2.4803343	1.5749077
31.296024882356644	2.4562957	1.5672574
31.314226632946237	2.4291873	1.558585
31.332429193908684	2.5295768	1.5904644
31.350632565811598	2.5486658	1.5964541
31.368836749222787	2.4825163	1.5756003
31.387041744710295	2.5332437	1.5916166
31.40524755284232	2.6342216	1.6230285
31.423454174187317	2.6748445	1.6354952
31.441661609313922	2.6433997	1.6258535
31.459869858791002	2.5283592	1.5900815
31.478078923187628	2.3987947	1.5488043
31.496288803073064	2.411922	1.5530363
31.514499499016807	2.4476013	1.5644811
31.532711011588546	2.3727088	1.54036
31.550923341358178	2.2447839	1.4982603
31.56913648889584	2.2030933	1.4842821
31.587350454771844	2.267515	1.505827
31.605565239556732	2.2993581	1.5163635
31.62378084382127	2.2684698	1.506144
31.641997268136382	2.279355	1.5097533
31.660214513073274	2.327891	1.5257428
31.67843257920331	2.3022454	1.5173151
31.6966514670981	2.2347267	1.4949002
31.71487117732944	2.273457	1.5077988
31.733091710469346	2.279936	1.5099458
31.751313067090052	2.301254	1.5169885
31.769535247764008	2.3334665	1.5275688
31.787758253063878	2.3239822	1.5244613
31.805982083562526	2.2497094	1.4999031
31.824206739833024	2.2675185	1.5058281
31.84243222244869	2.2914603	1.513757
31.860658531983013	2.2427611	1.497585
31.878885669009737	2.2274392	1.4924607
31.897113634102784	2.2459085	1.4986355
31.91534242783632	2.2972455	1.5156667
31.933572050784694	2.3367	1.5286268
31.951802503522508	2.2904346	1.5134182
31.970033786624548	2.2190597	1.4896508
31.988265900665834	2.1494226	1.4660909
32.006498846221575	2.052672	1.4327148
32.02473262386724	2.1337209	1.4607261
32.04296723417845	2.2300901	1.4933486
32.0612026777311	2.2617483	1.503911
32.07943895510129	2.2099714	1.4865973
32.097676066865304	2.2369688	1.4956499
32.115914013599685	2.2789996	1.5096356
32.13415279588115	2.2374835	1.4958221
32.152392414286666	2.14925	1.466032
32.1706328693934	2.0669615	1.4376931
32.18887416177875	1.9737333	1.4048961
32.20711629202032	2.0201552	1.4213216
32.225359260695924	2.152425	1.4671146
32.243603068383614	2.2541323	1.5013767
32.26184771566166	2.188532	1.4793688
32.28009320310852	2.0913332	1.4461442
32.2983395313029	2.1151783	1.4543653
32.31658670082372	2.2154226	1.4884295
32.33483471225012	2.2112217	1.4870178
32.35308356616143	2.1226983	1.4569483
32.371333263137245	2.0943801	1.4471973
32.38958380375734	2.078721	1.441777
32.407835188601744	2.0935798	1.4469208
32.42608741825067	2.0943904	1.4472009
32.444340493284585	2.028265	1.4241717
32.46259441428416	1.9781817	1.4064785
32.48084918183028	2.0671575	1.4377613
32.49910479650405	2.1946251	1.4814267
32.51736125888683	2.2003887	1.4833707
32.53561856956014	2.096647	1.4479803
32.5538767291058	2.0046055	1.415841
32.572135738105764	1.9883685	1.4100952
32.59039559714228	1.9873441	1.409732
32.608656306797776	1.9798772	1.4070811
32.62691786765491	1.9553757	1.3983475
32.645180280296586	1.9256668	1.387684
32.663443545305896	1.9539417	1.3978347
32.68170766326619	2.0135055	1.4189805
32.69997263476099	2.0586655	1.434805
32.7182384603741	2.0649705	1.4370005
32.7365051406895	2.030131	1.4248267
32.75477267629144	1.9245175	1.3872699
32.77304106776434	1.8990474	1.3780593
32.79131031569289	1.9388912	1.3924407
32.809580420661966	1.9639364	1.4014052
32.827851383256714	1.9624534	1.4008759
32.84612320406245	1.9977416	1.4134148
32.86439588366476	2.0714998	1.4392706
32.88266942264945	2.0322235	1.4255607
32.9009438216025	1.9575628	1.3991293
32.9192190811102	1.9219688	1.3863509
32.937495201758985	1.9741534	1.4050457
32.95577218413556	1.9446467	1.3945059
32.974050028826866	1.9251499	1.3874977
32.992328736420035	1.9227712	1.3866403
33.010608307502444	1.8763582	1.3698022
33.02888874266169	1.894344	1.3763517
33.047170042485604	1.9988941	1.4138225
33.06545220756225	1.997497	1.4133283
33.083735238479896	1.9837172	1.408445
33.10201913582707	1.9338084	1.3906144
33.12030390019248	1.8872484	1.3737715
33.138589532165135	1.9255756	1.3876511
33.15687603233419	1.96232	1.4008284
33.17516340128909	1.9671263	1.4025428
33.19345163961947	1.9752402	1.4054323
33.211740747915215	1.9122634	1.3828461
33.23003072676643	1.9277911	1.3884492
33.248321576763466	1.9749625	1.4053336
33.266613298496885	1.9987932	1.4137869
33.28490589255747	1.9865063	1.4094348
33.30319935953626	1.941845	1.393501
33.32149370002451	1.9109589	1.3823744
33.339788914613706	1.952581	1.3973478
33.358085003895575	1.8941908	1.376296
33.376381968462034	1.8629038	1.3648823
33.39467980890529	1.9173225	1.3846742
33.41297852581774	1.9620569	1.4007344
33.43127811979204	1.8693535	1.367243
33.44957859142105	1.8794024	1.370913
33.467879941297866	1.8879302	1.3740197
33.486182170015844	1.8914558	1.3753021
33.50448527816853	1.8708508	1.3677905
33.522789266349754	1.9280769	1.3885521
33.541094135153514	2.0322406	1.4255668
33.55939988517411	2.086884	1.4446051
33.57770651700602	2.0528946	1.4327925
33.59601403124398	2.0074437	1.4168428
33.61432242848296	1.9707682	1.4038405
33.632631709318154	1.9813919	1.4076192
33.650941874344994	1.9777589	1.4063282
33.66925292415916	1.9665915	1.4023521
33.68756485935654	1.879274	1.3708662
33.70587768053328	1.8881257	1.3740908
33.724191388285746	1.818562	1.3485407
33.74250598321054	1.7561396	1.3251942
33.760821465904506	1.8041403	1.3431829
33.77913783696474	1.8319981	1.3535132
33.79745509698852	1.8138841	1.3468052
33.815773246573414	1.8590983	1.3634876
33.8340922863172	1.8930084	1.3758664
33.852412216817896	1.9242473	1.3871723
33.87073303867377	1.9270921	1.3881974
33.889054752483304	2.0209239	1.421592
33.907377358845245	2.0083299	1.4171555
33.92570085835853	1.9041845	1.3799219
33.94402525162239	1.8848045	1.3728818
33.96235053923627	1.8225331	1.3500123
33.980676721799824	1.7494599	1.3226715
33.999003799912984	1.7791412	1.3338445
34.01733177417592	1.7874286	1.3369474
34.03566064518901	1.8688809	1.3670702
34.0539904135529	1.9026773	1.3793757
34.07232107986846	1.8981938	1.3777496
34.090652644736785	1.9479997	1.3957076
34.108985108759235	1.9736936	1.4048821
34.12731847253742	1.9921232	1.411426
34.14565273667313	1.9739879	1.4049869
34.16398790176847	1.9369628	1.3917481
34.18232396842574	1.914702	1.3837276
34.20066093724749	1.9307599	1.3895179
34.21899880883651	1.9526374	1.3973681
34.23733758379583	1.8996819	1.3782895
34.25567726272874	1.8721043	1.3682486
34.27401784623872	1.9584712	1.3994539
34.29235933492957	1.9991956	1.4139291
34.31070172940526	2.11128	1.4530244
34.32904503027003	2.0697954	1.4386784
34.347389238128386	1.9302021	1.3893172
34.36573435358502	1.8290799	1.3524348
34.38408037724492	1.7836368	1.3355286
34.402427309713296	1.7511343	1.3233043
34.42077515159559	1.856808	1.3626474
34.43912390349752	1.8713764	1.3679826
34.45747356602499	1.8314115	1.3532965
34.47582413978423	1.9438485	1.3942196
34.49417562538163	1.9891351	1.410367
34.51252802342388	1.9446913	1.3945218
34.53088133451789	2.0107906	1.4180235
34.54923555927084	2.003452	1.4154335
34.567590698290104	1.8903342	1.3748943
34.58594675218336	1.9261564	1.3878604
34.6043037215585	2.0499985	1.4317816
34.62266160702365	1.9977113	1.4134041
34.641020409187234	1.8990228	1.3780503
34.65938012865785	1.9301959	1.3893149
34.677740766044394	1.8153853	1.3473624
34.69610232195598	1.7865261	1.33661
34.714464797002016	1.858723	1.3633499
34.73282819179208	1.8558301	1.3622886
34.751192506936064	1.8672537	1.3664749
34.76955774304408	2.0414746	1.4288018
34.7879239007265	2.0314095	1.4252752
34.80629098059391	1.9841808	1.4086095
34.824658983257194	1.8897614	1.374686
34.843027909327446	1.7860546	1.3364335
34.86139775941603	1.7910159	1.3382884
34.879768534134534	1.8329577	1.3538677
34.89814023409483	1.8668199	1.3663162
34.91651285990901	1.8311777	1.3532101
34.93488641218944	1.6543232	1.2862049
34.95326089154871	1.600047	1.2649297
34.97163629859967	1.6755425	1.2944275
34.99001263395542	1.8280479	1.3520532
35.00838989822934	1.8895956	1.3746257
35.02676809203499	2.074801	1.4404169
35.04514721598624	2.2364683	1.4954827
35.063527270697215	2.1726632	1.4739957
35.081908256782256	2.007429	1.4168377
35.10029017485597	1.77667	1.3329178
35.11867302553321	1.9050907	1.3802502
35.137056809429104	1.9229445	1.3867028
35.155441527159006	2.0226161	1.4221871
35.173827179338524	2.050078	1.4318093
35.19221376658354	1.8007597	1.3419238
35.21060128951017	1.8114011	1.345883
35.2289897487348	1.9854184	1.4090488
35.24737914487405	1.9005345	1.3785987
35.26576947854479	1.6946081	1.3017712
35.28416075036418	1.9603506	1.4001253
35.30255296094958	2.2081833	1.4859958
35.32094611091867	2.178209	1.4758757
35.33934020088932	2.1120834	1.4533008
35.35773523147969	2.0752566	1.4405751
35.3761312033082	2.0028214	1.4152107
35.394528116993506	2.0032985	1.4153793
35.41292597315452	2.1492665	1.4660376
35.431324772410434	2.2911026	1.5136389
35.449724515380666	2.2431211	1.4977053
35.46812520268491	2.2575183	1.502504
35.486526834943106	2.1911805	1.4802636
35.504929412775454	1.8971403	1.3773671
35.52333293680242	1.7700611	1.3304365
35.54173740764471	1.9827286	1.4080939
35.560142825923286	2.264346	1.5047743
35.5785491922594	2.1050837	1.4508907
35.59695650727454	1.7657505	1.3288155
35.61536477159042	1.1671087	1.080328
