0.008763373481513119	0.0	0.0
0.026290120649546365	0.0	0.0
0.043816868432600686	0.0	0.0
0.06134361724069026	0.052548494	0.22923458
0.07887036748382949	0.105573505	0.32492077
0.0963971195720331	0.18410483	0.42907438
0.11392387391531617	0.16911961	0.41124156
0.1314506309236943	0.19691248	0.4437482
0.1489773910071836	0.22960651	0.47917274
0.16650415457580078	0.28265887	0.53165674
0.18403092203956356	0.25178686	0.50178367
0.20155769380849	0.16457382	0.405677
0.2190844702925996	0.07673353	0.27700818
0.2366112519019124	0.03765164	0.1940403
0.2541380390464497	0.1314057	0.36249924
0.27166483213623416	0.14220059	0.37709492
0.28919163158128947	0.13174443	0.36296615
0.3067184377916406	0.11448115	0.33835062
0.324245251177314	0.11142275	0.33380046
0.34177207214833777	0.19091392	0.43693697
0.3592989011147415	0.22472079	0.47404724
0.37682573848655654	0.27464315	0.52406406
0.39435258467381573	0.2451902	0.49516684
0.41187944008655414	0.17351119	0.41654673
0.42940630513480854	0.15876113	0.3984484
0.446933180228618	0.16849862	0.41048583
0.4644600657780234	0.20769234	0.45573276
0.48198696219306775	0.19171688	0.43785486
0.49951386988379676	0.15758003	0.3969635
0.5170407892602581	0.14528374	0.38116103
0.5345677207325025	0.13411441	0.36621636
0.5520946647105822	0.12921941	0.35947102
0.5696216216045534	0.08304814	0.28818074
0.5871485918244737	0.10165731	0.31883743
0.6046755757804043	0.13689223	0.36998948
0.6222025738824094	0.15873268	0.3984127
0.6397295865405557	0.13694641	0.3700627
0.6572566141649129	0.10260489	0.32031998
0.6747836571655547	0.108603835	0.32955095
0.6923107159525568	0.147552	0.38412496
0.7098377909359992	0.15488763	0.39355767
0.7273648825259653	0.14776109	0.38439706
0.7448919911325411	0.13875271	0.37249526
0.762419117165817	0.1476102	0.38420072
0.7799462610358868	0.17982937	0.42406294
0.7974734231528482	0.1799157	0.4241647
0.8150006039268024	0.19555189	0.4422125
0.8325278037678551	0.15858668	0.39822942
0.8500550230861152	0.15000026	0.38729867
0.8675822622916969	0.15439375	0.3929297
0.8851095217947171	0.18366487	0.4285614
0.9026368020052984	0.20017818	0.44741276
0.9201641033335665	0.19983523	0.44702932
0.9376914261896523	0.22199333	0.47116166
0.9552187709836915	0.23181133	0.4814679
0.9727461381258234	0.25731468	0.50726193
0.990273528026193	0.2473877	0.49738085
1.0078009410949496	0.2567115	0.5066671
1.0253283777422473	0.2529016	0.50289327
1.0428558383782454	0.24916162	0.49916092
1.0603833234131086	0.22583754	0.4752237
1.0779108332570058	0.31261787	0.5591224
1.0954383683201119	0.32652858	0.5714268
1.112965929012607	0.4233273	0.6506361
1.1304935157446763	0.5792022	0.7610533
1.1480211289265108	0.6314732	0.7946529
1.1655487689683062	1.498019	1.2239358
1.1830764362802655	1.7628815	1.3277355
1.200604131272596	2.1504555	1.4664432
1.2181318543555117	2.2961564	1.5153073
1.235659605939232	2.3862195	1.5447392
1.253187386433982	4.112405	2.0279064
1.270715196249994	6.5052614	2.5505414
1.2882430357975057	11.760753	3.4293954
1.3057709054867608	16.412584	4.0512447
1.3232988057280106	22.011398	4.691631
1.3408267369315112	26.59902	5.157424
1.358354699507526	30.321148	5.506464
1.3758826938663256	34.49329	5.873099
1.3934107204181858	36.77733	6.064431
1.410938779573391	37.291958	6.1067142
1.4284668717422309	37.88935	6.1554327
1.4459949973350033	37.675053	6.1380005
1.4635231567620117	38.08445	6.17126
1.4810513504335687	37.072113	6.0886874
1.4985795787599925	36.334362	6.027799
1.5161078421516088	35.489407	5.9572988
1.5336361410187505	34.699112	5.8905954
1.5511644757717598	34.881615	5.906066
1.5686928468209842	35.82188	5.9851384
1.58622125457678	36.647717	6.0537357
1.6037496994495108	37.835175	6.1510305
1.621278181849548	37.480255	6.122112
1.6388067021872719	37.862865	6.1532807
1.6563352608730693	37.482273	6.122277
1.673863858317336	36.615944	6.0511107
1.6913924949304753	36.130787	6.010889
1.7089211711228998	34.876854	5.905663
1.7264498873050296	33.798374	5.813637
1.7439786438872935	32.51107	5.701848
1.7615074412801288	31.35207	5.599292
1.779036279893981	30.896019	5.5584188
1.796565160139305	30.344946	5.5086246
1.814094082426564	30.223465	5.497587
1.8316230471662298	29.246819	5.408033
1.849152054768784	28.09195	5.300184
1.8666811056447168	27.359488	5.23063
1.8842102002045273	26.552864	5.152947
1.901739338858724	26.007757	5.09978
1.9192685220178245	25.151514	5.0151286
1.9367977500923557	24.561588	4.955965
1.9543270234928547	24.106466	4.9098334
1.971856342629867	23.58075	4.8560014
1.9893857079139496	23.287899	4.8257537
2.006915119755667	22.914045	4.786862
2.0244445785655945	22.390564	4.731867
2.0419740847543175	21.930832	4.683037
2.0595036387324317	21.481031	4.6347632
2.0770332409105414	21.06068	4.589192
2.094562891699263	20.567526	4.5351434
2.1120925915092217	19.981026	4.470014
2.129622340751053	19.728895	4.441722
2.1471521398354043	187.78818	13.703583
2.1646819891729323	444.17755	21.07552
2.182211889174303	440.17804	20.980421
2.1997418402501974	452.6298	21.275099
2.2172718428113023	432.5616	20.798115
2.234801897268317	320.65524	17.906849
2.2523320040319548	17.358727	4.1663804
2.269862163512935	17.308228	4.160316
2.287392376121992	16.925346	4.1140428
2.304922642269869	16.450966	4.0559793
2.322452962367322	15.922795	3.9903378
2.3399833368251164	15.646583	3.9555762
2.357513766054032	15.460769	3.9320185
2.3750442504648586	15.27367	3.9081542
2.3925747904683963	15.01458	3.874865
2.410105386475459	14.965027	3.8684657
2.4276360388968707	14.57025	3.8170996
2.445166748143469	14.329633	3.7854502
2.4626975146261025	13.875971	3.7250464
2.4802283387556323	13.59415	3.6870246
2.4977592209429305	13.379517	3.657802
2.5152901615988825	13.167702	3.6287327
2.5328211611343865	12.879523	3.5888052
2.5503522199603523	12.68006	3.5609071
2.5678833384877024	12.562316	3.5443358
2.5854145171273712	12.40496	3.5220675
2.6029457562903064	12.04561	3.4706786
2.620477056387469	11.79718	3.4347024
2.6380084178298326	11.675099	3.4168844
2.655539841028383	11.527289	3.3951862
2.673071326394119	11.436963	3.3818579
2.6906028743380523	11.335316	3.366796
2.708134485271211	11.240739	3.3527212
2.7256661596046325	11.113582	3.333704
2.743197897749369	10.839184	3.2922916
2.760729700116486	10.650953	3.2635798
2.778261567117063	10.488329	3.238569
2.795793499162193	10.276313	3.205669
2.8133254966629817	10.074515	3.1740377
2.830857560030551	9.866587	3.1411123
2.8483896896760337	9.823725	3.134282
2.865921886010578	9.77874	3.1270976
2.883454149445347	9.66492	3.1088455
2.9009864803915177	9.551355	3.0905268
2.91851887926028	9.235748	3.0390375
2.9360513464628384	9.132102	3.021937
2.953583882410413	8.982224	2.997036
2.9711164875142373	8.933117	2.988832
2.9886491621855606	8.837655	2.9728193
3.0061819068356455	8.765454	2.960651
3.023714721875769	8.748002	2.9577022
3.041247607717225	8.714751	2.9520757
3.0587805647713213	8.614677	2.9350772
3.0763135934493806	8.501389	2.915714
3.0938466941627407	8.332106	2.8865387
3.1113798673227544	8.132834	2.8518126
3.1289131133407904	7.899833	2.8106642
3.1464464326282315	7.8412766	2.8002279
3.1639798255964786	7.8204765	2.7965114
3.1815132926569443	7.7811303	2.7894678
3.1990468342210603	7.61153	2.7589002
3.216580450700272	7.521968	2.7426207
3.2341141425060416	7.4347715	2.7266777
3.251647910049847	7.4792128	2.734815
3.2691817537431813	7.483146	2.735534
3.286715673997555	7.5171237	2.7417374
3.3042496712244938	7.335294	2.7083747
3.32178374583554	7.0994687	2.6644828
3.339317898242251	6.9549456	2.637223
3.3568521288562034	6.9290447	2.6323078
3.3743864380889876	6.948716	2.6360419
3.3919208263522127	6.8383102	2.6150162
3.4094552940575023	6.820687	2.6116445
3.4269898416164972	6.757883	2.599593
3.444524469440858	6.673348	2.5832825
3.4620591779422587	6.5834627	2.565826
3.479593967532391	6.460303	2.5417125
3.4971288386229658	6.449	2.539488
3.5146637916257086	6.3677073	2.5234315
3.5321988269523628	6.2581306	2.5016255
3.5497339450146903	6.2506924	2.5001385
3.5672691462244708	6.354299	2.5207734
3.5848044309934988	6.4320345	2.5361457
3.60233979973359	6.3360195	2.5171452
3.619875252856575	6.2503777	2.5000756
3.6374107907743034	6.1777587	2.4855096
3.6549464138986427	6.1991234	2.4898038
3.6724821226414788	6.247958	2.4995916
3.690017917414714	6.2427444	2.4985485
3.7075537986302702	6.34634	2.5191944
3.7250897667000857	6.4086933	2.5315397
3.7426258220361235	6.5886307	2.5668328
3.7601619650503553	6.8310976	2.613637
3.777698196154779	7.313204	2.7042935
3.7952345157614067	8.3409195	2.888065
3.8127709242822716	9.181573	3.030111
3.830307422129425	11.539926	3.3970466
3.847844009714936	30.282959	5.5029955
3.8653806874508954	97.725685	9.885631
3.882917455749409	97.02442	9.850098
3.900454315022606	96.86896	9.842203
3.917991265682631	41.45087	6.4382353
3.9355283081416506	10.965115	3.3113616
3.9530654428118495	8.746535	2.9574542
3.970602670105433	7.567332	2.7508783
3.9881399904346244	6.6473584	2.578247
4.005677404211669	6.5291944	2.5552287
4.023214911848827	6.4134555	2.53248
4.0407525137583855	6.4504952	2.5397825
4.058290210352644	6.4225516	2.5342753
4.075828002043927	6.32498	2.5149512
4.0933658892445814	6.192992	2.4885724
4.110903872366966	6.159592	2.4818525
4.128441951823468	6.174204	2.4847946
4.145980128026488	6.1386395	2.4776278
4.163518401388452	6.0525994	2.4602032
4.181056772321807	6.0550175	2.4606946
4.1985952412390155	6.1211557	2.474097
4.216133808552567	6.237064	2.4974115
4.233672474674966	6.363708	2.522639
4.251211240018741	6.512494	2.5519588
4.268750104996445	6.7229805	2.5928712
4.286289070020643	7.6177707	2.760031
4.303828135503928	9.232762	3.038546
4.3213673018589125	29.624344	5.442825
4.3389065694982305	90.84744	9.531392
4.356445938834537	166.12631	12.889
4.3739854102805085	171.32852	13.089252
4.391524984248844	172.2226	13.123361
4.409064661152262	136.3215	11.67568
4.426604441403504	96.68946	9.83308
4.444144325415337	75.74277	8.7030325
4.461684313600543	21.676853	4.655841
4.47922440637193	22.161325	4.7075815
4.496764604142329	20.64147	4.543288
4.5143049073245916	18.79684	4.335532
4.531845316331589	16.52527	4.065129
4.5493858315762195	13.545473	3.6804175
4.566926453471405	11.171706	3.3424103
4.584467182430081	9.122303	3.0203152
4.602008018865218	8.03541	2.8346798
4.619548963189798	7.388814	2.7182374
4.637090015816834	7.051028	2.6553771
4.654631177159353	6.881384	2.6232393
4.672172447630417	6.621495	2.5732265
4.689713827643102	6.5339036	2.5561502
4.7072553176105085	6.2142057	2.4928308
4.724796917945764	5.9524612	2.4397666
4.742338629062015	5.8271027	2.4139392
4.759880451372434	5.7576714	2.399515
4.777422385290215	5.708005	2.3891432
4.794964431228581	5.629987	2.3727593
4.812506589600768	5.670555	2.3812928
4.830048860820047	5.6886067	2.38508
4.847591245299709	5.766445	2.4013424
4.8651337434530655	5.741032	2.3960452
4.882676355693457	5.753793	2.3987064
4.900219082434242	5.7006187	2.3875968
4.917761924088813	5.5493116	2.3556976
4.935304881070575	5.476659	2.3402262
4.952847953792969	5.420835	2.3282688
4.970391142669449	5.4010553	2.324017
4.9879344481135055	5.4475946	2.3340082
5.005477870538642	5.466383	2.3380296
5.023021410358394	5.3993535	2.3236508
5.040565067986324	5.341384	2.3111434
5.05810884383601	5.3000255	2.3021784
5.075652738321066	5.36604	2.3164716
5.09319675185512	5.3351355	2.3097913
5.110740884851836	5.3413343	2.3111327
5.128285137724894	5.3038034	2.3029988
5.145829510888007	5.292644	2.3005748
5.163374004754908	5.256737	2.2927575
5.1809186197393595	5.3194265	2.3063881
5.198463356255145	5.3732786	2.3180335
5.216008214716077	5.3865657	2.3208976
5.233553195535998	5.329393	2.3085477
5.251098299128764	5.31697	2.3058555
5.268643525908272	5.395093	2.3227339
5.286188876288432	5.4019036	2.3241997
5.3037343506831895	5.461026	2.3368838
5.32127994950651	5.417013	2.327448
5.3388256731723915	5.362107	2.3156223
5.356371522094851	5.3195944	2.3064246
5.373917496687938	5.2749157	2.2967184
5.391463597365729	5.293106	2.3006752
5.40900982454232	5.230827	2.2871
5.426556178631843	5.212391	2.283066
5.444102660048449	5.211276	2.282822
5.4616492692063225	5.1908474	2.2783432
5.479196006519669	5.243934	2.2899637
5.496742872402727	5.2536044	2.2920742
5.514289867269756	5.183022	2.2766252
5.531836991535049	5.1022954	2.258826
5.549384245612924	5.0960493	2.2574432
5.566931629917724	5.157093	2.2709234
5.584479144863822	5.215293	2.2837017
5.6020267908656205	5.2504587	2.291388
5.619574568337545	5.2906265	2.300136
5.637122477694054	5.294305	2.3009357
5.654670519349629	5.303874	2.303014
5.672218693718784	5.280105	2.297848
5.689767001216059	5.241509	2.2894342
5.707315442256021	5.2782984	2.2974548
5.724864017253266	5.220175	2.2847703
5.7424127266224225	5.2202783	2.284793
5.75996157077814	5.1377378	2.2666578
5.777510550135105	5.1575866	2.271032
5.795059665108022	5.1646533	2.2725873
5.812608916111639	5.174267	2.2747016
5.830158303560715	5.225711	2.2859814
5.847707827870055	5.209946	2.2825305
5.86525748945448	5.388962	2.3214138
5.8828072887288485	5.5449176	2.354765
5.900357226108044	5.6295114	2.3726592
5.917907302006979	5.6249037	2.371688
5.9354575168406	6.2123647	2.4924617
5.9530078710238765	6.873587	2.6217527
5.970558364971812	7.447119	2.728941
5.988108999099438	7.8225827	2.796888
6.005659773821818	8.457085	2.9081068
6.023210689554039	8.160017	2.8565743
6.040761746711227	8.557687	2.9253523
6.058312945708531	7.8960037	2.8099828
6.075864286961132	7.3998938	2.7202747
6.093415770884244	6.807513	2.609121
6.1109673978931065	6.2227354	2.4945412
6.128519168402993	5.544884	2.3547578
6.146071082829204	5.342957	2.3114836
6.163623141587075	5.2481885	2.2908926
6.181175345091969	5.244156	2.2900121
6.198727693759281	5.34713	2.3123863
6.216280188004435	5.344538	2.3118258
6.233832828242885	5.312561	2.3048995
6.251385614890126	5.2794123	2.297697
6.268938548361669	5.23933	2.2889583
6.286491629073067	5.190449	2.2782557
6.304044857439898	5.167905	2.2733026
6.321598233877777	5.02756	2.242222
6.339151758802344	4.939118	2.2224126
6.356705432629277	4.8727775	2.2074368
6.37425925577428	4.8199377	2.1954358
6.391813228653095	4.8687887	2.2065332
6.409367351681486	4.906208	2.214996
6.426921625275259	5.0425677	2.2455661
6.44447604985025	5.01658	2.2397723
6.46203062582232	5.0674357	2.2510965
6.47958535360737	5.0201283	2.2405643
6.497140233621328	5.046838	2.2465167
6.514695266280161	4.9984183	2.2357142
6.532250451999859	4.992255	2.2343354
6.549805791196454	4.964792	2.2281814
6.567361284286002	5.0478206	2.2467356
6.584916931684597	5.0890064	2.2558827
6.602472733808367	5.042021	2.2454445
6.6200286910734665	5.005418	2.2372792
6.637584803896092	4.9510074	2.225086
6.655141072692462	4.9763813	2.2307804
6.672697497878842	4.968719	2.2290623
6.690254079871514	5.0412974	2.2452834
6.707810819086808	5.07909	2.2536836
6.725367715941078	5.0520263	2.2476714
6.742924770850719	4.9755054	2.2305841
6.760481984232151	4.913629	2.2166708
6.778039356501836	4.8710003	2.2070343
6.795596888076266	4.9372005	2.2219813
6.813154579371963	5.0280485	2.242331
6.830712430805492	5.01925	2.2403684
6.84827044279344	5.0160155	2.2396462
6.865828615752445	5.038192	2.2445917
6.883386950099159	5.0234137	2.2412972
6.900945446250287	5.0394354	2.2448688
6.918504104622553	5.048988	2.2469952
6.936062925632727	5.179842	2.2759266
6.953621909697607	5.2289653	2.286693
6.971181057234028	5.164184	2.272484
6.988740368658859	5.086718	2.2553754
7.006299844389007	5.1155243	2.2617524
7.023859484841407	5.193309	2.2788832
7.041419290433036	5.304571	2.3031654
7.058979261580902	5.452387	2.3350346
7.0765393987020495	5.743133	2.3964834
7.094099702213559	6.121391	2.4741445
7.111660172532549	6.526975	2.5547945
7.129220810076164	6.8439364	2.6160917
7.146781615261595	7.3654866	2.713943
7.16434258850606	7.607096	2.7580965
7.181903730226821	7.9981856	2.8281064
7.1994650408411704	8.132857	2.8518164
7.217026520766437	8.179706	2.8600185
7.234588170419983	8.416859	2.9011822
7.252149990219215	8.414622	2.900797
7.269711980581568	8.277638	2.8770885
7.2872741419245175	8.100577	2.8461514
7.304836474665574	7.7911034	2.7912548
7.322398979222286	7.4567876	2.730712
7.339961656012233	7.217734	2.686584
7.357524505453039	6.916938	2.6300073
7.375087527962357	6.6922007	2.5869288
7.392650723957886	6.4219813	2.5341628
7.410214093857353	6.0114	2.4518156
7.427777638078528	5.76897	2.401868
7.445341357039213	5.6692286	2.381014
7.4629052511572525	5.503843	2.3460271
7.480469320850524	5.39981	2.323749
7.498033566536948	5.3227053	2.3070989
7.5155979886344735	5.2853684	2.2989929
7.5331625875610975	5.2326994	2.2875094
7.550727363734844	5.2255716	2.285951
7.568292317573788	5.241869	2.2895129
7.585857449496025	5.1906667	2.2783034
7.603422759919705	5.1305075	2.2650623
7.620988249263007	5.0840883	2.2547922
7.638553917944147	5.093903	2.2569678
7.656119766381391	5.106517	2.2597604
7.673685794993023	5.1720753	2.2742198
7.691252004197388	5.232449	2.2874546
7.70881839441285	5.2493553	2.2911472
7.726384966057826	5.229144	2.2867322
7.743951719550762	5.2087345	2.2822652
7.761518655310149	5.2788076	2.2975657
7.779085773754511	5.3987494	2.323521
7.796653075302419	5.4048576	2.324835
7.814220560372475	5.4049954	2.3248646
7.831788229383323	5.375296	2.3184686
7.8493560827536495	5.3812857	2.3197598
7.866924120902174	5.395058	2.3227265
7.884492344247663	5.3755136	2.3185153
7.9020607532089135	5.406239	2.3251321
7.919629348204771	5.3590975	2.3149724
7.937198129654115	5.324703	2.3075318
7.954767097975865	5.299602	2.3020864
7.972336253588986	5.351835	2.3134034
7.989905596912472	5.4318695	2.3306372
8.007475128365371	5.5011716	2.3454576
8.025044848366756	5.5057425	2.346432
8.042614757335754	5.5939093	2.3651447
8.060184855691523	5.6235423	2.3714008
8.07775514385327	5.7414513	2.3961325
8.095325622240228	5.7986693	2.4080427
8.112896291271687	5.802072	2.408749
8.130467151366968	5.835498	2.4156775
8.148038202945436	5.931935	2.4355564
8.165609446426497	6.00265	2.4500306
8.183180882229594	6.081307	2.4660306
8.200752510774217	6.0183654	2.4532356
8.218324332479893	6.0026307	2.4500268
8.235896347766193	5.919825	2.433069
8.253468557052724	5.99752	2.4489834
8.27104096075914	6.019899	2.4535482
8.288613559305137	6.1318746	2.4762623
8.306186353110448	6.1904025	2.488052
8.32375934259485	6.237043	2.4974072
8.341332528178162	6.2036486	2.4907124
8.358905910280246	6.2417345	2.4983463
8.376479489321003	6.229089	2.4958143
8.394053265720377	6.33548	2.5170379
8.411627239898356	6.3334484	2.5166342
8.42920141227497	6.3109865	2.5121677
8.44677578327029	6.2681794	2.5036333
8.464350353304427	6.1853075	2.487028
8.48192512279754	6.1410913	2.4781225
8.499500092169827	6.0975513	2.469322
8.51707526184153	6.1263585	2.4751482
8.534650632232934	6.1815248	2.4862673
8.552226203764365	6.2244964	2.494894
8.569801976856192	6.261324	2.5022638
8.587377951928834	6.2833853	2.506668
8.60495412940274	6.3132663	2.5126214
8.622530509698416	6.3418655	2.518306
8.6401070932364	6.476579	2.5449123
8.657683880437283	6.4998846	2.549487
8.675260871721695	6.6063485	2.5702817
8.692838067510303	6.738938	2.5959463
8.710415468223834	6.9176817	2.6301486
8.727993074283043	7.084644	2.6616995
8.745570886108737	7.1154027	2.6674712
8.763148904121765	7.1755614	2.6787238
8.78072712874302	7.1694984	2.6775918
8.798305560393441	7.3931246	2.7190301
8.815884199494006	7.5543494	2.7485178
8.833463046465745	7.7571754	2.7851706
8.851042101729728	7.91647	2.8136222
8.86862136570707	8.19522	2.8627295
8.886200838818924	8.321934	2.884776
8.903780521486505	8.372442	2.8935173
8.921360414131055	8.562926	2.9262478
8.938940517173874	8.720864	2.953111
8.956520831036297	8.8559885	2.9759014
8.97410135613971	9.0622635	3.0103593
8.99168209290554	9.2099695	3.0347931
9.009263041755265	9.475517	3.0782328
9.026844203110405	9.670212	3.1096964
9.044425577392525	9.787092	3.1284328
9.062007165023239	9.87288	3.142114
9.079588966424197	10.21943	3.1967843
9.097170982017108	10.4015255	3.2251396
9.11475321222372	11.398168	3.3761172
9.132335657465825	12.283541	3.5047882
9.149918318165264	12.401063	3.5215144
9.167501194743924	13.180869	3.6305466
9.18508428762374	12.911604	3.593272
9.202667597226693	12.864594	3.5867248
9.220251123974803	12.461105	3.530029
9.237834868290143	12.12329	3.4818516
9.255418830594836	11.789335	3.4335601
9.273003011311046	11.260624	3.3556852
9.290587410860985	11.063418	3.3261716
9.308172029666911	10.486722	3.2383208
9.32575686815113	10.17957	3.190544
9.343341926735997	8.848619	2.974663
9.360927205843916	8.594561	2.931648
9.378512705897327	8.378181	2.8945088
9.396098427318728	8.195614	2.8627982
9.413684370530664	8.104165	2.8467815
9.431270535955722	8.02713	2.833219
9.448856924016539	7.8714757	2.805615
9.466443535135806	7.6773405	2.7708013
9.484030369736251	7.6551876	2.7668009
9.501617428240658	7.596368	2.756151
9.519204711071852	7.677747	2.7708747
9.536792218652714	7.7409573	2.7822576
9.55437995140617	7.8307066	2.79834
9.571967909755191	7.8054314	2.7938201
9.589556094122802	7.807488	2.7941883
9.60714450493207	7.944166	2.8185396
9.624733142606116	8.053488	2.8378668
9.642322007568108	8.162692	2.8570426
9.659911100241267	8.175842	2.859343
9.677500421048851	8.193292	2.8623927
9.695089970414175	8.182985	2.860592
9.712679748760609	8.122952	2.8500793
9.730269756511557	8.080167	2.8425634
9.747859994090492	8.129028	2.851145
9.765450461920915	8.205077	2.8644507
9.78304116042639	8.282653	2.8779597
9.800632090030527	8.286269	2.878588
9.81822325115699	8.329648	2.886113
9.835814644229481	8.357821	2.8909898
9.853406269671762	8.373555	2.8937097
9.870998127907646	8.38266	2.8952823
9.888590219360985	8.396202	2.89762
9.906182544455698	8.381293	2.8950462
9.923775103615734	8.393034	2.8970733
9.941367897265108	8.42202	2.9020717
9.958960925827878	8.441789	2.9054756
9.97655418972816	8.396928	2.8977454
9.994147689390106	8.339239	2.887774
10.011741425237934	8.27897	2.8773198
10.029335397695904	8.325357	2.8853695
10.04692960718833	8.351453	2.889888
10.06452405413958	8.3715105	2.8933563
10.082118738974064	8.295803	2.8802435
10.099713662116246	8.231292	2.8690228
10.117308823990651	8.273738	2.8764105
10.134904225021844	8.255317	2.8732066
10.152499865634445	8.181362	2.8603082
10.170095746253125	8.180548	2.8601656
10.18769186730261	8.173909	2.859005
10.205288229207675	8.152746	2.8553014
10.222884832393145	8.100895	2.8462071
10.2404816772839	8.062845	2.839515
10.258078764304868	8.099794	2.8460138
10.275676093881035	8.12781	2.8509314
10.293273666437438	8.048203	2.8369355
10.310871482399158	8.096653	2.8454618
10.32846954219134	8.098477	2.8457823
10.346067846239173	8.226091	2.8681164
10.363666394967908	8.306609	2.882119
10.38126518880283	8.335055	2.8870497
10.398864228169298	8.393796	2.8972049
10.416463513492713	8.338924	2.8877196
10.434063045198531	8.311704	2.8830025
10.451662823712262	8.290793	2.8793738
10.469262849459467	8.317451	2.883999
10.486863122865758	8.26383	2.874688
10.504463644356806	8.239075	2.8703787
10.522064414358338	8.065695	2.8400166
10.539665433296118	7.940778	2.8179386
10.557266701595987	7.8595295	2.8034852
10.574868219683818	7.8204107	2.7964997
10.592469987985552	7.756375	2.7850268
10.610072006927185	7.6281457	2.7619097
10.627674276934751	7.495292	2.7377532
10.64527679843435	7.3498416	2.711059
10.662879571852143	7.2079096	2.684755
10.680482597614331	7.1463056	2.6732576
10.698085876147173	7.0435715	2.6539729
10.715689407876988	6.929296	2.6323557
10.733293193230146	6.8462844	2.6165404
10.750897232633072	6.7971053	2.6071258
10.76850152651225	6.7260976	2.593472
10.786106075294207	6.626231	2.5741467
10.803710879405534	6.5552177	2.5603158
10.821315939272877	6.471925	2.5439978
10.83892125532294	6.384138	2.5266852
10.856526827982472	6.344707	2.51887
10.874132657678285	6.320403	2.5140412
10.891738744837243	6.250139	2.500028
10.909345089886271	6.1669536	2.4833353
10.926951693252343	6.130736	2.4760323
10.944558555362494	6.117249	2.4733074
10.96216567664381	6.103642	2.470555
10.979773057523436	6.0013347	2.449762
10.997380698428573	5.853487	2.419398
11.014988599786477	5.758456	2.3996785
11.032596762024461	5.7340136	2.3945801
11.050205185569892	5.6760263	2.3824413
11.067813870850198	5.5935946	2.3650782
11.085422818292859	5.5190167	2.3492587
11.10303202832541	5.469312	2.338656
11.120641501375454	5.4552546	2.3356485
11.138251237870636	5.4074993	2.325403
11.155861238238671	5.338581	2.3105369
11.173471502907317	5.242105	2.2895644
11.191082032304402	5.16158	2.2719111
11.208692826857805	5.082903	2.2545295
11.226303886995465	5.021113	2.240784
11.243915213145371	4.974042	2.230256
11.261526805735578	4.952523	2.2254264
11.279138665194196	4.9414964	2.2229476
11.296750791949393	4.9111943	2.2161214
11.314363186429393	4.844296	2.2009761
11.331975849062479	4.8280544	2.1972835
11.34958878027699	4.7775607	2.1857631
11.36720198050133	4.785299	2.1875327
11.384815450163948	4.6969953	2.1672552
11.402429189693366	4.5929046	2.1431062
11.420043199518153	4.508409	2.1233015
11.437657480066942	63.43254	7.9644547
11.455272031768422	85.16256	9.228356
11.472886855051353	107.59361	10.372734
11.490501950344528	99.22761	9.961306
11.508117318076819	84.59025	9.197296
11.52573295867715	45.9269	6.776939
11.543348872574514	4.2072206	2.051151
11.560965060197946	4.13748	2.0340796
11.57858152197655	4.142963	2.0354269
11.59619825833949	4.1034546	2.0256987
11.613815269715985	4.0229077	2.0057187
11.631432556535323	38.522465	6.206647
11.649050119226837	83.079056	9.114771
11.666667958219929	93.49628	9.669347
11.68428607394406	107.745735	10.380064
11.701904466828756	82.56484	9.08652
11.719523137303586	65.40098	8.087087
11.737142085798196	4.6083803	2.1467137
11.754761312742286	3.7364507	1.9329901
11.772380818565619	3.6582487	1.9126549
11.790000603698015	3.6685817	1.9153543
11.80762066856935	3.628846	1.904953
11.825241013609572	3.6527846	1.9112259
11.842861639248683	3.6174538	1.9019605
11.860482545916748	3.581726	1.8925449
11.878103734043883	3.5229015	1.8769394
11.895725204060282	3.519696	1.8760853
11.91334695639619	3.4947062	1.8694134
11.930968991481919	3.4333823	1.8529388
11.948591309747824	3.3588457	1.8327154
11.966213911624347	3.318534	1.8216844
11.98383679754198	3.2974713	1.8158941
12.001459967931268	3.2722974	1.8089492
12.019083423222835	3.2429538	1.8008204
12.036707163847352	3.2229788	1.7952657
12.05433119023556	3.2128575	1.7924446
12.071955502818259	3.1959023	1.7877086
12.089580102026313	3.1726873	1.7812039
12.107204988290643	3.170206	1.7805072
12.12483016204224	3.1550326	1.7762412
12.142455623712152	3.131897	1.7697166
12.16008137373149	3.095745	1.759473
12.177707412531431	3.0503058	1.7465125
12.19533374054321	3.0380447	1.7429987
12.212960358198126	3.033392	1.7416636
12.230587265927545	3.0534947	1.7474252
12.248214464162889	3.034838	1.7420787
12.265841953335649	3.0068877	1.734038
12.283469733877375	2.9805858	1.7264373
12.301097806219685	2.9596148	1.7203531
12.31872617079425	2.958481	1.7200235
12.336354828032825	2.9093943	1.7056947
12.353983778367205	2.896241	1.7018346
12.371613022229262	2.8699021	1.6940786
12.389242560050928	2.885833	1.698774
12.406872392264201	2.9075587	1.7051564
12.424502519301143	2.9211683	1.7091426
12.442132941593874	2.9395738	1.7145185
12.459763659574586	2.8938813	1.7011412
12.477394673675532	2.8631918	1.6920968
12.49502598432903	2.8325334	1.6830132
12.51265759196746	2.8623896	1.6918598
12.530289497023267	2.8598726	1.6911157
12.547921699928967	2.86761	1.6934019
12.565554201117134	2.837554	1.684504
12.583187001020404	2.8011863	1.6736745
12.600820100071486	2.7942457	1.6715997
12.618453498703152	2.773033	1.6652426
12.636087197348235	2.769379	1.6641451
12.65372119643964	2.7627113	1.6621406
12.671355496410326	2.7985735	1.6728938
12.68899009769333	2.8538086	1.689322
12.706625000721749	2.92093	1.7090728
12.724260205928752	2.9866896	1.7282041
12.741895713747551	2.9753633	1.7249241
12.759531524611454	3.0133343	1.7358959
12.777167638953818	3.018406	1.7373561
12.794804057208072	3.0421684	1.7441813
12.812440779807702	3.052267	1.7470739
12.830077807186271	3.200441	1.7889776
12.847715139777405	3.2507193	1.8029752
12.865352778014795	3.4855697	1.866968
12.882990722332197	3.6398218	1.9078317
12.90062897316344	3.7682402	1.9411956
12.918267530942412	3.8280253	1.956534
12.935906396103071	3.6891396	1.9207133
12.953545569079449	3.8163831	1.9535565
12.971185050305628	3.602641	1.8980625
12.988824840215775	3.5869665	1.8939289
13.006464939244115	3.5983322	1.896927
13.024105347824943	3.4704382	1.8629112
13.041746066392617	3.5892704	1.894537
13.05938709538157	3.3790977	1.8382323
13.077028435226296	3.4001565	1.8439513
13.094670086361363	3.2871535	1.8130509
13.112312049221401	3.1979947	1.7882938
13.129954324241112	3.1093214	1.7633268
13.147596911855258	2.8999457	1.7029227
13.165239812498685	2.8551497	1.6897188
13.182883026606293	2.7505393	1.658475
13.200526554613058	2.7003226	1.6432658
13.218170396954017	2.6617658	1.6314919
13.235814554064284	2.6788697	1.6367253
13.253459026379034	2.7102156	1.6462733
13.271103814333523	2.7163827	1.6481452
13.288748918363058	2.7197266	1.6491593
13.306394338903031	2.7230196	1.6501575
13.32404007638889	2.676986	1.6361498
13.341686131256164	2.674019	1.6352428
13.359332503940449	2.6442213	1.6261061
13.376979194877402	2.6578624	1.6302952
13.394626204502751	2.67227	1.6347079
13.412273533252307	2.7293062	1.6520612
13.429921181561937	2.7343562	1.6535889
13.447569149867581	2.7803004	1.6674232
13.465217438605247	2.7696493	1.6642263
13.482866048211022	2.7497356	1.6582327
13.500514979121052	2.7190537	1.6489553
13.518164231771568	2.6984165	1.6426858
13.535813806598844	2.7104154	1.6463339
13.553463704039254	2.6825778	1.6378577
13.571113924529229	2.6930122	1.64104
13.588764468505275	2.6836474	1.6381842
13.606415336403956	2.7032714	1.6441628
13.624066528661917	2.725488	1.6509051
13.641718045715882	2.7948718	1.671787
13.659369888002635	2.8855991	1.6987051
13.67702205595903	2.9234054	1.7097969
13.694674550021993	2.9846337	1.7276093
13.712327370628532	3.0421984	1.7441899
13.729980518215713	3.1500943	1.7748505
13.747633993220681	3.2240424	1.7955619
13.765287796080647	3.2606688	1.8057323
13.7829419272329	3.2642572	1.8067255
13.800596387114801	3.31335	1.820261
13.818251176163775	3.3670015	1.8349391
13.835906294817324	3.433279	1.852911
13.853561743513023	3.448076	1.8568996
13.871217522688525	3.452214	1.8580135
13.888873632781538	3.4846184	1.8667133
13.906530074229858	3.5257893	1.8777086
13.92418684747135	3.5769625	1.8912859
13.941843952943948	3.5715528	1.8898553
13.959501391085665	3.5222023	1.8767531
13.977159162334578	3.4164968	1.8483768
13.994817267128846	3.388398	1.8407601
14.012475705906693	3.312896	1.8201363
14.030134479106424	3.2284486	1.7967885
14.047793587166414	3.122726	1.7671237
14.065453030525108	3.0812633	1.7553527
14.083112809621026	3.0305872	1.7408582
14.100772924892766	3.0268512	1.7397848
14.118433376778997	2.9528148	1.7183757
14.136094165718458	2.8379312	1.684616
14.153755292149969	2.7428684	1.6561607
14.171416756512416	2.6788442	1.6367176
14.189078559244768	2.6384242	1.6243227
14.20674070078606	2.588221	1.6087949
14.224403181575408	2.5643501	1.6013589
14.242066002051999	2.5564983	1.5989053
14.259729162655093	2.5462923	1.5957106
14.277392663824022	2.5298965	1.5905648
14.295056505998208	2.5174448	1.5866458
14.312720689617128	2.5084598	1.5838118
14.330385215120348	2.486309	1.5768034
14.348050082947497	2.433578	1.5599929
14.3657152935383	2.4477403	1.5645256
14.383380847332528	2.4543734	1.566644
14.401046744770051	2.466742	1.5705866
14.418712986290798	2.4655917	1.5702202
14.436379572334793	2.4330854	1.5598351
14.454046503342123	2.414266	1.5537909
14.471713779752946	2.3759243	1.5414034
14.489381402007504	2.3811858	1.5431092
14.507049370546113	2.3731349	1.5404983
14.524717685809168	2.385199	1.5444089
14.542386348237134	2.3994617	1.5490196
14.560055358270553	2.4209025	1.555925
14.577724716350051	2.4381926	1.5614713
14.595394422916325	2.4512732	1.5656543
14.61306447841015	2.4819407	1.5754176
14.63073488327237	2.4938238	1.5791845
14.648405637943917	2.5118105	1.5848693
14.6660767428658	2.487429	1.5771585
14.683748198479094	2.4900982	1.5780045
14.701420005224954	2.5301304	1.5906384
14.719092163544628	2.6011643	1.6128125
14.73676467387942	2.636194	1.623636
14.754437536670727	2.678907	1.6367366
14.772110752360014	2.6899402	1.6401037
14.78978432138882	2.6766076	1.6360341
14.807458244198777	2.6550455	1.629431
14.82513252123159	2.6529212	1.628779
14.842807152929028	2.719209	1.6490024
14.860482139732962	2.6981442	1.6426029
14.87815748208531	2.6703315	1.6341149
14.8958331804281	2.6523235	1.6285956
14.91350923520342	2.6544867	1.6292596
14.931185646853438	2.658596	1.6305202
14.948862415820408	2.635249	1.623345
14.966539542546656	2.6562786	1.6298094
14.98421702747459	2.635215	1.6233345
15.001894871046696	2.6870823	1.6392323
15.019573073705542	2.7155716	1.6478992
15.037251635893766	2.6885488	1.6396794
15.054930558054092	2.6894612	1.6399577
15.072609840629323	2.670315	1.6341099
15.090289484062351	2.796951	1.6724087
15.107969488796124	3.05455	1.747727
15.125649855273691	3.4060886	1.8455591
15.14333058393817	3.8865943	1.9714447
15.161011675232768	4.8842244	2.2100282
15.17869312960076	6.3623714	2.5223742
15.196374947485506	8.347719	2.889242
15.214057129330447	11.535073	3.3963323
15.231739675579114	16.347923	4.0432563
15.249422586675102	21.51192	4.6380944
15.267105863062092	24.652567	4.965135
15.284789505183847	24.947367	4.994734
15.302473513484218	22.860527	4.781268
15.320157888407127	19.294622	4.3925643
15.337842630396578	15.017845	3.8752866
15.355527739896656	11.649014	3.4130652
15.37321321735153	8.985748	2.9976237
15.39089906320545	6.559416	2.5611358
15.408585277902748	4.9022946	2.2141125
15.42627186188783	3.756605	1.9381963
15.443958815605198	3.173166	1.7813382
15.461646139499424	2.88032	1.6971506
15.479333834015168	2.7414277	1.6557257
15.497021899597165	2.6831613	1.6380358
15.514710336690234	2.6580853	1.6303636
15.53239914573928	2.601611	1.612951
15.550088327189297	2.5352302	1.5922406
15.567777881485336	2.514527	1.585726
15.58546780907256	2.500033	1.5811492
15.6031581103962	2.4930377	1.5789356
15.620848785901568	2.5102477	1.5843761
15.638539836034063	2.5030107	1.5820906
15.656231261239173	2.4646778	1.5699292
15.673923061962451	2.4219928	1.5562752
15.691615238649552	2.437041	1.5611025
15.709307791746202	2.4536438	1.5664111
15.727000721698221	2.4771733	1.5739038
15.744694028951498	2.4634166	1.5695275
15.76238771395202	2.4694753	1.5714564
15.780081777145844	2.4063964	1.5512564
15.797776218979125	2.3445203	1.5311826
15.815471039898094	2.320861	1.5234373
15.833166240349064	2.335098	1.5281028
15.850861820778437	2.355072	1.5346243
15.868557781632699	2.3750706	1.5411264
15.886254123358412	2.386717	1.5449003
15.903950846402232	2.3837714	1.5439467
15.921647951210897	2.3624663	1.5370317
15.939345438231225	2.408926	1.5520716
15.957043307910133	2.4292989	1.5586208
15.974741560694602	2.4556603	1.5670546
15.992440197031714	2.4467273	1.5642018
16.01013921736862	2.4166062	1.5545437
16.02783862215259	2.4082365	1.5518494
16.045538411830933	2.4037657	1.5504082
16.06323858685107	2.3781939	1.5421394
16.080939147660512	2.3770897	1.5417813
16.09864009470684	2.4069178	1.5514245
16.11634142843774	2.4652636	1.5701158
16.134043149300954	2.460472	1.5685892
16.15174525774433	2.446364	1.5640856
16.169447754215817	2.4283583	1.5583191
16.18715063916342	2.4120548	1.5530791
16.204853913035244	2.419567	1.5554957
16.222557576279478	2.4476247	1.5644886
16.240261629344403	22.495731	4.7429667
16.257966072678386	43.036564	6.560226
16.275670906729868	38.10294	6.1727576
16.293376131947387	2.4990015	1.5808231
16.31108174877957	2.4840658	1.5760919
16.328787757675133	2.5379152	1.5930835
16.34649415908287	2.5621312	1.6006658
16.364200953451657	2.6186504	1.6182245
16.38190814123048	2.621028	1.618959
16.39961572286839	2.6338427	1.6229118
16.41732369881455	2.6703784	1.6341293
16.43503206951817	2.7154694	1.6478682
16.45274083542859	2.7424383	1.6560309
16.47044999699522	2.7659276	1.6631078
16.488159554667558	2.794032	1.6715358
16.505869508895184	2.8585293	1.6907185
16.523579860127786	2.8918552	1.7005455
16.541290608815117	2.944674	1.7160052
16.559001755407035	2.9809375	1.7265391
16.57671330035348	3.05001	1.7464278
16.59442524410448	3.105579	1.7622653
16.61213758711015	3.1334317	1.7701502
16.629850329820705	3.193077	1.7869183
16.647563472686436	3.296216	1.8155484
16.665277016157724	3.3624177	1.8336897
16.682990960685053	3.422867	1.8500992
16.70070530671898	3.4528244	1.8581777
16.718420054710155	3.5021288	1.8713976
16.736135205109335	3.5444982	1.8826838
16.753850758367335	3.5993514	1.8971957
16.771566714935087	3.6853046	1.9197147
16.789283075263597	3.7453763	1.9352975
16.80699983980398	3.7861254	1.9457968
16.82471700900741	3.8367455	1.9587612
16.84243458332518	3.8855004	1.9711673
16.860152563208665	3.9811528	1.9952826
16.87787094910932	4.0664825	2.0165522
16.89558974147871	4.1534476	2.0380008
16.913308940768466	4.212532	2.0524454
16.931028547430333	4.2648973	2.065163
16.94874856191613	4.3232336	2.0792387
16.966468984677785	4.375465	2.091761
16.98418981616729	4.3820443	2.0933332
17.00191105683676	4.4090204	2.0997667
17.019632707138374	4.439791	2.1070812
17.03735476752442	4.479978	2.116596
17.05507723844728	4.5606017	2.1355565
17.072800120359403	4.606115	2.146186
17.090523413713353	4.6472263	2.1557426
17.108247118961785	4.662205	2.159214
17.125971236557437	4.690557	2.1657693
17.143695766953133	4.6946263	2.1667087
17.161420710601806	4.633096	2.1524627
17.179146067956477	4.5920887	2.142916
17.19687183947025	4.58774	2.141901
17.21459802559634	4.6255417	2.1507072
17.232324626788028	4.6615553	2.1590636
17.25005164349871	4.691833	2.166064
17.267779076181863	4.692262	2.166163
17.285506925291074	4.6521277	2.1568792
17.30323519127999	4.619427	2.1492853
17.320963874602384	4.5901093	2.1424541
17.33869297571211	4.615615	2.1483982
17.356422495063114	4.61947	2.1492953
17.37415243310944	4.614507	2.1481404
17.391882790305218	4.52655	2.127569
17.40961356710468	4.524495	2.1270862
17.42734476396215	4.5833282	2.1408708
17.445076381332044	4.6034675	2.1455693
17.462808419668868	4.6114388	2.1474261
17.48054087942723	4.712471	2.1708226
17.498273761061835	4.9998	2.2360232
17.51600706502747	5.477733	2.3404558
17.533740791779024	6.1840715	2.4867795
17.551474941771485	7.6004457	2.7568905
17.56920951545993	8.721378	2.953198
17.586944513299528	11.008706	3.3179371
17.60467993574556	12.837674	3.58297
17.622415783253373	14.693165	3.8331664
17.64015205627843	16.22879	4.028497
17.657888755276293	17.352072	4.1655817
17.675625880702604	17.92473	4.233761
17.69336343301311	17.72979	4.2106757
17.71110141266366	16.805069	4.0993986
17.728839820110178	15.6861515	3.9605746
17.746578655808705	14.623973	3.8241303
17.764317920215372	13.061475	3.6140661
17.7820576137864	11.447703	3.3834455
17.79979773697811	9.400066	3.0659528
17.81753829024692	7.4605546	2.7314017
17.835279274049356	5.786796	2.405576
17.85302068884201	4.76112	2.181999
17.870762535081607	4.151136	2.0374336
17.888504813224934	3.9001653	1.9748837
17.90624752372891	3.8027656	1.9500681
17.923990667050536	3.7421472	1.934463
17.941734243646895	3.6545749	1.9116943
17.959478253975185	3.5937603	1.8957216
17.9772226984927	3.5112088	1.873822
17.994967577656833	3.438353	1.8542796
18.01271289192506	3.3686326	1.8353835
18.030458641754965	3.3582702	1.8325584
18.04820482760425	3.3132613	1.8202366
18.06595144993067	3.277409	1.8103616
18.083698509192125	3.239443	1.7998453
18.101446005846576	3.2204616	1.7945645
18.119193940352105	3.2343585	1.7984322
18.136942313166887	3.2092047	1.7914253
18.1546911247492	3.2086465	1.7912695
18.1724403755574	3.203334	1.7897861
18.19019006604997	3.174904	1.781826
18.207940196685467	3.1700552	1.7804649
18.225690767922575	3.157639	1.7769747
18.243441780220046	3.1430893	1.772876
18.261193234036764	3.1267796	1.7682703
18.278945129831676	3.1595993	1.7775261
18.29669746806386	3.1446257	1.7733092
18.314450249192483	3.103191	1.7615876
18.3322034736768	3.0399337	1.7435405
18.349957141976184	3.041154	1.7438904
18.3677112545501	3.0761585	1.7538981
18.385465811858108	3.103671	1.7617239
18.403220814359884	3.0951962	1.759317
18.420976262515172	3.1233726	1.7673066
18.43873215678387	3.1404066	1.7721193
18.456488497625923	3.1784513	1.7828212
18.474245285501407	3.2489276	1.8024782
18.492002520870486	3.3254042	1.823569
18.50976020419343	3.383445	1.8394144
18.527518335930615	3.6757154	1.9172156
18.545276916542516	4.246049	2.0605943
18.563035946489688	4.424356	2.1034153
18.580795426232832	4.8532715	2.2030141
18.598555356232698	4.781796	2.1867318
18.616315736950185	5.113915	2.2613966
18.63407656884626	4.809305	2.1930127
18.65183785238201	4.9768157	2.2308779
18.669599588018617	4.7101045	2.1702776
18.68736177621737	4.6576695	2.1581635
18.705124417439652	4.6454334	2.1553268
18.72288751214696	4.4661098	2.1133173
18.740651060800886	4.565169	2.1366255
18.758415063863115	4.2417765	2.0595574
18.77617952179546	4.417245	2.1017244
18.793944435059814	4.194149	2.0479622
18.811709804118184	4.2434044	2.0599525
18.829475629432675	4.2111425	2.0521069
18.8472419114655	4.0149055	2.003723
18.86500865067897	4.0417805	2.010418
18.88277584753551	3.754688	1.9377017
18.90054350249763	3.780815	1.9444318
18.918311616027957	3.4460304	1.8563486
18.936080188589226	3.3332465	1.825718
18.953849220644265	3.027464	1.7399609
18.971618712656007	2.8772984	1.6962601
18.9893886650875	2.8264606	1.6812081
19.007159078401887	8.030273	2.8337736
19.024929953062408	32.940113	5.739348
19.042701289532435	32.885906	5.7346234
19.060473088275405	25.420145	5.0418396
19.07824534975489	2.6749778	1.635536
19.096018074434568	2.6718597	1.6345824
19.113791262778197	2.653343	1.6289085
19.13156491524966	2.5966008	1.6113971
19.149339032312945	2.5648708	1.6015214
19.167113614432136	2.5459611	1.5956068
19.184888662071433	2.579769	1.6061659
19.202664175695123	2.5558267	1.5986953
19.220440155767623	2.549368	1.596674
19.238216602753447	2.5457568	1.5955428
19.2559935171172	2.5629847	1.6009325
19.27377089932361	2.5322583	1.591307
19.291548749837514	2.517497	1.5866623
19.309327069123835	2.5306175	1.5907915
19.32710585764763	2.5523765	1.5976158
19.344885115874032	2.5153265	1.585978
19.362664844268313	2.4899876	1.5779694
19.380445043295822	2.502543	1.5819428
19.39822571342203	2.519919	1.5874252
19.41600685511252	2.520655	1.5876571
19.43378846883297	2.4995706	1.5810031
19.451570555049173	2.4783058	1.5742636
19.469353114227037	2.467787	1.5709192
19.48713614683254	2.4804876	1.5749564
19.50491965333182	2.4856775	1.5766032
19.52270363419109	2.5060146	1.5830396
19.540488089876686	2.5090067	1.5839845
19.55827302085503	2.5363836	1.5926027
19.576058427592674	2.5567563	1.598986
19.593844310556282	2.5757906	1.604927
19.611630670212598	2.5650165	1.6015669
19.629417507028506	2.5229542	1.588381
19.64720482147098	2.4798443	1.5747521
19.6649926140071	2.4640002	1.5697135
19.682780885104084	2.4819536	1.5754217
19.70056963522921	2.5260851	1.5893663
19.718358864849908	2.5320506	1.5912418
19.7361485744337	2.532253	1.5913055
19.753938764448215	2.5210445	1.5877798
19.771729435361202	2.5364087	1.5926106
19.789520587640506	2.5342054	1.5919188
19.807312221754092	2.5215268	1.5879316
19.825104338170043	2.5219717	1.5880717
19.842896937356517	2.5463336	1.5957235
19.860690019781824	2.5591493	1.5997341
19.87848358591436	2.5407794	1.5939822
19.896277636222635	2.508796	1.583918
19.914072171175278	2.4834368	1.5758924
19.931867191241015	2.4825385	1.5756073
19.94966269688869	2.4873965	1.5771482
19.967458688587264	2.5162902	1.5862819
19.985255166805807	2.5303967	1.5907221
20.00305213201348	2.4933257	1.5790268
20.020849584679578	2.466731	1.570583
20.038647525273507	2.4452128	1.5637176
20.05644595426477	2.4727974	1.5725131
20.07424487212299	2.5020852	1.5817981
20.092044279317903	2.5040126	1.5824072
20.109844176319353	2.4746428	1.5730997
20.127644563597304	2.4373522	1.5612022
20.145445441621817	2.430983	1.5591611
20.16324681086307	2.4249163	1.5572143
20.181048671791373	2.4448109	1.5635891
20.198851024877122	2.465632	1.5702331
20.216653870590836	2.4571688	1.5675359
20.234457209403146	2.4179888	1.5549884
20.252261041784802	2.4175074	1.5548335
20.270065368206662	2.459366	1.5682366
20.287870189139685	2.43732	1.5611918
20.305675505054968	2.397705	1.5484525
20.323481316423702	2.357952	1.5355625
20.341287623717207	2.3442433	1.5310922
20.359094427406884	2.3482864	1.5324119
20.376901727964288	2.3413658	1.5301522
20.39470952586107	2.369612	1.5393544
20.41251782156899	2.3701713	1.5395361
20.430326615559935	2.3804042	1.5428559
20.448135908305886	2.3834176	1.5438321
20.465945700278965	2.3712108	1.5398736
20.483755991951384	2.3377626	1.5289744
20.50156678379548	2.2862155	1.5120237
20.519378076283708	2.2710266	1.5069926
20.537189869888635	2.3081179	1.5192491
20.55500216508294	2.3320138	1.5270933
20.572814962339415	2.3423898	1.5304868
20.59062826213098	2.337588	1.5289173
20.60844206493066	2.3357499	1.528316
20.626256371211593	2.304171	1.5179496
20.644071181447032	2.2878091	1.5125506
20.66188649611036	2.2616665	1.5038838
20.67970231567506	2.2833767	1.5110846
20.697518640614742	2.296671	1.5154772
20.715335471403122	2.3095794	1.5197301
20.73315280851404	2.2864702	1.5121078
20.750970652421447	2.3048997	1.5181897
20.768789003599412	2.3228483	1.5240893
20.786607862522136	2.3424041	1.5304915
20.8044272296639	2.3276496	1.5256636
20.82224710549913	2.3118618	1.5204808
20.84006749050237	2.2793849	1.5097631
20.857888385148268	3.8367615	1.9587653
20.8757097899116	45.93516	6.7775483
20.893531705267254	64.793945	8.049469
20.911354131690224	83.8282	9.155774
20.92917706965566	69.07971	8.31142
20.94700051963877	50.12581	7.0799584
20.96482448211493	29.383577	5.420662
20.982648957559622	4.121527	2.0301545
21.00047394644843	2.2467768	1.4989252
21.01829944925707	2.2442791	1.4980918
21.036125466461375	2.2436535	1.497883
21.053951998537297	2.250953	1.5003176
21.071779045960906	2.2546408	1.5015461
21.089606609208378	2.223763	1.4912287
21.10743468875603	2.186054	1.478531
21.12526328508028	2.1774697	1.4756252
21.143092398657675	2.200671	1.4834659
21.16092202996488	2.2044652	1.4847442
21.17875217947867	2.182409	1.4772979
21.19658284767596	2.1879985	1.4791884
21.21441403503377	2.2262998	1.492079
21.232245742029225	2.214527	1.4881287
21.2500779691396	2.2040718	1.4846116
21.26791071684227	2.2028933	1.4842147
21.28574398561475	2.1879292	1.4791651
21.30357777593465	2.1855278	1.478353
21.321412088279704	2.1715097	1.4736043
21.339246923127792	2.1735992	1.4743131
21.357082280956888	2.1656497	1.4716146
21.3749181622451	2.1533628	1.467434
21.392754567470647	2.1395593	1.4627233
21.41059149711187	2.121487	1.4565325
21.42842895164726	2.099959	1.4491235
21.446266931555378	2.1219661	1.456697
21.464105437314945	2.1701603	1.4731464
21.481944469404798	2.1539469	1.4676331
21.49978402830388	2.1380563	1.4622093
21.51762411449127	2.10632	1.4513166
21.53546472844617	2.1464303	1.46507
21.553305870647876	2.1354156	1.4613061
21.571147541575865	2.1458662	1.4648775
21.58898974170967	2.0946977	1.4473071
21.60683247152899	2.074911	1.4404552
21.62467573151363	2.0779648	1.4415147
21.642519522143523	2.1198416	1.4559675
21.660363843898722	2.0981243	1.4484904
21.6782086972594	2.0712218	1.439174
21.696054082705864	2.0268748	1.4236835
21.713900000718535	2.0471864	1.4307992
21.73174645177795	2.066548	1.4375494
21.749593436364794	2.0823166	1.4430234
21.767440954959845	2.0874803	1.4448115
21.785289008044032	2.0897	1.4455794
21.803137596098388	2.0662847	1.4374577
21.820986719604086	2.0292442	1.4245154
21.838836379042412	2.0385394	1.4277743
21.85668657489478	2.0580018	1.4345738
21.87453730764273	2.0404925	1.4284581
21.892388577767914	2.0300767	1.4248077
21.91024038575213	2.0400372	1.4282987
21.928092732077285	2.0256572	1.4232558
21.945945617225426	2.0059583	1.4163185
21.963799041678694	2.0020068	1.4149228
21.981653005919398	31.331718	5.597474
21.999507510429943	78.115585	8.838303
22.01736255569286	73.059586	8.54749
22.035218142190818	4.160844	2.0398147
22.05307427040661	1.9742267	1.4050717
22.07093094082315	1.9780711	1.4064392
22.088788153923474	1.9905437	1.4108663
22.106645910190746	1.9611448	1.4004087
22.12450421010827	1.9477559	1.3956202
22.142363054159464	1.9537183	1.3977548
22.16022244282787	2.0031254	1.4153181
22.178082376597164	1.9940417	1.4121054
22.195942855951145	1.997012	1.4131567
22.213803881373742	1.9781322	1.4064609
22.231665453349002	1.9949207	1.4124166
22.24952757236111	1.9717115	1.4041765
22.26739023889438	1.9589654	1.3996304
22.28525345343323	1.9640484	1.4014452
22.30311721646225	1.9983077	1.4136151
22.320981528466113	1.9796851	1.4070128
22.33884638992964	1.9600409	1.4000146
22.356711801337788	1.9172735	1.3846564
22.37457776317561	1.9407117	1.3930943
22.392444275928337	1.9640737	1.4014541
22.410311340081282	2.0103898	1.4178822
22.428178956119904	1.9617379	1.4006206
22.446047124529805	1.9339627	1.3906698
22.46391584579669	1.9615406	1.4005501
22.481785120406414	1.9840479	1.4085623
22.49965494884496	1.9854791	1.4090703
22.51752533159841	1.9609131	1.400326
22.53539626915302	1.93644	1.3915603
22.553267761995137	1.9509451	1.3967624
22.571139810611264	1.962668	1.4009525
22.589012415488025	1.9670461	1.4025142
22.60688557711216	1.9624901	1.400889
22.624759295970566	1.967543	1.4026914
22.642633572550263	1.9391903	1.3925481
22.660508407338362	1.9096047	1.3818845
22.67838380082217	1.927806	1.3884546
22.696259753489077	1.9545282	1.3980445
22.714136265826614	1.9730768	1.4046625
22.73201333832246	1.9544373	1.3980119
22.74989097146439	1.9510133	1.3967868
22.76776916574035	1.9307204	1.3895037
22.785647921638393	1.956738	1.3988345
22.803527239646712	1.9718394	1.404222
22.82140712025363	1.9580046	1.3992872
22.839287563947593	1.9276153	1.3883859
22.85716857121719	1.9210478	1.3860186
22.875050142551135	1.9411398	1.393248
22.892932278438277	1.9496427	1.396296
22.910814979367604	1.9480414	1.3957225
22.928698245828222	1.9369056	1.3917276
22.946582078309387	1.9384896	1.3922966
22.96446647730047	1.9292303	1.3889674
22.98235144329098	1.9161352	1.3842454
23.000236976770562	1.8910191	1.3751433
23.018123078229	1.9234158	1.3868726
23.03600974815619	1.9540005	1.3978556
23.053896987042194	2.0072227	1.4167649
23.071784795377173	2.0101922	1.4178125
23.08967317365145	1.990626	1.4108955
23.10756212235546	1.9292253	1.3889656
23.125451641979787	1.9071984	1.3810135
23.143341733015134	1.9335862	1.3905345
23.161232395952357	1.9395849	1.3926898
23.179123631282426	1.9797965	1.4070524
23.197015439496468	1.9541428	1.3979065
23.214907821085717	1.9673114	1.4026088
23.23280077654157	1.9452889	1.3947362
23.250694306355538	1.9579918	1.3992826
23.268588411019277	1.942847	1.3938605
23.28648309102458	1.9269809	1.3881574
23.304378346863356	1.8953862	1.3767303
23.322274179027676	1.882649	1.3720965
23.340170588009723	1.9082628	1.3813989
23.358067574301852	1.9132917	1.3832179
23.37596513839651	1.891872	1.3754534
23.39386328078629	1.8974384	1.3774754
23.411762001963947	1.919822	1.3855764
23.429661302422353	2.0122747	1.4185467
23.4475611826545	2.0334074	1.4259759
23.46546164315356	2.0113428	1.4182181
23.48336268441279	1.9902058	1.4107466
23.501264306925638	1.9683787	1.4029891
23.51916651118564	1.9709405	1.4039018
23.537069297686497	1.9759711	1.4056923
23.554972666922037	1.9851226	1.4089438
23.57287661938623	1.9685091	1.4030356
23.59078115557318	1.9367989	1.3916892
23.608686275977128	1.949829	1.3963628
23.62659198109246	1.9418051	1.3934867
23.6444982714137	1.953342	1.3976201
23.66240514743549	1.9682955	1.4029596
23.68031260965263	1.9375854	1.3919717
23.698220658560068	1.8770231	1.370045
23.716129294652845	1.8746979	1.369196
23.7340385184262	1.9286928	1.3887738
23.75194833037546	1.957822	1.3992219
23.769858730996123	1.9565024	1.3987503
23.78776972078382	1.9061104	1.3806195
23.80568130023431	1.8849323	1.3729284
23.823593469843495	1.9043001	1.3799638
23.841506230107424	1.9016045	1.3789868
23.859419581522275	1.8971319	1.3773642
23.87733352458438	1.8627391	1.364822
23.89524805979019	1.9138364	1.3834147
23.913163187636318	1.9060816	1.3806092
23.931078908619508	1.9512076	1.3968563
23.948995223236633	1.9531617	1.3975556
23.966912131984735	1.9872812	1.4097096
23.98482963536096	2.0129318	1.4187783
24.002747733862616	2.0006118	1.4144299
24.020666427987155	1.9692354	1.4032944
24.038585718232156	1.993654	1.4119681
24.056505605095353	2.0147235	1.4194096
24.074426089074617	2.0510912	1.4321631
24.092347170667946	2.0099163	1.4177152
24.110268850373515	2.0070567	1.4167063
24.128191128689586	2.0473118	1.430843
24.146114006114626	2.0775661	1.4413764
24.164037483147187	2.075641	1.4407085
24.181961560286005	2.050046	1.4317981
24.199886238029926	2.0281925	1.4241463
24.21781151687797	2.037203	1.4273062
24.235737397329274	2.0789118	1.4418432
24.253663879883135	2.1071434	1.4516003
24.271590965038975	2.0951636	1.447468
24.289518653296376	2.043457	1.4294953
24.30744694515505	2.0700064	1.4387517
24.32537584111486	2.0991194	1.4488338
24.34330534167581	2.097315	1.448211
24.361235447338046	2.0597327	1.4351768
24.379166158601876	2.0163581	1.4199853
24.39709747596772	2.0108664	1.4180502
24.41502939993615	2.0348313	1.4264752
24.432961931007917	1.9843572	1.4086722
24.450895069683856	1.9707583	1.403837
24.468828816465	1.9521513	1.397194
24.4867631718525	1.9690783	1.4032385
24.504698136347656	1.9691643	1.4032692
24.52263371045192	1.9789246	1.4067426
24.540569894666874	2.0089712	1.4173818
24.558506689494266	1.9863812	1.4093903
24.57644409543597	1.9631132	1.4011114
24.594382112994012	1.9502538	1.3965149
24.61232074267057	1.9637619	1.4013429
24.630259984967953	2.0067832	1.4166098
24.64819984038863	2.0051506	1.4160334
24.66614030943522	1.9546019	1.3980708
24.684081392610462	1.9467247	1.3952508
24.702023090417274	1.9898808	1.4106313
24.7199654033587	1.9884915	1.4101388
24.737908331937927	1.9919617	1.4113687
24.755851876658305	1.9851785	1.4089636
24.773796038023324	2.0053723	1.4161117
24.79174081653661	2.034565	1.4263818
24.809686212701962	2.0881598	1.4450467
24.827632227023294	2.084088	1.4436371
24.8455788600047	2.0383012	1.4276909
24.8635261121504	2.0521586	1.4325358
24.88147398396475	2.0854206	1.4440986
24.899422475952303	2.111645	1.45315
24.917371588617698	2.1093898	1.4523739
24.935321322465768	2.1307697	1.4597156
24.953271678001478	2.2404082	1.4967993
24.97122265572994	2.452603	1.5660789
24.989174256156414	2.8429601	1.686108
25.00712647978632	3.3542888	1.8314718
25.02507932712521	3.9294653	1.9822879
25.043032798678798	4.5198035	2.125983
25.060986894952933	5.163426	2.2723174
25.078941616453637	5.918906	2.4328802
25.096896963687055	6.860157	2.6191902
25.114852937159508	8.0192175	2.8318224
25.132809537377444	8.487504	2.9133322
25.150766764847468	8.468052	2.9099917
25.168724620076347	7.869117	2.8051946
25.186683103570985	6.8296843	2.6133664
25.204642215838426	5.608469	2.3682206
25.222601957385894	4.2084284	2.0514455
25.24056232872074	3.176151	1.7821759
25.25852333035048	2.5886087	1.6089154
25.276484962782778	2.251656	1.5005519
25.294447226525435	2.1420496	1.4635743
25.312410122086423	2.0656872	1.4372499
25.330373649973843	2.0179188	1.4205347
25.348337810695988	1.9528216	1.397434
25.366302604761245	1.9502344	1.396508
25.384268032678207	1.9394867	1.3926545
25.40223409495558	1.9574546	1.3990906
25.420200792102257	1.882948	1.3722055
25.438168124627246	1.8516492	1.3607532
25.45613609303974	1.8392217	1.3561791
25.474104697849057	1.8662292	1.3661
25.492073939564698	1.8500512	1.3601658
25.510043818696285	1.8627057	1.3648098
25.528014335753614	1.8619294	1.3645253
25.54598549124664	1.8692992	1.3672231
25.56395728568544	1.8543952	1.3617618
25.58192971958028	1.8477795	1.3593305
25.59990279344156	1.8394783	1.3562737
25.617876507779833	1.8599303	1.3637927
25.635850863105826	1.8900554	1.3747928
25.653825859930386	1.9215308	1.3861929
25.671801498764548	1.9019146	1.3790992
25.68977778011949	1.8927209	1.375762
25.707754704506524	1.9167627	1.384472
25.725732272437153	1.9398785	1.3927952
25.743710484423012	1.9117441	1.3826584
25.761689340975888	1.8865793	1.373528
25.77966884260774	1.8433927	1.357716
25.797648989830662	1.8238963	1.350517
25.815629783156922	1.8402512	1.3565586
25.83361122309895	1.839712	1.3563598
25.85159331016929	1.8495905	1.3599966
25.869576044880695	1.8290621	1.3524282
25.887559427746034	1.8325555	1.3537191
25.90554345927836	1.7861098	1.3364542
25.92352813999086	1.7913443	1.3384111
25.94151347039689	1.7969553	1.3405056
25.959499451009965	1.8386667	1.3559744
25.97748608234374	1.8306258	1.3530062
25.995473364912062	1.815918	1.34756
26.013461299228904	1.825165	1.3509867
26.03144988580839	1.8484377	1.3595726
26.04943912516483	1.8074833	1.3444268
26.067429017812675	1.7815039	1.3347299
26.085419564266537	1.7872324	1.3368741
26.103410765041186	1.8192947	1.3488123
26.12140262065155	1.8469937	1.3590415
26.139395131612723	1.8457232	1.3585739
26.157388298439948	1.850837	1.3604547
26.17538212164861	1.8713024	1.3679556
26.193376601754295	1.8363715	1.3551278
26.211371739272714	1.7985582	1.3411033
26.229367534719746	1.7902452	1.3380004
26.247363988611433	1.8317072	1.3534058
26.26536110146397	1.8238107	1.3504853
26.283358873793727	1.8584031	1.3632326
26.301357306117204	1.8994244	1.3781961
26.319356398951104	1.9127889	1.3830361
26.33735615281224	1.869688	1.3673654
26.35535656821762	1.8497181	1.3600434
26.373357645684404	1.8142922	1.3469566
26.39135938572991	1.7983295	1.3410181
26.409361788871614	1.7910401	1.3382975
26.427364855627165	1.799713	1.3415338
26.445368586514352	1.8079976	1.344618
26.46337298205115	1.765479	1.3287133
26.48137804275568	1.7716707	1.3310412
26.499383769146217	1.7865269	1.3366102
26.517390161741215	1.8295925	1.3526243
26.53539722105928	1.8175509	1.3481658
26.553404947619182	1.8324082	1.3536648
26.571413341939856	1.815922	1.3475615
26.589422404540397	1.7996005	1.3414919
26.60743213594006	1.7889882	1.3375306
26.62544253665827	1.8008403	1.3419539
26.64345360721459	1.8259207	1.3512664
26.66146534812879	1.8302642	1.3528726
26.679477759920758	1.8551517	1.3620396
26.69749084311057	1.8683039	1.3668591
26.71550459821847	1.8623531	1.3646805
26.733519025764842	1.846503	1.358861
26.751534126270258	1.8341732	1.3543165
26.769549900255434	1.817644	1.3482003
26.787566348241267	1.7813648	1.3346778
26.80558347074881	1.7776066	1.3332691
26.823601268299267	1.7880822	1.3371919
26.841619741414036	1.8032598	1.3428551
26.85963889061465	1.8262851	1.3514012
26.877658716422832	1.8476033	1.3592657
26.89567921936045	1.8448573	1.3582553
26.913700399949544	1.8389915	1.3560942
26.93172225871233	1.7969179	1.3404917
26.949744796171174	1.7767922	1.3329637
26.967768012848605	1.8442644	1.358037
26.98579190926733	1.8971127	1.3773571
27.003816485950225	1.8578626	1.3630344
27.021841743420318	1.8057035	1.3437647
27.039867682200814	1.7992741	1.3413702
27.057894302815072	1.818546	1.3485348
27.07592160578664	1.8103449	1.3454906
27.0939495916392	1.8129911	1.3464736
27.111978260896635	1.8253437	1.3510529
27.13000761408296	1.8134049	1.3466272
27.148037651722397	1.7764032	1.3328178
27.166068374339304	1.7401791	1.3191584
27.184099782458215	1.771853	1.3311096
27.20213187660384	1.8288088	1.3523346
27.22016465730105	1.8419633	1.3571895
27.23819812507487	1.8351897	1.3546917
27.256232280450533	1.8772784	1.3701382
27.274267123953383	1.8590608	1.3634738
27.292302656108987	1.767659	1.3295333
27.31033887744306	1.7480905	1.3221537
27.32837578848146	1.7924767	1.338834
27.34641338975026	1.842581	1.357417
27.364451681775673	1.8507779	1.360433
27.382490665084074	1.8271024	1.3517035
27.400530340202046	1.8572187	1.3627981
27.41857070765629	1.9264481	1.3879654
27.436611767973726	1.9322454	1.3900523
27.454653521681404	1.8365254	1.3551847
27.472695969306564	1.808761	1.3449018
27.490739111376627	1.8210714	1.3494707
27.508782948419153	1.8379182	1.3556983
27.526827480961902	1.8497651	1.3600607
27.54487270953279	1.8239255	1.3505279
27.562918634659898	1.8129073	1.3464425
27.580965256871508	1.8018047	1.3423132
27.599012576696026	1.7667276	1.3291831
27.617060594662068	1.7745422	1.3321195
27.63510931129842	1.8050905	1.3435366
27.65315872713401	1.803895	1.3430916
27.67120884269797	1.7985897	1.3411151
27.68925965851958	1.8517985	1.360808
27.707311175128307	1.9090924	1.3816991
27.725363393053787	1.918994	1.3852776
27.74341631282583	1.956626	1.3987945
27.7614699349744	1.9561179	1.3986129
27.77952426002968	2.0949519	1.4473948
27.797579288521973	2.1270273	1.4584332
27.815635020981784	2.477494	1.5740057
27.83369145793979	2.488051	1.5773556
27.85174859992682	2.3609748	1.5365463
27.869806447473923	2.263804	1.5045943
27.887865001112267	2.0376422	1.4274601
27.905924261373233	1.994104	1.4121275
27.92398422878836	1.9719647	1.4042666
27.94204490388936	1.9115674	1.3825945
27.96010628720813	1.8271232	1.3517112
27.978168379276728	1.7920874	1.3386887
27.9962311806274	1.7973896	1.3406676
28.014294691792568	1.8393713	1.3562342
28.0323589133048	1.8633235	1.365036
28.050423845696887	1.8286514	1.3522764
28.068489489501758	1.8019043	1.3423502
28.086555845252523	1.7984955	1.34108
28.104622913482487	1.8295469	1.3526075
28.122690694725115	1.8247457	1.3508315
28.14075918951405	1.8058592	1.3438226
28.15882839838312	1.8228903	1.3501445
28.176898321866304	1.8616705	1.3644304
28.1949689604978	1.8696145	1.3673384
28.213040314811945	1.9034722	1.3796638
28.23111238534327	1.924642	1.3873147
28.249185172626493	1.8883666	1.3741785
28.267258677196473	1.8983557	1.3778083
28.285332899588294	1.8906399	1.3750054
28.303407840337172	1.9032845	1.3795958
28.321483499978545	1.9101319	1.3820752
28.33955987904799	1.9035865	1.3797052
28.357636978081285	1.920261	1.3857348
28.37571479761439	1.9824013	1.4079777
28.393793338183425	2.0064116	1.4164786
28.41187260032469	1.9946302	1.4123138
28.429952584574686	1.983456	1.4083523
28.448033291470065	1.9640067	1.4014302
28.46611472154769	1.9824625	1.4079995
28.484196875344566	2.01024	1.4178294
28.502279753397914	2.0270257	1.4237366
28.52036335624511	2.0699928	1.4387469
28.538447684423716	2.0714478	1.4392525
28.556532738471482	2.0696158	1.4386159
28.574618518926325	2.0172865	1.4203122
28.59270502632635	1.940452	1.3930011
28.61079226120985	1.9565414	1.3987643
28.628880224115274	2.0359972	1.4268837
28.646968915581287	2.0628147	1.4362502
28.66505833614671	2.092119	1.4464159
28.68314848635055	2.1017494	1.4497411
28.701239366732004	2.0810583	1.4425874
28.71933097783044	2.0677261	1.4379591
28.737423320185403	2.0187736	1.4208355
28.75551639433665	2.0070605	1.4167076
28.773610200824074	2.0891716	1.4453967
28.791704740187793	2.1617985	1.4703056
28.80980001296809	2.1873674	1.4789752
28.827896019705413	2.1716936	1.4736667
28.845992760940433	2.1838963	1.4778012
28.86409023721397	2.1757622	1.4750465
28.88218844906704	2.2405593	1.4968498
28.900287397040845	2.266734	1.5055677
28.918387081676755	2.230993	1.4936509
28.936487503516343	2.235642	1.4952064
28.954588663101365	2.3208487	1.5234332
28.97269056097374	2.305207	1.5182909
28.990793197675597	2.2897508	1.5131923
29.00889657374923	2.354269	1.5343628
29.027000689737125	2.4126253	1.5532628
29.04510554618196	2.4141436	1.5537515
29.06321114362659	2.393261	1.5470167
29.08131748261405	2.463125	1.5694346
29.099424563687567	2.5716987	1.6036516
29.11753238739057	2.622641	1.619457
29.13564095426663	2.606329	1.6144129
29.15375026485954	2.62762	1.6209935
29.171860319713275	2.6466136	1.6268415
29.18997111937199	2.663784	1.6321104
29.20808266438002	2.6533196	1.6289014
29.226194955281898	2.7028232	1.6440265
29.244307992622335	2.8385289	1.6847935
29.26242177694624	2.9294143	1.7115532
29.2805363087987	2.9622056	1.7211059
29.29865158872498	2.963023	1.7213434
29.316767617270557	2.9255562	1.7104257
29.334884394981064	2.9026175	1.703707
29.353001922402367	2.9264178	1.7106776
29.37112020008047	3.0477583	1.745783
29.389239228561596	3.2225728	1.7951525
29.407359008392152	3.4754167	1.864247
29.42547954011872	3.7236452	1.9296749
29.44360082428809	4.316546	2.0776298
29.46172286144722	5.4410233	2.3326
29.479845652143283	7.14156	2.6723697
29.497969196923606	9.391561	3.0645654
29.516093496335728	12.142419	3.4845974
29.5342185509274	15.116712	3.8880215
29.55234436124651	17.552856	4.189613
29.570470927841175	19.059956	4.365771
29.588598251259686	18.674627	4.321415
29.60672633205055	17.154995	4.141859
29.624855170762405	14.675915	3.8309157
29.642984767944146	11.690765	3.419176
29.66111512414481	8.869398	2.9781535
29.67924623991366	6.6231985	2.5735576
29.697378115800138	5.153486	2.270129
29.71551075235387	4.2454977	2.0604606
29.733644150124675	3.7665823	1.9407685
29.751778309662576	3.540501	1.881622
29.769913231517766	3.4771008	1.8646986
29.78804891624066	3.426895	1.8511875
29.806185364381818	3.3945727	1.8424367
29.82432257649206	3.4104705	1.846746
29.842460553122333	3.4057724	1.8454735
29.86059929482382	3.3388338	1.8272476
29.878738802147872	3.3371115	1.8267763
29.896879075646048	3.3324533	1.8255008
29.915020115870114	3.2810855	1.8113767
29.933161923371976	3.1995091	1.7887172
29.951304498703777	3.203207	1.7897506
29.969447842417857	3.218657	1.7940615
29.987591955066733	3.2639558	1.8066422
30.005736837203123	3.2410364	1.8002878
30.023882489379943	3.2722087	1.8089247
30.04202891215028	3.281272	1.8114282
30.060176106067455	3.2364001	1.7989998
30.078324071684946	3.1727874	1.781232
30.09647280955646	3.1654117	1.7791604
30.114622320235863	3.165492	1.779183
30.132772604277257	3.0938249	1.7589272
30.1509236622349	3.0292451	1.7404727
30.16907549466328	3.0497324	1.7463483
30.18722810211705	3.0322657	1.7413402
30.205381485151097	3.0348935	1.7420945
30.22353564432045	3.0827432	1.7557743
30.241690580180403	3.1086314	1.7631311
30.25984629328638	3.0444353	1.744831
30.278002784194037	2.9649444	1.7219014
30.296160053459246	2.938043	1.7140721
30.314318101638033	2.935277	1.7132651
30.332476929286646	3.010396	1.7350492
30.35063653696153	3.03386	1.7417979
30.368796925219307	2.9842112	1.727487
30.386958094616844	2.9513178	1.71794
30.40512004571115	2.9829383	1.7271185
30.423282779059463	2.9367545	1.7136961
30.441446295219233	2.7808213	1.6675795
30.459610594748067	2.747025	1.6574152
30.47777567820382	2.8580368	1.6905729
30.495941546144504	2.8941407	1.7012174
30.51410819912835	2.89555	1.7016315
30.532275637713795	2.9381137	1.7140927
30.55044386245946	2.9271326	1.7108865
30.56861287392416	2.834822	1.6836929
30.586782672666956	2.7675822	1.6636052
30.604953259247047	2.7849636	1.668821
30.623124634223885	2.8078876	1.6756753
30.641296798157075	2.824666	1.6806743
30.659469751606462	2.8313644	1.6826658
30.677643495132074	2.8189104	1.678961
30.695818029294152	2.7338681	1.6534413
30.713993354653116	2.7053466	1.6447937
30.73216947176962	2.7151792	1.6477801
30.75034638120448	2.7189221	1.6489154
30.768524083518756	2.7553687	1.6599303
30.786702579273673	2.7332098	1.6532422
30.80488186903069	2.80176	1.6738459
30.82306195335144	3.012901	1.7357711
30.841242832797782	3.2438078	1.8010575
30.85942450793176	3.511134	1.873802
30.877606979315637	3.856433	1.9637803
30.895790247511883	4.232127	2.0572135
30.913974313083134	4.703916	2.1688514
30.932159176592283	4.9649086	2.2282076
30.95034483860237	4.9695215	2.2292423
30.968531299676698	4.742182	2.1776552
30.98671856037873	4.3904276	2.0953348
31.00490662127215	3.94614	1.9864894
31.023095482920848	3.458271	1.8596427
31.04128514588892	3.0334585	1.7416826
31.059475610740662	2.6642141	1.6322421
31.07766687804056	2.4439886	1.5633261
31.09585894835335	2.402849	1.5501126
31.11405182224393	2.4557483	1.5670828
31.132245500277417	2.4461987	1.5640328
31.15043998301914	2.4792004	1.5745476
31.168635271034628	2.4688487	1.571257
31.18683136488964	2.451073	1.5655903
31.20502826515008	2.4536827	1.5664235
31.223225972382135	2.4462566	1.5640514
31.241424487152155	2.4416428	1.5625757
31.259623810026692	2.427755	1.5581255
31.27782394157253	2.4799545	1.5747871
31.296024882356644	2.4469583	1.5642756
31.314226632946237	2.424574	1.5571043
31.332429193908684	2.4577074	1.5677077
31.350632565811598	2.48749	1.5771779
31.368836749222787	2.5421152	1.5944012
31.387041744710295	2.5799055	1.6062084
31.40524755284232	2.6143467	1.6168941
31.423454174187317	2.6113114	1.6159552
31.441661609313922	2.6030054	1.6133832
31.459869858791002	2.5785086	1.6057736
31.478078923187628	2.5180986	1.5868518
31.496288803073064	2.4331043	1.5598412
31.514499499016807	2.368506	1.5389951
31.532711011588546	2.3185613	1.5226823
31.550923341358178	2.3155677	1.521699
31.56913648889584	2.3684254	1.5389689
31.587350454771844	2.3816907	1.5432727
31.605565239556732	2.3785512	1.5422553
31.62378084382127	2.263056	1.5043458
31.641997268136382	2.247987	1.4993289
31.660214513073274	2.2771068	1.5090085
31.67843257920331	2.3503184	1.5330749
31.6966514670981	2.3463173	1.5317693
31.71487117732944	2.3197086	1.523059
31.733091710469346	2.2337377	1.4945694
31.751313067090052	2.1859782	1.4785054
31.769535247764008	2.239927	1.4966385
31.787758253063878	2.3308592	1.5267152
31.805982083562526	2.3590894	1.5359328
31.824206739833024	2.3757265	1.5413392
31.84243222244869	2.2662654	1.505412
31.860658531983013	2.186959	1.478837
31.878885669009737	2.2132752	1.4877081
31.897113634102784	2.260492	1.5034933
31.91534242783632	2.1787179	1.476048
31.933572050784694	2.1960804	1.4819179
31.951802503522508	2.2550435	1.5016803
31.970033786624548	2.2844331	1.5114341
31.988265900665834	2.2222974	1.4907372
32.006498846221575	2.1839252	1.477811
32.02473262386724	2.245085	1.4983608
32.04296723417845	2.285193	1.5116855
32.0612026777311	2.306285	1.5186458
32.07943895510129	2.2011163	1.483616
32.097676066865304	2.1848137	1.4781115
32.115914013599685	2.1822753	1.4772526
32.13415279588115	2.1782944	1.4759046
32.152392414286666	2.2159014	1.4885904
32.1706328693934	2.232926	1.4942977
32.18887416177875	2.1411295	1.4632599
32.20711629202032	2.11518	1.4543658
32.225359260695924	2.1240046	1.4573965
32.243603068383614	2.1357834	1.461432
32.26184771566166	2.1444745	1.4644024
32.28009320310852	2.1836834	1.4777291
32.2983395313029	2.158805	1.4692872
32.31658670082372	2.1680892	1.4724432
32.33483471225012	2.1383908	1.4623238
32.35308356616143	2.1011634	1.4495391
32.371333263137245	2.1049116	1.4508313
32.38958380375734	2.0898676	1.4456375
32.407835188601744	2.090501	1.4458566
32.42608741825067	2.057251	1.434312
32.444340493284585	2.0822246	1.4429915
32.46259441428416	2.0397716	1.4282057
32.48084918183028	1.9818141	1.4077692
32.49910479650405	1.9263265	1.3879217
32.51736125888683	2.020198	1.4213368
32.53561856956014	2.0591705	1.434981
32.5538767291058	2.0632162	1.43639
32.572135738105764	2.0556452	1.4337522
32.59039559714228	2.0590346	1.4349337
32.608656306797776	2.0610726	1.4356437
32.62691786765491	1.9658871	1.4021009
32.645180280296586	1.9468576	1.3952984
32.663443545305896	2.0092683	1.4174865
32.68170766326619	2.0378633	1.4275374
32.69997263476099	1.9836638	1.408426
32.7182384603741	1.9421719	1.3936183
32.7365051406895	1.9840425	1.4085604
32.75477267629144	2.015882	1.4198176
32.77304106776434	2.0918624	1.4463272
32.79131031569289	2.0552	1.433597
32.809580420661966	1.9154084	1.3839828
32.827851383256714	1.9109805	1.3823822
32.84612320406245	1.9512273	1.3968633
32.86439588366476	1.9628602	1.4010211
32.88266942264945	1.9890363	1.410332
32.9009438216025	2.0033853	1.4154099
32.9192190811102	1.9458524	1.3949381
32.937495201758985	1.9535321	1.3976882
32.95577218413556	1.9882809	1.4100641
32.974050028826866	2.0307207	1.4250336
32.992328736420035	1.983305	1.4082986
33.010608307502444	1.9439689	1.3942628
33.02888874266169	1.9417052	1.3934509
33.047170042485604	1.9827665	1.4081074
33.06545220756225	1.9820662	1.4078587
33.083735238479896	1.9790478	1.4067863
33.10201913582707	1.9963448	1.4129207
33.12030390019248	1.9741567	1.4050469
33.138589532165135	1.9003545	1.3785335
33.15687603233419	1.8293399	1.352531
33.17516340128909	1.7719336	1.3311399
33.19345163961947	1.8846748	1.3728346
33.211740747915215	2.0114875	1.4182692
33.23003072676643	1.9005678	1.3786108
33.248321576763466	1.8550688	1.362009
33.266613298496885	1.9150729	1.3838615
33.28490589255747	1.9302653	1.3893399
33.30319935953626	1.9213195	1.3861167
33.32149370002451	1.9313896	1.3897444
33.339788914613706	2.0396945	1.4281788
33.358085003895575	2.1120853	1.4533015
33.376381968462034	2.0894783	1.4455028
33.39467980890529	2.0418568	1.4289355
33.41297852581774	2.0383205	1.4276977
33.43127811979204	1.9803222	1.4072392
33.44957859142105	1.942709	1.393811
33.467879941297866	1.9945897	1.4122994
33.486182170015844	1.9659357	1.4021183
33.50448527816853	1.8800161	1.3711368
33.522789266349754	1.8950627	1.3766128
33.541094135153514	2.0000682	1.4142376
33.55939988517411	2.0347843	1.4264587
33.57770651700602	2.0644872	1.4368323
33.59601403124398	2.015152	1.4195604
33.61432242848296	1.9133637	1.3832439
33.632631709318154	1.9587015	1.3995361
33.650941874344994	2.0328193	1.4257697
33.66925292415916	2.0574045	1.4343655
33.68756485935654	1.9654858	1.4019579
33.70587768053328	1.9280732	1.3885508
33.724191388285746	1.8633465	1.3650445
33.74250598321054	1.8505764	1.360359
33.760821465904506	1.9181576	1.3849757
33.77913783696474	2.0128329	1.4187434
33.79745509698852	1.9943889	1.4122283
33.815773246573414	1.9577868	1.3992094
33.8340922863172	1.9829364	1.4081677
33.852412216817896	1.9637997	1.4013563
33.87073303867377	1.8798366	1.3710713
33.889054752483304	1.8720028	1.3682115
33.907377358845245	1.9121665	1.3828111
33.92570085835853	1.941574	1.3934038
33.94402525162239	1.9695303	1.4033996
33.96235053923627	1.949663	1.3963033
33.980676721799824	1.8890392	1.3744233
33.999003799912984	1.8980663	1.3777033
34.01733177417592	1.9537804	1.397777
34.03566064518901	2.0582783	1.4346701
34.0539904135529	1.9596826	1.3998866
34.07232107986846	2.0204048	1.4214095
34.090652644736785	1.9614047	1.4005016
34.108985108759235	1.920504	1.3858225
34.12731847253742	1.9579018	1.3992505
34.14565273667313	1.9411061	1.3932358
34.16398790176847	1.9882989	1.4100705
34.18232396842574	2.0150082	1.4195099
34.20066093724749	2.0061467	1.416385
34.21899880883651	2.0250986	1.4230596
34.23733758379583	2.1678813	1.4723727
34.25567726272874	2.229249	1.493067
34.27401784623872	1.975722	1.4056038
34.29235933492957	1.9232076	1.3867977
34.31070172940526	1.9694983	1.4033881
34.32904503027003	1.8758237	1.3696071
34.347389238128386	1.7989552	1.3412514
34.36573435358502	1.9549229	1.3981856
34.38408037724492	2.1294253	1.4592551
34.402427309713296	2.055431	1.4336774
34.42077515159559	2.0423398	1.4291046
34.43912390349752	2.12457	1.4575905
34.45747356602499	2.1154478	1.4544579
34.47582413978423	1.9310474	1.3896214
34.49417562538163	1.8692547	1.3672069
34.51252802342388	1.9846147	1.4087635
34.53088133451789	2.0765595	1.4410273
34.54923555927084	1.9193068	1.3853905
34.567590698290104	1.9231352	1.3867714
34.58594675218336	1.9441618	1.394332
34.6043037215585	1.9245706	1.3872889
34.62266160702365	1.8245665	1.3507651
34.641020409187234	1.8517181	1.3607785
34.65938012865785	1.9112236	1.3824701
34.677740766044394	2.0107825	1.4180206
34.69610232195598	2.0420694	1.4290099
34.714464797002016	2.036815	1.4271703
34.73282819179208	1.934853	1.3909899
34.751192506936064	1.9168271	1.3844953
34.76955774304408	2.0511894	1.4321975
34.7879239007265	2.0357893	1.4268109
34.80629098059391	1.7956663	1.3400247
34.824658983257194	1.8083122	1.344735
34.843027909327446	2.0834918	1.4434305
34.86139775941603	2.181953	1.4771435
34.879768534134534	2.1693625	1.4728756
34.89814023409483	1.9788748	1.4067248
34.91651285990901	1.7939597	1.3393878
34.93488641218944	1.709099	1.3073251
34.95326089154871	1.693176	1.301221
34.97163629859967	1.768417	1.3298184
34.99001263395542	1.7569655	1.3255057
35.00838989822934	1.7457505	1.3212686
35.02676809203499	1.9297129	1.3891411
35.04514721598624	2.0769665	1.4411684
35.063527270697215	1.9690374	1.403224
35.081908256782256	1.8995745	1.3782505
35.10029017485597	2.0413935	1.4287734
35.11867302553321	2.133619	1.4606913
35.137056809429104	1.9984804	1.4136763
35.155441527159006	1.9562501	1.3986601
35.173827179338524	2.0838141	1.4435422
35.19221376658354	2.2261364	1.4920243
35.21060128951017	2.1787953	1.4760743
35.2289897487348	2.1563587	1.4684545
35.24737914487405	2.0938225	1.4470047
35.26576947854479	2.075282	1.440584
35.28416075036418	2.1608593	1.4699862
35.30255296094958	2.0845337	1.4437914
35.32094611091867	2.1360545	1.4615247
35.33934020088932	2.3403466	1.5298191
35.35773523147969	2.2506068	1.5002023
35.3761312033082	2.102293	1.4499286
35.394528116993506	1.9579082	1.3992527
35.41292597315452	2.0564466	1.4340316
35.431324772410434	2.3155313	1.521687
35.449724515380666	2.1696517	1.4729738
35.46812520268491	1.9632291	1.4011527
35.486526834943106	2.2053509	1.4850423
35.504929412775454	2.3709493	1.5397887
35.52333293680242	2.3826396	1.5435802
35.54173740764471	2.2032876	1.4843476
35.560142825923286	2.3838885	1.5439847
35.5785491922594	2.683263	1.6380669
35.59695650727454	2.2505295	1.5001765
35.61536477159042	1.5382273	1.240253
