0.008763373481513119	0.0	0.0
0.026290120649546365	0.14626539	0.3824466
0.043816868432600686	0.1255995	0.3544002
0.06134361724069026	0.08669658	0.29444283
0.07887036748382949	0.04198755	0.20490864
0.0963971195720331	0.0	0.0
0.11392387391531617	0.065210395	0.25536326
0.1314506309236943	0.15041718	0.38783655
0.1489773910071836	0.1988456	0.44592106
0.16650415457580078	0.2298149	0.47939014
0.18403092203956356	0.21919726	0.46818507
0.20155769380849	0.23221228	0.4818841
0.2190844702925996	0.16485795	0.40602705
0.2366112519019124	0.13417345	0.36629695
0.2541380390464497	0.107521646	0.32790494
0.27166483213623416	0.12278694	0.3504097
0.28919163158128947	0.19109367	0.4371426
0.3067184377916406	0.20291021	0.45045558
0.324245251177314	0.23570484	0.48549443
0.34177207214833777	0.23862515	0.48849273
0.3592989011147415	0.2227654	0.4719803
0.37682573848655654	0.26244032	0.5122893
0.39435258467381573	0.21159407	0.45999357
0.41187944008655414	0.21698938	0.4658212
0.42940630513480854	0.1680753	0.40996987
0.446933180228618	0.13859314	0.372281
0.4644600657780234	0.1552448	0.39401117
0.48198696219306775	0.17517808	0.4185428
0.49951386988379676	0.17896217	0.4230392
0.5170407892602581	0.16120858	0.40150788
0.5345677207325025	0.15585883	0.3947896
0.5520946647105822	0.15884869	0.39855826
0.5696216216045534	0.1694645	0.41166067
0.5871485918244737	0.19654198	0.44333056
0.6046755757804043	0.23343457	0.48315066
0.6222025738824094	0.27090102	0.5204815
0.6397295865405557	0.25144833	0.50144625
0.6572566141649129	0.21981071	0.46883973
0.6747836571655547	0.17913903	0.4232482
0.6923107159525568	0.17031178	0.41268846
0.7098377909359992	0.15442678	0.39297172
0.7273648825259653	0.14613272	0.3822731
0.7448919911325411	0.15801765	0.39751434
0.762419117165817	0.17343678	0.4164574
0.7799462610358868	0.22102262	0.47013044
0.7974734231528482	0.23325744	0.48296732
0.8150006039268024	0.21710357	0.46594375
0.8325278037678551	0.2089848	0.45714855
0.8500550230861152	0.14054742	0.37489656
0.8675822622916969	0.14051726	0.37485632
0.8851095217947171	0.1726383	0.41549766
0.9026368020052984	0.21989347	0.468928
0.9201641033335665	0.25546724	0.5054377
0.9376914261896523	0.24791884	0.4979145
0.9552187709836915	0.29884452	0.54666674
0.9727461381258234	0.28398588	0.53290325
0.990273528026193	0.27738398	0.52667254
1.0078009410949496	0.25183794	0.5018346
1.0253283777422473	0.28294528	0.531926
1.0428558383782454	0.28479105	0.5336582
1.0603833234131086	0.29622027	0.5442612
1.0779108332570058	0.3093886	0.55622715
1.0954383683201119	0.33828792	0.5816252
1.112965929012607	0.3743452	0.61183757
1.1304935157446763	0.4712321	0.6864635
1.1480211289265108	0.47906283	0.6921436
1.1655487689683062	1.3070161	1.1432481
1.1830764362802655	1.6823806	1.2970661
1.200604131272596	2.0940056	1.447068
1.2181318543555117	2.3876994	1.5452182
1.235659605939232	2.3850532	1.5443617
1.253187386433982	3.8162527	1.9535232
1.270715196249994	6.216648	2.4933207
1.2882430357975057	11.716293	3.422907
1.3057709054867608	16.462374	4.057385
1.3232988057280106	22.394928	4.732328
1.3408267369315112	27.250439	5.2201953
1.358354699507526	31.06943	5.5739956
1.3758826938663256	34.887405	5.906556
1.3934107204181858	37.00631	6.083281
1.410938779573391	37.04339	6.086328
1.4284668717422309	37.526127	6.1258574
1.4459949973350033	37.26397	6.104422
1.4635231567620117	37.443634	6.1191206
1.4810513504335687	37.044487	6.086418
1.4985795787599925	36.384216	6.031933
1.5161078421516088	35.994827	5.999569
1.5336361410187505	35.02883	5.918516
1.5511644757717598	34.861416	5.9043555
1.5686928468209842	35.29498	5.9409575
1.58622125457678	35.316784	5.9427924
1.6037496994495108	36.8013	6.0664077
1.621278181849548	37.12202	6.0927844
1.6388067021872719	38.33765	6.1917405
1.6563352608730693	37.625248	6.133942
1.673863858317336	36.20178	6.0167913
1.6913924949304753	34.868744	5.9049764
1.7089211711228998	33.56562	5.7935843
1.7264498873050296	32.680126	5.7166533
1.7439786438872935	32.18443	5.6731324
1.7615074412801288	31.67776	5.6282997
1.779036279893981	31.081656	5.5750923
1.796565160139305	30.33459	5.5076847
1.814094082426564	29.461124	5.42781
1.8316230471662298	28.729372	5.3599787
1.849152054768784	27.74998	5.267825
1.8666811056447168	27.338423	5.2286158
1.8842102002045273	26.792814	5.1761775
1.901739338858724	26.348911	5.133119
1.9192685220178245	25.683495	5.0678887
1.9367977500923557	24.984299	4.99843
1.9543270234928547	24.640642	4.963934
1.971856342629867	23.91959	4.8907657
1.9893857079139496	23.347763	4.831952
2.006915119755667	22.970716	4.7927775
2.0244445785655945	22.343706	4.726913
2.0419740847543175	21.810907	4.670215
2.0595036387324317	21.306372	4.6158824
2.0770332409105414	20.673223	4.5467815
2.094562891699263	20.195868	4.4939814
2.1120925915092217	19.68347	4.4366055
2.129622340751053	19.45015	4.4102325
2.1471521398354043	187.68097	13.699671
2.1646819891729323	443.91788	21.069359
2.182211889174303	439.9022	20.973845
2.1997418402501974	452.4326	21.270462
2.2172718428113023	432.332	20.792595
2.234801897268317	320.52304	17.903158
2.2523320040319548	17.148718	4.141101
2.269862163512935	17.02902	4.126623
2.287392376121992	16.692898	4.0856943
2.304922642269869	16.227657	4.0283566
2.322452962367322	15.700926	3.9624393
2.3399833368251164	15.346859	3.9175067
2.357513766054032	15.094026	3.885103
2.3750442504648586	14.829714	3.8509367
2.3925747904683963	14.494213	3.8071265
2.410105386475459	14.30592	3.7823167
2.4276360388968707	13.931961	3.7325542
2.445166748143469	13.872071	3.724523
2.4626975146261025	13.6362095	3.6927238
2.4802283387556323	13.439035	3.665929
2.4977592209429305	13.319231	3.649552
2.5152901615988825	13.190931	3.6319323
2.5328211611343865	12.961948	3.6002705
2.5503522199603523	12.590689	3.548336
2.5678833384877024	12.243461	3.4990656
2.5854145171273712	12.112657	3.4803243
2.6029457562903064	12.032373	3.4687712
2.620477056387469	11.926507	3.4534776
2.6380084178298326	11.747685	3.4274898
2.655539841028383	11.537956	3.3967566
2.673071326394119	11.217087	3.349192
2.6906028743380523	11.034089	3.32176
2.708134485271211	10.886955	3.2995386
2.7256661596046325	10.740347	3.277247
2.743197897749369	10.547548	3.247699
2.760729700116486	10.385847	3.222708
2.778261567117063	10.23924	3.1998813
2.795793499162193	10.100365	3.178107
2.8133254966629817	9.986993	3.1602204
2.830857560030551	9.764967	3.1248946
2.8483896896760337	9.742409	3.1212833
2.865921886010578	9.473373	3.0778847
2.883454149445347	9.302832	3.0500543
2.9009864803915177	9.062626	3.0104196
2.91851887926028	8.95085	2.991797
2.9360513464628384	9.035791	3.0059593
2.953583882410413	9.052153	3.0086796
2.9711164875142373	8.970225	2.9950335
2.9886491621855606	8.821457	2.9700937
3.0061819068356455	8.584538	2.9299383
3.023714721875769	8.386837	2.8960037
3.041247607717225	8.199958	2.8635569
3.0587805647713213	8.142181	2.8534508
3.0763135934493806	8.144239	2.8538115
3.0938466941627407	8.076691	2.8419518
3.1113798673227544	8.149817	2.8547885
3.1289131133407904	8.02723	2.8332367
3.1464464326282315	7.8266654	2.797618
3.1639798255964786	7.671569	2.7697597
3.1815132926569443	7.573694	2.7520347
3.1990468342210603	7.6439614	2.7647715
3.216580450700272	7.594597	2.7558296
3.2341141425060416	7.4294643	2.7257044
3.251647910049847	7.2795444	2.6980631
3.2691817537431813	7.05239	2.6556337
3.286715673997555	7.039932	2.653287
3.3042496712244938	7.0223885	2.6499789
3.32178374583554	7.03619	2.6525817
3.339317898242251	6.9552207	2.6372752
3.3568521288562034	6.8580933	2.618796
3.3743864380889876	6.747666	2.597627
3.3919208263522127	6.571881	2.5635679
3.4094552940575023	6.5376086	2.5568748
3.4269898416164972	6.5288596	2.5551634
3.444524469440858	6.6391473	2.5766542
3.4620591779422587	6.7147956	2.5912924
3.479593967532391	6.665607	2.5817838
3.4971288386229658	6.5894055	2.5669837
3.5146637916257086	6.427132	2.535179
3.5321988269523628	6.356037	2.5211182
3.5497339450146903	6.31299	2.5125666
3.5672691462244708	6.2280283	2.495602
3.5848044309934988	6.178678	2.4856946
3.60233979973359	6.1280575	2.4754913
3.619875252856575	6.1472273	2.4793603
3.6374107907743034	6.114331	2.4727173
3.6549464138986427	6.120334	2.4739308
3.6724821226414788	6.212632	2.4925153
3.690017917414714	6.333518	2.516648
3.7075537986302702	6.363982	2.5226934
3.7250897667000857	6.3453526	2.5189984
3.7426258220361235	6.485735	2.5467107
3.7601619650503553	6.7252164	2.5933022
3.777698196154779	7.295784	2.7010708
3.7952345157614067	8.2357	2.8697908
3.8127709242822716	9.018585	3.0030959
3.830307422129425	11.018536	3.319418
3.847844009714936	12.31889	3.5098276
3.8653806874508954	15.683755	3.960272
3.882917455749409	15.400441	3.9243395
3.900454315022606	15.695129	3.9617078
3.917991265682631	12.740879	3.5694368
3.9355283081416506	10.839859	3.2923942
3.9530654428118495	8.650201	2.9411223
3.970602670105433	7.412389	2.7225702
3.9881399904346244	6.4950275	2.5485344
4.005677404211669	6.3535104	2.520617
4.023214911848827	6.320153	2.5139916
4.0407525137583855	6.39322	2.5284817
4.058290210352644	6.4717784	2.543969
4.075828002043927	6.354399	2.5207934
4.0933658892445814	6.237634	2.4975257
4.110903872366966	6.139428	2.477787
4.128441951823468	6.1507964	2.48008
4.145980128026488	6.1689525	2.4837377
4.163518401388452	6.2512655	2.5002532
4.181056772321807	6.124155	2.474703
4.1985952412390155	6.0741835	2.4645858
4.216133808552567	6.1273036	2.4753392
4.233672474674966	6.2413917	2.4982777
4.251211240018741	6.512663	2.551992
4.268750104996445	6.620749	2.5730817
4.286289070020643	7.372214	2.715182
4.303828135503928	8.979413	2.9965668
4.3213673018589125	29.250683	5.40839
4.3389065694982305	90.49455	9.512862
4.356445938834537	165.73859	12.87395
4.3739854102805085	171.70065	13.103459
4.391524984248844	172.60374	13.137875
4.409064661152262	136.65707	11.690042
4.426604441403504	96.85568	9.841529
4.444144325415337	75.54427	8.691621
4.461684313600543	21.509266	4.6378083
4.47922440637193	21.496513	4.636433
4.496764604142329	19.799936	4.449712
4.5143049073245916	18.134424	4.2584534
4.531845316331589	16.219847	4.027387
4.5493858315762195	13.611172	3.6893322
4.566926453471405	11.258264	3.3553336
4.584467182430081	9.358952	3.0592403
4.602008018865218	8.145869	2.854097
4.619548963189798	7.4656115	2.7323272
4.637090015816834	6.9495773	2.6362052
4.654631177159353	6.696065	2.5876756
4.672172447630417	6.4174676	2.533272
4.689713827643102	6.262305	2.5024598
4.7072553176105085	6.0697494	2.4636862
4.724796917945764	5.9342384	2.4360292
4.742338629062015	5.846075	2.4178658
4.759880451372434	5.799865	2.4082909
4.777422385290215	5.704185	2.3883436
4.794964431228581	5.626781	2.3720837
4.812506589600768	5.699019	2.3872619
4.830048860820047	5.7134233	2.390277
4.847591245299709	5.660123	2.3791013
4.8651337434530655	5.5876117	2.363813
4.882676355693457	5.4882503	2.3427014
4.900219082434242	5.4994597	2.3450928
4.917761924088813	5.564598	2.3589401
4.935304881070575	5.5528	2.356438
4.952847953792969	5.5359187	2.3528533
4.970391142669449	5.4110985	2.326177
4.9879344481135055	5.371968	2.3177507
5.005477870538642	5.3762374	2.3186715
5.023021410358394	5.4391565	2.3322
5.040565067986324	5.428377	2.3298879
5.05810884383601	5.365042	2.316256
5.075652738321066	5.2817144	2.298198
5.09319675185512	5.255446	2.292476
5.110740884851836	5.3187103	2.306233
5.128285137724894	5.36081	2.3153422
5.145829510888007	5.2954974	2.3011947
5.163374004754908	5.209393	2.2824094
5.1809186197393595	5.1549006	2.2704406
5.198463356255145	5.2080455	2.2821143
5.216008214716077	5.197826	2.279874
5.233553195535998	5.2740245	2.2965245
5.251098299128764	5.34209	2.3112962
5.268643525908272	5.2772484	2.2972262
5.286188876288432	5.1910243	2.278382
5.3037343506831895	5.092795	2.2567222
5.32127994950651	5.0084953	2.2379668
5.3388256731723915	4.9950476	2.2349603
5.356371522094851	5.06191	2.2498689
5.373917496687938	5.0769033	2.2531984
5.391463597365729	5.1047425	2.2593677
5.40900982454232	5.1043544	2.2592819
5.426556178631843	5.1246586	2.2637708
5.444102660048449	5.1905694	2.2782822
5.4616492692063225	5.1218185	2.2631435
5.479196006519669	5.1009574	2.25853
5.496742872402727	5.078428	2.2535367
5.514289867269756	5.160322	2.2716343
5.531836991535049	5.204314	2.2812967
5.549384245612924	5.1992693	2.2801907
5.566931629917724	5.1725225	2.274318
5.584479144863822	5.1555595	2.2705858
5.6020267908656205	5.076251	2.2530537
5.619574568337545	5.047082	2.246571
5.637122477694054	5.0818906	2.254305
5.654670519349629	5.1403446	2.267233
5.672218693718784	5.1115823	2.260881
5.689767001216059	5.1545577	2.270365
5.707315442256021	5.1225753	2.2633107
5.724864017253266	5.1269865	2.264285
5.7424127266224225	5.144636	2.268179
5.75996157077814	5.1407967	2.2673326
5.777510550135105	5.161501	2.2718937
5.795059665108022	5.133675	2.2657614
5.812608916111639	5.094841	2.2571754
5.830158303560715	5.1729817	2.274419
5.847707827870055	5.1186843	2.262451
5.86525748945448	5.2230086	2.2853904
5.8828072887288485	5.39471	2.3226516
5.900357226108044	5.466601	2.3380764
5.917907302006979	5.5394273	2.3535988
5.9354575168406	5.9972777	2.448934
5.9530078710238765	6.5664973	2.562518
5.970558364971812	7.064985	2.6580038
5.988108999099438	7.4553547	2.7304494
6.005659773821818	8.003576	2.8290594
6.023210689554039	7.824564	2.7972422
6.040761746711227	8.210571	2.8654094
6.058312945708531	7.61151	2.7588966
6.075864286961132	7.1038666	2.665308
6.093415770884244	6.5261865	2.5546403
6.1109673978931065	6.006611	2.4508388
6.128519168402993	5.5998383	2.3663979
6.146071082829204	5.5081334	2.3469412
6.163623141587075	5.4275055	2.3297007
6.181175345091969	5.323205	2.307207
6.198727693759281	5.1739097	2.274623
6.216280188004435	5.092736	2.256709
6.233832828242885	5.0329037	2.2434134
6.251385614890126	5.0897684	2.2560515
6.268938548361669	5.096355	2.257511
6.286491629073067	5.0181456	2.2401218
6.304044857439898	4.943091	2.2233064
6.321598233877777	4.9526496	2.2254548
6.339151758802344	4.9775453	2.2310412
6.356705432629277	4.9877305	2.2333229
6.37425925577428	4.950487	2.224969
6.391813228653095	4.9780836	2.2311618
6.409367351681486	5.017641	2.240009
6.426921625275259	5.0440407	2.2458942
6.44447604985025	4.972368	2.2298806
6.46203062582232	4.951266	2.225144
6.47958535360737	4.9272366	2.219738
6.497140233621328	4.96356	2.2279048
6.514695266280161	5.055544	2.2484536
6.532250451999859	5.0589085	2.2492018
6.549805791196454	5.038176	2.2445881
6.567361284286002	4.9714913	2.229684
6.584916931684597	4.912965	2.2165208
6.602472733808367	4.862866	2.2051907
6.6200286910734665	4.9546547	2.2259054
6.637584803896092	4.9617133	2.2274904
6.655141072692462	4.9691725	2.2291641
6.672697497878842	4.974684	2.2303998
6.690254079871514	4.9474945	2.2242963
6.707810819086808	5.0010805	2.2363095
6.725367715941078	4.9522066	2.2253554
6.742924770850719	4.925532	2.219354
6.760481984232151	4.922753	2.2187278
6.778039356501836	4.952624	2.225449
6.795596888076266	4.9781394	2.2311745
6.813154579371963	4.9726615	2.2299466
6.830712430805492	4.9296136	2.2202733
6.84827044279344	4.889868	2.2113044
6.865828615752445	4.872795	2.2074409
6.883386950099159	4.895952	2.2126799
6.900945446250287	4.960828	2.2272916
6.918504104622553	5.0156035	2.2395544
6.936062925632727	5.0157905	2.2395961
6.953621909697607	5.0017195	2.2364523
6.971181057234028	5.013721	2.239134
6.988740368658859	5.0451727	2.2461462
7.006299844389007	5.0519795	2.2476609
7.023859484841407	5.0902605	2.2561605
7.041419290433036	5.224565	2.2857308
7.058979261580902	5.305667	2.3034034
7.0765393987020495	5.5200286	2.3494742
7.094099702213559	5.951141	2.439496
7.111660172532549	6.2875996	2.5075088
7.129220810076164	6.588766	2.5668592
7.146781615261595	7.3351183	2.7083423
7.16434258850606	7.621718	2.760746
7.181903730226821	8.191977	2.8621628
7.1994650408411704	8.112631	2.848268
7.217026520766437	8.171796	2.8586354
7.234588170419983	8.421083	2.9019103
7.252149990219215	8.396275	2.8976326
7.269711980581568	8.366451	2.8924818
7.2872741419245175	8.14134	2.8533034
7.304836474665574	7.745571	2.7830865
7.322398979222286	7.4136004	2.7227929
7.339961656012233	7.156401	2.6751451
7.357524505453039	6.7928386	2.6063075
7.375087527962357	6.5353274	2.5564287
7.392650723957886	6.2977	2.509522
7.410214093857353	6.01819	2.4531999
7.427777638078528	5.7178946	2.391212
7.445341357039213	5.477401	2.3403847
7.4629052511572525	5.3817797	2.3198664
7.480469320850524	5.3049474	2.3032472
7.498033566536948	5.2556667	2.292524
7.5155979886344735	5.1239257	2.263609
7.5331625875610975	5.0280523	2.242332
7.550727363734844	5.037824	2.2445097
7.568292317573788	5.119245	2.262575
7.585857449496025	5.165388	2.272749
7.603422759919705	5.18404	2.2768488
7.620988249263007	5.108988	2.260307
7.638553917944147	5.0695624	2.2515688
7.656119766381391	5.067297	2.2510657
7.673685794993023	5.0806313	2.2540255
7.691252004197388	5.0879383	2.255646
7.70881839441285	5.099516	2.2582107
7.726384966057826	5.1067014	2.2598011
7.743951719550762	5.145114	2.2682843
7.761518655310149	5.1150346	2.2616441
7.779085773754511	5.1123347	2.2610474
7.796653075302419	5.1361504	2.2663076
7.814220560372475	5.219748	2.2846768
7.831788229383323	5.2972713	2.3015802
7.8493560827536495	5.2839503	2.2986846
7.866924120902174	5.2886066	2.2996972
7.884492344247663	5.238667	2.2888134
7.9020607532089135	5.283088	2.298497
7.919629348204771	5.2447076	2.2901328
7.937198129654115	5.1864924	2.2773871
7.954767097975865	5.1172037	2.2621238
7.972336253588986	5.1339183	2.2658153
7.989905596912472	5.2414618	2.289424
8.007475128365371	5.3334556	2.3094275
8.025044848366756	5.388786	2.3213758
8.042614757335754	5.533477	2.3523343
8.060184855691523	5.6209598	2.3708563
8.07775514385327	5.8083816	2.4100585
8.095325622240228	5.892272	2.4274004
8.112896291271687	5.966917	2.4427273
8.130467151366968	6.0103207	2.4515955
8.148038202945436	6.0046964	2.4504483
8.165609446426497	6.027447	2.455086
8.183180882229594	6.0131063	2.4521637
8.200752510774217	5.9315324	2.4354737
8.218324332479893	5.8408017	2.416775
8.235896347766193	5.813871	2.411197
8.253468557052724	5.8095074	2.410292
8.27104096075914	5.8505473	2.4187906
8.288613559305137	5.8989444	2.4287744
8.306186353110448	6.0003304	2.4495573
8.32375934259485	6.108252	2.4714878
8.341332528178162	6.1355333	2.477001
8.358905910280246	6.178373	2.4856334
8.376479489321003	6.2178173	2.493555
8.394053265720377	6.266955	2.5033886
8.411627239898356	6.2346334	2.4969249
8.42920141227497	6.152047	2.4803321
8.44677578327029	6.14489	2.4788888
8.464350353304427	6.1022735	2.470278
8.48192512279754	6.139803	2.4778626
8.499500092169827	6.097824	2.4693773
8.51707526184153	6.0626645	2.4622478
8.534650632232934	6.0917664	2.4681504
8.552226203764365	6.1053314	2.470897
8.569801976856192	6.1729913	2.4845505
8.587377951928834	6.174008	2.484755
8.60495412940274	6.172304	2.4844122
8.622530509698416	6.2432737	2.4986544
8.6401070932364	6.365937	2.5230808
8.657683880437283	6.487043	2.5469675
8.675260871721695	6.588654	2.5668373
8.692838067510303	6.806073	2.6088452
8.710415468223834	6.971656	2.6403894
8.727993074283043	7.1453185	2.6730728
8.745570886108737	7.0916667	2.6630182
8.763148904121765	7.11913	2.6681697
8.78072712874302	7.1393476	2.6719558
8.798305560393441	7.43374	2.7264886
8.815884199494006	7.6176567	2.7600102
8.833463046465745	7.748688	2.7836466
8.851042101729728	7.8390293	2.7998266
8.86862136570707	8.164032	2.857277
8.886200838818924	8.31408	2.8834147
8.903780521486505	8.268153	2.8754396
8.921360414131055	8.383122	2.8953621
8.938940517173874	8.546714	2.9234762
8.956520831036297	8.740531	2.956439
8.97410135613971	9.033944	3.005652
8.99168209290554	9.148103	3.024583
9.009263041755265	9.372293	3.0614202
9.026844203110405	9.610098	3.1000159
9.044425577392525	9.731233	3.1194923
9.062007165023239	9.758717	3.1238945
9.079588966424197	10.043507	3.1691492
9.097170982017108	10.217011	3.1964061
9.11475321222372	11.14428	3.338305
9.132335657465825	11.935581	3.454791
9.149918318165264	11.976795	3.4607506
9.167501194743924	12.4651165	3.5305972
9.18508428762374	12.163504	3.4876215
9.202667597226693	12.074677	3.4748638
9.220251123974803	11.747199	3.4274187
9.237834868290143	11.57928	3.4028342
9.255418830594836	11.434315	3.3814664
9.273003011311046	10.98542	3.3144262
9.290587410860985	10.742747	3.2776132
9.308172029666911	10.091358	3.1766899
9.32575686815113	9.848676	3.13826
9.343341926735997	8.650215	2.941125
9.360927205843916	8.392187	2.896927
9.378512705897327	8.152718	2.8552964
9.396098427318728	7.895927	2.8099692
9.413684370530664	7.8198977	2.796408
9.431270535955722	7.742509	2.7825365
9.448856924016539	7.755915	2.7849443
9.466443535135806	7.6734834	2.7701054
9.484030369736251	7.69481	2.773952
9.501617428240658	7.7243915	2.779279
9.519204711071852	7.721077	2.7786827
9.536792218652714	7.6893883	2.7729747
9.55437995140617	7.7180142	2.7781315
9.571967909755191	7.753255	2.7844667
9.589556094122802	7.7503963	2.7839534
9.60714450493207	7.7556486	2.7848966
9.624733142606116	7.7249207	2.7793741
9.642322007568108	7.811966	2.7949893
9.659911100241267	7.9356065	2.817021
9.677500421048851	8.006327	2.8295453
9.695089970414175	7.987333	2.826187
9.712679748760609	7.935043	2.8169208
9.730269756511557	7.9426823	2.8182764
9.747859994090492	7.984009	2.825599
9.765450461920915	8.057061	2.8384962
9.78304116042639	8.118327	2.8492677
9.800632090030527	8.177246	2.8595884
9.81822325115699	8.293224	2.8797958
9.835814644229481	8.28673	2.878668
9.853406269671762	8.21396	2.8660007
9.870998127907646	8.125196	2.850473
9.888590219360985	7.999422	2.828325
9.906182544455698	8.037199	2.8349955
9.923775103615734	8.076702	2.841954
9.941367897265108	8.132386	2.851734
9.958960925827878	8.202111	2.8639328
9.97655418972816	8.181711	2.860369
9.994147689390106	8.249631	2.8722172
10.011741425237934	8.259214	2.873885
10.029335397695904	8.279612	2.8774314
10.04692960718833	8.296459	2.8803575
10.06452405413958	8.332203	2.8865554
10.082118738974064	8.34215	2.888278
10.099713662116246	8.260394	2.8740902
10.117308823990651	8.181919	2.8604054
10.134904225021844	8.077975	2.8421779
10.152499865634445	8.067013	2.8402488
10.170095746253125	8.03666	2.8349004
10.18769186730261	8.074974	2.8416498
10.205288229207675	8.065011	2.8398962
10.222884832393145	7.9888873	2.826462
10.2404816772839	7.929909	2.8160095
10.258078764304868	7.9120026	2.8128283
10.275676093881035	7.855077	2.802691
10.293273666437438	7.8584266	2.8032885
10.310871482399158	7.858366	2.8032777
10.32846954219134	7.8940964	2.8096435
10.346067846239173	7.9511976	2.8197868
10.363666394967908	7.9816203	2.8251762
10.38126518880283	7.9789324	2.8247004
10.398864228169298	8.064338	2.8397777
10.416463513492713	8.057591	2.8385897
10.434063045198531	8.110599	2.8479114
10.451662823712262	8.091214	2.844506
10.469262849459467	8.117088	2.8490505
10.486863122865758	8.072531	2.84122
10.504463644356806	8.103925	2.8467393
10.522064414358338	8.10053	2.846143
10.539665433296118	8.049298	2.8371286
10.557266701595987	7.926628	2.8154268
10.574868219683818	7.743067	2.7826366
10.592469987985552	7.619799	2.7603984
10.610072006927185	7.497044	2.738073
10.627674276934751	7.401984	2.7206588
10.64527679843435	7.229427	2.6887593
10.662879571852143	7.122976	2.6688905
10.680482597614331	7.016902	2.6489437
10.698085876147173	6.925409	2.631617
10.715689407876988	6.861008	2.6193526
10.733293193230146	6.8297024	2.61337
10.750897232633072	6.7287254	2.5939786
10.76850152651225	6.6079364	2.5705907
10.786106075294207	6.5134997	2.552156
10.803710879405534	6.4946585	2.548462
10.821315939272877	6.4281044	2.5353706
10.83892125532294	6.3345957	2.5168622
10.856526827982472	6.202308	2.4904435
10.874132657678285	6.16629	2.4832015
10.891738744837243	6.0934877	2.4684992
10.909345089886271	6.0237064	2.454324
10.926951693252343	5.9538803	2.4400575
10.944558555362494	5.889056	2.4267378
10.96216567664381	5.8374157	2.4160745
10.979773057523436	5.810088	2.4104125
10.997380698428573	5.7588396	2.3997583
11.014988599786477	5.7158375	2.3907819
11.032596762024461	5.6716566	2.381524
11.050205185569892	5.6092772	2.3683913
11.067813870850198	5.553028	2.3564863
11.085422818292859	5.4956975	2.3442905
11.10303202832541	5.4560657	2.3358223
11.120641501375454	5.3647947	2.3162026
11.138251237870636	5.2787433	2.2975516
11.155861238238671	5.1808004	2.276137
11.173471502907317	5.1413393	2.2674522
11.191082032304402	5.1248627	2.2638159
11.208692826857805	5.0846567	2.2549183
11.226303886995465	5.0187597	2.240259
11.243915213145371	4.9480333	2.2244174
11.261526805735578	4.9344406	2.22136
11.279138665194196	4.9198823	2.2180808
11.296750791949393	4.901137	2.2138512
11.314363186429393	4.7666955	2.1832764
11.331975849062479	4.6855884	2.164622
11.34958878027699	4.6079655	2.1466172
11.36720198050133	4.6199512	2.1494071
11.384815450163948	4.583797	2.1409805
11.402429189693366	4.534824	2.1295125
11.420043199518153	4.4543643	2.1105366
11.437657480066942	63.43756	7.96477
11.455272031768422	85.170235	9.228772
11.472886855051353	107.56859	10.371528
11.490501950344528	99.16068	9.957946
11.508117318076819	84.52715	9.193865
11.52573295867715	45.887997	6.774068
11.543348872574514	4.1399	2.0346744
11.560965060197946	4.036684	2.00915
11.57858152197655	4.0112796	2.0028179
11.59619825833949	3.9409673	1.9851869
11.613815269715985	3.954125	1.9884982
11.631432556535323	38.50432	6.205185
11.649050119226837	83.08413	9.115049
11.666667958219929	93.459496	9.667445
11.68428607394406	107.72654	10.37914
11.701904466828756	82.525024	9.084329
11.719523137303586	65.39791	8.086898
11.737142085798196	4.639524	2.1539555
11.754761312742286	3.7554398	1.9378957
11.772380818565619	3.6462548	1.9095169
11.790000603698015	3.6183035	1.9021839
11.80762066856935	3.535452	1.8802798
11.825241013609572	3.5091484	1.8732721
11.842861639248683	3.479637	1.8653785
11.860482545916748	3.4658034	1.8616668
11.878103734043883	3.4471257	1.8566437
11.895725204060282	3.4039629	1.8449831
11.91334695639619	3.3447354	1.8288617
11.930968991481919	3.3133965	1.8202738
11.948591309747824	3.3100696	1.8193597
11.966213911624347	3.3433533	1.8284838
11.98383679754198	3.3156047	1.8208802
12.001459967931268	3.2929807	1.8146572
12.019083423222835	3.2867384	1.8129364
12.036707163847352	3.2806816	1.8112652
12.05433119023556	3.2227168	1.7951927
12.071955502818259	3.2194576	1.7942847
12.089580102026313	3.1833973	1.7842077
12.107204988290643	3.1516292	1.7752829
12.12483016204224	3.1151433	1.7649769
12.142455623712152	3.093571	1.758855
12.16008137373149	3.0924897	1.7585477
12.177707412531431	3.0652478	1.7507849
12.19533374054321	3.0526764	1.7471911
12.212960358198126	2.9876692	1.7284876
12.230587265927545	2.964626	1.7218089
12.248214464162889	2.9218285	1.7093357
12.265841953335649	2.9406533	1.7148334
12.283469733877375	2.9403436	1.714743
12.301097806219685	2.960462	1.7205993
12.31872617079425	2.9460542	1.7164073
12.336354828032825	2.9135242	1.7069049
12.353983778367205	2.9055073	1.7045549
12.371613022229262	2.8660836	1.6929512
12.389242560050928	2.8478734	1.6875644
12.406872392264201	2.8335001	1.6833004
12.424502519301143	2.857041	1.6902783
12.442132941593874	2.8604062	1.6912736
12.459763659574586	2.8304918	1.6824065
12.477394673675532	2.7945933	1.6717037
12.49502598432903	2.7696412	1.6642239
12.51265759196746	2.7759306	1.6661124
12.530289497023267	2.7914093	1.6707511
12.547921699928967	2.765054	1.6628451
12.565554201117134	2.7508948	1.6585822
12.583187001020404	2.7434115	1.6563247
12.600820100071486	2.7175164	1.6484891
12.618453498703152	2.729349	1.6520741
12.636087197348235	2.7180898	1.648663
12.65372119643964	2.7391386	1.6550343
12.671355496410326	2.7484314	1.6578394
12.68899009769333	2.787591	1.669608
12.706625000721749	2.8008537	1.6735752
12.724260205928752	2.8533437	1.6891843
12.741895713747551	2.8987818	1.7025809
12.759531524611454	2.9780703	1.7257086
12.777167638953818	2.9702282	1.723435
12.794804057208072	2.9745226	1.7246804
12.812440779807702	3.021693	1.7383018
12.830077807186271	3.1922765	1.7866943
12.847715139777405	3.2225094	1.7951349
12.865352778014795	3.3567286	1.8321377
12.882990722332197	3.4492989	1.8572288
12.90062897316344	3.5540798	1.8852267
12.918267530942412	3.6707377	1.9159169
12.935906396103071	3.5491498	1.8839188
12.953545569079449	3.6320891	1.905804
12.971185050305628	3.450888	1.8576566
12.988824840215775	3.4715478	1.863209
13.006464939244115	3.4913206	1.8685076
13.024105347824943	3.3539116	1.8313688
13.041746066392617	3.4657454	1.8616513
13.05938709538157	3.2773662	1.8103497
13.077028435226296	3.2788725	1.8107657
13.094670086361363	3.1673074	1.779693
13.112312049221401	3.0666993	1.7511994
13.129954324241112	3.0118072	1.7354559
13.147596911855258	2.8417587	1.6857517
13.165239812498685	2.8345108	1.6836005
13.182883026606293	2.7543263	1.6596164
13.200526554613058	2.6915524	1.6405951
13.218170396954017	2.6576116	1.6302183
13.235814554064284	2.6798756	1.6370325
13.253459026379034	2.6836486	1.6381845
13.271103814333523	2.684186	1.6383486
13.288748918363058	2.6809912	1.6373732
13.306394338903031	2.6586616	1.6305403
13.32404007638889	2.6234405	1.6197039
13.341686131256164	2.605699	1.6142178
13.359332503940449	2.5791569	1.6059754
13.376979194877402	2.5771985	1.6053655
13.394626204502751	2.6227899	1.619503
13.412273533252307	2.650545	1.6280494
13.429921181561937	2.656521	1.6298838
13.447569149867581	2.6972132	1.6423194
13.465217438605247	2.7150762	1.6477488
13.482866048211022	2.724488	1.6506023
13.500514979121052	2.709017	1.6459092
13.518164231771568	2.6801274	1.6371095
13.535813806598844	2.6501482	1.6279275
13.553463704039254	2.657122	1.6300681
13.571113924529229	2.6621215	1.6316009
13.588764468505275	2.6743953	1.6353579
13.606415336403956	2.678551	1.6366279
13.624066528661917	2.6509576	1.6281762
13.641718045715882	2.70099	1.6434689
13.659369888002635	2.7366571	1.6542845
13.67702205595903	2.813871	1.6774597
13.694674550021993	2.9242556	1.7100455
13.712327370628532	3.0044465	1.733334
13.729980518215713	3.0892844	1.7576361
13.747633993220681	3.1381416	1.7714801
13.765287796080647	3.1862173	1.7849978
13.7829419272329	3.2581065	1.8050226
13.800596387114801	3.306715	1.8184376
13.818251176163775	3.309353	1.8191627
13.835906294817324	3.3047345	1.8178929
13.853561743513023	3.2943602	1.8150373
13.871217522688525	3.357845	1.8324424
13.888873632781538	3.4079926	1.8460749
13.906530074229858	3.4455955	1.8562316
13.92418684747135	3.4704018	1.8629014
13.941843952943948	3.4462736	1.8564142
13.959501391085665	3.42687	1.8511808
13.977159162334578	3.347049	1.8294942
13.994817267128846	3.2926435	1.8145642
14.012475705906693	3.2379732	1.7994369
14.030134479106424	3.1617887	1.778142
14.047793587166414	3.1043696	1.7619221
14.065453030525108	3.040725	1.7437675
14.083112809621026	2.9816191	1.7267365
14.100772924892766	2.9107072	1.7060795
14.118433376778997	2.8447978	1.6866529
14.136094165718458	2.8122456	1.6769751
14.153755292149969	2.7680125	1.6637346
14.171416756512416	2.728337	1.6517678
14.189078559244768	2.6815667	1.637549
14.20674070078606	2.638912	1.6244729
14.224403181575408	2.574857	1.6046361
14.242066002051999	2.5562081	1.5988146
14.259729162655093	2.5185282	1.5869871
14.277392663824022	2.4761813	1.5735886
14.295056505998208	2.4094229	1.5522316
14.312720689617128	2.377241	1.5418304
14.330385215120348	2.3985903	1.5487384
14.348050082947497	2.4301147	1.5588825
14.3657152935383	2.4574788	1.5676348
14.383380847332528	2.423667	1.5568131
14.401046744770051	2.3600633	1.5362498
14.418712986290798	2.3362093	1.5284663
14.436379572334793	2.3315299	1.5269347
14.454046503342123	2.3428323	1.5306313
14.471713779752946	2.3265922	1.5253171
14.489381402007504	2.319388	1.5229536
14.507049370546113	2.3337104	1.5276487
14.524717685809168	2.3491828	1.5327045
14.542386348237134	2.3778248	1.5420197
14.560055358270553	2.4058003	1.5510643
14.577724716350051	2.404325	1.5505886
14.595394422916325	2.3775516	1.5419312
14.61306447841015	2.4108624	1.5526953
14.63073488327237	2.4352827	1.5605392
14.648405637943917	2.5023737	1.5818893
14.6660767428658	2.5214033	1.5878928
14.683748198479094	2.5171075	1.5865395
14.701420005224954	2.534683	1.5920688
14.719092163544628	2.6140704	1.6168088
14.73676467387942	2.6406991	1.6250228
14.754437536670727	2.6197143	1.6185532
14.772110752360014	2.5974061	1.611647
14.78978432138882	2.585578	1.6079732
14.807458244198777	2.6501114	1.6279163
14.82513252123159	2.6315267	1.6221981
14.842807152929028	2.6766467	1.636046
14.860482139732962	2.6372397	1.623958
14.87815748208531	2.6451588	1.6263944
14.8958331804281	2.6934435	1.6411713
14.91350923520342	2.6734257	1.6350614
14.931185646853438	2.666605	1.6329743
14.948862415820408	2.5762124	1.6050584
14.966539542546656	2.572883	1.6040208
14.98421702747459	2.566868	1.6021448
15.001894871046696	2.593198	1.610341
15.019573073705542	2.587155	1.6084635
15.037251635893766	2.5907116	1.6095687
15.054930558054092	2.6117709	1.6160975
15.072609840629323	2.6831102	1.6380203
15.090289484062351	2.7919443	1.6709112
15.107969488796124	3.101873	1.7612134
15.125649855273691	3.5419059	1.8819952
15.14333058393817	4.041459	2.010338
15.161011675232768	4.999863	2.2360375
15.17869312960076	6.389838	2.527813
15.196374947485506	8.31341	2.8832984
15.214057129330447	11.475335	3.3875265
15.231739675579114	15.916377	3.9895334
15.249422586675102	20.579454	4.5364585
15.267105863062092	23.30632	4.827662
15.284789505183847	23.529327	4.8507037
15.302473513484218	21.446161	4.631
15.320157888407127	18.081177	4.252197
15.337842630396578	14.10462	3.755612
15.355527739896656	10.996881	3.3161545
15.37321321735153	8.589075	2.9307125
15.39089906320545	6.316515	2.5132678
15.408585277902748	4.786361	2.1877754
15.42627186188783	3.7176008	1.9281081
15.443958815605198	3.2800164	1.8110815
15.461646139499424	3.0020819	1.7326517
15.479333834015168	2.8978035	1.7022936
15.497021899597165	2.8067498	1.6753358
15.514710336690234	2.7707288	1.6645507
15.53239914573928	2.7034223	1.6442087
15.550088327189297	2.6417208	1.6253371
15.567777881485336	2.5930715	1.6103016
15.58546780907256	2.516919	1.58648
15.6031581103962	2.4839892	1.5760677
15.620848785901568	2.4415586	1.5625488
15.638539836034063	2.4700089	1.5716262
15.656231261239173	2.481462	1.5752656
15.673923061962451	2.4882908	1.5774317
15.691615238649552	2.4881904	1.5773998
15.709307791746202	2.4316518	1.5593754
15.727000721698221	2.4138432	1.5536548
15.744694028951498	2.3882856	1.5454079
15.76238771395202	2.3651595	1.5379075
15.780081777145844	2.3047564	1.5181425
15.797776218979125	2.2761674	1.5086973
15.815471039898094	2.2898498	1.513225
15.833166240349064	2.319854	1.5231067
15.850861820778437	2.3435962	1.5308808
15.868557781632699	2.3536203	1.5341513
15.886254123358412	2.3662558	1.5382639
15.903950846402232	2.3493695	1.5327653
15.921647951210897	2.3496006	1.5328407
15.939345438231225	2.3525538	1.5338037
15.957043307910133	2.355593	1.5347941
15.974741560694602	2.3532615	1.5340344
15.992440197031714	2.3419993	1.5303591
16.01013921736862	2.3387425	1.5292947
16.02783862215259	2.3324356	1.5272313
16.045538411830933	2.3322082	1.5271568
16.06323858685107	2.3275523	1.5256318
16.080939147660512	2.3355045	1.5282358
16.09864009470684	2.3362372	1.5284754
16.11634142843774	2.3337262	1.5276538
16.134043149300954	2.3260515	1.5251398
16.15174525774433	2.3287766	1.5260329
16.169447754215817	2.3496664	1.5328622
16.18715063916342	2.3569946	1.5352507
16.204853913035244	2.414181	1.5537635
16.222557576279478	2.3986683	1.5487635
16.240261629344403	22.377605	4.7304974
16.257966072678386	42.908905	6.550489
16.275670906729868	38.036324	6.1673594
16.293376131947387	2.4809475	1.5751023
16.31108174877957	2.5159647	1.5861793
16.328787757675133	2.5942047	1.6106535
16.34649415908287	2.6020253	1.6130794
16.364200953451657	2.6169853	1.6177099
16.38190814123048	2.5977213	1.6117448
16.39961572286839	2.591717	1.609881
16.41732369881455	2.6204364	1.6187762
16.43503206951817	2.6503932	1.6280029
16.45274083542859	2.7108362	1.6464617
16.47044999699522	2.7173746	1.6484461
16.488159554667558	2.74331	1.6562941
16.505869508895184	2.7778428	1.6666862
16.523579860127786	2.8413658	1.6856351
16.541290608815117	2.9073246	1.7050879
16.559001755407035	2.9294147	1.7115533
16.57671330035348	2.988064	1.7286018
16.59442524410448	3.0343	1.7419243
16.61213758711015	3.1394544	1.7718506
16.629850329820705	3.1892438	1.7858454
16.647563472686436	3.3169594	1.8212521
16.665277016157724	3.3748994	1.8370899
16.682990960685053	3.4056435	1.8454386
16.70070530671898	3.4376373	1.8540866
16.718420054710155	3.4881108	1.8676485
16.736135205109335	3.5195978	1.876059
16.753850758367335	3.5328913	1.8795987
16.771566714935087	3.5441298	1.882586
16.789283075263597	3.6133506	1.9008815
16.80699983980398	3.6995301	1.9234163
16.82471700900741	3.7575073	1.9384291
16.84243458332518	3.798775	1.9490446
16.860152563208665	3.8246553	1.9556726
16.87787094910932	3.9077427	1.9768012
16.89558974147871	4.0139027	2.0034726
16.913308940768466	4.103344	2.0256712
16.931028547430333	4.1623573	2.0401857
16.94874856191613	4.1962132	2.048466
16.966468984677785	4.222556	2.0548859
16.98418981616729	4.2463484	2.060667
17.00191105683676	4.2959065	2.0726569
17.019632707138374	4.3504925	2.0857835
17.03735476752442	4.4166665	2.1015866
17.05507723844728	4.483077	2.1173277
17.072800120359403	4.5601645	2.1354542
17.090523413713353	4.6025405	2.1453533
17.108247118961785	4.572093	2.1382453
17.125971236557437	4.5252385	2.1272607
17.143695766953133	4.5071945	2.1230154
17.161420710601806	4.5718255	2.1381826
17.179146067956477	4.6348147	2.152862
17.19687183947025	4.5859714	2.141488
17.21459802559634	4.54121	2.1310115
17.232324626788028	4.5018167	2.1217484
17.25005164349871	4.5052614	2.12256
17.267779076181863	4.493834	2.1198666
17.285506925291074	4.5670443	2.1370645
17.30323519127999	4.600716	2.144928
17.320963874602384	4.5864115	2.1415908
17.33869297571211	4.5468664	2.1323383
17.356422495063114	4.5110297	2.1239185
17.37415243310944	4.472299	2.1147811
17.391882790305218	4.451495	2.1098566
17.40961356710468	4.461314	2.1121824
17.42734476396215	4.4519463	2.1099637
17.445076381332044	4.4420357	2.1076138
17.462808419668868	4.4866185	2.118164
17.48054087942723	4.6307344	2.1519141
17.498273761061835	4.9701734	2.2293885
17.51600706502747	5.479885	2.3409154
17.533740791779024	6.253519	2.5007038
17.551474941771485	7.7152777	2.777639
17.56920951545993	8.745995	2.957363
17.586944513299528	10.763311	3.2807486
17.60467993574556	12.277868	3.503979
17.622415783253373	13.643047	3.6936495
17.64015205627843	14.763665	3.8423514
17.657888755276293	15.616103	3.9517214
17.675625880702604	16.106983	4.0133505
17.69336343301311	15.988631	3.9985785
17.71110141266366	15.415982	3.9263191
17.728839820110178	14.623512	3.8240702
17.746578655808705	13.894768	3.7275686
17.764317920215372	12.595238	3.548977
17.7820576137864	11.299229	3.3614326
17.79979773697811	9.360861	3.0595524
17.81753829024692	7.474199	2.7338982
17.835279274049356	5.80162	2.4086552
17.85302068884201	4.779365	2.1861758
17.870762535081607	4.204038	2.0503752
17.888504813224934	3.90734	1.9766992
17.90624752372891	3.719268	1.9285403
17.923990667050536	3.6207986	1.9028397
17.941734243646895	3.5243576	1.8773272
17.959478253975185	3.4915235	1.8685619
17.9772226984927	3.4385571	1.8543347
17.994967577656833	3.381718	1.8389448
18.01271289192506	3.3277404	1.8242096
18.030458641754965	3.284247	1.8122492
18.04820482760425	3.2579558	1.8049809
18.06595144993067	3.2635386	1.8065267
18.083698509192125	3.2414808	1.8004113
18.101446005846576	3.2323995	1.7978874
18.119193940352105	3.1981843	1.7883468
18.136942313166887	3.1928346	1.7868505
18.1546911247492	3.1525745	1.775549
18.1724403755574	3.1261873	1.7681028
18.19019006604997	3.124561	1.7676429
18.207940196685467	3.1094022	1.7633497
18.225690767922575	3.076591	1.7540214
18.243441780220046	3.0315118	1.7411237
18.261193234036764	3.0604217	1.7494061
18.278945129831676	3.0932965	1.758777
18.29669746806386	3.054208	1.7476293
18.314450249192483	3.02752	1.739977
18.3322034736768	3.028539	1.7402698
18.349957141976184	3.0522602	1.7470719
18.3677112545501	3.0281155	1.7401482
18.385465811858108	3.0230596	1.7386948
18.403220814359884	3.0140157	1.7360921
18.420976262515172	3.0421143	1.7441658
18.43873215678387	3.1310213	1.7694693
18.456488497625923	3.153228	1.7757331
18.474245285501407	3.2118275	1.7921572
18.492002520870486	3.2169833	1.7935951
18.50976020419343	3.2883694	1.8133862
18.527518335930615	3.6409314	1.9081224
18.545276916542516	4.24278	2.059801
18.563035946489688	4.444151	2.1081154
18.580795426232832	4.9648013	2.2281835
18.598555356232698	4.844538	2.2010312
18.616315736950185	5.113789	2.2613688
18.63407656884626	4.73979	2.177106
18.65183785238201	4.947372	2.224269
18.669599588018617	4.7185116	2.1722136
18.68736177621737	4.673913	2.1619234
18.705124417439652	4.6978893	2.1674614
18.72288751214696	4.5368466	2.1299875
18.740651060800886	4.619372	2.1492724
18.758415063863115	4.264153	2.0649827
18.77617952179546	4.437255	2.1064792
18.793944435059814	4.221316	2.054584
18.811709804118184	4.2258434	2.0556855
18.829475629432675	4.1555514	2.038517
18.8472419114655	3.9529445	1.9882014
18.86500865067897	4.0701113	2.0174518
18.88277584753551	3.74433	1.9350271
18.90054350249763	3.7356908	1.9327935
18.918311616027957	3.405345	1.8453577
18.936080188589226	3.3113546	1.8197128
18.953849220644265	3.0267825	1.739765
18.971618712656007	2.8700728	1.694129
18.9893886650875	2.789907	1.6703014
19.007159078401887	7.948278	2.819269
19.024929953062408	32.83583	5.7302556
19.042701289532435	32.835526	5.730229
19.060473088275405	25.368443	5.0367093
19.07824534975489	2.6531515	1.6288497
19.096018074434568	2.6180925	1.6180521
19.113791262778197	2.610291	1.6156394
19.13156491524966	2.5576885	1.5992775
19.149339032312945	2.5564764	1.5988985
19.167113614432136	2.5815618	1.6067239
19.184888662071433	2.5774915	1.6054568
19.202664175695123	2.5750408	1.6046934
19.220440155767623	2.5210414	1.5877788
19.238216602753447	2.4957793	1.5798036
19.2559935171172	2.502151	1.5818189
19.27377089932361	2.5417562	1.5942886
19.291548749837514	2.5551627	1.5984876
19.309327069123835	2.5078485	1.5836188
19.32710585764763	2.453236	1.566281
19.344885115874032	2.4454448	1.5637918
19.362664844268313	2.466441	1.5704907
19.380445043295822	2.4508543	1.5655204
19.39822571342203	2.4287696	1.558451
19.41600685511252	2.396923	1.5481999
19.43378846883297	2.4170039	1.5546716
19.451570555049173	2.43061	1.5590414
19.469353114227037	2.4559631	1.5671513
19.48713614683254	2.4495802	1.5651134
19.50491965333182	2.4510972	1.565598
19.52270363419109	2.4309895	1.5591631
19.540488089876686	2.3871763	1.545049
19.55827302085503	2.3736541	1.5406668
19.576058427592674	2.3891964	1.5457026
19.593844310556282	2.4259138	1.5575346
19.611630670212598	2.44637	1.5640875
19.629417507028506	2.4471402	1.5643338
19.64720482147098	2.4024003	1.5499678
19.6649926140071	2.3911805	1.5463443
19.682780885104084	2.3986387	1.548754
19.70056963522921	2.4367537	1.5610105
19.718358864849908	2.4662917	1.5704432
19.7361485744337	2.4667678	1.5705947
19.753938764448215	2.470463	1.5717707
19.771729435361202	2.4767978	1.5737846
19.789520587640506	2.4841638	1.576123
19.807312221754092	2.4811497	1.5751666
19.825104338170043	2.4944048	1.5793685
19.842896937356517	2.4783413	1.5742749
19.860690019781824	2.467249	1.5707479
19.87848358591436	2.4692578	1.5713873
19.896277636222635	2.4364796	1.5609226
19.914072171175278	2.4298947	1.5588119
19.931867191241015	2.4550219	1.5668509
19.94966269688869	2.4645894	1.5699011
19.967458688587264	2.4637656	1.5696387
19.985255166805807	2.4612608	1.5688406
20.00305213201348	2.4750214	1.57322
20.020849584679578	2.485282	1.5764776
20.038647525273507	2.4272065	1.5579494
20.05644595426477	2.4343948	1.5602547
20.07424487212299	2.443021	1.5630167
20.092044279317903	2.4320333	1.5594977
20.109844176319353	2.396119	1.5479403
20.127644563597304	2.3437665	1.5309365
20.145445441621817	2.3669214	1.5384803
20.16324681086307	2.3986313	1.5487516
20.181048671791373	2.385546	1.5445213
20.198851024877122	2.3780336	1.5420874
20.216653870590836	2.3726468	1.5403398
20.234457209403146	2.3859706	1.5446588
20.252261041784802	2.370906	1.5397747
20.270065368206662	2.3547428	1.5345172
20.287870189139685	2.3818886	1.5433369
20.305675505054968	2.3953123	1.5476797
20.323481316423702	2.3843296	1.5441275
20.341287623717207	2.376041	1.5414412
20.359094427406884	2.3726327	1.5403353
20.376901727964288	2.3600986	1.5362612
20.39470952586107	2.3446152	1.5312136
20.41251782156899	2.3085346	1.5193863
20.430326615559935	2.301783	1.5171628
20.448135908305886	2.2869925	1.5122806
20.465945700278965	2.3079195	1.5191839
20.483755991951384	2.3108058	1.5201335
20.50156678379548	2.2973387	1.5156975
20.519378076283708	2.2824605	1.5107814
20.537189869888635	2.2992818	1.5163383
20.55500216508294	2.3082702	1.5192993
20.572814962339415	2.2957988	1.5151894
20.59062826213098	2.2858355	1.5118979
20.60844206493066	2.2663867	1.5054524
20.626256371211593	2.288456	1.5127643
20.644071181447032	2.2796674	1.5098567
20.66188649611036	2.302433	1.517377
20.67970231567506	2.3105307	1.520043
20.697518640614742	2.3149786	1.5215054
20.715335471403122	2.2798028	1.5099016
20.73315280851404	2.2453926	1.4984634
20.750970652421447	2.2746408	1.5081912
20.768789003599412	2.331656	1.5269761
20.786607862522136	2.3363307	1.528506
20.8044272296639	2.315972	1.5218319
20.82224710549913	2.2840247	1.511299
20.84006749050237	2.281132	1.5103416
20.857888385148268	3.8157609	1.9533973
20.8757097899116	45.892334	6.7743883
20.893531705267254	64.76678	8.047781
20.911354131690224	83.80995	9.154778
20.92917706965566	69.07334	8.311037
20.94700051963877	50.106632	7.0786037
20.96482448211493	29.328833	5.4156103
20.982648957559622	4.0784836	2.0195255
21.00047394644843	2.1985042	1.4827354
21.01829944925707	2.236339	1.4954394
21.036125466461375	2.199797	1.4831712
21.053951998537297	2.2042513	1.4846721
21.071779045960906	2.1802619	1.476571
21.089606609208378	2.1896405	1.4797434
21.10743468875603	2.1870937	1.4788826
21.12526328508028	2.2040064	1.4845897
21.143092398657675	2.1879728	1.4791797
21.16092202996488	2.1473978	1.4654002
21.17875217947867	2.1094794	1.4524047
21.19658284767596	2.1313643	1.4599193
21.21441403503377	2.1417928	1.4634866
21.232245742029225	2.1477773	1.4655297
21.2500779691396	2.1591525	1.4694055
21.26791071684227	2.1710818	1.4734591
21.28574398561475	2.1655202	1.4715706
21.30357777593465	2.1491761	1.4660069
21.321412088279704	2.1424167	1.4636997
21.339246923127792	2.1293294	1.4592222
21.357082280956888	2.0856574	1.4441805
21.3749181622451	2.0734224	1.4399383
21.392754567470647	2.0825746	1.4431129
21.41059149711187	2.0960424	1.4477715
21.42842895164726	2.0578346	1.4345155
21.446266931555378	2.0731423	1.439841
21.464105437314945	2.0961316	1.4478023
21.481944469404798	2.0843413	1.4437248
21.49978402830388	2.050702	1.4320272
21.51762411449127	2.0611274	1.4356627
21.53546472844617	2.0613263	1.435732
21.553305870647876	2.0791678	1.441932
21.571147541575865	2.084242	1.4436904
21.58898974170967	2.0528548	1.4327787
21.60683247152899	2.030615	1.4249965
21.62467573151363	2.0098643	1.4176968
21.642519522143523	2.0211694	1.4216784
21.660363843898722	2.026725	1.423631
21.6782086972594	2.0298214	1.424718
21.696054082705864	2.0290773	1.4244568
21.713900000718535	2.030305	1.4248877
21.73174645177795	2.0247936	1.4229524
21.749593436364794	2.0195844	1.4211209
21.767440954959845	2.007	1.4166863
21.785289008044032	2.000258	1.4143047
21.803137596098388	2.0025666	1.4151207
21.820986719604086	2.03378	1.4261066
21.838836379042412	2.0232596	1.4224133
21.85668657489478	1.9956052	1.4126589
21.87453730764273	1.9639578	1.4014127
21.892388577767914	1.9399992	1.3928386
21.91024038575213	1.9276232	1.3883886
21.928092732077285	1.9241229	1.3871276
21.945945617225426	1.9742506	1.4050803
21.963799041678694	1.9776201	1.4062788
21.981653005919398	31.273726	5.592292
21.999507510429943	78.057335	8.835006
22.01736255569286	72.99827	8.543902
22.035218142190818	4.10759	2.026719
22.05307427040661	1.9438976	1.3942373
22.07093094082315	1.9705391	1.4037589
22.088788153923474	1.9555967	1.3984265
22.106645910190746	1.9530451	1.3975139
22.12450421010827	1.9499286	1.3963984
22.142363054159464	1.9288344	1.3888248
22.16022244282787	1.9006666	1.3786466
22.178082376597164	1.9493698	1.3961984
22.195942855951145	1.957761	1.3992002
22.213803881373742	1.9443537	1.3944008
22.231665453349002	1.9451163	1.3946743
22.24952757236111	1.9543399	1.3979771
22.26739023889438	1.9430697	1.3939403
22.28525345343323	1.9307201	1.3895036
22.30311721646225	1.9315044	1.3897858
22.320981528466113	1.9334311	1.3904787
22.33884638992964	1.9293172	1.3889986
22.356711801337788	1.9162948	1.384303
22.37457776317561	1.9180791	1.3849473
22.392444275928337	1.8942335	1.3763115
22.410311340081282	1.912907	1.3830788
22.428178956119904	1.9378757	1.392076
22.446047124529805	1.9461807	1.3950558
22.46391584579669	1.9356297	1.3912691
22.481785120406414	1.8993276	1.378161
22.49965494884496	1.875691	1.3695587
22.51752533159841	1.8714385	1.3680053
22.53539626915302	1.8847021	1.3728446
22.553267761995137	1.9117436	1.3826581
22.571139810611264	1.946311	1.3951025
22.589012415488025	1.9574076	1.3990738
22.60688557711216	1.9179993	1.3849185
22.624759295970566	1.8967105	1.3772111
22.642633572550263	1.8788674	1.3707179
22.660508407338362	1.9007589	1.3786801
22.67838380082217	1.9001597	1.3784628
22.696259753489077	1.9245574	1.3872842
22.714136265826614	1.9055699	1.3804238
22.73201333832246	1.9202496	1.3857307
22.74989097146439	1.9211997	1.3860735
22.76776916574035	1.9192692	1.3853769
22.785647921638393	1.8947135	1.376486
22.803527239646712	1.886329	1.3734369
22.82140712025363	1.9039162	1.3798248
22.839287563947593	1.913581	1.3833225
22.85716857121719	1.910775	1.3823079
22.875050142551135	1.8606833	1.3640686
22.892932278438277	1.8719448	1.3681903
22.910814979367604	1.9066331	1.3808088
22.928698245828222	1.9094614	1.3818326
22.946582078309387	1.879147	1.3708198
22.96446647730047	1.8716216	1.3680723
22.98235144329098	1.8878502	1.3739907
23.000236976770562	1.8576097	1.3629416
23.018123078229	1.874665	1.369184
23.03600974815619	1.8644041	1.3654318
23.053896987042194	1.874824	1.3692422
23.071784795377173	1.8384645	1.3558999
23.08967317365145	1.8837364	1.3724928
23.10756212235546	1.9000075	1.3784076
23.125451641979787	1.8925116	1.3756858
23.143341733015134	1.8563454	1.3624777
23.161232395952357	1.8530935	1.3612838
23.179123631282426	1.878805	1.3706951
23.197015439496468	1.8898077	1.3747028
23.214907821085717	1.90799	1.3813001
23.23280077654157	1.9308805	1.3895613
23.250694306355538	1.9134414	1.383272
23.268588411019277	1.9133441	1.3832369
23.28648309102458	1.9578412	1.3992288
23.304378346863356	1.9503435	1.396547
23.322274179027676	1.9300729	1.3892707
23.340170588009723	1.8859541	1.3733004
23.358067574301852	1.9083786	1.3814408
23.37596513839651	1.8980755	1.3777066
23.39386328078629	1.9258255	1.3877411
23.411762001963947	1.9460096	1.3949945
23.429661302422353	1.9576664	1.3991663
23.4475611826545	1.9296788	1.3891288
23.46546164315356	1.8971527	1.3773717
23.48336268441279	1.8608181	1.3641181
23.501264306925638	1.8163943	1.3477367
23.51916651118564	1.8156685	1.3474674
23.537069297686497	1.8702198	1.3675598
23.554972666922037	1.9100897	1.3820599
23.57287661938623	1.8770449	1.3700529
23.59078115557318	1.8713574	1.3679757
23.608686275977128	1.863556	1.3651212
23.62659198109246	1.8814572	1.3716623
23.6444982714137	1.8363686	1.3551267
23.66240514743549	1.8298856	1.3527327
23.68031260965263	1.8310442	1.3531609
23.698220658560068	1.8816453	1.3717308
23.716129294652845	1.8722554	1.3683039
23.7340385184262	1.8898709	1.3747257
23.75194833037546	1.879122	1.3708107
23.769858730996123	1.8843923	1.3727317
23.78776972078382	1.8971431	1.3773682
23.80568130023431	1.8619069	1.3645171
23.823593469843495	1.8513702	1.3606507
23.841506230107424	1.8450109	1.3583118
23.859419581522275	1.8591032	1.3634894
23.87733352458438	1.8465791	1.3588889
23.89524805979019	1.8463309	1.3587976
23.913163187636318	1.833826	1.3541883
23.931078908619508	1.8661885	1.366085
23.948995223236633	1.9453068	1.3947426
23.966912131984735	1.9737946	1.404918
23.98482963536096	1.9913208	1.4111416
24.002747733862616	1.9724889	1.4044533
24.020666427987155	1.9697452	1.4034761
24.038585718232156	1.9857147	1.4091539
24.056505605095353	2.0098608	1.4176955
24.074426089074617	2.0323188	1.4255942
24.092347170667946	2.0085516	1.4172338
24.110268850373515	1.9931442	1.4117876
24.128191128689586	2.0040507	1.415645
24.146114006114626	2.0165148	1.4200404
24.164037483147187	2.035264	1.4266268
24.181961560286005	2.0363207	1.4269971
24.199886238029926	2.0299258	1.4247546
24.21781151687797	1.9833014	1.4082973
24.235737397329274	1.9792843	1.4068704
24.253663879883135	1.9669567	1.4024824
24.271590965038975	1.9706851	1.403811
24.289518653296376	1.9661537	1.402196
24.30744694515505	1.9748902	1.4053079
24.32537584111486	2.001385	1.4147031
24.34330534167581	2.0027456	1.4151839
24.361235447338046	2.0047681	1.4158983
24.379166158601876	1.9862435	1.4093415
24.39709747596772	1.9715414	1.4041159
24.41502939993615	1.9552727	1.3983107
24.432961931007917	1.9652779	1.4018837
24.450895069683856	1.9461805	1.3950558
24.468828816465	1.9034438	1.3796535
24.4867631718525	1.8912852	1.3752401
24.504698136347656	1.9158379	1.384138
24.52263371045192	1.956113	1.3986111
24.540569894666874	1.9485394	1.395901
24.558506689494266	1.9313434	1.3897278
24.57644409543597	1.8825116	1.3720465
24.594382112994012	1.8668607	1.3663311
24.61232074267057	1.8299612	1.3527606
24.630259984967953	1.8431883	1.3576407
24.64819984038863	1.8848792	1.3729091
24.66614030943522	1.9126307	1.3829789
24.684081392610462	1.9211947	1.3860717
24.702023090417274	1.9202555	1.3857329
24.7199654033587	1.9412247	1.3932784
24.737908331937927	1.9893205	1.4104327
24.755851876658305	1.9952389	1.4125292
24.773796038023324	1.9711331	1.4039705
24.79174081653661	1.9641664	1.4014872
24.809686212701962	1.9884256	1.4101155
24.827632227023294	1.9864441	1.4094127
24.8455788600047	1.9944052	1.4122341
24.8635261121504	2.0197086	1.4211645
24.88147398396475	2.0805624	1.4424155
24.899422475952303	2.1150112	1.4543078
24.917371588617698	2.1129942	1.4536142
24.935321322465768	2.1357949	1.4614359
24.953271678001478	2.19482	1.4814925
24.97122265572994	2.4629188	1.569369
24.989174256156414	2.782811	1.6681759
25.00712647978632	3.2456136	1.8015586
25.02507932712521	3.716192	1.9277427
25.043032798678798	4.20826	2.0514045
25.060986894952933	4.7686386	2.1837213
25.078941616453637	5.4249463	2.3291514
25.096896963687055	6.246459	2.4992917
25.114852937159508	7.3052797	2.7028282
25.132809537377444	7.8042097	2.7936015
25.150766764847468	7.8645525	2.804381
25.168724620076347	7.27905	2.6979713
25.186683103570985	6.3277307	2.5154982
25.204642215838426	5.317761	2.3060272
25.222601957385894	4.1096296	2.0272222
25.24056232872074	3.1864686	1.7850683
25.25852333035048	2.6429296	1.6257089
25.276484962782778	2.2559738	1.50199
25.294447226525435	2.1483855	1.4657372
25.312410122086423	2.0808146	1.4425029
25.330373649973843	2.0200496	1.4212844
25.348337810695988	1.9550023	1.398214
25.366302604761245	1.9521657	1.3971993
25.384268032678207	1.9666628	1.4023775
25.40223409495558	1.996436	1.4129529
25.420200792102257	1.9408221	1.3931339
25.438168124627246	1.8668171	1.3663151
25.45613609303974	1.811015	1.3457396
25.474104697849057	1.8233829	1.3503269
25.492073939564698	1.8459498	1.3586574
25.510043818696285	1.907267	1.3810384
25.528014335753614	1.8878119	1.3739767
25.54598549124664	1.8331639	1.3539438
25.56395728568544	1.7846327	1.3359015
25.58192971958028	1.7955511	1.3399818
25.59990279344156	1.7877856	1.3370811
25.617876507779833	1.8439906	1.3579361
25.635850863105826	1.893886	1.3761853
25.653825859930386	1.9163474	1.384322
25.671801498764548	1.9135455	1.3833096
25.68977778011949	1.8650051	1.365652
25.707754704506524	1.8517932	1.3608061
25.725732272437153	1.8100951	1.3453977
25.743710484423012	1.7745496	1.3321222
25.761689340975888	1.7745376	1.3321177
25.77966884260774	1.8223789	1.3499551
25.797648989830662	1.8244404	1.3507185
25.815629783156922	1.8177671	1.348246
25.83361122309895	1.8103869	1.3455062
25.85159331016929	1.8332583	1.3539786
25.869576044880695	1.863102	1.364955
25.887559427746034	1.8189675	1.348691
25.90554345927836	1.7770548	1.3330622
25.92352813999086	1.7920724	1.3386831
25.94151347039689	1.78763	1.3370228
25.959499451009965	1.7975657	1.3407333
25.97748608234374	1.79491	1.3397425
25.995473364912062	1.7990018	1.3412688
26.013461299228904	1.8320342	1.3535266
26.03144988580839	1.8035241	1.3429536
26.04943912516483	1.8064321	1.3440357
26.067429017812675	1.8508683	1.3604662
26.085419564266537	1.867067	1.3664066
26.103410765041186	1.82524	1.3510145
26.12140262065155	1.8083841	1.3447617
26.139395131612723	1.7854819	1.3362193
26.157388298439948	1.7681705	1.3297257
26.17538212164861	1.7599322	1.3266244
26.193376601754295	1.8160242	1.3475994
26.211371739272714	1.8455387	1.3585061
26.229367534719746	1.8035538	1.3429645
26.247363988611433	1.7690494	1.3300562
26.26536110146397	1.7499192	1.3228451
26.283358873793727	1.8055844	1.3437203
26.301357306117204	1.8319166	1.3534831
26.319356398951104	1.8282144	1.3521148
26.33735615281224	1.7824888	1.3350989
26.35535656821762	1.7742834	1.3320223
26.373357645684404	1.7569366	1.3254949
26.39135938572991	1.7608527	1.3269713
26.409361788871614	1.7962714	1.3402505
26.427364855627165	1.7833565	1.3354237
26.445368586514352	1.781062	1.3345643
26.46337298205115	1.7835523	1.335497
26.48137804275568	1.7628031	1.327706
26.499383769146217	1.7434667	1.320404
26.517390161741215	1.7235825	1.3128529
26.53539722105928	1.7535586	1.3242201
26.553404947619182	1.7660234	1.3289181
26.571413341939856	1.7706734	1.3306665
26.589422404540397	1.7831689	1.3353535
26.60743213594006	1.8047317	1.343403
26.62544253665827	1.8150953	1.3472548
26.64345360721459	1.7938788	1.3393576
26.66146534812879	1.7692889	1.3301462
26.679477759920758	1.7597196	1.3265443
26.69749084311057	1.7676837	1.3295426
26.71550459821847	1.7679343	1.3296369
26.733519025764842	1.7636551	1.3280268
26.751534126270258	1.7821972	1.3349895
26.769549900255434	1.77335	1.3316718
26.787566348241267	1.8149198	1.3471895
26.80558347074881	1.8357867	1.354912
26.823601268299267	1.7976236	1.3407549
26.841619741414036	1.7839425	1.335643
26.85963889061465	1.8066293	1.344109
26.877658716422832	1.7945449	1.3396063
26.89567921936045	1.7719032	1.3311285
26.913700399949544	1.7960744	1.340177
26.93172225871233	1.8274003	1.3518137
26.949744796171174	1.8213055	1.3495575
26.967768012848605	1.7589	1.3262353
26.98579190926733	1.6911911	1.3004581
27.003816485950225	1.6994703	1.3036374
27.021841743420318	1.7607268	1.3269238
27.039867682200814	1.7706857	1.3306712
27.057894302815072	1.7890359	1.3375485
27.07592160578664	1.8118021	1.346032
27.0939495916392	1.8258404	1.3512366
27.111978260896635	1.7767606	1.3329518
27.13000761408296	1.7443395	1.3207345
27.148037651722397	1.7443666	1.3207448
27.166068374339304	1.7833602	1.3354251
27.184099782458215	1.7956523	1.3400195
27.20213187660384	1.8041284	1.3431785
27.22016465730105	1.7646244	1.3283917
27.23819812507487	1.7191705	1.3111714
27.256232280450533	1.7400038	1.319092
27.274267123953383	1.76563	1.3287702
27.292302656108987	1.8135697	1.3466884
27.31033887744306	1.8317723	1.3534298
27.32837578848146	1.786377	1.3365542
27.34641338975026	1.7941147	1.3394457
27.364451681775673	1.8035915	1.3429786
27.382490665084074	1.8070498	1.3442655
27.400530340202046	1.7939008	1.3393658
27.41857070765629	1.792357	1.3387893
27.436611767973726	1.7999958	1.3416392
27.454653521681404	1.8167837	1.3478812
27.472695969306564	1.8025205	1.3425798
27.490739111376627	1.8050349	1.3435159
27.508782948419153	1.8272499	1.3517581
27.526827480961902	1.867226	1.3664647
27.54487270953279	1.8559855	1.3623456
27.562918634659898	1.8177341	1.3482337
27.580965256871508	1.7998673	1.3415914
27.599012576696026	1.823203	1.3502604
27.617060594662068	1.8448532	1.3582537
27.63510931129842	1.824604	1.350779
27.65315872713401	1.7810487	1.3345593
27.67120884269797	1.7507293	1.3231512
27.68925965851958	1.8205439	1.3492754
27.707311175128307	1.8621912	1.3646213
27.725363393053787	1.8842025	1.3726625
27.74341631282583	1.8588108	1.3633821
27.7614699349744	1.8490806	1.359809
27.77952426002968	2.0451746	1.430096
27.797579288521973	2.1176326	1.4552088
27.815635020981784	2.524033	1.5887206
27.83369145793979	2.6440198	1.6260443
27.85174859992682	2.4329178	1.5597813
27.869806447473923	2.2492716	1.4997572
27.887865001112267	1.9169192	1.3845285
27.905924261373233	1.8448716	1.3582605
27.92398422878836	1.838823	1.356032
27.94204490388936	1.8451302	1.3583556
27.96010628720813	1.8477848	1.3593324
27.978168379276728	1.8606417	1.3640534
27.9962311806274	1.8216814	1.3496968
28.014294691792568	1.8339652	1.3542397
28.0323589133048	1.8015257	1.3422092
28.050423845696887	1.7938513	1.3393474
28.068489489501758	1.8038647	1.3430803
28.086555845252523	1.8341035	1.3542907
28.104622913482487	1.8354204	1.3547769
28.122690694725115	1.8489808	1.3597723
28.14075918951405	1.8715206	1.3680353
28.15882839838312	1.8505548	1.360351
28.176898321866304	1.8122778	1.3462087
28.1949689604978	1.7867346	1.3366879
28.213040314811945	1.805442	1.3436674
28.23111238534327	1.8413286	1.3569556
28.249185172626493	1.8222872	1.3499212
28.267258677196473	1.8633542	1.3650473
28.285332899588294	1.9549174	1.3981836
28.303407840337172	1.934707	1.3909374
28.321483499978545	1.8827995	1.3721514
28.33955987904799	1.8925529	1.3757008
28.357636978081285	1.8574758	1.3628924
28.37571479761439	1.8076167	1.3444763
28.393793338183425	1.8186457	1.3485718
28.41187260032469	1.8785243	1.3705927
28.429952584574686	1.8823339	1.3719817
28.448033291470065	1.8906854	1.3750219
28.46611472154769	1.9146099	1.3836943
28.484196875344566	1.9443651	1.3944049
28.502279753397914	1.9357888	1.3913263
28.52036335624511	1.9250438	1.3874595
28.538447684423716	1.9092015	1.3817385
28.556532738471482	1.9022839	1.3792331
28.574618518926325	1.95643	1.3987244
28.59270502632635	1.9975874	1.4133604
28.61079226120985	1.9873424	1.4097313
28.628880224115274	2.0137012	1.4190494
28.646968915581287	2.0493178	1.4315438
28.66505833614671	2.0531352	1.4328766
28.68314848635055	2.0781395	1.4415754
28.701239366732004	2.0192459	1.4210017
28.71933097783044	2.0289996	1.4244295
28.737423320185403	2.02129	1.4217209
28.75551639433665	2.0234141	1.4224676
28.773610200824074	2.0426743	1.4292216
28.791704740187793	2.0655825	1.4372134
28.80980001296809	2.090071	1.4457078
28.827896019705413	2.0649347	1.4369881
28.845992760940433	2.1041925	1.4505835
28.86409023721397	2.1691716	1.4728107
28.88218844906704	2.2009606	1.4835635
28.900287397040845	2.1471844	1.4653274
28.918387081676755	2.0706894	1.438989
28.936487503516343	2.1368551	1.4617985
28.954588663101365	2.2589152	1.5029688
28.97269056097374	2.287279	1.5123752
28.990793197675597	2.279616	1.5098398
29.00889657374923	2.2880595	1.5126333
29.027000689737125	2.2859802	1.5119458
29.04510554618196	2.32546	1.5249459
29.06321114362659	2.3846095	1.5442181
29.08131748261405	2.397422	1.5483611
29.099424563687567	2.3722441	1.5402092
29.11753238739057	2.4818113	1.5753765
29.13564095426663	2.5437424	1.5949115
29.15375026485954	2.4978673	1.5804642
29.171860319713275	2.4691436	1.5713509
29.18997111937199	2.5472367	1.5960065
29.20808266438002	2.6172101	1.6177794
29.226194955281898	2.6633565	1.6319793
29.244307992622335	2.7584014	1.6608436
29.26242177694624	2.7847967	1.668771
29.2805363087987	2.8145902	1.677674
29.29865158872498	2.872655	1.6948909
29.316767617270557	2.8970456	1.702071
29.334884394981064	2.9055307	1.7045617
29.353001922402367	2.9703085	1.7234583
29.37112020008047	3.0137916	1.7360275
29.389239228561596	3.1380017	1.7714406
29.407359008392152	3.3025372	1.8172884
29.42547954011872	3.6686962	1.915384
29.44360082428809	4.3204484	2.078569
29.46172286144722	5.3658276	2.3164256
29.479845652143283	6.781028	2.6040406
29.497969196923606	8.687626	2.9474778
29.516093496335728	11.082657	3.3290625
29.5342185509274	13.526008	3.677772
29.55234436124651	15.492169	3.9360094
29.570470927841175	16.783861	4.0968113
29.588598251259686	16.500748	4.0621114
29.60672633205055	15.1054535	3.8865736
29.624855170762405	13.038656	3.610908
29.642984767944146	10.603154	3.2562485
29.66111512414481	8.280688	2.8776186
29.67924623991366	6.294773	2.5089386
29.697378115800138	4.9305215	2.2204778
29.71551075235387	4.094878	2.0235806
29.733644150124675	3.725163	1.9300681
29.751778309662576	3.4543521	1.8585887
29.769913231517766	3.3210156	1.8223654
29.78804891624066	3.310926	1.819595
29.806185364381818	3.274475	1.8095511
29.82432257649206	3.1902575	1.7861292
29.842460553122333	3.1796577	1.7831595
29.86059929482382	3.24591	1.8016409
29.878738802147872	3.297457	1.8158902
29.896879075646048	3.3020794	1.8171625
29.915020115870114	3.2800112	1.8110801
29.933161923371976	3.2397857	1.7999405
29.951304498703777	3.1646676	1.7789513
29.969447842417857	3.1899545	1.7860444
29.987591955066733	3.2463462	1.801762
30.005736837203123	3.2181053	1.7939079
30.023882489379943	3.1986084	1.7884654
30.04202891215028	3.1472106	1.774038
30.060176106067455	3.1678042	1.7798326
30.078324071684946	3.2124557	1.7923325
30.09647280955646	3.2016208	1.7893074
30.114622320235863	3.1638193	1.7787129
30.132772604277257	3.1037366	1.7617425
30.1509236622349	3.0942295	1.7590421
30.16907549466328	3.16963	1.7803454
30.18722810211705	3.0949028	1.7592336
30.205381485151097	3.0289085	1.740376
30.22353564432045	3.0412252	1.7439109
30.241690580180403	3.0442283	1.7447717
30.25984629328638	2.9983492	1.7315742
30.278002784194037	2.940007	1.7146449
30.296160053459246	2.8718505	1.6946535
30.314318101638033	2.9250388	1.7102745
30.332476929286646	2.9669714	1.7224898
30.35063653696153	2.9351273	1.7132213
30.368796925219307	2.916825	1.7078716
30.386958094616844	2.916474	1.7077688
30.40512004571115	2.916119	1.7076648
30.423282779059463	2.8769605	1.6961606
30.441446295219233	2.8673244	1.6933175
30.459610594748067	2.868026	1.6935247
30.47777567820382	2.8562891	1.690056
30.495941546144504	2.7851338	1.668872
30.51410819912835	2.7556775	1.6600233
30.532275637713795	2.796819	1.6723692
30.55044386245946	2.8110528	1.6766194
30.56861287392416	2.7672694	1.6635112
30.586782672666956	2.7552922	1.6599072
30.604953259247047	2.7555995	1.6599998
30.623124634223885	2.762769	1.6621579
30.641296798157075	2.7700555	1.6643484
30.659469751606462	2.8248508	1.6807293
30.677643495132074	2.796227	1.6721922
30.695818029294152	2.710356	1.6463159
30.713993354653116	2.7209601	1.6495333
30.73216947176962	2.751618	1.6588001
30.75034638120448	2.7614098	1.661749
30.768524083518756	2.7869887	1.6694276
30.786702579273673	2.765788	1.6630659
30.80488186903069	2.6955526	1.6418138
30.82306195335144	2.7891228	1.6700667
30.841242832797782	3.0362887	1.742495
30.85942450793176	3.3125327	1.8200364
30.877606979315637	3.5785763	1.8917125
30.895790247511883	3.8495932	1.962038
30.913974313083134	4.21754	2.053665
30.932159176592283	4.538078	2.1302764
30.95034483860237	4.6523128	2.156922
30.968531299676698	4.582697	2.1407235
30.98671856037873	4.241167	2.0594094
31.00490662127215	3.9168766	1.97911
31.023095482920848	3.4894414	1.8680047
31.04128514588892	2.9714303	1.7237837
31.059475610740662	2.614798	1.6170337
31.07766687804056	2.49336	1.5790377
31.09585894835335	2.4517395	1.5658032
31.11405182224393	2.4835606	1.5759317
31.132245500277417	2.462307	1.5691739
31.15043998301914	2.4397972	1.561985
31.168635271034628	2.3951807	1.5476371
31.18683136488964	2.3915446	1.5464619
31.20502826515008	2.4222906	1.556371
31.223225972382135	2.3927476	1.5468509
31.241424487152155	2.358372	1.5356991
31.259623810026692	2.3519087	1.5335934
31.27782394157253	2.3204153	1.5232909
31.296024882356644	2.2705026	1.5068187
31.314226632946237	2.2410743	1.4970218
31.332429193908684	2.2495596	1.4998533
31.350632565811598	2.3101664	1.5199231
31.368836749222787	2.3949153	1.5475514
31.387041744710295	2.4437025	1.5632346
31.40524755284232	2.541786	1.594298
31.423454174187317	2.6048524	1.6139555
31.441661609313922	2.5747414	1.6046001
31.459869858791002	2.4402983	1.5621455
31.478078923187628	2.3188467	1.522776
31.496288803073064	2.2827325	1.5108714
31.514499499016807	2.327818	1.5257188
31.532711011588546	2.2527702	1.5009232
31.550923341358178	2.2220807	1.4906645
31.56913648889584	2.2382362	1.4960736
31.587350454771844	2.2864997	1.5121176
31.605565239556732	2.306598	1.5187488
31.62378084382127	2.3321626	1.5271419
31.641997268136382	2.3799007	1.5426927
31.660214513073274	2.2740862	1.5080074
31.67843257920331	2.1556096	1.4681995
31.6966514670981	2.2038372	1.4845326
31.71487117732944	2.2524824	1.5008272
31.733091710469346	2.2266922	1.4922105
31.751313067090052	2.2036996	1.4844863
31.769535247764008	2.2836156	1.5111637
31.787758253063878	2.287503	1.5124494
31.805982083562526	2.2261186	1.4920183
31.824206739833024	2.132296	1.4602383
31.84243222244869	2.1297371	1.4593619
31.860658531983013	2.1939452	1.4811972
31.878885669009737	2.2437327	1.4979094
31.897113634102784	2.207483	1.4857601
31.91534242783632	2.208372	1.4860593
31.933572050784694	2.202897	1.484216
31.951802503522508	2.1696875	1.4729859
31.970033786624548	2.114953	1.4542878
31.988265900665834	2.1279304	1.4587427
32.006498846221575	2.1698704	1.473048
32.02473262386724	2.2150815	1.488315
32.04296723417845	2.2110324	1.4869541
32.0612026777311	2.196934	1.4822057
32.07943895510129	2.1072843	1.4516488
32.097676066865304	2.0941746	1.4471264
32.115914013599685	2.122174	1.4567684
32.13415279588115	2.149382	1.4660771
32.152392414286666	2.2204545	1.490119
32.1706328693934	2.1919582	1.4805263
32.18887416177875	2.0842206	1.443683
32.20711629202032	2.1160147	1.4546528
32.225359260695924	2.1972935	1.4823271
32.243603068383614	2.1145194	1.4541388
32.26184771566166	2.031304	1.4252381
32.28009320310852	1.9569862	1.3989233
32.2983395313029	1.9743655	1.4051212
32.31658670082372	1.9906477	1.4109031
32.33483471225012	2.0171003	1.4202466
32.35308356616143	2.0352333	1.4266161
32.371333263137245	2.0841322	1.4436524
32.38958380375734	2.085266	1.4440451
32.407835188601744	2.1137536	1.4538753
32.42608741825067	2.1248794	1.4576966
32.444340493284585	2.1075084	1.451726
32.46259441428416	2.1234891	1.4572197
32.48084918183028	2.0613377	1.435736
32.49910479650405	1.9953144	1.4125559
32.51736125888683	2.0635102	1.4364923
32.53561856956014	2.0930133	1.446725
32.5538767291058	2.0962462	1.4478419
32.572135738105764	2.1112344	1.4530088
32.59039559714228	2.0946772	1.4473
32.608656306797776	2.1051505	1.4509137
32.62691786765491	2.1002893	1.4492375
32.645180280296586	2.0786312	1.4417459
32.663443545305896	2.0045474	1.4158204
32.68170766326619	2.0355814	1.426738
32.69997263476099	2.0316482	1.425359
32.7182384603741	2.0521543	1.4325342
32.7365051406895	1.9843646	1.4086748
32.75477267629144	1.8783181	1.3705175
32.77304106776434	1.878135	1.3704506
32.79131031569289	1.937365	1.3918927
32.809580420661966	1.9626492	1.4009458
32.827851383256714	1.9344313	1.3908384
32.84612320406245	1.9529909	1.3974946
32.86439588366476	1.9590741	1.3996693
32.88266942264945	1.9934341	1.4118903
32.9009438216025	1.9378941	1.3920827
32.9192190811102	1.8324531	1.3536813
32.937495201758985	1.8511735	1.3605784
32.95577218413556	1.9371532	1.3918165
32.974050028826866	1.9494553	1.3962289
32.992328736420035	1.9001325	1.3784529
33.010608307502444	1.8530838	1.3612802
33.02888874266169	1.8650086	1.3656532
33.047170042485604	1.920096	1.3856753
33.06545220756225	1.9992541	1.4139498
33.083735238479896	1.9272723	1.3882624
33.10201913582707	1.873807	1.3688707
33.12030390019248	1.9320514	1.3899826
33.138589532165135	1.926585	1.3880148
33.15687603233419	1.917438	1.3847159
33.17516340128909	1.9865015	1.409433
33.19345163961947	2.008967	1.4173803
33.211740747915215	2.073245	1.4398768
33.23003072676643	1.9808563	1.407429
33.248321576763466	1.800995	1.3420116
33.266613298496885	1.7918383	1.3385956
33.28490589255747	1.8380358	1.3557417
33.30319935953626	1.8615477	1.3643855
33.32149370002451	1.8525414	1.361081
33.339788914613706	1.875753	1.3695813
33.358085003895575	1.9392556	1.3925716
33.376381968462034	1.9326419	1.3901949
33.39467980890529	1.925949	1.3877857
33.41297852581774	1.8959033	1.3769181
33.43127811979204	1.8874906	1.3738598
33.44957859142105	1.9299519	1.389227
33.467879941297866	1.8490292	1.3597901
33.486182170015844	1.8000231	1.3416494
33.50448527816853	1.8022535	1.3424803
33.522789266349754	1.8232954	1.3502946
33.541094135153514	1.7791977	1.3338656
33.55939988517411	1.8533243	1.3613685
33.57770651700602	1.948817	1.3960004
33.59601403124398	1.8910725	1.3751627
33.61432242848296	1.9236106	1.3869429
33.632631709318154	1.8374758	1.3555353
33.650941874344994	1.7435006	1.3204168
33.66925292415916	1.7397685	1.3190029
33.68756485935654	1.817187	1.3480308
33.70587768053328	1.7915813	1.3384997
33.724191388285746	1.8535092	1.3614365
33.74250598321054	1.867505	1.3665669
33.760821465904506	1.8505231	1.3603393
33.77913783696474	1.730785	1.315593
33.79745509698852	1.8056111	1.3437303
33.815773246573414	1.9385098	1.3923038
33.8340922863172	1.9565619	1.3987715
33.852412216817896	1.9964904	1.4129722
33.87073303867377	1.9198995	1.3856044
33.889054752483304	1.8989862	1.3780371
33.907377358845245	1.8790663	1.3707904
33.92570085835853	1.8573238	1.3628367
33.94402525162239	1.7942451	1.3394943
33.96235053923627	1.7744553	1.3320868
33.980676721799824	1.7496389	1.3227391
33.999003799912984	1.8585515	1.363287
34.01733177417592	1.9798285	1.4070637
34.03566064518901	2.0829806	1.4432535
34.0539904135529	2.085557	1.4441458
34.07232107986846	2.1503046	1.4663917
34.090652644736785	2.1323318	1.4602506
34.108985108759235	2.1349351	1.4611417
34.12731847253742	2.0141685	1.419214
34.14565273667313	1.9796085	1.4069856
34.16398790176847	1.9321703	1.3900253
34.18232396842574	1.8104374	1.345525
34.20066093724749	1.7036109	1.3052244
34.21899880883651	1.8021227	1.3424317
34.23733758379583	1.8719833	1.3682044
34.25567726272874	1.8611822	1.3642515
34.27401784623872	1.84552	1.3584992
34.29235933492957	1.9000434	1.3784206
34.31070172940526	1.9954969	1.4126205
34.32904503027003	2.0319746	1.4254735
34.347389238128386	2.0223987	1.4221107
34.36573435358502	1.9389712	1.3924694
34.38408037724492	1.949844	1.3963681
34.402427309713296	1.9314228	1.3897564
34.42077515159559	1.8461868	1.3587445
34.43912390349752	1.819242	1.3487928
34.45747356602499	1.7994379	1.3414313
34.47582413978423	1.7778122	1.3333462
34.49417562538163	1.8673263	1.3665015
34.51252802342388	2.0624142	1.4361107
34.53088133451789	2.1826384	1.4773755
34.54923555927084	2.006896	1.4166496
34.567590698290104	1.7542493	1.3244808
34.58594675218336	1.8208196	1.3493775
34.6043037215585	1.892423	1.3756536
34.62266160702365	1.9255317	1.3876354
34.641020409187234	1.8558478	1.362295
34.65938012865785	1.7072221	1.3066071
34.677740766044394	1.7478516	1.3220634
34.69610232195598	2.146681	1.4651556
34.714464797002016	2.3322732	1.5271782
34.73282819179208	2.1849952	1.4781729
34.751192506936064	2.0403697	1.4284151
34.76955774304408	1.9948528	1.4123926
34.7879239007265	1.9326738	1.3902063
34.80629098059391	1.836188	1.3550601
34.824658983257194	1.8260695	1.3513213
34.843027909327446	1.9135967	1.3833282
34.86139775941603	2.0564084	1.4340183
34.879768534134534	2.026441	1.4235312
34.89814023409483	2.047833	1.4310251
34.91651285990901	1.9937384	1.411998
34.93488641218944	1.9465768	1.3951977
34.95326089154871	2.0054436	1.4161369
34.97163629859967	1.9656247	1.4020073
34.99001263395542	1.9256898	1.3876922
35.00838989822934	1.8016618	1.34226
35.02676809203499	1.8003578	1.3417741
35.04514721598624	1.642712	1.2816833
35.063527270697215	1.6981034	1.303113
35.081908256782256	1.9310595	1.3896257
35.10029017485597	2.1667528	1.4719894
35.11867302553321	2.2478626	1.4992874
35.137056809429104	2.29888	1.5162058
35.155441527159006	2.196154	1.4819427
35.173827179338524	2.1277921	1.4586953
35.19221376658354	1.9487933	1.3959919
35.21060128951017	1.8423487	1.3573315
35.2289897487348	1.8417785	1.3571215
35.24737914487405	2.080784	1.4424924
35.26576947854479	2.165522	1.4715713
35.28416075036418	2.0661976	1.4374274
35.30255296094958	1.9636974	1.4013199
35.32094611091867	1.9669133	1.4024669
35.33934020088932	1.9879766	1.4099562
35.35773523147969	2.35098	1.5332906
35.3761312033082	2.3612106	1.5366231
35.394528116993506	1.6153618	1.2709688
35.41292597315452	1.3937564	1.1805747
35.431324772410434	1.6829504	1.2972858
35.449724515380666	1.8379602	1.355714
35.46812520268491	2.1550457	1.4680074
35.486526834943106	2.1332364	1.4605603
35.504929412775454	1.9345382	1.3908768
35.52333293680242	1.8262028	1.3513707
35.54173740764471	1.7357036	1.317461
35.560142825923286	2.1051126	1.4509006
35.5785491922594	1.949643	1.3962961
35.59695650727454	1.1161778	1.0564932
35.61536477159042	1.5606846	1.2492737
