0.008763373481513119	0.0	0.0
0.026290120649546365	0.0	0.0
0.043816868432600686	0.0	0.0
0.06134361724069026	0.08848978	0.29747233
0.07887036748382949	0.1929555	0.439267
0.0963971195720331	0.31159884	0.5582104
0.11392387391531617	0.28387272	0.5327971
0.1314506309236943	0.23357418	0.48329514
0.1489773910071836	0.15852332	0.39814988
0.16650415457580078	0.20512731	0.45290983
0.18403092203956356	0.21964888	0.46866712
0.20155769380849	0.17665504	0.4203035
0.2190844702925996	0.15090902	0.3884701
0.2366112519019124	0.09064391	0.3010713
0.2541380390464497	0.0908805	0.30146393
0.27166483213623416	0.07489066	0.27366158
0.28919163158128947	0.07093565	0.26633748
0.3067184377916406	0.16156903	0.4019565
0.324245251177314	0.20882049	0.4569688
0.34177207214833777	0.21925342	0.46824503
0.3592989011147415	0.16876106	0.41080537
0.37682573848655654	0.110455066	0.3323478
0.39435258467381573	0.100031056	0.31627688
0.41187944008655414	0.15063962	0.3881232
0.42940630513480854	0.1662758	0.4077693
0.446933180228618	0.17713399	0.4208729
0.4644600657780234	0.16486213	0.40603217
0.48198696219306775	0.17900725	0.42309248
0.49951386988379676	0.16990685	0.4121976
0.5170407892602581	0.1884081	0.43406004
0.5345677207325025	0.15405011	0.39249218
0.5520946647105822	0.13401836	0.36608517
0.5696216216045534	0.12244814	0.3499259
0.5871485918244737	0.11704114	0.34211275
0.6046755757804043	0.13748091	0.3707842
0.6222025738824094	0.17018737	0.41253772
0.6397295865405557	0.16054535	0.4006811
0.6572566141649129	0.13494557	0.3673494
0.6747836571655547	0.118259884	0.34388936
0.6923107159525568	0.14154233	0.37622112
0.7098377909359992	0.15562946	0.394499
0.7273648825259653	0.16626818	0.40775996
0.7448919911325411	0.16736884	0.4091074
0.762419117165817	0.16054751	0.4006838
0.7799462610358868	0.20474023	0.45248228
0.7974734231528482	0.21805963	0.46696857
0.8150006039268024	0.23923199	0.48911348
0.8325278037678551	0.22519448	0.4745466
0.8500550230861152	0.24569298	0.49567428
0.8675822622916969	0.20743099	0.45544592
0.8851095217947171	0.21466757	0.4633223
0.9026368020052984	0.23439632	0.48414493
0.9201641033335665	0.22523293	0.4745871
0.9376914261896523	0.26046228	0.51035506
0.9552187709836915	0.25727323	0.5072211
0.9727461381258234	0.24461213	0.49458277
0.990273528026193	0.24568559	0.4956668
1.0078009410949496	0.21215624	0.46060422
1.0253283777422473	0.21865532	0.46760595
1.0428558383782454	0.26210883	0.51196563
1.0603833234131086	0.31611523	0.56224126
1.0779108332570058	0.36492217	0.6040879
1.0954383683201119	0.34304732	0.5857024
1.112965929012607	0.36859748	0.6071223
1.1304935157446763	0.4399903	0.6633177
1.1480211289265108	0.47115916	0.68641037
1.1655487689683062	1.2745996	1.1289816
1.1830764362802655	1.5748467	1.254929
1.200604131272596	1.9874231	1.4097599
1.2181318543555117	2.3297176	1.5263412
1.235659605939232	2.3711054	1.5398394
1.253187386433982	3.9245138	1.9810386
1.270715196249994	6.184931	2.486952
1.2882430357975057	11.433163	3.381296
1.3057709054867608	16.285547	4.0355353
1.3232988057280106	22.346045	4.7271605
1.3408267369315112	27.450502	5.2393227
1.358354699507526	30.95491	5.5637136
1.3758826938663256	34.876026	5.905593
1.3934107204181858	36.410847	6.03414
1.410938779573391	36.98337	6.0813956
1.4284668717422309	37.70783	6.14067
1.4459949973350033	37.633804	6.1346397
1.4635231567620117	37.663628	6.13707
1.4810513504335687	36.72035	6.0597315
1.4985795787599925	36.029354	6.0024457
1.5161078421516088	35.765945	5.9804635
1.5336361410187505	35.190434	5.9321527
1.5511644757717598	34.867252	5.90485
1.5686928468209842	35.065517	5.9216146
1.58622125457678	35.747177	5.978894
1.6037496994495108	37.226368	6.1013417
1.621278181849548	37.424995	6.117597
1.6388067021872719	37.984756	6.1631775
1.6563352608730693	37.29493	6.1069574
1.673863858317336	36.337173	6.0280323
1.6913924949304753	35.42202	5.95164
1.7089211711228998	34.648174	5.88627
1.7264498873050296	33.73206	5.807931
1.7439786438872935	33.09236	5.752596
1.7615074412801288	32.26063	5.6798444
1.779036279893981	31.800634	5.639205
1.796565160139305	30.88215	5.557171
1.814094082426564	29.802078	5.459128
1.8316230471662298	28.794725	5.3660717
1.849152054768784	27.655954	5.258893
1.8666811056447168	27.214653	5.2167664
1.8842102002045273	26.882263	5.1848106
1.901739338858724	26.730537	5.1701584
1.9192685220178245	26.367306	5.1349106
1.9367977500923557	25.56245	5.055932
1.9543270234928547	24.766878	4.976633
1.971856342629867	23.987112	4.897664
1.9893857079139496	23.45959	4.84351
2.006915119755667	22.891058	4.78446
2.0244445785655945	22.388567	4.731656
2.0419740847543175	21.87905	4.6775045
2.0595036387324317	21.272358	4.6121964
2.0770332409105414	20.89292	4.5708776
2.094562891699263	20.46722	4.524071
2.1120925915092217	20.062061	4.479069
2.129622340751053	19.682968	4.436549
2.1471521398354043	188.00465	13.711479
2.1646819891729323	444.47845	21.082657
2.182211889174303	440.56152	20.989557
2.1997418402501974	452.9057	21.281582
2.2172718428113023	432.6135	20.799362
2.234801897268317	320.52832	17.903305
2.2523320040319548	17.065456	4.131036
2.269862163512935	16.614807	4.0761266
2.287392376121992	16.24353	4.0303264
2.304922642269869	15.703535	3.9627686
2.322452962367322	15.595885	3.9491627
2.3399833368251164	15.289388	3.9101646
2.357513766054032	15.29225	3.9105306
2.3750442504648586	15.201475	3.898907
2.3925747904683963	14.956291	3.8673365
2.410105386475459	14.731871	3.838212
2.4276360388968707	14.317424	3.783837
2.445166748143469	13.9005995	3.7283509
2.4626975146261025	13.5699625	3.683743
2.4802283387556323	13.356535	3.6546593
2.4977592209429305	13.2805805	3.644253
2.5152901615988825	13.012641	3.6073039
2.5328211611343865	12.898869	3.5914996
2.5503522199603523	12.664835	3.5587687
2.5678833384877024	12.499395	3.5354483
2.5854145171273712	12.368512	3.5168896
2.6029457562903064	12.318856	3.5098228
2.620477056387469	12.170593	3.4886377
2.6380084178298326	12.053351	3.4717937
2.655539841028383	11.686785	3.418594
2.673071326394119	11.488895	3.3895273
2.6906028743380523	11.374502	3.3726106
2.708134485271211	11.236332	3.352064
2.7256661596046325	11.066243	3.3265963
2.743197897749369	10.680273	3.2680688
2.760729700116486	10.5326395	3.2454028
2.778261567117063	10.3274765	3.213639
2.795793499162193	10.287737	3.2074502
2.8133254966629817	10.037091	3.1681368
2.830857560030551	9.780733	3.1274164
2.8483896896760337	9.563021	3.0924134
2.865921886010578	9.36933	3.0609362
2.883454149445347	9.301156	3.0497797
2.9009864803915177	9.4407425	3.0725791
2.91851887926028	9.51036	3.083887
2.9360513464628384	9.478155	3.0786612
2.953583882410413	9.17481	3.028995
2.9711164875142373	8.982526	2.9970863
2.9886491621855606	8.845945	2.9742134
3.0061819068356455	8.724917	2.953797
3.023714721875769	8.638093	2.9390633
3.041247607717225	8.420765	2.9018555
3.0587805647713213	8.193561	2.8624396
3.0763135934493806	8.061678	2.8393095
3.0938466941627407	8.048284	2.8369496
3.1113798673227544	8.0417185	2.8357923
3.1289131133407904	8.059141	2.8388627
3.1464464326282315	7.879887	2.8071136
3.1639798255964786	7.773139	2.788035
3.1815132926569443	7.648334	2.765562
3.1990468342210603	7.5770245	2.7526395
3.216580450700272	7.405066	2.721225
3.2341141425060416	7.2063932	2.6844726
3.251647910049847	7.1424346	2.6725333
3.2691817537431813	7.0954957	2.663737
3.286715673997555	7.0898666	2.6626804
3.3042496712244938	7.137836	2.6716728
3.32178374583554	7.0883164	2.6623893
3.339317898242251	7.0630226	2.6576347
3.3568521288562034	6.98606	2.6431155
3.3743864380889876	6.912891	2.6292377
3.3919208263522127	6.8402925	2.6153953
3.4094552940575023	6.8272285	2.6128967
3.4269898416164972	6.832749	2.6139526
3.444524469440858	6.7146983	2.5912735
3.4620591779422587	6.5099535	2.551461
3.479593967532391	6.331374	2.5162222
3.4971288386229658	6.3195724	2.513876
3.5146637916257086	6.3570395	2.521317
3.5321988269523628	6.3952923	2.5288916
3.5497339450146903	6.3473153	2.519388
3.5672691462244708	6.260063	2.5020118
3.5848044309934988	6.305502	2.5110757
3.60233979973359	6.321285	2.5142164
3.619875252856575	6.359639	2.5218325
3.6374107907743034	6.365591	2.5230124
3.6549464138986427	6.315529	2.5130715
3.6724821226414788	6.30147	2.5102727
3.690017917414714	6.301118	2.5102026
3.7075537986302702	6.2773943	2.505473
3.7250897667000857	6.2877984	2.5075483
3.7426258220361235	6.4126253	2.5323162
3.7601619650503553	6.759956	2.5999916
3.777698196154779	7.269773	2.6962516
3.7952345157614067	8.371554	2.893364
3.8127709242822716	9.237876	3.0393875
3.830307422129425	11.638271	3.4114912
3.847844009714936	30.633974	5.5347967
3.8653806874508954	98.08579	9.903827
3.882917455749409	97.288185	9.863478
3.900454315022606	97.03592	9.850681
3.917991265682631	41.68669	6.456523
3.9355283081416506	11.380373	3.3734808
3.9530654428118495	9.111622	3.0185463
3.970602670105433	7.7770724	2.7887404
3.9881399904346244	6.7350445	2.5951965
4.005677404211669	6.609497	2.5708942
4.023214911848827	6.563686	2.561969
4.0407525137583855	6.546438	2.558601
4.058290210352644	6.4798675	2.5455585
4.075828002043927	6.3544054	2.5207946
4.0933658892445814	6.2509317	2.5001864
4.110903872366966	6.2381687	2.4976325
4.128441951823468	6.234828	2.4969637
4.145980128026488	6.2130547	2.4926
4.163518401388452	6.1692266	2.4837928
4.181056772321807	6.112945	2.4724371
4.1985952412390155	6.1378484	2.4774683
4.216133808552567	6.1624637	2.482431
4.233672474674966	6.3266106	2.5152755
4.251211240018741	6.5703998	2.5632792
4.268750104996445	6.781727	2.6041749
4.286289070020643	7.6461687	2.7651706
4.303828135503928	9.223805	3.037072
4.3213673018589125	29.580593	5.438804
4.3389065694982305	90.75439	9.526509
4.356445938834537	165.94925	12.882129
4.3739854102805085	171.37102	13.090876
4.391524984248844	172.26036	13.1248
4.409064661152262	136.35611	11.677162
4.426604441403504	96.831474	9.840299
4.444144325415337	75.88318	8.711095
4.461684313600543	21.914522	4.681295
4.47922440637193	22.24403	4.7163577
4.496764604142329	20.68976	4.5485997
4.5143049073245916	18.904129	4.347888
4.531845316331589	16.718168	4.0887856
4.5493858315762195	13.602634	3.688175
4.566926453471405	11.131871	3.3364458
4.584467182430081	9.124282	3.0206425
4.602008018865218	8.120541	2.8496563
4.619548963189798	7.47468	2.7339861
4.637090015816834	6.946704	2.63566
4.654631177159353	6.7416744	2.5964735
4.672172447630417	6.4912186	2.547787
4.689713827643102	6.290091	2.5080054
4.7072553176105085	6.042046	2.4580574
4.724796917945764	5.8235297	2.413199
4.742338629062015	5.70385	2.3882735
4.759880451372434	5.626259	2.3719735
4.777422385290215	5.6624584	2.3795922
4.794964431228581	5.6580057	2.3786564
4.812506589600768	5.653294	2.3776658
4.830048860820047	5.61063	2.368677
4.847591245299709	5.53097	2.3518014
4.8651337434530655	5.5713916	2.3603795
4.882676355693457	5.5526743	2.3564112
4.900219082434242	5.5716367	2.3604314
4.917761924088813	5.6209903	2.3708627
4.935304881070575	5.606376	2.3677788
4.952847953792969	5.5630903	2.3586204
4.970391142669449	5.4975896	2.344694
4.9879344481135055	5.422363	2.3285968
5.005477870538642	5.3583884	2.3148193
5.023021410358394	5.386703	2.3209271
5.040565067986324	5.427849	2.3297744
5.05810884383601	5.4474044	2.3339674
5.075652738321066	5.426421	2.329468
5.09319675185512	5.4084296	2.325603
5.110740884851836	5.401792	2.3241756
5.128285137724894	5.3859053	2.3207552
5.145829510888007	5.360401	2.315254
5.163374004754908	5.403276	2.3244948
5.1809186197393595	5.404913	2.324847
5.198463356255145	5.4128456	2.3265524
5.216008214716077	5.320096	2.3065333
5.233553195535998	5.2814016	2.29813
5.251098299128764	5.367561	2.3167996
5.268643525908272	5.328211	2.3082917
5.286188876288432	5.3598895	2.3151436
5.3037343506831895	5.2726545	2.2962263
5.32127994950651	5.260266	2.293527
5.3388256731723915	5.2591753	2.2932892
5.356371522094851	5.228274	2.286542
5.373917496687938	5.20349	2.281116
5.391463597365729	5.2098465	2.2825089
5.40900982454232	5.204365	2.2813077
5.426556178631843	5.1941876	2.279076
5.444102660048449	5.094202	2.2570338
5.4616492692063225	5.0246153	2.2415655
5.479196006519669	5.0016994	2.236448
5.496742872402727	5.0663247	2.2508497
5.514289867269756	5.177433	2.2753973
5.531836991535049	5.248229	2.2909014
5.549384245612924	5.191558	2.2784991
5.566931629917724	5.1568923	2.2708793
5.584479144863822	5.1691346	2.2735732
5.6020267908656205	5.188382	2.277802
5.619574568337545	5.195557	2.2793765
5.637122477694054	5.2129426	2.283187
5.654670519349629	5.166293	2.272948
5.672218693718784	5.224234	2.2856584
5.689767001216059	5.261148	2.2937193
5.707315442256021	5.295539	2.3012037
5.724864017253266	5.247573	2.2907581
5.7424127266224225	5.2153487	2.2837138
5.75996157077814	5.127879	2.264482
5.777510550135105	5.1445374	2.2681572
5.795059665108022	5.152346	2.269878
5.812608916111639	5.186543	2.2773983
5.830158303560715	5.330886	2.308871
5.847707827870055	5.3420744	2.311293
5.86525748945448	5.3629746	2.3158097
5.8828072887288485	5.469851	2.3387713
5.900357226108044	5.604708	2.3674264
5.917907302006979	5.690459	2.3854682
5.9354575168406	6.3298965	2.5159285
5.9530078710238765	6.9043336	2.62761
5.970558364971812	7.45361	2.73013
5.988108999099438	7.8238435	2.7971134
6.005659773821818	8.435093	2.904323
6.023210689554039	8.187515	2.8613834
6.040761746711227	8.54307	2.922853
6.058312945708531	7.961539	2.82162
6.075864286961132	7.458688	2.7310598
6.093415770884244	6.7938747	2.6065063
6.1109673978931065	6.189111	2.4877925
6.128519168402993	5.5532207	2.3565273
6.146071082829204	5.465658	2.3378747
6.163623141587075	5.3426332	2.3114138
6.181175345091969	5.2709827	2.2958622
6.198727693759281	5.2252526	2.285881
6.216280188004435	5.1888957	2.2779148
6.233832828242885	5.102318	2.258831
6.251385614890126	5.0928135	2.2567263
6.268938548361669	5.064538	2.2504528
6.286491629073067	5.1083217	2.2601597
6.304044857439898	5.130994	2.2651696
6.321598233877777	5.050548	2.2473423
6.339151758802344	5.0285516	2.2424433
6.356705432629277	4.99906	2.2358577
6.37425925577428	4.969595	2.2292588
6.391813228653095	4.9257536	2.219404
6.409367351681486	4.8899994	2.2113342
6.426921625275259	4.8316765	2.1981075
6.44447604985025	4.8576894	2.2040167
6.46203062582232	4.935158	2.2215216
6.47958535360737	4.995389	2.2350366
6.497140233621328	4.999614	2.2359817
6.514695266280161	4.936682	2.2218647
6.532250451999859	5.012435	2.2388468
6.549805791196454	5.0814257	2.254202
6.567361284286002	5.1444	2.268127
6.584916931684597	5.1549067	2.270442
6.602472733808367	5.124175	2.263664
6.6200286910734665	5.0607967	2.2496214
6.637584803896092	5.016294	2.2397084
6.655141072692462	4.9942803	2.2347887
6.672697497878842	5.087189	2.2554798
6.690254079871514	5.068298	2.251288
6.707810819086808	4.952813	2.2254918
6.725367715941078	4.921794	2.2185116
6.742924770850719	4.903909	2.2144773
6.760481984232151	4.959842	2.2270703
6.778039356501836	5.0374293	2.2444217
6.795596888076266	5.117294	2.2621436
6.813154579371963	5.094123	2.2570164
6.830712430805492	4.9906287	2.2339716
6.84827044279344	4.909999	2.2158518
6.865828615752445	4.91706	2.2174444
6.883386950099159	4.97293	2.2300067
6.900945446250287	4.967959	2.2288918
6.918504104622553	5.0209723	2.2407527
6.936062925632727	5.1170335	2.2620862
6.953621909697607	5.1274323	2.2643836
6.971181057234028	5.106481	2.2597525
6.988740368658859	5.120644	2.2628841
7.006299844389007	5.1624613	2.272105
7.023859484841407	5.2229056	2.2853677
7.041419290433036	5.3400536	2.3108556
7.058979261580902	5.493488	2.3438191
7.0765393987020495	5.749452	2.3978014
7.094099702213559	6.0263805	2.4548688
7.111660172532549	6.299613	2.509903
7.129220810076164	6.6043434	2.5698917
7.146781615261595	7.188493	2.6811364
7.16434258850606	7.5084176	2.7401493
7.181903730226821	7.997477	2.827981
7.1994650408411704	8.125024	2.8504426
7.217026520766437	8.305514	2.881929
7.234588170419983	8.594986	2.9317207
7.252149990219215	8.591556	2.9311357
7.269711980581568	8.410784	2.900135
7.2872741419245175	8.1449	2.8539271
7.304836474665574	7.6900854	2.7731004
7.322398979222286	7.45558	2.730491
7.339961656012233	7.170535	2.6777854
7.357524505453039	6.845182	2.61633
7.375087527962357	6.557635	2.560788
7.392650723957886	6.362917	2.5224824
7.410214093857353	6.048729	2.4594164
7.427777638078528	5.7736673	2.4028456
7.445341357039213	5.5443163	2.3546371
7.4629052511572525	5.4627976	2.3372629
7.480469320850524	5.388835	2.3213863
7.498033566536948	5.345382	2.3120084
7.5155979886344735	5.2519407	2.2917113
7.5331625875610975	5.1341968	2.2658765
7.550727363734844	5.080503	2.253997
7.568292317573788	5.082112	2.254354
7.585857449496025	5.0910335	2.256332
7.603422759919705	5.165437	2.27276
7.620988249263007	5.146389	2.2685654
7.638553917944147	5.182504	2.2765114
7.656119766381391	5.1451917	2.2683015
7.673685794993023	5.130323	2.2650216
7.691252004197388	5.1242046	2.2636707
7.70881839441285	5.184345	2.2769156
7.726384966057826	5.217804	2.2842512
7.743951719550762	5.2840266	2.298701
7.761518655310149	5.2860065	2.2991316
7.779085773754511	5.2511377	2.291536
7.796653075302419	5.222652	2.2853122
7.814220560372475	5.2187705	2.284463
7.831788229383323	5.254034	2.292168
7.8493560827536495	5.256842	2.2927804
7.866924120902174	5.189883	2.2781315
7.884492344247663	5.158577	2.27125
7.9020607532089135	5.1670556	2.2731159
7.919629348204771	5.264411	2.2944305
7.937198129654115	5.3592463	2.3150046
7.954767097975865	5.3877425	2.321151
7.972336253588986	5.395605	2.3228443
7.989905596912472	5.424349	2.3290231
8.007475128365371	5.453277	2.3352253
8.025044848366756	5.450792	2.3346932
8.042614757335754	5.5881143	2.3639193
8.060184855691523	5.6285825	2.3724635
8.07775514385327	5.7979813	2.4078999
8.095325622240228	5.8147964	2.4113889
8.112896291271687	5.9057508	2.430175
8.130467151366968	5.8923426	2.427415
8.148038202945436	5.8836036	2.425614
8.165609446426497	5.8473	2.4181192
8.183180882229594	5.928134	2.434776
8.200752510774217	5.950622	2.4393897
8.218324332479893	5.9396996	2.43715
8.235896347766193	5.951618	2.4395938
8.253468557052724	6.004942	2.4504983
8.27104096075914	6.031481	2.4559073
8.288613559305137	6.1117167	2.4721887
8.306186353110448	6.188896	2.4877493
8.32375934259485	6.2627773	2.5025542
8.341332528178162	6.2607665	2.5021524
8.358905910280246	6.311558	2.5122814
8.376479489321003	6.2438126	2.4987621
8.394053265720377	6.3342385	2.5167913
8.411627239898356	6.3208833	2.5141368
8.42920141227497	6.301271	2.5102332
8.44677578327029	6.2886777	2.5077236
8.464350353304427	6.20804	2.4915938
8.48192512279754	6.182425	2.4864483
8.499500092169827	6.1715493	2.4842603
8.51707526184153	6.1871486	2.487398
8.534650632232934	6.230333	2.4960635
8.552226203764365	6.2663245	2.5032628
8.569801976856192	6.2657175	2.5031416
8.587377951928834	6.2820816	2.5064082
8.60495412940274	6.2741737	2.5048301
8.622530509698416	6.272927	2.5045812
8.6401070932364	6.401365	2.5300918
8.657683880437283	6.4761896	2.5448358
8.675260871721695	6.6436706	2.5775318
8.692838067510303	6.8156586	2.6106815
8.710415468223834	7.046728	2.6545675
8.727993074283043	7.2083807	2.6848428
8.745570886108737	7.199977	2.6832774
8.763148904121765	7.2297554	2.6888204
8.78072712874302	7.266269	2.695602
8.798305560393441	7.4933143	2.737392
8.815884199494006	7.61498	2.7595253
8.833463046465745	7.7839904	2.7899804
8.851042101729728	7.929317	2.8159044
8.86862136570707	8.218903	2.8668628
8.886200838818924	8.389255	2.896421
8.903780521486505	8.458093	2.9082801
8.921360414131055	8.52322	2.9194555
8.938940517173874	8.578137	2.9288456
8.956520831036297	8.674365	2.9452274
8.97410135613971	8.961539	2.993583
8.99168209290554	9.133125	3.0221062
9.009263041755265	9.425686	3.070128
9.026844203110405	9.696958	3.113994
9.044425577392525	9.975423	3.1583893
9.062007165023239	10.098076	3.177747
9.079588966424197	10.3748665	3.221004
9.097170982017108	10.382362	3.2221673
9.11475321222372	11.450707	3.3838894
9.132335657465825	12.437999	3.5267546
9.149918318165264	12.543479	3.5416775
9.167501194743924	13.049435	3.6124
9.18508428762374	12.641123	3.5554357
9.202667597226693	12.650067	3.5566933
9.220251123974803	12.415075	3.5235033
9.237834868290143	12.179554	3.4899218
9.255418830594836	11.999809	3.4640741
9.273003011311046	11.439511	3.3822346
9.290587410860985	11.138137	3.3373847
9.308172029666911	10.464311	3.2348588
9.32575686815113	10.140732	3.1844516
9.343341926735997	8.823553	2.9704466
9.360927205843916	8.524525	2.919679
9.378512705897327	8.319209	2.8843038
9.396098427318728	8.069122	2.84062
9.413684370530664	7.9636436	2.8219929
9.431270535955722	7.8793817	2.8070235
9.448856924016539	7.788224	2.790739
9.466443535135806	7.6789885	2.7710989
9.484030369736251	7.7137794	2.7773693
9.501617428240658	7.7743206	2.7882469
9.519204711071852	7.8039403	2.7935534
9.536792218652714	7.8150477	2.7955406
9.55437995140617	7.8022237	2.793246
9.571967909755191	7.9049964	2.8115826
9.589556094122802	7.8902125	2.8089523
9.60714450493207	7.894977	2.8098001
9.624733142606116	7.8986135	2.8104472
9.642322007568108	7.957263	2.820862
9.659911100241267	8.044411	2.836267
9.677500421048851	8.081606	2.8428166
9.695089970414175	8.120135	2.849585
9.712679748760609	8.145847	2.854093
9.730269756511557	8.254537	2.873071
9.747859994090492	8.283348	2.8780806
9.765450461920915	8.271968	2.876103
9.78304116042639	8.261047	2.8742037
9.800632090030527	8.282688	2.877966
9.81822325115699	8.322962	2.8849545
9.835814644229481	8.275496	2.8767161
9.853406269671762	8.2747555	2.8765874
9.870998127907646	8.25286	2.8727791
9.888590219360985	8.265415	2.8749635
9.906182544455698	8.255987	2.8733234
9.923775103615734	8.310946	2.8828712
9.941367897265108	8.31168	2.8829985
9.958960925827878	8.37639	2.8941994
9.97655418972816	8.420429	2.9017975
9.994147689390106	8.4679985	2.9099824
10.011741425237934	8.444209	2.9058921
10.029335397695904	8.369456	2.8930013
10.04692960718833	8.320804	2.8845804
10.06452405413958	8.287313	2.8787694
10.082118738974064	8.330861	2.8863232
10.099713662116246	8.344647	2.8887103
10.117308823990651	8.365683	2.892349
10.134904225021844	8.34891	2.8894482
10.152499865634445	8.309874	2.8826852
10.170095746253125	8.319158	2.884295
10.18769186730261	8.315762	2.8837063
10.205288229207675	8.28105	2.8776813
10.222884832393145	8.262217	2.874407
10.2404816772839	8.24426	2.8712819
10.258078764304868	8.201483	2.8638232
10.275676093881035	8.068076	2.840436
10.293273666437438	7.9614697	2.8216076
10.310871482399158	8.0135	2.8308127
10.32846954219134	8.107503	2.8473678
10.346067846239173	8.215812	2.8663237
10.363666394967908	8.195806	2.8628318
10.38126518880283	8.223147	2.867603
10.398864228169298	8.259848	2.873995
10.416463513492713	8.293241	2.8797987
10.434063045198531	8.246444	2.8716621
10.451662823712262	8.240039	2.8705468
10.469262849459467	8.280381	2.8775651
10.486863122865758	8.177544	2.8596404
10.504463644356806	8.1222	2.8499475
10.522064414358338	8.016499	2.8313422
10.539665433296118	7.927337	2.8155527
10.557266701595987	7.899762	2.8106515
10.574868219683818	7.839307	2.7998762
10.592469987985552	7.8239937	2.7971404
10.610072006927185	7.714171	2.7774396
10.627674276934751	7.609828	2.7585917
10.64527679843435	7.4554515	2.7304673
10.662879571852143	7.3191724	2.705397
10.680482597614331	7.1887403	2.6811826
10.698085876147173	7.112219	2.6668744
10.715689407876988	7.00469	2.6466374
10.733293193230146	6.9041786	2.6275804
10.750897232633072	6.7496033	2.5979998
10.76850152651225	6.6830416	2.5851579
10.786106075294207	6.609913	2.570975
10.803710879405534	6.516944	2.5528305
10.821315939272877	6.459755	2.5416048
10.83892125532294	6.384955	2.526847
10.856526827982472	6.3356185	2.5170655
10.874132657678285	6.322351	2.5144286
10.891738744837243	6.2222843	2.4944508
10.909345089886271	6.1600127	2.4819374
10.926951693252343	6.106604	2.4711545
10.944558555362494	6.1100125	2.471844
10.96216567664381	6.056656	2.4610274
10.979773057523436	5.97555	2.4444938
10.997380698428573	5.899725	2.428935
11.014988599786477	5.8304024	2.4146225
11.032596762024461	5.7492456	2.3977585
11.050205185569892	5.6463385	2.3762026
11.067813870850198	5.568144	2.3596914
11.085422818292859	5.5568805	2.3573036
11.10303202832541	5.475264	2.3399282
11.120641501375454	5.362969	2.3158085
11.138251237870636	5.264861	2.2945285
11.155861238238671	5.2333455	2.2876506
11.173471502907317	5.229216	2.286748
11.191082032304402	5.2336683	2.2877212
11.208692826857805	5.2016077	2.2807033
11.226303886995465	5.120497	2.2628515
11.243915213145371	5.0072594	2.2376907
11.261526805735578	4.9472976	2.2242522
11.279138665194196	4.9270186	2.219689
11.296750791949393	4.902282	2.21411
11.314363186429393	4.826549	2.196941
11.331975849062479	4.72237	2.1731014
11.34958878027699	4.6958356	2.1669877
11.36720198050133	4.7252665	2.1737678
11.384815450163948	4.6872535	2.1650066
11.402429189693366	4.613264	2.147851
11.420043199518153	4.4699388	2.114223
11.437657480066942	63.428352	7.964192
11.455272031768422	85.164536	9.228463
11.472886855051353	107.57432	10.371804
11.490501950344528	99.20282	9.960061
11.508117318076819	84.51966	9.193458
11.52573295867715	45.87372	6.773014
11.543348872574514	4.1708145	2.0422573
11.560965060197946	4.1399	2.0346744
11.57858152197655	4.0972958	2.0241778
11.59619825833949	4.0142937	2.0035703
11.613815269715985	3.980701	1.9951694
11.631432556535323	38.482616	6.203436
11.649050119226837	83.00309	9.110603
11.666667958219929	93.4101	9.66489
11.68428607394406	107.66687	10.376265
11.701904466828756	82.4902	9.082412
11.719523137303586	65.37359	8.085394
11.737142085798196	4.595279	2.1436603
11.754761312742286	3.7008917	1.9237702
11.772380818565619	3.627196	1.9045199
11.790000603698015	3.5972407	1.8966393
11.80762066856935	3.6104155	1.9001093
11.825241013609572	3.5946965	1.8959684
11.842861639248683	3.5643296	1.8879433
11.860482545916748	3.507367	1.8727965
11.878103734043883	3.495537	1.8696356
11.895725204060282	3.489792	1.8680985
11.91334695639619	3.5116847	1.8739489
11.930968991481919	3.4780853	1.8649626
11.948591309747824	3.4168415	1.8484701
11.966213911624347	3.4290032	1.8517568
11.98383679754198	3.4100747	1.8466388
12.001459967931268	3.4015474	1.8443284
12.019083423222835	3.3190358	1.821822
12.036707163847352	3.2829504	1.8118914
12.05433119023556	3.2638795	1.8066211
12.071955502818259	3.2187903	1.7940987
12.089580102026313	3.1498415	1.7747793
12.107204988290643	3.1299148	1.7691565
12.12483016204224	3.1417906	1.7725097
12.142455623712152	3.1467762	1.7739155
12.16008137373149	3.153301	1.7757536
12.177707412531431	3.1208198	1.7665843
12.19533374054321	3.0898964	1.7578101
12.212960358198126	3.0372903	1.7427824
12.230587265927545	3.062386	1.7499675
12.248214464162889	3.0665755	1.7511641
12.265841953335649	3.0816805	1.7554716
12.283469733877375	3.0628283	1.7500938
12.301097806219685	3.043591	1.7445891
12.31872617079425	3.0130944	1.7358267
12.336354828032825	2.9945652	1.7304813
12.353983778367205	2.959685	1.7203735
12.371613022229262	2.8924117	1.7007092
12.389242560050928	2.8668258	1.6931703
12.406872392264201	2.8583136	1.6906548
12.424502519301143	2.8671455	1.6932647
12.442132941593874	2.8764403	1.6960071
12.459763659574586	2.887512	1.6992681
12.477394673675532	2.8970897	1.702084
12.49502598432903	2.8567333	1.6901873
12.51265759196746	2.878043	1.6964796
12.530289497023267	2.8501382	1.6882353
12.547921699928967	2.841098	1.6855557
12.565554201117134	2.8139207	1.6774745
12.583187001020404	2.8406458	1.6854216
12.600820100071486	2.8648593	1.6925895
12.618453498703152	2.8283305	1.6817641
12.636087197348235	2.777873	1.6666952
12.65372119643964	2.7667499	1.663355
12.671355496410326	2.7789562	1.6670202
12.68899009769333	2.7969906	1.6724206
12.706625000721749	2.8083427	1.675811
12.724260205928752	2.8592412	1.690929
12.741895713747551	2.9259515	1.7105412
12.759531524611454	2.9989197	1.7317389
12.777167638953818	3.0186446	1.7374247
12.794804057208072	2.9628236	1.7212855
12.812440779807702	2.9774885	1.72554
12.830077807186271	3.1587148	1.7772774
12.847715139777405	3.2390654	1.7997403
12.865352778014795	3.4616115	1.8605406
12.882990722332197	3.5846748	1.8933238
12.90062897316344	3.65369	1.9114628
12.918267530942412	3.7094865	1.9260027
12.935906396103071	3.5659733	1.8883785
12.953545569079449	3.7411394	1.9342026
12.971185050305628	3.5549688	1.8854625
12.988824840215775	3.582318	1.8927013
13.006464939244115	3.574689	1.8906847
13.024105347824943	3.4032173	1.8447812
13.041746066392617	3.479699	1.8653951
13.05938709538157	3.2942748	1.8150138
13.077028435226296	3.3461514	1.8292489
13.094670086361363	3.2886066	1.8134515
13.112312049221401	3.209337	1.7914623
13.129954324241112	3.096822	1.759779
13.147596911855258	2.845589	1.6868874
13.165239812498685	2.8476772	1.6875062
13.182883026606293	2.8284883	1.681811
13.200526554613058	2.7673862	1.6635463
13.218170396954017	2.699945	1.6431509
13.235814554064284	2.7077467	1.6455232
13.253459026379034	2.720901	1.6495154
13.271103814333523	2.7284539	1.6518033
13.288748918363058	2.7102916	1.6462964
13.306394338903031	2.7083523	1.6457072
13.32404007638889	2.7019851	1.6437716
13.341686131256164	2.720077	1.6492656
13.359332503940449	2.6784353	1.6365926
13.376979194877402	2.661983	1.6315584
13.394626204502751	2.6861095	1.6389354
13.412273533252307	2.724358	1.650563
13.429921181561937	2.7247381	1.650678
13.447569149867581	2.7300644	1.6522907
13.465217438605247	2.7071629	1.6453458
13.482866048211022	2.6968265	1.6422017
13.500514979121052	2.7117305	1.6467333
13.518164231771568	2.7086003	1.6457826
13.535813806598844	2.6953719	1.6417588
13.553463704039254	2.6772935	1.6362437
13.571113924529229	2.6599457	1.630934
13.588764468505275	2.6672425	1.6331695
13.606415336403956	2.7123344	1.6469166
13.624066528661917	2.7384074	1.6548134
13.641718045715882	2.783306	1.6683242
13.659369888002635	2.8241587	1.6805233
13.67702205595903	2.8865857	1.6989955
13.694674550021993	3.0099053	1.7349079
13.712327370628532	3.0758722	1.7538165
13.729980518215713	3.143648	1.7730335
13.747633993220681	3.19744	1.7881386
13.765287796080647	3.230265	1.7972938
13.7829419272329	3.280146	1.8111173
13.800596387114801	3.327422	1.8241222
13.818251176163775	3.3851259	1.8398712
13.835906294817324	3.418844	1.8490117
13.853561743513023	3.4544506	1.8586153
13.871217522688525	3.4965868	1.8699162
13.888873632781538	3.5645545	1.8880028
13.906530074229858	3.6196187	1.9025296
13.92418684747135	3.6100805	1.9000212
13.941843952943948	3.562786	1.8875344
13.959501391085665	3.4685466	1.8624035
13.977159162334578	3.4107141	1.8468119
13.994817267128846	3.4022048	1.8445066
14.012475705906693	3.3170877	1.8212874
14.030134479106424	3.2338846	1.7983005
14.047793587166414	3.115007	1.7649382
14.065453030525108	3.0366328	1.7425936
14.083112809621026	2.9945116	1.7304658
14.100772924892766	2.9418418	1.7151798
14.118433376778997	2.8843393	1.6983343
14.136094165718458	2.8241515	1.6805212
14.153755292149969	2.7578049	1.660664
14.171416756512416	2.7274156	1.6514889
14.189078559244768	2.6719608	1.6346134
14.20674070078606	2.6002057	1.6125153
14.224403181575408	2.5337129	1.5917641
14.242066002051999	2.5080469	1.5836815
14.259729162655093	2.482375	1.5755554
14.277392663824022	2.4655895	1.5702196
14.295056505998208	2.4349387	1.560429
14.312720689617128	2.4414384	1.5625103
14.330385215120348	2.4225166	1.5564436
14.348050082947497	2.4204974	1.5557948
14.3657152935383	2.4312525	1.5592474
14.383380847332528	2.4437764	1.5632583
14.401046744770051	2.432527	1.559656
14.418712986290798	2.3813882	1.5431747
14.436379572334793	2.3615766	1.5367422
14.454046503342123	2.3948052	1.5475159
14.471713779752946	2.4083629	1.5518901
14.489381402007504	2.4234731	1.5567508
14.507049370546113	2.4006875	1.5494152
14.524717685809168	2.4059024	1.5510972
14.542386348237134	2.3870292	1.5450014
14.560055358270553	2.3912277	1.5463595
14.577724716350051	2.4523368	1.5659939
14.595394422916325	2.4957585	1.579797
14.61306447841015	2.5166683	1.5864011
14.63073488327237	2.459024	1.5681275
14.648405637943917	2.4430866	1.5630376
14.6660767428658	2.4150386	1.5540395
14.683748198479094	2.4758852	1.5734946
14.701420005224954	2.5309381	1.5908922
14.719092163544628	2.6536157	1.6289922
14.73676467387942	2.7050977	1.6447182
14.754437536670727	2.7179422	1.6486183
14.772110752360014	2.6548178	1.6293612
14.78978432138882	2.6227498	1.6194906
14.807458244198777	2.6578324	1.630286
14.82513252123159	2.6649437	1.6324655
14.842807152929028	2.7080855	1.6456262
14.860482139732962	2.676397	1.6359698
14.87815748208531	2.679619	1.6369542
14.8958331804281	2.6800392	1.6370825
14.91350923520342	2.661087	1.6312839
14.931185646853438	2.6899042	1.6400927
14.948862415820408	2.6616342	1.6314516
14.966539542546656	2.6562543	1.6298019
14.98421702747459	2.624078	1.6199006
15.001894871046696	2.6478856	1.6272324
15.019573073705542	2.6713634	1.6344306
15.037251635893766	2.6715207	1.6344787
15.054930558054092	2.7104545	1.6463457
15.072609840629323	2.7703283	1.6644303
15.090289484062351	2.9209507	1.7090789
15.107969488796124	3.2396479	1.7999022
15.125649855273691	3.6304986	1.9053867
15.14333058393817	4.1373787	2.0340548
15.161011675232768	5.125898	2.2640445
15.17869312960076	6.44107	2.5379264
15.196374947485506	8.223297	2.8676293
15.214057129330447	11.136042	3.3370707
15.231739675579114	15.792065	3.973923
15.249422586675102	21.001364	4.5827246
15.267105863062092	24.391764	4.938802
15.284789505183847	24.860706	4.986051
15.302473513484218	22.826159	4.777673
15.320157888407127	19.219494	4.384004
15.337842630396578	15.02741	3.8765204
15.355527739896656	11.675563	3.4169524
15.37321321735153	9.067263	3.0111895
15.39089906320545	6.551922	2.559672
15.408585277902748	4.894333	2.212314
15.42627186188783	3.7441738	1.9349867
15.443958815605198	3.1653154	1.7791333
15.461646139499424	2.9097767	1.7058067
15.479333834015168	2.801596	1.6737969
15.497021899597165	2.7528615	1.6591749
15.514710336690234	2.6791832	1.636821
15.53239914573928	2.5815208	1.6067111
15.550088327189297	2.5542533	1.5982032
15.567777881485336	2.5098724	1.5842577
15.58546780907256	2.5037115	1.5823121
15.6031581103962	2.5086143	1.5838605
15.620848785901568	2.5383394	1.5932167
15.638539836034063	2.501693	1.5816741
15.656231261239173	2.433631	1.56001
15.673923061962451	2.3781333	1.5421197
15.691615238649552	2.395469	1.5477302
15.709307791746202	2.3978398	1.548496
15.727000721698221	2.4092994	1.5521919
15.744694028951498	2.4088566	1.5520492
15.76238771395202	2.3850508	1.544361
15.780081777145844	2.3828673	1.5436538
15.797776218979125	2.3649144	1.5378278
15.815471039898094	2.3577888	1.5355093
15.833166240349064	2.3129177	1.520828
15.850861820778437	2.313884	1.5211456
15.868557781632699	2.3403358	1.5298157
15.886254123358412	2.377567	1.5419362
15.903950846402232	2.3700237	1.5394882
15.921647951210897	2.3818247	1.5433161
15.939345438231225	2.382737	1.5436116
15.957043307910133	2.4028826	1.5501235
15.974741560694602	2.399286	1.5489628
15.992440197031714	2.4170494	1.5546863
16.01013921736862	2.4357803	1.5606986
16.02783862215259	2.441321	1.5624727
16.045538411830933	2.417958	1.5549785
16.06323858685107	2.4206069	1.55583
16.080939147660512	2.4253337	1.5573483
16.09864009470684	2.4069571	1.5514371
16.11634142843774	2.4087162	1.552004
16.134043149300954	2.401347	1.549628
16.15174525774433	2.406057	1.551147
16.169447754215817	2.410638	1.5526229
16.18715063916342	2.4221718	1.5563328
16.204853913035244	2.4397116	1.5619576
16.222557576279478	2.4283886	1.5583287
16.240261629344403	22.453342	4.738496
16.257966072678386	43.01704	6.5587378
16.275670906729868	38.131184	6.175045
16.293376131947387	2.4976068	1.5803819
16.31108174877957	2.5094404	1.5841213
16.328787757675133	2.541705	1.5942725
16.34649415908287	2.5685222	1.602661
16.364200953451657	2.5665429	1.6020434
16.38190814123048	2.604438	1.6138271
16.39961572286839	2.6383665	1.6243049
16.41732369881455	2.6841009	1.6383226
16.43503206951817	2.6952045	1.6417078
16.45274083542859	2.7372272	1.6544567
16.47044999699522	2.7839148	1.6685067
16.488159554667558	2.8303375	1.6823606
16.505869508895184	2.823932	1.6804559
16.523579860127786	2.84838	1.6877145
16.541290608815117	2.887664	1.6993128
16.559001755407035	2.9726458	1.7241362
16.57671330035348	3.0325308	1.7414163
16.59442524410448	3.1049514	1.7620872
16.61213758711015	3.150809	1.7750518
16.629850329820705	3.224171	1.7955977
16.647563472686436	3.304276	1.8177668
16.665277016157724	3.4040194	1.8449985
16.682990960685053	3.4359438	1.85363
16.70070530671898	3.4438293	1.8557557
16.718420054710155	3.446879	1.8565772
16.736135205109335	3.512309	1.8741156
16.753850758367335	3.552437	1.884791
16.771566714935087	3.6103199	1.9000841
16.789283075263597	3.7052145	1.9248934
16.80699983980398	3.7705677	1.941795
16.82471700900741	3.8327196	1.9577333
16.84243458332518	3.902189	1.9753959
16.860152563208665	4.006839	2.001709
16.87787094910932	4.0288177	2.0071914
16.89558974147871	4.1171927	2.0290866
16.913308940768466	4.138228	2.0342634
16.931028547430333	4.1749825	2.0432775
16.94874856191613	4.2027087	2.050051
16.966468984677785	4.257508	2.0633729
16.98418981616729	4.326837	2.080105
17.00191105683676	4.3559637	2.0870945
17.019632707138374	4.4351535	2.1059804
17.03735476752442	4.537335	2.1301022
17.05507723844728	4.602262	2.1452882
17.072800120359403	4.6320267	2.1522143
17.090523413713353	4.6181145	2.14898
17.108247118961785	4.6645317	2.1597526
17.125971236557437	4.6929035	2.166311
17.143695766953133	4.74231	2.1776845
17.161420710601806	4.748823	2.1791794
17.179146067956477	4.7610154	2.1819751
17.19687183947025	4.696673	2.1671808
17.21459802559634	4.6328163	2.1523979
17.232324626788028	4.646662	2.1556118
17.25005164349871	4.652797	2.1570344
17.267779076181863	4.676518	2.162526
17.285506925291074	4.6455336	2.15535
17.30323519127999	4.581238	2.1403825
17.320963874602384	4.5004005	2.1214147
17.33869297571211	4.498274	2.1209135
17.356422495063114	4.5442615	2.1317275
17.37415243310944	4.5906105	2.142571
17.391882790305218	4.574811	2.1388807
17.40961356710468	4.548678	2.132763
17.42734476396215	4.5252237	2.1272573
17.445076381332044	4.4711857	2.114518
17.462808419668868	4.5624104	2.13598
17.48054087942723	4.707628	2.1697068
17.498273761061835	4.9882336	2.2334354
17.51600706502747	5.397217	2.3231912
17.533740791779024	6.084008	2.4665782
17.551474941771485	7.473596	2.7337878
17.56920951545993	8.612716	2.934743
17.586944513299528	10.917459	3.3041577
17.60467993574556	12.63093	3.554002
17.622415783253373	14.385788	3.79286
17.64015205627843	15.82509	3.9780762
17.657888755276293	16.968437	4.1192765
17.675625880702604	17.474325	4.18023
17.69336343301311	17.444723	4.176688
17.71110141266366	16.54506	4.0675616
17.728839820110178	15.5408	3.942182
17.746578655808705	14.5302725	3.8118594
17.764317920215372	12.982039	3.6030598
17.7820576137864	11.39773	3.3760524
17.79979773697811	9.355431	3.0586648
17.81753829024692	7.548052	2.747372
17.835279274049356	5.897473	2.4284713
17.85302068884201	4.879936	2.2090578
17.870762535081607	4.2277336	2.0561454
17.888504813224934	3.8894608	1.9721715
17.90624752372891	3.6359866	1.9068263
17.923990667050536	3.5790625	1.891841
17.941734243646895	3.5024538	1.8714844
17.959478253975185	3.4803102	1.865559
17.9772226984927	3.4629421	1.8608983
17.994967577656833	3.4771776	1.8647192
18.01271289192506	3.4553232	1.85885
18.030458641754965	3.422089	1.8498889
18.04820482760425	3.37737	1.8377622
18.06595144993067	3.3549135	1.8316423
18.083698509192125	3.3299825	1.824824
18.101446005846576	3.3013422	1.8169596
18.119193940352105	3.248241	1.8022877
18.136942313166887	3.208274	1.7911655
18.1546911247492	3.1369724	1.77115
18.1724403755574	3.1217365	1.7668437
18.19019006604997	3.119296	1.7661529
18.207940196685467	3.1385107	1.7715843
18.225690767922575	3.1404707	1.7721373
18.243441780220046	3.0743792	1.7533908
18.261193234036764	3.0518339	1.7469499
18.278945129831676	3.0544457	1.7476972
18.29669746806386	3.0657315	1.750923
18.314450249192483	3.083986	1.7561282
18.3322034736768	3.0795681	1.7548698
18.349957141976184	3.1249406	1.7677501
18.3677112545501	3.1383007	1.7715249
18.385465811858108	3.130933	1.7694442
18.403220814359884	3.1053472	1.7621995
18.420976262515172	3.1076977	1.7628664
18.43873215678387	3.1212318	1.7667009
18.456488497625923	3.1674788	1.7797412
18.474245285501407	3.2661889	1.80726
18.492002520870486	3.3266609	1.8239136
18.50976020419343	3.3913612	1.8415649
18.527518335930615	3.6314447	1.905635
18.545276916542516	4.180007	2.0445065
18.563035946489688	4.344454	2.0843353
18.580795426232832	4.8289623	2.19749
18.598555356232698	4.719204	2.1723728
18.616315736950185	5.0361557	2.244138
18.63407656884626	4.6888523	2.1653757
18.65183785238201	4.8583493	2.2041664
18.669599588018617	4.6359906	2.153135
18.68736177621737	4.632433	2.1523087
18.705124417439652	4.5939903	2.1433597
18.72288751214696	4.3946495	2.0963418
18.740651060800886	4.5847964	2.1412137
18.758415063863115	4.359768	2.0880058
18.77617952179546	4.5049114	2.1224778
18.793944435059814	4.2081046	2.0513666
18.811709804118184	4.2247415	2.0554175
18.829475629432675	4.188726	2.0466378
18.8472419114655	3.9949377	1.998734
18.86500865067897	4.079761	2.019842
18.88277584753551	3.7750902	1.9429592
18.90054350249763	3.8367622	1.9587655
18.918311616027957	3.5243282	1.8773195
18.936080188589226	3.4031916	1.8447741
18.953849220644265	3.0956857	1.759456
18.971618712656007	2.950932	1.7178277
18.9893886650875	2.912997	1.7067504
19.007159078401887	8.052885	2.8377607
19.024929953062408	32.907284	5.736487
19.042701289532435	32.824833	5.729296
19.060473088275405	25.351126	5.0349903
19.07824534975489	2.6347668	1.6231965
19.096018074434568	2.6316266	1.6222289
19.113791262778197	2.627406	1.6209275
19.13156491524966	2.607029	1.6146296
19.149339032312945	2.5554836	1.598588
19.167113614432136	2.5270317	1.589664
19.184888662071433	2.5457735	1.595548
19.202664175695123	2.5872822	1.6085031
19.220440155767623	2.600531	1.6126162
19.238216602753447	2.5880513	1.6087421
19.2559935171172	2.5808475	1.6065016
19.27377089932361	2.5751207	1.6047182
19.291548749837514	2.5665243	1.6020375
19.309327069123835	2.5545588	1.5982987
19.32710585764763	2.5509837	1.5971799
19.344885115874032	2.5236483	1.5885994
19.362664844268313	2.53657	1.5926613
19.380445043295822	2.542348	1.5944742
19.39822571342203	2.5345724	1.592034
19.41600685511252	2.4890635	1.5776767
19.43378846883297	2.492344	1.5787159
19.451570555049173	2.4953678	1.5796733
19.469353114227037	2.4860737	1.5767288
19.48713614683254	2.4863484	1.5768158
19.50491965333182	2.4740076	1.5728978
19.52270363419109	2.50203	1.5817806
19.540488089876686	2.5136755	1.5854574
19.55827302085503	2.5189643	1.5871246
19.576058427592674	2.5006373	1.5813403
19.593844310556282	2.4925506	1.5787814
19.611630670212598	2.5161662	1.5862428
19.629417507028506	2.5306296	1.5907953
19.64720482147098	2.5301669	1.5906498
19.6649926140071	2.496943	1.5801718
19.682780885104084	2.4993691	1.5809393
19.70056963522921	2.454971	1.5668347
19.718358864849908	2.4636693	1.569608
19.7361485744337	2.4655411	1.5702041
19.753938764448215	2.4981897	1.5805663
19.771729435361202	2.496558	1.58005
19.789520587640506	2.4967449	1.5801091
19.807312221754092	2.5230033	1.5883964
19.825104338170043	2.5611198	1.6003499
19.842896937356517	2.5496838	1.5967729
19.860690019781824	2.5339842	1.5918493
19.87848358591436	2.5364375	1.5926197
19.896277636222635	2.5558155	1.5986918
19.914072171175278	2.5455587	1.5954807
19.931867191241015	2.504889	1.5826842
19.94966269688869	2.5014954	1.5816116
19.967458688587264	2.4504344	1.5653864
19.985255166805807	2.4547176	1.5667539
20.00305213201348	2.4451606	1.5637009
20.020849584679578	2.467095	1.5706989
20.038647525273507	2.470889	1.5719062
20.05644595426477	2.5071788	1.5834073
20.07424487212299	2.4690502	1.5713211
20.092044279317903	2.4113607	1.5528557
20.109844176319353	2.4084954	1.5519328
20.127644563597304	2.4420185	1.5626959
20.145445441621817	2.4418538	1.5626432
20.16324681086307	2.4248276	1.5571858
20.181048671791373	2.4176161	1.5548686
20.198851024877122	2.4499927	1.5652453
20.216653870590836	2.4431143	1.5630465
20.234457209403146	2.4028676	1.5501186
20.252261041784802	2.3889115	1.5456104
20.270065368206662	2.410375	1.5525383
20.287870189139685	2.368965	1.5391442
20.305675505054968	2.3329196	1.5273898
20.323481316423702	2.3277564	1.5256987
20.341287623717207	2.3480434	1.5323327
20.359094427406884	2.3594463	1.5360489
20.376901727964288	2.3797936	1.542658
20.39470952586107	2.3993847	1.5489948
20.41251782156899	2.39402	1.5472621
20.430326615559935	2.3959138	1.547874
20.448135908305886	2.3768563	1.5417056
20.465945700278965	2.3458893	1.5316297
20.483755991951384	2.3431137	1.5307232
20.50156678379548	2.3449354	1.5313182
20.519378076283708	2.3368773	1.5286849
20.537189869888635	2.3037405	1.5178078
20.55500216508294	2.3021061	1.5172693
20.572814962339415	2.3345532	1.5279245
20.59062826213098	2.358783	1.535833
20.60844206493066	2.3830905	1.5437262
20.626256371211593	2.3762941	1.5415233
20.644071181447032	2.3713892	1.5399315
20.66188649611036	2.358049	1.535594
20.67970231567506	2.3470685	1.5320145
20.697518640614742	2.3439198	1.5309865
20.715335471403122	2.3462172	1.5317366
20.73315280851404	2.3192747	1.5229166
20.750970652421447	2.272434	1.5074594
20.768789003599412	2.243981	1.4979923
20.786607862522136	2.234508	1.4948272
20.8044272296639	2.2499528	1.4999843
20.82224710549913	2.2644253	1.5048008
20.84006749050237	2.2509372	1.5003123
20.857888385148268	3.8039665	1.950376
20.8757097899116	45.880264	6.773497
20.893531705267254	64.73048	8.045526
20.911354131690224	83.76648	9.152403
20.92917706965566	69.05327	8.30983
20.94700051963877	50.13148	7.080359
20.96482448211493	29.402645	5.4224205
20.982648957559622	4.122505	2.0303953
21.00047394644843	2.243377	1.4977907
21.01829944925707	2.2460256	1.4986746
21.036125466461375	2.227655	1.4925331
21.053951998537297	2.2019553	1.4838986
21.071779045960906	2.217971	1.4892855
21.089606609208378	2.2437258	1.4979072
21.10743468875603	2.2611732	1.5037198
21.12526328508028	2.2213664	1.4904249
21.143092398657675	2.1667917	1.4720026
21.16092202996488	2.1489925	1.4659443
21.17875217947867	2.1643035	1.4711572
21.19658284767596	2.174781	1.4747139
21.21441403503377	2.196866	1.4821829
21.232245742029225	2.2003074	1.4833434
21.2500779691396	2.2093093	1.4863746
21.26791071684227	2.2182448	1.4893773
21.28574398561475	2.2015364	1.4837575
21.30357777593465	2.1731405	1.4741576
21.321412088279704	2.184616	1.4780446
21.339246923127792	2.1471379	1.4653115
21.357082280956888	2.1415355	1.4633986
21.3749181622451	2.1214902	1.4565337
21.392754567470647	2.151447	1.4667811
21.41059149711187	2.13339	1.4606129
21.42842895164726	2.1491423	1.4659953
21.446266931555378	2.1292343	1.4591897
21.464105437314945	2.1082017	1.4519647
21.481944469404798	2.0942721	1.44716
21.49978402830388	2.0880325	1.4450026
21.51762411449127	2.1084874	1.4520631
21.53546472844617	2.1054924	1.4510314
21.553305870647876	2.09979	1.4490652
21.571147541575865	2.1018023	1.4497594
21.58898974170967	2.1043153	1.4506258
21.60683247152899	2.0887735	1.445259
21.62467573151363	2.0738902	1.4401008
21.642519522143523	2.0479534	1.4310672
21.660363843898722	2.0894253	1.4454845
21.6782086972594	2.104768	1.4507818
21.696054082705864	2.0654738	1.4371756
21.713900000718535	2.0328271	1.4257724
21.73174645177795	2.022683	1.4222106
21.749593436364794	2.0443652	1.429813
21.767440954959845	2.0700707	1.438774
21.785289008044032	2.1117508	1.4531864
21.803137596098388	2.115003	1.454305
21.820986719604086	2.062891	1.4362768
21.838836379042412	2.03052	1.4249631
21.85668657489478	2.0063326	1.4164507
21.87453730764273	2.031971	1.4254721
21.892388577767914	2.0453308	1.4301506
21.91024038575213	2.055714	1.4337761
21.928092732077285	2.0229867	1.4223174
21.945945617225426	1.9929568	1.4117212
21.963799041678694	1.9996544	1.4140913
21.981653005919398	31.358685	5.5998826
21.999507510429943	78.16671	8.841194
22.01736255569286	73.07487	8.548384
22.035218142190818	4.127252	2.031564
22.05307427040661	1.9554846	1.3983865
22.07093094082315	1.9820869	1.4078661
22.088788153923474	2.0167444	1.4201213
22.106645910190746	2.0196111	1.4211302
22.12450421010827	2.0420678	1.4290093
22.142363054159464	2.040193	1.4283533
22.16022244282787	2.0510938	1.4321641
22.178082376597164	2.0497344	1.4316894
22.195942855951145	1.9953188	1.4125575
22.213803881373742	1.9715624	1.4041233
22.231665453349002	1.9984887	1.4136791
22.24952757236111	2.029647	1.4246569
22.26739023889438	2.0219228	1.4219433
22.28525345343323	1.9640533	1.4014468
22.30311721646225	1.9472656	1.3954446
22.320981528466113	1.9418677	1.3935091
22.33884638992964	1.9587116	1.3995398
22.356711801337788	1.9972671	1.413247
22.37457776317561	1.979615	1.4069879
22.392444275928337	1.9597179	1.3998992
22.410311340081282	1.931536	1.3897971
22.428178956119904	1.939402	1.3926241
22.446047124529805	1.9518421	1.3970834
22.46391584579669	1.9527841	1.3974205
22.481785120406414	1.94466	1.3945106
22.49965494884496	1.9433368	1.3940362
22.51752533159841	1.9310682	1.3896288
22.53539626915302	1.9194471	1.3854411
22.553267761995137	1.9457955	1.3949177
22.571139810611264	1.9485962	1.3959212
22.589012415488025	1.9444865	1.3944484
22.60688557711216	1.905242	1.380305
22.624759295970566	1.8996019	1.3782605
22.642633572550263	1.9319897	1.3899603
22.660508407338362	1.9486222	1.3959306
22.67838380082217	1.9651548	1.4018397
22.696259753489077	1.9648538	1.4017324
22.714136265826614	1.9547662	1.3981295
22.73201333832246	1.9253484	1.3875692
22.74989097146439	1.9094802	1.3818394
22.76776916574035	1.9116842	1.3826367
22.785647921638393	1.9287938	1.3888102
22.803527239646712	1.940346	1.392963
22.82140712025363	1.9404855	1.3930131
22.839287563947593	1.9362614	1.3914961
22.85716857121719	1.9262643	1.3878993
22.875050142551135	1.9665954	1.4023535
22.892932278438277	1.9672867	1.4025999
22.910814979367604	1.910969	1.382378
22.928698245828222	1.8879957	1.3740436
22.946582078309387	1.8869274	1.3736547
22.96446647730047	1.9234045	1.3868686
22.98235144329098	1.9121528	1.3828061
23.000236976770562	1.8932062	1.3759383
23.018123078229	1.8649265	1.3656231
23.03600974815619	1.8643774	1.365422
23.053896987042194	1.8693527	1.3672427
23.071784795377173	1.8834335	1.3723824
23.08967317365145	1.882363	1.3719923
23.10756212235546	1.880848	1.3714402
23.125451641979787	1.9025829	1.3793415
23.143341733015134	1.9146256	1.3837
23.161232395952357	1.9406515	1.3930727
23.179123631282426	1.9201403	1.3856913
23.197015439496468	1.9173172	1.3846722
23.214907821085717	1.871618	1.368071
23.23280077654157	1.8649611	1.3656358
23.250694306355538	1.864412	1.3654348
23.268588411019277	1.8983058	1.3777902
23.28648309102458	1.9109459	1.3823696
23.304378346863356	1.9487609	1.3959802
23.322274179027676	1.950426	1.3965765
23.340170588009723	1.9620403	1.4007285
23.358067574301852	1.9378237	1.3920573
23.37596513839651	1.9464328	1.3951461
23.39386328078629	1.9492764	1.3961649
23.411762001963947	1.9700347	1.4035792
23.429661302422353	2.0020497	1.4149381
23.4475611826545	1.9836216	1.408411
23.46546164315356	1.9297009	1.3891367
23.48336268441279	1.9184029	1.3850642
23.501264306925638	1.9394636	1.3926463
23.51916651118564	1.936668	1.3916422
23.537069297686497	1.8693017	1.3672241
23.554972666922037	1.8543983	1.3617629
23.57287661938623	1.8912901	1.3752419
23.59078115557318	1.9160057	1.3841985
23.608686275977128	1.8945282	1.3764186
23.62659198109246	1.8538781	1.3615719
23.6444982714137	1.8702086	1.3675557
23.66240514743549	1.9143338	1.3835945
23.68031260965263	1.9320275	1.3899739
23.698220658560068	1.9054539	1.3803818
23.716129294652845	1.8712894	1.3679508
23.7340385184262	1.866958	1.3663667
23.75194833037546	1.8726218	1.3684378
23.769858730996123	1.875428	1.3694626
23.78776972078382	1.8757294	1.3695728
23.80568130023431	1.8676625	1.3666245
23.823593469843495	1.8570689	1.3627431
23.841506230107424	1.8426793	1.3574532
23.859419581522275	1.8519896	1.3608782
23.87733352458438	1.8681859	1.3668159
23.89524805979019	1.9003154	1.3785193
23.913163187636318	1.9380217	1.3921285
23.931078908619508	1.9150265	1.3838449
23.948995223236633	1.9240628	1.387106
23.966912131984735	1.976579	1.4059086
23.98482963536096	2.0732954	1.4398942
24.002747733862616	2.0879698	1.4449809
24.020666427987155	2.044281	1.4297836
24.038585718232156	2.0423076	1.4290932
24.056505605095353	2.0647106	1.4369102
24.074426089074617	2.0768666	1.4411339
24.092347170667946	2.0681767	1.4381157
24.110268850373515	2.1044278	1.4506646
24.128191128689586	2.092756	1.4466361
24.146114006114626	2.0417578	1.428901
24.164037483147187	2.0057867	1.416258
24.181961560286005	2.0203257	1.4213816
24.199886238029926	2.0399687	1.4282748
24.21781151687797	2.0788853	1.441834
24.235737397329274	2.1217284	1.4566154
24.253663879883135	2.110268	1.4526762
24.271590965038975	2.1027734	1.4500942
24.289518653296376	2.1090834	1.4522684
24.30744694515505	2.110503	1.452757
24.32537584111486	2.1021674	1.4498852
24.34330534167581	2.0380816	1.427614
24.361235447338046	2.0423698	1.429115
24.379166158601876	2.047471	1.4308987
24.39709747596772	2.0719173	1.4394156
24.41502939993615	2.0178006	1.4204931
24.432961931007917	2.01102	1.4181043
24.450895069683856	2.0323763	1.4256144
24.468828816465	2.0317042	1.4253786
24.4867631718525	1.9678272	1.4027927
24.504698136347656	1.9359982	1.3914015
24.52263371045192	1.9649565	1.401769
24.540569894666874	2.004894	1.4159428
24.558506689494266	1.972933	1.4046113
24.57644409543597	1.9217169	1.38626
24.594382112994012	1.9241775	1.3871473
24.61232074267057	1.9587041	1.3995371
24.630259984967953	1.9612472	1.4004453
24.64819984038863	1.9248008	1.3873719
24.66614030943522	1.9099112	1.3819953
24.684081392610462	1.9599106	1.399968
24.702023090417274	2.0154593	1.4196687
24.7199654033587	2.0542307	1.4332588
24.737908331937927	2.0743606	1.4402641
24.755851876658305	2.0880594	1.4450119
24.773796038023324	2.1098351	1.4525272
24.79174081653661	2.0811067	1.4426042
24.809686212701962	2.0591474	1.434973
24.827632227023294	2.0473635	1.4308611
24.8455788600047	2.106968	1.4515399
24.8635261121504	2.165393	1.4715275
24.88147398396475	2.1572669	1.4687637
24.899422475952303	2.112604	1.4534799
24.917371588617698	2.0837083	1.4435055
24.935321322465768	2.1051862	1.450926
24.953271678001478	2.2560303	1.5020088
24.97122265572994	2.5041807	1.5824603
24.989174256156414	2.856821	1.6902133
25.00712647978632	3.2515948	1.8032179
25.02507932712521	3.7749872	1.9429326
25.043032798678798	4.3423834	2.0838387
25.060986894952933	5.027789	2.242273
25.078941616453637	5.7825937	2.4047024
25.096896963687055	6.6692643	2.5824919
25.114852937159508	7.80154	2.7931237
25.132809537377444	8.313502	2.8833144
25.150766764847468	8.386952	2.8960235
25.168724620076347	7.8264303	2.7975757
25.186683103570985	6.8031216	2.6082795
25.204642215838426	5.609528	2.3684442
25.222601957385894	4.2052274	2.0506651
25.24056232872074	3.1980588	1.7883117
25.25852333035048	2.631525	1.6221976
25.276484962782778	2.2841759	1.5113491
25.294447226525435	2.1297293	1.4593592
25.312410122086423	2.0212834	1.4217185
25.330373649973843	1.9764054	1.4058468
25.348337810695988	1.924735	1.3873482
25.366302604761245	1.8816355	1.3717272
25.384268032678207	1.8860152	1.3733227
25.40223409495558	1.9154899	1.3840122
25.420200792102257	1.9084908	1.3814814
25.438168124627246	1.8851559	1.3730098
25.45613609303974	1.8996559	1.37828
25.474104697849057	1.914353	1.3836014
25.492073939564698	1.8914587	1.3753031
25.510043818696285	1.8454182	1.3584617
25.528014335753614	1.8479763	1.3594029
25.54598549124664	1.8918931	1.3754611
25.56395728568544	1.8913397	1.3752599
25.58192971958028	1.8579122	1.3630525
25.59990279344156	1.8661155	1.3660583
25.617876507779833	1.919018	1.3852862
25.635850863105826	1.9175506	1.3847564
25.653825859930386	1.954958	1.3981981
25.671801498764548	1.9155289	1.3840263
25.68977778011949	1.8686844	1.3669983
25.707754704506524	1.8539584	1.3616014
25.725732272437153	1.8470906	1.3590771
25.743710484423012	1.8497982	1.3600729
25.761689340975888	1.8700051	1.3674814
25.77966884260774	1.881922	1.3718317
25.797648989830662	1.8697885	1.3674021
25.815629783156922	1.8594035	1.3635994
25.83361122309895	1.8353075	1.3547353
25.85159331016929	1.828715	1.3522999
25.869576044880695	1.8132292	1.346562
25.887559427746034	1.7854493	1.336207
25.90554345927836	1.7896059	1.3377615
25.92352813999086	1.7998521	1.3415856
25.94151347039689	1.8611482	1.3642391
25.959499451009965	1.887843	1.373988
25.97748608234374	1.8669955	1.3663805
25.995473364912062	1.7842386	1.3357539
26.013461299228904	1.8038133	1.3430612
26.03144988580839	1.7998435	1.3415825
26.04943912516483	1.8405812	1.3566802
26.067429017812675	1.8602184	1.3638983
26.085419564266537	1.8752323	1.3693912
26.103410765041186	1.8396986	1.3563548
26.12140262065155	1.820292	1.349182
26.139395131612723	1.8183532	1.3484633
26.157388298439948	1.8173375	1.3480866
26.17538212164861	1.8131157	1.3465198
26.193376601754295	1.8533092	1.3613629
26.211371739272714	1.8644364	1.3654437
26.229367534719746	1.8544787	1.3617924
26.247363988611433	1.8177266	1.348231
26.26536110146397	1.8215433	1.3496456
26.283358873793727	1.7936078	1.3392564
26.301357306117204	1.7846147	1.3358947
26.319356398951104	1.8061861	1.3439442
26.33735615281224	1.8085617	1.3448278
26.35535656821762	1.7764832	1.3328477
26.373357645684404	1.7400564	1.319112
26.39135938572991	1.7271981	1.3142291
26.409361788871614	1.7357726	1.3174872
26.427364855627165	1.7965343	1.3403486
26.445368586514352	1.825087	1.3509578
26.46337298205115	1.8255726	1.3511375
26.48137804275568	1.8222516	1.349908
26.499383769146217	1.8123224	1.3462253
26.517390161741215	1.7591722	1.3263379
26.53539722105928	1.7567924	1.3254404
26.553404947619182	1.7791697	1.3338552
26.571413341939856	1.8221636	1.3498755
26.589422404540397	1.8761368	1.3697214
26.60743213594006	1.8865618	1.3735217
26.62544253665827	1.8667097	1.3662759
26.64345360721459	1.8144209	1.3470044
26.66146534812879	1.7592226	1.3263569
26.679477759920758	1.7574044	1.3256713
26.69749084311057	1.738196	1.3184066
26.71550459821847	1.7255226	1.3135915
26.733519025764842	1.7661948	1.3289826
26.751534126270258	1.8804965	1.371312
26.769549900255434	1.904255	1.3799474
26.787566348241267	1.9068359	1.3808823
26.80558347074881	1.8456454	1.3585453
26.823601268299267	1.859511	1.3636389
26.841619741414036	1.8344194	1.3544074
26.85963889061465	1.8277482	1.3519424
26.877658716422832	1.813892	1.3468081
26.89567921936045	1.832385	1.3536562
26.913700399949544	1.7930187	1.3390365
26.93172225871233	1.812788	1.3463981
26.949744796171174	1.8225921	1.3500341
26.967768012848605	1.852039	1.3608963
26.98579190926733	1.8312477	1.353236
27.003816485950225	1.8061663	1.3439369
27.021841743420318	1.7826264	1.3351504
27.039867682200814	1.7672209	1.3293686
27.057894302815072	1.7536653	1.3242604
27.07592160578664	1.7871692	1.3368505
27.0939495916392	1.8131372	1.3465278
27.111978260896635	1.8166565	1.347834
27.13000761408296	1.8515575	1.3607194
27.148037651722397	1.8776015	1.370256
27.166068374339304	1.8633	1.3650274
27.184099782458215	1.8283688	1.3521719
27.20213187660384	1.8210901	1.3494778
27.22016465730105	1.8306189	1.3530036
27.23819812507487	1.8224107	1.3499669
27.256232280450533	1.8334357	1.3540442
27.274267123953383	1.8735484	1.3687762
27.292302656108987	1.8514466	1.3606788
27.31033887744306	1.7692881	1.3301458
27.32837578848146	1.7477067	1.3220086
27.34641338975026	1.75551	1.3249565
27.364451681775673	1.7733277	1.3316635
27.382490665084074	1.7992151	1.3413483
27.400530340202046	1.7807359	1.3344421
27.41857070765629	1.7665147	1.329103
27.436611767973726	1.7538136	1.3243163
27.454653521681404	1.7779963	1.3334153
27.472695969306564	1.797459	1.3406935
27.490739111376627	1.8432326	1.3576571
27.508782948419153	1.8623542	1.364681
27.526827480961902	1.8197865	1.3489946
27.54487270953279	1.787259	1.336884
27.562918634659898	1.8074079	1.3443987
27.580965256871508	1.870176	1.3675438
27.599012576696026	1.870367	1.3676137
27.617060594662068	1.8862196	1.3733971
27.63510931129842	1.855783	1.3622713
27.65315872713401	1.8227149	1.3500797
27.67120884269797	1.8461717	1.358739
27.68925965851958	1.8489058	1.3597448
27.707311175128307	1.8661957	1.3660877
27.725363393053787	1.8955594	1.3767931
27.74341631282583	1.9400153	1.3928443
27.7614699349744	1.9071482	1.3809954
27.77952426002968	2.0698748	1.4387059
27.797579288521973	2.1281445	1.4588162
27.815635020981784	2.4756365	1.5734155
27.83369145793979	2.48725	1.5771018
27.85174859992682	2.3659928	1.5381784
27.869806447473923	2.236249	1.4954093
27.887865001112267	2.041645	1.4288615
27.905924261373233	1.9292805	1.3889854
27.92398422878836	1.8552842	1.3620882
27.94204490388936	1.7845737	1.3358793
27.96010628720813	1.8032671	1.3428578
27.978168379276728	1.8549439	1.3619633
27.9962311806274	1.8809184	1.3714658
28.014294691792568	1.8818532	1.3718065
28.0323589133048	1.9051343	1.3802661
28.050423845696887	1.9238843	1.3870416
28.068489489501758	1.8985039	1.3778621
28.086555845252523	1.8405088	1.3566536
28.104622913482487	1.7735693	1.3317542
28.122690694725115	1.8090974	1.345027
28.14075918951405	1.8658264	1.3659525
28.15882839838312	1.9036523	1.379729
28.176898321866304	1.9316931	1.3898536
28.1949689604978	1.9280138	1.3885294
28.213040314811945	1.9372574	1.3918539
28.23111238534327	1.9260978	1.3878392
28.249185172626493	1.8996025	1.3782607
28.267258677196473	1.9084425	1.3814639
28.285332899588294	1.95384	1.3977983
28.303407840337172	2.0138533	1.419103
28.321483499978545	2.027895	1.4240417
28.33955987904799	1.98081	1.4074125
28.357636978081285	1.9268175	1.3880985
28.37571479761439	1.9131447	1.3831648
28.393793338183425	1.9519343	1.3971164
28.41187260032469	1.9047714	1.3801346
28.429952584574686	1.8889678	1.3743973
28.448033291470065	1.9067377	1.3808467
28.46611472154769	1.9497097	1.39632
28.484196875344566	1.9889678	1.4103076
28.502279753397914	1.9929914	1.4117335
28.52036335624511	1.9620682	1.4007385
28.538447684423716	1.9709692	1.4039121
28.556532738471482	1.9796237	1.406991
28.574618518926325	1.9921703	1.4114426
28.59270502632635	2.045039	1.4300486
28.61079226120985	2.108949	1.4522221
28.628880224115274	2.0974956	1.4482733
28.646968915581287	2.053008	1.4328322
28.66505833614671	2.007275	1.4167833
28.68314848635055	2.0015316	1.414755
28.701239366732004	2.0376406	1.4274595
28.71933097783044	2.1057625	1.4511245
28.737423320185403	2.127355	1.4585456
28.75551639433665	2.082313	1.4430223
28.773610200824074	2.0432022	1.4294063
28.791704740187793	2.0592597	1.4350121
28.80980001296809	2.1179938	1.4553329
28.827896019705413	2.1551154	1.4680312
28.845992760940433	2.1728842	1.4740707
28.86409023721397	2.160512	1.4698681
28.88218844906704	2.1851819	1.4782361
28.900287397040845	2.194824	1.4814938
28.918387081676755	2.2321682	1.4940442
28.936487503516343	2.2538252	1.5012745
28.954588663101365	2.2193708	1.4897553
28.97269056097374	2.205537	1.485105
28.990793197675597	2.2733285	1.5077561
29.00889657374923	2.336361	1.5285159
29.027000689737125	2.3674467	1.5386509
29.04510554618196	2.419093	1.5553434
29.06321114362659	2.421057	1.5559746
29.08131748261405	2.413072	1.5534066
29.099424563687567	2.472046	1.5722741
29.11753238739057	2.5379646	1.593099
29.13564095426663	2.5721114	1.6037804
29.15375026485954	2.5393162	1.5935231
29.171860319713275	2.56852	1.6026603
29.18997111937199	2.6386635	1.6243963
29.20808266438002	2.679386	1.636883
29.226194955281898	2.719389	1.649057
29.244307992622335	2.8228254	1.6801267
29.26242177694624	2.8841982	1.6982927
29.2805363087987	2.8769758	1.696165
29.29865158872498	2.9143305	1.707141
29.316767617270557	2.9432702	1.7155962
29.334884394981064	2.9365737	1.7136434
29.353001922402367	2.9797492	1.726195
29.37112020008047	3.0595365	1.749153
29.389239228561596	3.2076387	1.7909882
29.407359008392152	3.4246097	1.8505701
29.42547954011872	3.7761724	1.9432377
29.44360082428809	4.3784485	2.0924742
29.46172286144722	5.3189306	2.3062806
29.479845652143283	6.8713284	2.621322
29.497969196923606	9.111057	3.018453
29.516093496335728	11.773467	3.4312487
29.5342185509274	14.757764	3.8415835
29.55234436124651	17.025932	4.1262493
29.570470927841175	18.388355	4.2881646
29.588598251259686	18.296022	4.277385
29.60672633205055	17.123112	4.138008
29.624855170762405	14.724609	3.837266
29.642984767944146	11.871267	3.4454706
29.66111512414481	9.224886	3.0372498
29.67924623991366	6.8749995	2.622022
29.697378115800138	5.202172	2.280827
29.71551075235387	4.23833	2.0587204
29.733644150124675	3.7435226	1.9348185
29.751778309662576	3.4754643	1.8642597
29.769913231517766	3.4075308	1.8459499
29.78804891624066	3.3844457	1.8396863
29.806185364381818	3.3211198	1.822394
29.82432257649206	3.2941074	1.8149676
29.842460553122333	3.3647494	1.8343253
29.86059929482382	3.4558315	1.8589867
29.878738802147872	3.4651964	1.8615038
29.896879075646048	3.3634365	1.8339674
29.915020115870114	3.290484	1.8139691
29.933161923371976	3.2677991	1.8077055
29.951304498703777	3.287576	1.8131673
29.969447842417857	3.2881541	1.8133268
29.987591955066733	3.29635	1.8155853
30.005736837203123	3.2532017	1.8036634
30.023882489379943	3.1419103	1.7725434
30.04202891215028	3.092583	1.7585741
30.060176106067455	3.0856922	1.7566139
30.078324071684946	3.0806215	1.75517
30.09647280955646	3.0776563	1.754325
30.114622320235863	3.069704	1.7520571
30.132772604277257	3.1232953	1.7672848
30.1509236622349	3.160328	1.7777311
30.16907549466328	3.1729116	1.7812668
30.18722810211705	3.1326475	1.7699287
30.205381485151097	3.0382657	1.7430621
30.22353564432045	2.9822545	1.7269205
30.241690580180403	3.0173073	1.7370398
30.25984629328638	3.0442784	1.744786
30.278002784194037	2.973808	1.7244732
30.296160053459246	2.9365246	1.7136291
30.314318101638033	2.9406605	1.7148354
30.332476929286646	2.9078667	1.7052468
30.35063653696153	2.884777	1.6984632
30.368796925219307	2.891216	1.7003577
30.386958094616844	2.895369	1.7015784
30.40512004571115	2.8328037	1.6830935
30.423282779059463	2.7862933	1.6692194
30.441446295219233	2.8391247	1.6849703
30.459610594748067	2.8978841	1.7023172
30.47777567820382	2.879277	1.6968433
30.495941546144504	2.8271856	1.6814237
30.51410819912835	2.7700775	1.6643549
30.532275637713795	2.8397763	1.6851636
30.55044386245946	2.8154073	1.6779176
30.56861287392416	2.7862244	1.6691988
30.586782672666956	2.7558215	1.6600667
30.604953259247047	2.8049912	1.6748108
30.623124634223885	2.8843029	1.6983235
30.641296798157075	2.864651	1.692528
30.659469751606462	2.844788	1.6866499
30.677643495132074	2.8093338	1.6761067
30.695818029294152	2.7719104	1.6649055
30.713993354653116	2.7648556	1.6627855
30.73216947176962	2.7604935	1.6614733
30.75034638120448	2.6895373	1.6399809
30.768524083518756	2.6886194	1.639701
30.786702579273673	2.6767855	1.6360885
30.80488186903069	2.7024915	1.6439257
30.82306195335144	2.8614745	1.6915894
30.841242832797782	3.1562784	1.7765918
30.85942450793176	3.4474607	1.8567339
30.877606979315637	3.724054	1.9297808
30.895790247511883	4.095883	2.0238287
30.913974313083134	4.5861382	2.1415272
30.932159176592283	4.974478	2.2303538
30.95034483860237	4.994025	2.2347317
30.968531299676698	4.694228	2.1666167
30.98671856037873	4.350001	2.0856655
31.00490662127215	4.045804	2.0114183
31.023095482920848	3.6185355	1.9022448
31.04128514588892	3.1340442	1.7703232
31.059475610740662	2.6866124	1.6390889
31.07766687804056	2.5040908	1.5824319
31.09585894835335	2.4542751	1.5666126
31.11405182224393	2.4408157	1.562311
31.132245500277417	2.4934082	1.5790529
31.15043998301914	2.5028274	1.5820327
31.168635271034628	2.4544644	1.566673
31.18683136488964	2.4863505	1.5768166
31.20502826515008	2.461358	1.5688716
31.223225972382135	2.4477887	1.5645411
31.241424487152155	2.361387	1.5366805
31.259623810026692	2.384557	1.5442011
31.27782394157253	2.3784738	1.5422301
31.296024882356644	2.324966	1.5247838
31.314226632946237	2.2831905	1.511023
31.332429193908684	2.3741198	1.5408179
31.350632565811598	2.45207	1.5659087
31.368836749222787	2.4795651	1.5746635
31.387041744710295	2.4390295	1.5617392
31.40524755284232	2.4520233	1.5658938
31.423454174187317	2.512411	1.5850587
31.441661609313922	2.4884	1.5774664
31.459869858791002	2.4518895	1.5658511
31.478078923187628	2.352949	1.5339324
31.496288803073064	2.331794	1.5270213
31.514499499016807	2.3725185	1.5402982
31.532711011588546	2.415288	1.5541197
31.550923341358178	2.403605	1.5503564
31.56913648889584	2.4256153	1.5574387
31.587350454771844	2.4340441	1.5601424
31.605565239556732	2.392354	1.5467236
31.62378084382127	2.3555243	1.5347718
31.641997268136382	2.308981	1.5195332
31.660214513073274	2.2321246	1.4940296
31.67843257920331	2.2577605	1.5025846
31.6966514670981	2.3104029	1.5200009
31.71487117732944	2.3184106	1.5226328
31.733091710469346	2.3593886	1.5360302
31.751313067090052	2.4006143	1.5493916
31.769535247764008	2.4040592	1.5505029
31.787758253063878	2.4240134	1.5569243
31.805982083562526	2.4771006	1.5738808
31.824206739833024	2.4344862	1.560284
31.84243222244869	2.3685987	1.5390252
31.860658531983013	2.3323338	1.5271981
31.878885669009737	2.3117063	1.5204296
31.897113634102784	2.3035328	1.5177394
31.91534242783632	2.2669232	1.5056305
31.933572050784694	2.2281933	1.4927135
31.951802503522508	2.22227	1.490728
31.970033786624548	2.1757612	1.4750462
31.988265900665834	2.1841946	1.477902
32.006498846221575	2.1980858	1.4825943
32.02473262386724	2.2295444	1.4931659
32.04296723417845	2.1510575	1.4666483
32.0612026777311	2.1022813	1.4499246
32.07943895510129	2.1635246	1.4708924
32.097676066865304	2.2563162	1.5021039
32.115914013599685	2.2514975	1.5004991
32.13415279588115	2.2283983	1.4927821
32.152392414286666	2.252387	1.5007955
32.1706328693934	2.2126145	1.487486
32.18887416177875	2.1420844	1.4635861
32.20711629202032	2.145575	1.4647782
32.225359260695924	2.25781	1.5026011
32.243603068383614	2.216387	1.4887536
32.26184771566166	2.1352549	1.4612511
32.28009320310852	2.0652575	1.4371004
32.2983395313029	2.0466118	1.4305984
32.31658670082372	2.0622659	1.4360591
32.33483471225012	2.0575817	1.4344273
32.35308356616143	2.117313	1.455099
32.371333263137245	2.1639104	1.4710236
32.38958380375734	2.2050767	1.4849501
32.407835188601744	2.1685233	1.4725907
32.42608741825067	2.159796	1.4696244
32.444340493284585	2.1265903	1.4582833
32.46259441428416	2.031376	1.4252634
32.48084918183028	2.0091286	1.4174373
32.49910479650405	2.122242	1.4567916
32.51736125888683	2.0922966	1.4464773
32.53561856956014	2.0195262	1.4211004
32.5538767291058	2.013575	1.4190049
32.572135738105764	2.0290678	1.4244535
32.59039559714228	2.0539424	1.4331582
32.608656306797776	2.1628487	1.4706627
32.62691786765491	2.1504884	1.4664544
32.645180280296586	2.0891669	1.4453951
32.663443545305896	2.085845	1.4442455
32.68170766326619	2.128107	1.4588033
32.69997263476099	2.019915	1.4212372
32.7182384603741	1.905296	1.3803246
32.7365051406895	1.9905596	1.4108719
32.75477267629144	2.0923164	1.4464841
32.77304106776434	2.141023	1.4632235
32.79131031569289	2.1382313	1.4622692
32.809580420661966	2.044758	1.4299504
32.827851383256714	2.067006	1.4377086
32.84612320406245	2.0895855	1.4455398
32.86439588366476	2.058502	1.434748
32.88266942264945	2.0049686	1.4159691
32.9009438216025	1.9845898	1.4087547
32.9192190811102	1.9749231	1.4053196
32.937495201758985	1.881761	1.3717729
32.95577218413556	1.9109204	1.3823605
32.974050028826866	1.9580334	1.3992975
32.992328736420035	2.0468347	1.4306763
33.010608307502444	2.0760024	1.4408339
33.02888874266169	2.0581582	1.4346282
33.047170042485604	2.0063527	1.4164578
33.06545220756225	2.0023973	1.4150609
33.083735238479896	2.0329337	1.4258099
33.10201913582707	2.04471	1.4299335
33.12030390019248	2.0280204	1.4240859
33.138589532165135	2.0298164	1.4247162
33.15687603233419	1.9553117	1.3983246
33.17516340128909	1.9521213	1.3971833
33.19345163961947	2.0032454	1.4153605
33.211740747915215	1.9773483	1.4061822
33.23003072676643	1.9425707	1.3937614
33.248321576763466	1.8857712	1.3732338
33.266613298496885	1.8321414	1.3535662
33.28490589255747	1.7516382	1.3234947
33.30319935953626	1.8286612	1.35228
33.32149370002451	1.872997	1.3685749
33.339788914613706	1.8666042	1.3662373
33.358085003895575	1.890007	1.3747753
33.376381968462034	1.9680736	1.4028804
33.39467980890529	2.0015962	1.4147778
33.41297852581774	2.0032356	1.415357
33.43127811979204	2.1044502	1.4506724
33.44957859142105	2.0937798	1.4469899
33.467879941297866	2.0571055	1.4342613
33.486182170015844	1.90963	1.3818936
33.50448527816853	1.8035508	1.3429635
33.522789266349754	1.7915912	1.3385034
33.541094135153514	1.9177234	1.3848189
33.55939988517411	2.0079298	1.4170144
33.57770651700602	1.9796824	1.4070119
33.59601403124398	1.9011023	1.3788047
33.61432242848296	1.8134941	1.3466604
33.632631709318154	1.8354632	1.3547927
33.650941874344994	1.8951807	1.3766556
33.66925292415916	1.8578825	1.3630416
33.68756485935654	1.929745	1.3891526
33.70587768053328	1.9957029	1.4126935
33.724191388285746	1.9538214	1.3977916
33.74250598321054	1.928699	1.3887761
33.760821465904506	1.9092635	1.381761
33.77913783696474	1.9929742	1.4117273
33.79745509698852	1.9491862	1.3961326
33.815773246573414	1.9240993	1.387119
33.8340922863172	1.8807044	1.3713877
33.852412216817896	1.8342994	1.3543631
33.87073303867377	1.8472831	1.3591479
33.889054752483304	1.8835655	1.3724306
33.907377358845245	1.908857	1.3816139
33.92570085835853	1.8808485	1.3714403
33.94402525162239	1.7997583	1.3415507
33.96235053923627	1.8296801	1.3526567
33.980676721799824	1.9163035	1.3843062
33.999003799912984	2.018509	1.4207424
34.01733177417592	2.0535111	1.4330077
34.03566064518901	1.9569414	1.3989072
34.0539904135529	1.9110292	1.3823998
34.07232107986846	2.0103958	1.4178842
34.090652644736785	2.1068144	1.451487
34.108985108759235	2.1602468	1.4697778
34.12731847253742	2.0285838	1.4242836
34.14565273667313	2.0654082	1.4371529
34.16398790176847	2.210564	1.4867965
34.18232396842574	2.1672418	1.4721555
34.20066093724749	2.0080543	1.4170583
34.21899880883651	2.009925	1.4177182
34.23733758379583	2.0328326	1.4257743
34.25567726272874	2.051647	1.4323571
34.27401784623872	1.9089683	1.3816541
34.29235933492957	1.7545409	1.3245908
34.31070172940526	1.8281144	1.3520778
34.32904503027003	1.910677	1.3822724
34.347389238128386	1.9268881	1.388124
34.36573435358502	1.993374	1.4118689
34.38408037724492	1.9350505	1.391061
34.402427309713296	1.8126394	1.3463429
34.42077515159559	2.0495408	1.4316217
34.43912390349752	2.1650372	1.4714066
34.45747356602499	2.083704	1.4435041
34.47582413978423	1.9452353	1.3947169
34.49417562538163	2.0176663	1.4204458
34.51252802342388	2.1691234	1.4727944
34.53088133451789	2.1023574	1.4499508
34.54923555927084	1.9620737	1.4007404
34.567590698290104	1.8427665	1.3574854
34.58594675218336	1.8654374	1.3658102
34.6043037215585	1.8840481	1.3726063
34.62266160702365	1.8444939	1.3581214
34.641020409187234	1.8206295	1.3493071
34.65938012865785	1.911752	1.3826612
34.677740766044394	1.87981	1.3710617
34.69610232195598	1.7742113	1.3319952
34.714464797002016	1.746471	1.3215412
34.73282819179208	1.8250796	1.350955
34.751192506936064	1.8680686	1.366773
34.76955774304408	1.920404	1.3857864
34.7879239007265	2.054214	1.4332529
34.80629098059391	2.1770186	1.4754723
34.824658983257194	2.1116843	1.4531635
34.843027909327446	1.9516677	1.397021
34.86139775941603	2.1178086	1.4552692
34.879768534134534	2.1095355	1.452424
34.89814023409483	1.9224198	1.3865136
34.91651285990901	1.7907686	1.338196
34.93488641218944	1.9231906	1.3867915
34.95326089154871	2.0276983	1.4239727
34.97163629859967	2.1615043	1.4702055
34.99001263395542	2.1218765	1.4566662
35.00838989822934	2.0958526	1.447706
35.02676809203499	2.0140018	1.4191554
35.04514721598624	1.9124038	1.3828969
35.063527270697215	1.8449649	1.3582948
35.081908256782256	1.7300539	1.3153151
35.10029017485597	1.8274316	1.3518252
35.11867302553321	2.0815163	1.442746
35.137056809429104	2.0448115	1.4299691
35.155441527159006	1.8042358	1.3432184
35.173827179338524	1.8195267	1.3488983
35.19221376658354	1.8881632	1.3741045
35.21060128951017	1.9381986	1.392192
35.2289897487348	2.0365644	1.4270824
35.24737914487405	2.1708999	1.4733974
35.26576947854479	2.081688	1.4428055
35.28416075036418	2.1090534	1.452258
35.30255296094958	2.0386717	1.4278207
35.32094611091867	1.9787917	1.4066954
35.33934020088932	2.154685	1.4678845
35.35773523147969	2.1410813	1.4632435
35.3761312033082	1.7153177	1.3097014
35.394528116993506	1.8322664	1.3536124
35.41292597315452	1.967517	1.4026821
35.431324772410434	1.7666271	1.3291452
35.449724515380666	1.9516739	1.3970232
35.46812520268491	2.4971838	1.580248
35.486526834943106	2.727281	1.6514481
35.504929412775454	2.318212	1.5225676
35.52333293680242	2.1983166	1.4826721
35.54173740764471	1.962195	1.4007838
35.560142825923286	1.7879342	1.3371365
35.5785491922594	1.5623385	1.2499354
35.59695650727454	1.6219056	1.2735406
35.61536477159042	1.9727423	1.4045434
