0.008763373481513119	0.0	0.0
0.026290120649546365	0.0	0.0
0.043816868432600686	0.0	0.0
0.06134361724069026	0.0	0.0
0.07887036748382949	0.0	0.0
0.0963971195720331	0.03539418	0.18813342
0.11392387391531617	0.06033131	0.24562433
0.1314506309236943	0.08074012	0.28414807
0.1489773910071836	0.06037793	0.24571921
0.16650415457580078	0.066177204	0.2572493
0.18403092203956356	0.075909294	0.27551642
0.20155769380849	0.13243434	0.3639153
0.2190844702925996	0.15962422	0.39953
0.2366112519019124	0.22099176	0.4700976
0.2541380390464497	0.18660562	0.43197873
0.27166483213623416	0.21315272	0.46168464
0.28919163158128947	0.2094561	0.45766374
0.3067184377916406	0.20465559	0.45238876
0.324245251177314	0.11935433	0.34547696
0.34177207214833777	0.080094256	0.2830093
0.3592989011147415	0.11897571	0.34492856
0.37682573848655654	0.13757482	0.3709108
0.39435258467381573	0.16432336	0.40536818
0.41187944008655414	0.14489931	0.38065642
0.42940630513480854	0.14503509	0.38083473
0.446933180228618	0.1249221	0.3534432
0.4644600657780234	0.0952126	0.30856538
0.48198696219306775	0.12327158	0.35110053
0.49951386988379676	0.14115599	0.37570733
0.5170407892602581	0.1399486	0.37409705
0.5345677207325025	0.12668155	0.35592353
0.5520946647105822	0.15924928	0.3990605
0.5696216216045534	0.15093163	0.3884992
0.5871485918244737	0.17349778	0.41653064
0.6046755757804043	0.15216334	0.3900812
0.6222025738824094	0.16960655	0.41183317
0.6397295865405557	0.15447095	0.39302793
0.6572566141649129	0.18619102	0.4314986
0.6747836571655547	0.19301987	0.43934026
0.6923107159525568	0.20145573	0.4488382
0.7098377909359992	0.20211524	0.4495723
0.7273648825259653	0.24234529	0.4922858
0.7448919911325411	0.24161804	0.49154657
0.762419117165817	0.22252543	0.471726
0.7799462610358868	0.19504705	0.4416413
0.7974734231528482	0.20962559	0.45784888
0.8150006039268024	0.17308652	0.4160367
0.8325278037678551	0.15529189	0.39407092
0.8500550230861152	0.182565	0.42727625
0.8675822622916969	0.21748196	0.4663496
0.8851095217947171	0.23663287	0.48644924
0.9026368020052984	0.28003323	0.52918166
0.9201641033335665	0.25227824	0.5022731
0.9376914261896523	0.27118137	0.52075076
0.9552187709836915	0.28007224	0.5292185
0.9727461381258234	0.25122243	0.50122094
0.990273528026193	0.25922292	0.5091394
1.0078009410949496	0.22108626	0.47019812
1.0253283777422473	0.22585016	0.47523695
1.0428558383782454	0.24885572	0.4988544
1.0603833234131086	0.26393113	0.51374227
1.0779108332570058	0.29137692	0.53979343
1.0954383683201119	0.29762816	0.5455531
1.112965929012607	0.34323177	0.58585984
1.1304935157446763	0.49005413	0.7000387
1.1480211289265108	0.53836787	0.73373556
1.1655487689683062	1.3669218	1.1691543
1.1830764362802655	1.6825261	1.2971222
1.200604131272596	2.0931046	1.4467566
1.2181318543555117	2.4213736	1.5560764
1.235659605939232	2.38121	1.543117
1.253187386433982	3.8822818	1.9703506
1.270715196249994	6.5109034	2.5516472
1.2882430357975057	11.970203	3.459798
1.3057709054867608	16.859894	4.10608
1.3232988057280106	22.604446	4.754413
1.3408267369315112	27.34717	5.229452
1.358354699507526	31.053728	5.572587
1.3758826938663256	35.260174	5.938028
1.3934107204181858	37.25842	6.1039677
1.410938779573391	37.29353	6.106843
1.4284668717422309	37.59746	6.1316767
1.4459949973350033	36.923332	6.076457
1.4635231567620117	37.410435	6.116407
1.4810513504335687	36.935616	6.077468
1.4985795787599925	36.267323	6.022236
1.5161078421516088	35.714443	5.976156
1.5336361410187505	34.87275	5.9053154
1.5511644757717598	35.15482	5.92915
1.5686928468209842	35.925373	5.9937778
1.58622125457678	36.58709	6.048726
1.6037496994495108	37.450394	6.119673
1.621278181849548	36.528625	6.0438914
1.6388067021872719	36.996372	6.082464
1.6563352608730693	36.61487	6.051022
1.673863858317336	36.04921	6.0040994
1.6913924949304753	35.434807	5.9527144
1.7089211711228998	34.277134	5.8546677
1.7264498873050296	33.678566	5.8033237
1.7439786438872935	32.967346	5.7417197
1.7615074412801288	32.230713	5.67721
1.779036279893981	32.114674	5.666981
1.796565160139305	31.408924	5.6043663
1.814094082426564	30.729822	5.5434484
1.8316230471662298	29.627384	5.4431043
1.849152054768784	28.719318	5.3590407
1.8666811056447168	28.042896	5.295554
1.8842102002045273	27.182894	5.2137218
1.901739338858724	26.556908	5.1533394
1.9192685220178245	25.825064	5.0818367
1.9367977500923557	25.126497	5.012634
1.9543270234928547	24.87661	4.9876456
1.971856342629867	24.077219	4.906854
1.9893857079139496	23.262232	4.8230934
2.006915119755667	22.719088	4.766454
2.0244445785655945	22.30316	4.722622
2.0419740847543175	22.16393	4.7078586
2.0595036387324317	21.708038	4.6591887
2.0770332409105414	21.460382	4.632535
2.094562891699263	21.156277	4.599595
2.1120925915092217	20.864885	4.5678096
2.129622340751053	20.336859	4.5096407
2.1471521398354043	188.2999	13.722241
2.1646819891729323	444.4807	21.082712
2.182211889174303	440.43396	20.986519
2.1997418402501974	452.87463	21.280851
2.2172718428113023	432.98978	20.808407
2.234801897268317	320.90628	17.913857
2.2523320040319548	17.321249	4.1618805
2.269862163512935	17.177158	4.1445336
2.287392376121992	16.816294	4.1007676
2.304922642269869	16.536753	4.0665407
2.322452962367322	16.359407	4.0446763
2.3399833368251164	15.9143095	3.9892743
2.357513766054032	15.696849	3.9619248
2.3750442504648586	15.17219	3.8951495
2.3925747904683963	14.770151	3.8431954
2.410105386475459	14.52004	3.810517
2.4276360388968707	14.348621	3.7879574
2.445166748143469	14.33664	3.7863755
2.4626975146261025	14.086264	3.7531672
2.4802283387556323	13.775472	3.7115324
2.4977592209429305	13.51361	3.6760862
2.5152901615988825	13.1405735	3.6249928
2.5328211611343865	13.121534	3.622366
2.5503522199603523	12.988254	3.603922
2.5678833384877024	12.750415	3.5707724
2.5854145171273712	12.408425	3.5225594
2.6029457562903064	11.954379	3.4575105
2.620477056387469	11.695265	3.4198341
2.6380084178298326	11.713983	3.4225695
2.655539841028383	11.536064	3.3964782
2.673071326394119	11.433618	3.3813634
2.6906028743380523	11.276462	3.3580444
2.708134485271211	11.168625	3.3419492
2.7256661596046325	11.205966	3.3475313
2.743197897749369	10.960995	3.3107393
2.760729700116486	10.711253	3.272805
2.778261567117063	10.246255	3.200977
2.795793499162193	10.0256405	3.1663291
2.8133254966629817	9.836925	3.136387
2.830857560030551	9.814335	3.132784
2.8483896896760337	9.742863	3.121356
2.865921886010578	9.675792	3.1105936
2.883454149445347	9.458126	3.0754066
2.9009864803915177	9.396798	3.0654197
2.91851887926028	9.3019705	3.0499132
2.9360513464628384	9.194711	3.032278
2.953583882410413	8.99319	2.9988647
2.9711164875142373	8.841825	2.9735205
2.9886491621855606	8.793118	2.9653192
3.0061819068356455	8.650066	2.9410994
3.023714721875769	8.477737	2.9116554
3.041247607717225	8.297304	2.8805041
3.0587805647713213	8.195696	2.8628125
3.0763135934493806	8.222563	2.8675013
3.0938466941627407	8.158473	2.8563042
3.1113798673227544	8.076829	2.8419762
3.1289131133407904	7.954734	2.8204138
3.1464464326282315	7.8279824	2.7978532
3.1639798255964786	7.724682	2.7793312
3.1815132926569443	7.602647	2.7572896
3.1990468342210603	7.614017	2.7593508
3.216580450700272	7.57789	2.7527966
3.2341141425060416	7.5684648	2.7510843
3.251647910049847	7.4547124	2.730332
3.2691817537431813	7.288364	2.699697
3.286715673997555	7.1170774	2.6677852
3.3042496712244938	7.036627	2.6526642
3.32178374583554	6.8504024	2.6173272
3.339317898242251	6.8147736	2.610512
3.3568521288562034	6.7074323	2.5898712
3.3743864380889876	6.711218	2.590602
3.3919208263522127	6.8017745	2.6080213
3.4094552940575023	6.9013844	2.6270485
3.4269898416164972	6.8880577	2.624511
3.444524469440858	6.8285403	2.6131475
3.4620591779422587	6.677702	2.584125
3.479593967532391	6.6493044	2.5786245
3.4971288386229658	6.6636147	2.5813978
3.5146637916257086	6.607116	2.5704312
3.5321988269523628	6.561332	2.5615098
3.5497339450146903	6.3712435	2.5241323
3.5672691462244708	6.340499	2.5180347
3.5848044309934988	6.2656274	2.5031235
3.60233979973359	6.273126	2.504621
3.619875252856575	6.1423397	2.4783745
3.6374107907743034	6.1913805	2.4882486
3.6549464138986427	6.3156533	2.5130963
3.6724821226414788	6.3681746	2.5235243
3.690017917414714	6.3477807	2.5194802
3.7075537986302702	6.3843303	2.5267231
3.7250897667000857	6.387939	2.5274372
3.7426258220361235	6.4984603	2.5492077
3.7601619650503553	6.764988	2.600959
3.777698196154779	7.3889008	2.7182531
3.7952345157614067	8.4617605	2.9089105
3.8127709242822716	9.192671	3.0319417
3.830307422129425	11.441044	3.3824613
3.847844009714936	30.25894	5.5008125
3.8653806874508954	97.84971	9.891901
3.882917455749409	97.24959	9.861521
3.900454315022606	97.12008	9.854952
3.917991265682631	41.65746	6.454259
3.9355283081416506	11.273262	3.3575678
3.9530654428118495	8.944765	2.99078
3.970602670105433	7.663456	2.7682948
3.9881399904346244	6.7493734	2.5979557
4.005677404211669	6.636095	2.576062
4.023214911848827	6.6229424	2.5735078
4.0407525137583855	6.712247	2.5908005
4.058290210352644	6.7754107	2.602962
4.075828002043927	6.676025	2.5838006
4.0933658892445814	6.4863496	2.5468314
4.110903872366966	6.3121414	2.5123975
4.128441951823468	6.1123652	2.4723198
4.145980128026488	6.1165285	2.4731617
4.163518401388452	6.1687093	2.4836886
4.181056772321807	6.2418475	2.498369
4.1985952412390155	6.222305	2.4944549
4.216133808552567	6.2377834	2.4975555
4.233672474674966	6.357158	2.5213406
4.251211240018741	6.5717854	2.5635493
4.268750104996445	6.80223	2.6081085
4.286289070020643	7.6308365	2.7623968
4.303828135503928	9.231279	3.038302
4.3213673018589125	29.58397	5.4391146
4.3389065694982305	90.79262	9.528516
4.356445938834537	166.0126	12.884588
4.3739854102805085	171.73643	13.104825
4.391524984248844	172.6946	13.141332
4.409064661152262	136.79263	11.695838
4.426604441403504	96.94086	9.845855
4.444144325415337	75.85143	8.709272
4.461684313600543	21.92114	4.6820016
4.47922440637193	22.460836	4.7392864
4.496764604142329	20.774279	4.557881
4.5143049073245916	19.009748	4.360017
4.531845316331589	16.756693	4.093494
4.5493858315762195	13.840059	3.720223
4.566926453471405	11.427603	3.3804739
4.584467182430081	9.340873	3.0562842
4.602008018865218	8.111822	2.8481262
4.619548963189798	7.441489	2.7279093
4.637090015816834	7.0272	2.6508868
4.654631177159353	6.8631525	2.619762
4.672172447630417	6.624903	2.5738888
4.689713827643102	6.3637366	2.5226448
4.7072553176105085	6.099474	2.4697113
4.724796917945764	5.916276	2.4323397
4.742338629062015	5.917915	2.4326766
4.759880451372434	5.847859	2.4182346
4.777422385290215	5.8077235	2.409922
4.794964431228581	5.757652	2.3995109
4.812506589600768	5.803045	2.408951
4.830048860820047	5.7675343	2.4015691
4.847591245299709	5.7323465	2.394232
4.8651337434530655	5.675088	2.3822443
4.882676355693457	5.622298	2.3711386
4.900219082434242	5.6064186	2.3677876
4.917761924088813	5.6226816	2.3712194
4.935304881070575	5.7294607	2.3936293
4.952847953792969	5.7188725	2.3914165
4.970391142669449	5.711115	2.3897939
4.9879344481135055	5.6621776	2.379533
5.005477870538642	5.649638	2.3768969
5.023021410358394	5.6496377	2.3768966
5.040565067986324	5.6156816	2.3697429
5.05810884383601	5.591783	2.364695
5.075652738321066	5.537483	2.3531857
5.09319675185512	5.5107102	2.3474903
5.110740884851836	5.4691124	2.3386133
5.128285137724894	5.493491	2.3438199
5.145829510888007	5.416386	2.3273132
5.163374004754908	5.394072	2.322514
5.1809186197393595	5.3890877	2.321441
5.198463356255145	5.3588266	2.314914
5.216008214716077	5.2981505	2.3017712
5.233553195535998	5.29209	2.3004544
5.251098299128764	5.315724	2.3055854
5.268643525908272	5.3779736	2.3190458
5.286188876288432	5.351837	2.3134038
5.3037343506831895	5.3122005	2.3048213
5.32127994950651	5.278825	2.2975693
5.3388256731723915	5.232681	2.2875054
5.356371522094851	5.2220917	2.2851896
5.373917496687938	5.246719	2.2905717
5.391463597365729	5.2386813	2.2888167
5.40900982454232	5.159316	2.2714128
5.426556178631843	5.1245255	2.2637415
5.444102660048449	5.103213	2.2590292
5.4616492692063225	5.185903	2.2772577
5.479196006519669	5.2143936	2.2835047
5.496742872402727	5.2298837	2.2868938
5.514289867269756	5.2255588	2.285948
5.531836991535049	5.180808	2.2761388
5.549384245612924	5.1442575	2.2680955
5.566931629917724	5.186394	2.2773657
5.584479144863822	5.159766	2.2715118
5.6020267908656205	5.24021	2.2891505
5.619574568337545	5.2426624	2.2896862
5.637122477694054	5.1653104	2.272732
5.654670519349629	5.1406484	2.2673
5.672218693718784	5.046113	2.2463555
5.689767001216059	5.096017	2.2574358
5.707315442256021	5.076568	2.253124
5.724864017253266	5.105359	2.259504
5.7424127266224225	5.188576	2.2778447
5.75996157077814	5.2234817	2.2854939
5.777510550135105	5.2584853	2.2931387
5.795059665108022	5.2290015	2.286701
5.812608916111639	5.2467694	2.2905827
5.830158303560715	5.3057947	2.303431
5.847707827870055	5.3480372	2.3125825
5.86525748945448	5.448132	2.3341234
5.8828072887288485	5.5733647	2.3607974
5.900357226108044	5.6393723	2.3747363
5.917907302006979	5.743139	2.3964846
5.9354575168406	6.360352	2.5219738
5.9530078710238765	7.0045686	2.6466146
5.970558364971812	7.5356336	2.7451108
5.988108999099438	7.857391	2.8031037
6.005659773821818	8.305932	2.8820014
6.023210689554039	7.9967995	2.8278613
6.040761746711227	8.428015	2.9031043
6.058312945708531	7.8177457	2.7960231
6.075864286961132	7.3655915	2.7139623
6.093415770884244	6.70634	2.5896602
6.1109673978931065	6.1727366	2.4844992
6.128519168402993	5.611266	2.3688111
6.146071082829204	5.421913	2.3285003
6.163623141587075	5.3540335	2.3138785
6.181175345091969	5.3247294	2.3075376
6.198727693759281	5.317114	2.3058867
6.216280188004435	5.2950006	2.301087
6.233832828242885	5.3080673	2.3039243
6.251385614890126	5.3116183	2.304695
6.268938548361669	5.322458	2.3070452
6.286491629073067	5.218843	2.2844787
6.304044857439898	5.12548	2.2639523
6.321598233877777	4.9866257	2.2330754
6.339151758802344	5.032617	2.2433496
6.356705432629277	5.136544	2.2663946
6.37425925577428	5.0730476	2.2523427
6.391813228653095	4.9543877	2.2258453
6.409367351681486	4.876879	2.2083657
6.426921625275259	4.9364715	2.2218173
6.44447604985025	5.060233	2.2494962
6.46203062582232	5.000312	2.2361376
6.47958535360737	4.936488	2.2218208
6.497140233621328	4.944066	2.2235255
6.514695266280161	4.9888954	2.2335835
6.532250451999859	5.0449347	2.2460933
6.549805791196454	5.0611706	2.2497046
6.567361284286002	5.1062093	2.2596922
6.584916931684597	5.1376967	2.2666488
6.602472733808367	5.1116095	2.260887
6.6200286910734665	5.0205054	2.2406485
6.637584803896092	5.0012364	2.2363443
6.655141072692462	4.9913282	2.234128
6.672697497878842	4.9760814	2.2307131
6.690254079871514	4.9528546	2.225501
6.707810819086808	4.951169	2.2251222
6.725367715941078	5.005293	2.2372513
6.742924770850719	4.9704485	2.2294502
6.760481984232151	4.936666	2.221861
6.778039356501836	4.904671	2.2146492
6.795596888076266	4.9071865	2.215217
6.813154579371963	4.9197607	2.2180533
6.830712430805492	4.9074974	2.2152872
6.84827044279344	4.9545207	2.2258754
6.865828615752445	4.973914	2.2302275
6.883386950099159	5.020863	2.2407281
6.900945446250287	5.0531793	2.2479277
6.918504104622553	5.1314697	2.2652748
6.936062925632727	5.15288	2.2699957
6.953621909697607	5.120837	2.2629266
6.971181057234028	5.1099224	2.2605138
6.988740368658859	5.1426306	2.267737
7.006299844389007	5.280516	2.2979374
7.023859484841407	5.408845	2.3256924
7.041419290433036	5.4761853	2.340125
7.058979261580902	5.586788	2.3636386
7.0765393987020495	5.7391825	2.3956592
7.094099702213559	6.163395	2.4826186
7.111660172532549	6.646325	2.5780468
7.129220810076164	7.0080647	2.647275
7.146781615261595	7.603423	2.7574306
7.16434258850606	7.66992	2.769462
7.181903730226821	8.006633	2.8295994
7.1994650408411704	7.9963465	2.8277812
7.217026520766437	8.133642	2.851954
7.234588170419983	8.382644	2.8952796
7.252149990219215	8.375031	2.8939648
7.269711980581568	8.317263	2.8839664
7.2872741419245175	8.164037	2.8572779
7.304836474665574	7.7628565	2.7861903
7.322398979222286	7.485548	2.735973
7.339961656012233	7.167373	2.677195
7.357524505453039	6.787634	2.6053088
7.375087527962357	6.475745	2.5447485
7.392650723957886	6.2386312	2.4977252
7.410214093857353	5.9243326	2.4339952
7.427777638078528	5.7549405	2.3989458
7.445341357039213	5.5901165	2.3643427
7.4629052511572525	5.487276	2.3424935
7.480469320850524	5.4020815	2.3242378
7.498033566536948	5.2957664	2.3012533
7.5155979886344735	5.1997843	2.2803035
7.5331625875610975	5.111261	2.26081
7.550727363734844	5.10988	2.2605042
7.568292317573788	5.144504	2.2681499
7.585857449496025	5.2230625	2.285402
7.603422759919705	5.297409	2.30161
7.620988249263007	5.2865458	2.299249
7.638553917944147	5.254117	2.292186
7.656119766381391	5.1880403	2.277727
7.673685794993023	5.2112246	2.2828107
7.691252004197388	5.218084	2.2843125
7.70881839441285	5.2369704	2.2884429
7.726384966057826	5.271892	2.29606
7.743951719550762	5.248688	2.2910016
7.761518655310149	5.287431	2.2994413
7.779085773754511	5.3055687	2.303382
7.796653075302419	5.2741656	2.2965553
7.814220560372475	5.310569	2.3044672
7.831788229383323	5.379136	2.3192964
7.8493560827536495	5.464311	2.3375866
7.866924120902174	5.4648957	2.3377116
7.884492344247663	5.375929	2.318605
7.9020607532089135	5.340079	2.310861
7.919629348204771	5.312079	2.3047948
7.937198129654115	5.354808	2.3140457
7.954767097975865	5.363002	2.3158157
7.972336253588986	5.3435683	2.311616
7.989905596912472	5.3643017	2.3160963
8.007475128365371	5.3506866	2.3131552
8.025044848366756	5.3780947	2.319072
8.042614757335754	5.45386	2.33535
8.060184855691523	5.552592	2.3563938
8.07775514385327	5.810579	2.410514
8.095325622240228	5.910704	2.431194
8.112896291271687	5.9743514	2.4442487
8.130467151366968	5.9132676	2.4317212
8.148038202945436	5.9016385	2.429329
8.165609446426497	5.8934307	2.427639
8.183180882229594	5.920973	2.433305
8.200752510774217	5.9027534	2.4295583
8.218324332479893	5.919078	2.4329154
8.235896347766193	5.912328	2.4315279
8.253468557052724	5.9762964	2.4446466
8.27104096075914	6.040998	2.4578443
8.288613559305137	6.090633	2.4679208
8.306186353110448	6.0977135	2.4693549
8.32375934259485	6.0896926	2.4677303
8.341332528178162	6.0962877	2.4690661
8.358905910280246	6.1241646	2.474705
8.376479489321003	6.2055044	2.491085
8.394053265720377	6.2439017	2.49878
8.411627239898356	6.2604814	2.5020955
8.42920141227497	6.287339	2.5074568
8.44677578327029	6.284152	2.5068212
8.464350353304427	6.224801	2.494955
8.48192512279754	6.2610364	2.5022063
8.499500092169827	6.2235155	2.4946976
8.51707526184153	6.253618	2.5007234
8.534650632232934	6.2091136	2.4918094
8.552226203764365	6.176046	2.485165
8.569801976856192	6.1461577	2.4791446
8.587377951928834	6.186975	2.487363
8.60495412940274	6.284175	2.5068257
8.622530509698416	6.3426685	2.5184655
8.6401070932364	6.451116	2.5399048
8.657683880437283	6.5671635	2.5626478
8.675260871721695	6.7466264	2.597427
8.692838067510303	6.929881	2.6324668
8.710415468223834	7.0941467	2.6634839
8.727993074283043	7.261211	2.6946635
8.745570886108737	7.2399354	2.6907127
8.763148904121765	7.229793	2.6888275
8.78072712874302	7.2246675	2.687874
8.798305560393441	7.379578	2.716538
8.815884199494006	7.505778	2.7396674
8.833463046465745	7.6313653	2.7624927
8.851042101729728	7.8084726	2.7943645
8.86862136570707	8.159558	2.856494
8.886200838818924	8.347493	2.8892028
8.903780521486505	8.335226	2.8870792
8.921360414131055	8.43967	2.9051108
8.938940517173874	8.584228	2.9298851
8.956520831036297	8.793434	2.9653726
8.97410135613971	9.108404	3.0180132
8.99168209290554	9.194853	3.0323017
9.009263041755265	9.477209	3.0785077
9.026844203110405	9.691688	3.1131475
9.044425577392525	9.964377	3.1566403
9.062007165023239	10.234102	3.1990783
9.079588966424197	10.489948	3.238819
9.097170982017108	10.570911	3.251294
9.11475321222372	11.439108	3.382175
9.132335657465825	12.299979	3.5071325
9.149918318165264	12.365444	3.5164533
9.167501194743924	12.929335	3.5957384
9.18508428762374	12.612663	3.5514312
9.202667597226693	12.593613	3.548748
9.220251123974803	12.291611	3.5059392
9.237834868290143	11.99574	3.4634867
9.255418830594836	11.719761	3.4234135
9.273003011311046	11.212509	3.3485086
9.290587410860985	10.958391	3.3103461
9.308172029666911	10.332431	3.2144098
9.32575686815113	10.078107	3.1746035
9.343341926735997	8.851159	2.9750898
9.360927205843916	8.669436	2.9443908
9.378512705897327	8.492447	2.9141803
9.396098427318728	8.306913	2.8821716
9.413684370530664	8.149834	2.8547914
9.431270535955722	7.971567	2.8233964
9.448856924016539	7.875885	2.8064008
9.466443535135806	7.826268	2.7975469
9.484030369736251	7.8724365	2.8057864
9.501617428240658	7.836822	2.7994325
9.519204711071852	7.823435	2.7970405
9.536792218652714	7.8108153	2.7947836
9.55437995140617	7.810728	2.794768
9.571967909755191	7.868069	2.805008
9.589556094122802	7.866436	2.8047168
9.60714450493207	7.8802752	2.8071828
9.624733142606116	7.849128	2.8016295
9.642322007568108	7.8056707	2.793863
9.659911100241267	7.872631	2.805821
9.677500421048851	7.967673	2.8227067
9.695089970414175	8.027286	2.8332465
9.712679748760609	8.047154	2.8367507
9.730269756511557	8.036829	2.8349302
9.747859994090492	8.078622	2.8422916
9.765450461920915	8.11643	2.848935
9.78304116042639	8.130663	2.8514318
9.800632090030527	8.212128	2.865681
9.81822325115699	8.229493	2.8687093
9.835814644229481	8.212598	2.865763
9.853406269671762	8.261719	2.8743205
9.870998127907646	8.309267	2.88258
9.888590219360985	8.340701	2.8880272
9.906182544455698	8.437596	2.9047542
9.923775103615734	8.40137	2.8985116
9.941367897265108	8.479786	2.912007
9.958960925827878	8.416658	2.9011478
9.97655418972816	8.41096	2.9001656
9.994147689390106	8.465578	2.9095666
10.011741425237934	8.470669	2.9104414
10.029335397695904	8.445168	2.9060571
10.04692960718833	8.406646	2.8994217
10.06452405413958	8.33523	2.8870797
10.082118738974064	8.3436165	2.888532
10.099713662116246	8.306225	2.8820522
10.117308823990651	8.359633	2.891303
10.134904225021844	8.38726	2.8960767
10.152499865634445	8.385478	2.895769
10.170095746253125	8.335247	2.8870828
10.18769186730261	8.317521	2.8840113
10.205288229207675	8.288633	2.8789988
10.222884832393145	8.206616	2.8647192
10.2404816772839	8.1877985	2.861433
10.258078764304868	8.184856	2.8609188
10.275676093881035	8.12294	2.8500772
10.293273666437438	8.100751	2.8461819
10.310871482399158	8.10706	2.84729
10.32846954219134	8.121502	2.849825
10.346067846239173	8.172321	2.8587272
10.363666394967908	8.143194	2.8536282
10.38126518880283	8.159154	2.8564234
10.398864228169298	8.183484	2.860679
10.416463513492713	8.140895	2.8532252
10.434063045198531	8.230248	2.868841
10.451662823712262	8.246964	2.8717527
10.469262849459467	8.291852	2.8795576
10.486863122865758	8.21053	2.8654022
10.504463644356806	8.107963	2.8474483
10.522064414358338	8.004974	2.8293064
10.539665433296118	7.9618664	2.821678
10.557266701595987	7.9673414	2.822648
10.574868219683818	7.923124	2.8148043
10.592469987985552	7.8823533	2.8075528
10.610072006927185	7.8496747	2.801727
10.627674276934751	7.684154	2.7720306
10.64527679843435	7.4157495	2.7231874
10.662879571852143	7.186948	2.6808484
10.680482597614331	7.035208	2.6523967
10.698085876147173	6.9311533	2.6327083
10.715689407876988	6.862514	2.61964
10.733293193230146	6.7863326	2.6050591
10.750897232633072	6.688044	2.5861254
10.76850152651225	6.639623	2.5767467
10.786106075294207	6.55679	2.560623
10.803710879405534	6.467238	2.5430765
10.821315939272877	6.416052	2.5329926
10.83892125532294	6.334121	2.516768
10.856526827982472	6.305934	2.5111618
10.874132657678285	6.252501	2.5005002
10.891738744837243	6.174088	2.4847713
10.909345089886271	6.1234856	2.4745677
10.926951693252343	6.082693	2.4663117
10.944558555362494	6.060157	2.4617386
10.96216567664381	5.9749594	2.444373
10.979773057523436	5.8900466	2.4269419
10.997380698428573	5.8197474	2.4124153
11.014988599786477	5.807756	2.4099286
11.032596762024461	5.796977	2.4076912
11.050205185569892	5.7237487	2.3924358
11.067813870850198	5.6410255	2.3750844
11.085422818292859	5.5967445	2.3657439
11.10303202832541	5.501881	2.345609
11.120641501375454	5.3480406	2.3125832
11.138251237870636	5.2727804	2.2962534
11.155861238238671	5.276658	2.2970977
11.173471502907317	5.2738657	2.29649
11.191082032304402	5.229404	2.286789
11.208692826857805	5.1483965	2.269008
11.226303886995465	5.0665197	2.250893
11.243915213145371	5.0304565	2.242868
11.261526805735578	4.964672	2.2281544
11.279138665194196	4.9628797	2.2277522
11.296750791949393	4.8898573	2.2113023
11.314363186429393	4.8930345	2.2120204
11.331975849062479	4.86346	2.2053254
11.34958878027699	4.7893367	2.1884553
11.36720198050133	4.693946	2.1665516
11.384815450163948	4.563279	2.1361833
11.402429189693366	4.4582744	2.1114626
11.420043199518153	4.372332	2.0910122
11.437657480066942	63.36019	7.9599113
11.455272031768422	85.14015	9.227142
11.472886855051353	107.56721	10.371461
11.490501950344528	99.160645	9.957944
11.508117318076819	84.449844	9.18966
11.52573295867715	45.824196	6.769357
11.543348872574514	4.1670594	2.0413377
11.560965060197946	4.163817	2.0405433
11.57858152197655	4.105227	2.026136
11.59619825833949	4.016763	2.0041864
11.613815269715985	3.97194	1.9929726
11.631432556535323	38.449444	6.2007613
11.649050119226837	83.00431	9.11067
11.666667958219929	93.41073	9.664923
11.68428607394406	107.67476	10.376645
11.701904466828756	82.52	9.084052
11.719523137303586	65.33498	8.083005
11.737142085798196	4.5875554	2.1418579
11.754761312742286	3.6853669	1.9197309
11.772380818565619	3.633435	1.9061571
11.790000603698015	3.6261296	1.9042399
11.80762066856935	3.6323254	1.905866
11.825241013609572	3.6449838	1.9091841
11.842861639248683	3.6410656	1.9081576
11.860482545916748	3.5758975	1.8910043
11.878103734043883	3.5118117	1.8739829
11.895725204060282	3.435336	1.8534659
11.91334695639619	3.416109	1.848272
11.930968991481919	3.3795898	1.838366
11.948591309747824	3.374849	1.8370762
11.966213911624347	3.3451512	1.8289754
11.98383679754198	3.3663979	1.8347746
12.001459967931268	3.3792624	1.838277
12.019083423222835	3.390409	1.8413063
12.036707163847352	3.3730583	1.8365887
12.05433119023556	3.2856274	1.8126299
12.071955502818259	3.2380977	1.7994715
12.089580102026313	3.2026985	1.7896085
12.107204988290643	3.1724706	1.7811431
12.12483016204224	3.1682734	1.7799644
12.142455623712152	3.1588476	1.7773147
12.16008137373149	3.1472607	1.774052
12.177707412531431	3.1131704	1.7644179
12.19533374054321	3.088203	1.7573284
12.212960358198126	3.0541766	1.7476202
12.230587265927545	3.0311573	1.7410219
12.248214464162889	3.0197701	1.7377486
12.265841953335649	2.9925401	1.729896
12.283469733877375	2.993852	1.730275
12.301097806219685	3.0197616	1.7377461
12.31872617079425	3.036756	1.742629
12.336354828032825	3.0015492	1.7324979
12.353983778367205	2.9986117	1.73165
12.371613022229262	3.0097773	1.734871
12.389242560050928	3.0115345	1.7353773
12.406872392264201	2.9423952	1.7153411
12.424502519301143	2.922146	1.7094285
12.442132941593874	2.9185953	1.7083896
12.459763659574586	2.9613323	1.7208523
12.477394673675532	2.9102378	1.7059419
12.49502598432903	2.8683987	1.6936347
12.51265759196746	2.8325222	1.6830099
12.530289497023267	2.81758	1.6785649
12.547921699928967	2.806193	1.6751696
12.565554201117134	2.8093288	1.6761053
12.583187001020404	2.7809706	1.6676242
12.600820100071486	2.7661004	1.6631597
12.618453498703152	2.748607	1.6578923
12.636087197348235	2.7689981	1.6640307
12.65372119643964	2.7806735	1.6675352
12.671355496410326	2.7978973	1.6726917
12.68899009769333	2.8136692	1.6773995
12.706625000721749	2.8647625	1.6925609
12.724260205928752	2.9470844	1.7167075
12.741895713747551	2.9881384	1.7286233
12.759531524611454	3.0293088	1.7404909
12.777167638953818	3.0119545	1.7354983
12.794804057208072	2.9887261	1.7287933
12.812440779807702	2.9976654	1.7313768
12.830077807186271	3.1478326	1.7742132
12.847715139777405	3.2176912	1.7937924
12.865352778014795	3.4154449	1.8480922
12.882990722332197	3.5620313	1.8873345
12.90062897316344	3.6316984	1.9057015
12.918267530942412	3.7185366	1.9283508
12.935906396103071	3.5874276	1.8940506
12.953545569079449	3.7487895	1.9361792
12.971185050305628	3.5794425	1.8919414
12.988824840215775	3.6255949	1.9040995
13.006464939244115	3.6382914	1.9074305
13.024105347824943	3.4459188	1.8563186
13.041746066392617	3.518439	1.8757503
13.05938709538157	3.3610682	1.8333217
13.077028435226296	3.412174	1.8472071
13.094670086361363	3.3342853	1.8260025
13.112312049221401	3.213876	1.7927287
13.129954324241112	3.10555	1.7622571
13.147596911855258	2.9232094	1.7097396
13.165239812498685	2.8747563	1.6955106
13.182883026606293	2.8068135	1.6753547
13.200526554613058	2.7728677	1.665193
13.218170396954017	2.716784	1.6482669
13.235814554064284	2.7174613	1.6484724
13.253459026379034	2.703226	1.6441491
13.271103814333523	2.7035255	1.6442401
13.288748918363058	2.72087	1.649506
13.306394338903031	2.6946576	1.6415412
13.32404007638889	2.6756847	1.6357521
13.341686131256164	2.7020857	1.6438022
13.359332503940449	2.722619	1.6500361
13.376979194877402	2.7493486	1.658116
13.394626204502751	2.7996135	1.6732045
13.412273533252307	2.7984855	1.6728674
13.429921181561937	2.74213	1.6559378
13.447569149867581	2.7051861	1.644745
13.465217438605247	2.711221	1.6465786
13.482866048211022	2.742648	1.6560942
13.500514979121052	2.7618325	1.6618762
13.518164231771568	2.716781	1.6482661
13.535813806598844	2.683677	1.6381932
13.553463704039254	2.6604626	1.6310924
13.571113924529229	2.6640081	1.6321789
13.588764468505275	2.6790512	1.6367807
13.606415336403956	2.67091	1.6342919
13.624066528661917	2.6957924	1.6418868
13.641718045715882	2.7884429	1.6698631
13.659369888002635	2.8599303	1.6911328
13.67702205595903	2.923374	1.7097877
13.694674550021993	2.9833791	1.7272462
13.712327370628532	3.0463855	1.7453898
13.729980518215713	3.1351266	1.7706288
13.747633993220681	3.2064948	1.7906688
13.765287796080647	3.262186	1.8061522
13.7829419272329	3.3103905	1.8194479
13.800596387114801	3.336559	1.826625
13.818251176163775	3.313784	1.8203801
13.835906294817324	3.33259	1.8255383
13.853561743513023	3.4054682	1.845391
13.871217522688525	3.4851034	1.8668431
13.888873632781538	3.5425498	1.8821663
13.906530074229858	3.5899785	1.8947239
13.92418684747135	3.5338519	1.8798542
13.941843952943948	3.5038996	1.8718706
13.959501391085665	3.4833589	1.8663758
13.977159162334578	3.4677427	1.8621876
13.994817267128846	3.4595025	1.8599738
14.012475705906693	3.3562071	1.8319954
14.030134479106424	3.2524147	1.8034452
14.047793587166414	3.167076	1.779628
14.065453030525108	3.0730906	1.7530233
14.083112809621026	3.0392852	1.7433546
14.100772924892766	3.0049005	1.7334648
14.118433376778997	2.9833586	1.7272402
14.136094165718458	2.8776906	1.6963757
14.153755292149969	2.792957	1.6712142
14.171416756512416	2.724944	1.6507405
14.189078559244768	2.6369486	1.6238683
14.20674070078606	2.5390968	1.5934544
14.224403181575408	2.4577816	1.5677314
14.242066002051999	2.4198055	1.5555724
14.259729162655093	2.4270318	1.5578934
14.277392663824022	2.4150052	1.5540287
14.295056505998208	2.4106328	1.5526212
14.312720689617128	2.3883624	1.5454328
14.330385215120348	2.4103475	1.5525293
14.348050082947497	2.3807104	1.542955
14.3657152935383	2.3776498	1.541963
14.383380847332528	2.3262105	1.5251919
14.401046744770051	2.3335702	1.5276028
14.418712986290798	2.335077	1.5280958
14.436379572334793	2.3860772	1.5446932
14.454046503342123	2.4031458	1.5502083
14.471713779752946	2.4147534	1.5539477
14.489381402007504	2.4052515	1.5508873
14.507049370546113	2.4213316	1.5560628
14.524717685809168	2.4309297	1.5591439
14.542386348237134	2.4419534	1.5626751
14.560055358270553	2.4086535	1.5519837
14.577724716350051	2.4275799	1.5580692
14.595394422916325	2.4018602	1.5497936
14.61306447841015	2.4482906	1.5647014
14.63073488327237	2.4797666	1.5747274
14.648405637943917	2.541412	1.5941807
14.6660767428658	2.5319927	1.5912236
14.683748198479094	2.5183718	1.5869379
14.701420005224954	2.524348	1.5888197
14.719092163544628	2.6050005	1.6140014
14.73676467387942	2.6655715	1.6326578
14.754437536670727	2.7427537	1.6561261
14.772110752360014	2.753312	1.6593107
14.78978432138882	2.732232	1.6529465
14.807458244198777	2.7080073	1.6456025
14.82513252123159	2.6484249	1.6273981
14.842807152929028	2.6694603	1.6338483
14.860482139732962	2.671938	1.6346064
14.87815748208531	2.7028706	1.644041
14.8958331804281	2.7285995	1.6518474
14.91350923520342	2.6835148	1.6381437
14.931185646853438	2.6720564	1.6346426
14.948862415820408	2.626513	1.6206521
14.966539542546656	2.622057	1.6192766
14.98421702747459	2.6307943	1.6219723
15.001894871046696	2.6755848	1.6357214
15.019573073705542	2.709923	1.6461844
15.037251635893766	2.7269917	1.6513605
15.054930558054092	2.721947	1.6498324
15.072609840629323	2.7499166	1.6582873
15.090289484062351	2.8870673	1.6991372
15.107969488796124	3.1893268	1.7858686
15.125649855273691	3.5722895	1.8900502
15.14333058393817	4.0749903	2.0186605
15.161011675232768	5.085958	2.2552068
15.17869312960076	6.514472	2.5523465
15.196374947485506	8.417268	2.9012527
15.214057129330447	11.501234	3.391347
15.231739675579114	16.152454	4.0190115
15.249422586675102	21.024263	4.5852222
15.267105863062092	23.960749	4.894972
15.284789505183847	24.100134	4.9091887
15.302473513484218	21.929182	4.6828604
15.320157888407127	18.56074	4.3082175
15.337842630396578	14.606006	3.8217804
15.355527739896656	11.421847	3.3796225
15.37321321735153	8.791086	2.9649765
15.39089906320545	6.3712835	2.5241401
15.408585277902748	4.7387447	2.1768658
15.42627186188783	3.6782258	1.9178702
15.443958815605198	3.1808066	1.7834816
15.461646139499424	2.9356303	1.7133682
15.479333834015168	2.8405724	1.6853998
15.497021899597165	2.7961173	1.6721594
15.514710336690234	2.7180464	1.6486499
15.53239914573928	2.6622374	1.6316364
15.550088327189297	2.5878916	1.6086925
15.567777881485336	2.561365	1.6004264
15.58546780907256	2.5029252	1.5820636
15.6031581103962	2.4869711	1.5770134
15.620848785901568	2.4712865	1.5720326
15.638539836034063	2.4788003	1.5744206
15.656231261239173	2.4556978	1.5670667
15.673923061962451	2.4234564	1.5567454
15.691615238649552	2.4106255	1.5526189
15.709307791746202	2.4189053	1.5552831
15.727000721698221	2.423757	1.556842
15.744694028951498	2.4520578	1.5659049
15.76238771395202	2.4601135	1.5684749
15.780081777145844	2.444366	1.5634469
15.797776218979125	2.3898067	1.5459
15.815471039898094	2.355531	1.534774
15.833166240349064	2.3112586	1.5202824
15.850861820778437	2.324857	1.5247482
15.868557781632699	2.3616269	1.5367585
15.886254123358412	2.3802304	1.5427996
15.903950846402232	2.3346927	1.5279701
15.921647951210897	2.302723	1.5174725
15.939345438231225	2.333681	1.527639
15.957043307910133	2.3809993	1.5430487
15.974741560694602	2.4510424	1.5655805
15.992440197031714	2.4595342	1.5682902
16.01013921736862	2.4172018	1.5547353
16.02783862215259	2.3742385	1.5408564
16.045538411830933	2.3650277	1.5378647
16.06323858685107	2.3797655	1.5426489
16.080939147660512	2.3759584	1.5414144
16.09864009470684	2.3759031	1.5413965
16.11634142843774	2.348706	1.5325489
16.134043149300954	2.377797	1.5420107
16.15174525774433	2.3701026	1.5395138
16.169447754215817	2.365276	1.5379454
16.18715063916342	2.3875794	1.5451794
16.204853913035244	2.4137216	1.5536157
16.222557576279478	2.4489117	1.5648999
16.240261629344403	22.449696	4.738111
16.257966072678386	43.030804	6.559787
16.275670906729868	38.131107	6.1750393
16.293376131947387	2.5413303	1.5941551
16.31108174877957	2.5330164	1.5915453
16.328787757675133	2.5604248	1.6001327
16.34649415908287	2.586746	1.6083364
16.364200953451657	2.5930214	1.6102861
16.38190814123048	2.6183014	1.6181166
16.39961572286839	2.6440604	1.6260567
16.41732369881455	2.6972005	1.6423156
16.43503206951817	2.7767324	1.666353
16.45274083542859	2.8260665	1.6810908
16.47044999699522	2.8610315	1.6914583
16.488159554667558	2.8514345	1.6886191
16.505869508895184	2.8769019	1.6961433
16.523579860127786	2.910177	1.705924
16.541290608815117	2.999344	1.7318615
16.559001755407035	3.079329	1.7548018
16.57671330035348	3.0795805	1.7548734
16.59442524410448	3.0768478	1.7540946
16.61213758711015	3.1298015	1.7691245
16.629850329820705	3.2268105	1.7963325
16.647563472686436	3.3355145	1.8263391
16.665277016157724	3.3880622	1.8406689
16.682990960685053	3.4193366	1.8491448
16.70070530671898	3.3838413	1.839522
16.718420054710155	3.3669438	1.8349234
16.736135205109335	3.4419723	1.8552554
16.753850758367335	3.5640116	1.887859
16.771566714935087	3.6466024	1.9096079
16.789283075263597	3.748976	1.9362272
16.80699983980398	3.8039837	1.9503804
16.82471700900741	3.9127424	1.9780653
16.84243458332518	3.9697046	1.9924117
16.860152563208665	4.056308	2.0140278
16.87787094910932	4.0726714	2.0180862
16.89558974147871	4.0842514	2.0209532
16.913308940768466	4.131202	2.0325358
16.931028547430333	4.173437	2.0428991
16.94874856191613	4.247946	2.0610545
16.966468984677785	4.401416	2.0979552
16.98418981616729	4.4854913	2.1178977
17.00191105683676	4.526807	2.1276293
17.019632707138374	4.48483	2.1177416
17.03735476752442	4.4921126	2.1194603
17.05507723844728	4.498083	2.1208684
17.072800120359403	4.5252256	2.1272578
17.090523413713353	4.522998	2.126734
17.108247118961785	4.548356	2.1326876
17.125971236557437	4.571734	2.1381614
17.143695766953133	4.6126003	2.1476965
17.161420710601806	4.672489	2.1615942
17.179146067956477	4.687236	2.1650026
17.19687183947025	4.667492	2.1604378
17.21459802559634	4.629	2.1515112
17.232324626788028	4.605292	2.1459944
17.25005164349871	4.635608	2.1530464
17.267779076181863	4.684005	2.164256
17.285506925291074	4.721574	2.1729183
17.30323519127999	4.699695	2.167878
17.320963874602384	4.638106	2.1536262
17.33869297571211	4.6010065	2.1449957
17.356422495063114	4.5968676	2.1440306
17.37415243310944	4.5764256	2.1392581
17.391882790305218	4.5308156	2.1285713
17.40961356710468	4.5098886	2.1236498
17.42734476396215	4.49865	2.1210022
17.445076381332044	4.5949917	2.143593
17.462808419668868	4.66588	2.160065
17.48054087942723	4.772965	2.1847117
17.498273761061835	5.039058	2.2447846
17.51600706502747	5.483027	2.3415864
17.533740791779024	6.181813	2.4863253
17.551474941771485	7.5998325	2.7567794
17.56920951545993	8.792776	2.9652615
17.586944513299528	11.030589	3.321233
17.60467993574556	12.675815	3.560311
17.622415783253373	14.245439	3.774313
17.64015205627843	15.519524	3.9394827
17.657888755276293	16.452456	4.056163
17.675625880702604	16.957058	4.1178946
17.69336343301311	16.801876	4.099009
17.71110141266366	16.152622	4.0190325
17.728839820110178	15.207013	3.899617
17.746578655808705	14.333589	3.7859726
17.764317920215372	12.979422	3.6026964
17.7820576137864	11.595947	3.4052823
17.79979773697811	9.572731	3.093983
17.81753829024692	7.6391897	2.7639084
17.835279274049356	5.9127026	2.4316049
17.85302068884201	4.869856	2.206775
17.870762535081607	4.217623	2.0536852
17.888504813224934	3.9168584	1.9791055
17.90624752372891	3.7420511	1.9344382
17.923990667050536	3.628356	1.9048244
17.941734243646895	3.5674531	1.8887702
17.959478253975185	3.5308945	1.8790674
17.9772226984927	3.4761512	1.8644439
17.994967577656833	3.4402933	1.8548027
18.01271289192506	3.4288933	1.8517271
18.030458641754965	3.4314291	1.8524117
18.04820482760425	3.3815067	1.8388873
18.06595144993067	3.3386917	1.8272088
18.083698509192125	3.3125868	1.8200513
18.101446005846576	3.2757244	1.8098962
18.119193940352105	3.2529497	1.8035935
18.136942313166887	3.2257562	1.796039
18.1546911247492	3.2159684	1.7933121
18.1724403755574	3.2176738	1.7937876
18.19019006604997	3.1932178	1.7869577
18.207940196685467	3.1768875	1.7823825
18.225690767922575	3.1356194	1.770768
18.243441780220046	3.083576	1.7560114
18.261193234036764	3.0814245	1.7553986
18.278945129831676	3.081286	1.7553592
18.29669746806386	3.104815	1.7620485
18.314450249192483	3.0851846	1.7564694
18.3322034736768	3.1052399	1.7621691
18.349957141976184	3.1219413	1.7669016
18.3677112545501	3.117816	1.7657338
18.385465811858108	3.114076	1.7646744
18.403220814359884	3.1276498	1.7685163
18.420976262515172	3.1295593	1.7690561
18.43873215678387	3.1533804	1.775776
18.456488497625923	3.1882288	1.7855612
18.474245285501407	3.2868934	1.8129791
18.492002520870486	3.3708487	1.8359871
18.50976020419343	3.4532306	1.858287
18.527518335930615	3.773463	1.9425404
18.545276916542516	4.360118	2.0880895
18.563035946489688	4.510038	2.123685
18.580795426232832	4.921514	2.2184486
18.598555356232698	4.7872906	2.1879878
18.616315736950185	5.118261	2.2623575
18.63407656884626	4.7893114	2.1884496
18.65183785238201	5.042233	2.2454917
18.669599588018617	4.833329	2.1984835
18.68736177621737	4.7860036	2.1876936
18.705124417439652	4.694324	2.1666389
18.72288751214696	4.4896474	2.1188788
18.740651060800886	4.5952215	2.1436467
18.758415063863115	4.307449	2.0754395
18.77617952179546	4.4729776	2.1149416
18.793944435059814	4.2585783	2.0636322
18.811709804118184	4.239795	2.0590763
18.829475629432675	4.2164636	2.053403
18.8472419114655	4.0272927	2.0068116
18.86500865067897	4.086277	2.021454
18.88277584753551	3.741872	1.9343919
18.90054350249763	3.771488	1.9420319
18.918311616027957	3.4998457	1.8707875
18.936080188589226	3.3984075	1.843477
18.953849220644265	3.086387	1.7568116
18.971618712656007	2.9166567	1.7078222
18.9893886650875	2.902797	1.7037597
19.007159078401887	8.071242	2.8409932
19.024929953062408	32.930943	5.7385488
19.042701289532435	32.85694	5.7320976
19.060473088275405	25.42302	5.0421243
19.07824534975489	2.6713057	1.6344129
19.096018074434568	2.62276	1.6194937
19.113791262778197	2.618833	1.6182809
19.13156491524966	2.6429553	1.6257168
19.149339032312945	2.636723	1.623799
19.167113614432136	2.588423	1.6088576
19.184888662071433	2.5618105	1.6005657
19.202664175695123	2.5201156	1.5874872
19.220440155767623	2.5325592	1.5914016
19.238216602753447	2.525009	1.5890276
19.2559935171172	2.4955683	1.5797368
19.27377089932361	2.4929724	1.5789149
19.291548749837514	2.473111	1.5726128
19.309327069123835	2.4934106	1.5790536
19.32710585764763	2.4659886	1.5703467
19.344885115874032	2.4682214	1.5710574
19.362664844268313	2.5174704	1.5866538
19.380445043295822	2.548458	1.596389
19.39822571342203	2.528016	1.5899736
19.41600685511252	2.4964807	1.5800256
19.43378846883297	2.458239	1.5678773
19.451570555049173	2.4701452	1.5716696
19.469353114227037	2.4647868	1.5699639
19.48713614683254	2.4986367	1.5807077
19.50491965333182	2.4920368	1.5786186
19.52270363419109	2.4754336	1.573351
19.540488089876686	2.4546385	1.5667286
19.55827302085503	2.494077	1.5792646
19.576058427592674	2.5063138	1.5831342
19.593844310556282	2.4865217	1.5768709
19.611630670212598	2.489549	1.5778304
19.629417507028506	2.4983861	1.5806284
19.64720482147098	2.4949417	1.5795385
19.6649926140071	2.4902563	1.5780545
19.682780885104084	2.4746153	1.573091
19.70056963522921	2.4702213	1.5716938
19.718358864849908	2.4735205	1.5727429
19.7361485744337	2.484963	1.5763766
19.753938764448215	2.53058	1.5907797
19.771729435361202	2.5595222	1.5998507
19.789520587640506	2.5716126	1.6036248
19.807312221754092	2.532118	1.591263
19.825104338170043	2.5309062	1.5908822
19.842896937356517	2.5424342	1.5945013
19.860690019781824	2.5511181	1.597222
19.87848358591436	2.5629513	1.600922
19.896277636222635	2.5436037	1.594868
19.914072171175278	2.5389621	1.5934122
19.931867191241015	2.5070229	1.583358
19.94966269688869	2.4814992	1.5752774
19.967458688587264	2.462314	1.5691762
19.985255166805807	2.458603	1.5679933
20.00305213201348	2.463588	1.5695821
20.020849584679578	2.4289002	1.5584929
20.038647525273507	2.424735	1.5571561
20.05644595426477	2.4514291	1.565704
20.07424487212299	2.494043	1.579254
20.092044279317903	2.4968126	1.5801306
20.109844176319353	2.503533	1.5822556
20.127644563597304	2.4465585	1.5641478
20.145445441621817	2.4359527	1.5607538
20.16324681086307	2.4019198	1.5498128
20.181048671791373	2.4417903	1.5626229
20.198851024877122	2.439324	1.5618335
20.216653870590836	2.4097002	1.5523208
20.234457209403146	2.3640106	1.5375339
20.252261041784802	2.3464897	1.5318255
20.270065368206662	2.3403237	1.5298116
20.287870189139685	2.300469	1.5167297
20.305675505054968	2.3060691	1.5185747
20.323481316423702	2.3232605	1.5242245
20.341287623717207	2.3611565	1.5366055
20.359094427406884	2.3645937	1.5377235
20.376901727964288	2.3586056	1.5357753
20.39470952586107	2.352413	1.5337578
20.41251782156899	2.3375876	1.5289171
20.430326615559935	2.352666	1.5338403
20.448135908305886	2.3432767	1.5307765
20.465945700278965	2.3856874	1.544567
20.483755991951384	2.389322	1.5457432
20.50156678379548	2.3735988	1.5406488
20.519378076283708	2.3100214	1.5198754
20.537189869888635	2.2819705	1.5106193
20.55500216508294	2.3057156	1.5184582
20.572814962339415	2.338135	1.5290961
20.59062826213098	2.3195584	1.5230097
20.60844206493066	2.2850673	1.5116439
20.626256371211593	2.2842546	1.5113751
20.644071181447032	2.3260548	1.5251409
20.66188649611036	2.3257473	1.52504
20.67970231567506	2.2882674	1.512702
20.697518640614742	2.2365484	1.4955094
20.715335471403122	2.2339559	1.4946424
20.73315280851404	2.2577758	1.5025897
20.750970652421447	2.2876272	1.5124904
20.768789003599412	2.3150938	1.5215433
20.786607862522136	2.305602	1.5184209
20.8044272296639	2.297159	1.5156381
20.82224710549913	2.2787695	1.5095594
20.84006749050237	2.300419	1.5167133
20.857888385148268	3.8519094	1.9626282
20.8757097899116	45.948067	6.7785006
20.893531705267254	64.78804	8.049102
20.911354131690224	83.77626	9.152937
20.92917706965566	69.011185	8.307297
20.94700051963877	50.083946	7.077001
20.96482448211493	29.405615	5.422694
20.982648957559622	4.1745105	2.0431619
21.00047394644843	2.294566	1.5147824
21.01829944925707	2.2932312	1.5143418
21.036125466461375	2.2937365	1.5145086
21.053951998537297	2.2522066	1.5007353
21.071779045960906	2.1890945	1.479559
21.089606609208378	2.1586025	1.4692184
21.10743468875603	2.163894	1.471018
21.12526328508028	2.194785	1.4814807
21.143092398657675	2.2216032	1.4905044
21.16092202996488	2.2175019	1.4891279
21.17875217947867	2.215216	1.4883602
21.19658284767596	2.2392414	1.4964095
21.21441403503377	2.258686	1.5028926
21.232245742029225	2.2551425	1.5017132
21.2500779691396	2.2444541	1.4981502
21.26791071684227	2.2034936	1.484417
21.28574398561475	2.1490173	1.4659528
21.30357777593465	2.1123312	1.4533861
21.321412088279704	2.1765685	1.4753197
21.339246923127792	2.2123134	1.4873848
21.357082280956888	2.1849446	1.4781559
21.3749181622451	2.1408703	1.4631714
21.392754567470647	2.0840015	1.4436071
21.41059149711187	2.0834653	1.4434214
21.42842895164726	2.103923	1.4504906
21.446266931555378	2.1090567	1.4522592
21.464105437314945	2.1148515	1.4542528
21.481944469404798	2.0988965	1.4487569
21.49978402830388	2.1208727	1.4563216
21.51762411449127	2.1258063	1.4580145
21.53546472844617	2.0871658	1.4447026
21.553305870647876	2.0622745	1.4360621
21.571147541575865	2.0410104	1.4286393
21.58898974170967	2.0746746	1.4403731
21.60683247152899	2.0748053	1.4404185
21.62467573151363	2.0769808	1.4411734
21.642519522143523	2.0588713	1.4348768
21.660363843898722	2.0481482	1.4311353
21.6782086972594	2.00516	1.4160367
21.696054082705864	2.0004537	1.414374
21.713900000718535	2.0129268	1.4187765
21.73174645177795	2.0385993	1.4277953
21.749593436364794	2.0518818	1.4324391
21.767440954959845	2.0533345	1.4329461
21.785289008044032	2.0448992	1.4299997
21.803137596098388	2.0337007	1.4260788
21.820986719604086	2.0536637	1.433061
21.838836379042412	2.0628138	1.4362499
21.85668657489478	2.0759223	1.4408062
21.87453730764273	2.0870905	1.4446766
21.892388577767914	2.0920804	1.4464025
21.91024038575213	2.1083264	1.4520078
21.928092732077285	2.109842	1.4525295
21.945945617225426	2.0961778	1.4478183
21.963799041678694	2.0599108	1.435239
21.981653005919398	31.368353	5.6007457
21.999507510429943	78.154816	8.840521
22.01736255569286	73.11758	8.550881
22.035218142190818	4.2222686	2.054816
22.05307427040661	2.0571072	1.4342619
22.07093094082315	2.0828426	1.4432057
22.088788153923474	2.073576	1.4399917
22.106645910190746	2.0644693	1.4368261
22.12450421010827	2.0276647	1.4239609
22.142363054159464	2.0082877	1.4171407
22.16022244282787	2.009329	1.417508
22.178082376597164	2.0019405	1.4148995
22.195942855951145	1.9856623	1.4091353
22.213803881373742	1.977775	1.4063339
22.231665453349002	1.9665905	1.4023517
22.24952757236111	1.9769571	1.406043
22.26739023889438	1.9891179	1.4103609
22.28525345343323	2.0004804	1.4143834
22.30311721646225	1.9780061	1.406416
22.320981528466113	1.9567695	1.3988458
22.33884638992964	1.9828701	1.4081442
22.356711801337788	1.9927775	1.4116577
22.37457776317561	1.9876052	1.4098245
22.392444275928337	1.9418802	1.3935137
22.410311340081282	1.941624	1.3934216
22.428178956119904	1.916698	1.3844486
22.446047124529805	1.919906	1.3856068
22.46391584579669	1.9338919	1.3906444
22.481785120406414	1.9067097	1.3808366
22.49965494884496	1.8819155	1.3718293
22.51752533159841	1.8978064	1.3776089
22.53539626915302	1.9360152	1.3914076
22.553267761995137	1.981956	1.4078196
22.571139810611264	1.969538	1.4034023
22.589012415488025	1.954357	1.3979832
22.60688557711216	1.9620665	1.4007379
22.624759295970566	1.9730873	1.4046663
22.642633572550263	1.9333916	1.3904645
22.660508407338362	1.9170729	1.3845841
22.67838380082217	1.9321862	1.390031
22.696259753489077	1.9618115	1.4006468
22.714136265826614	1.967841	1.4027976
22.73201333832246	1.9395146	1.3926646
22.74989097146439	1.9485098	1.3958904
22.76776916574035	1.9495027	1.396246
22.785647921638393	1.90556	1.3804202
22.803527239646712	1.8851228	1.3729978
22.82140712025363	1.8947166	1.376487
22.839287563947593	1.9312661	1.3896999
22.85716857121719	1.8991777	1.3781066
22.875050142551135	1.879802	1.3710587
22.892932278438277	1.8712866	1.3679498
22.910814979367604	1.8922858	1.3756038
22.928698245828222	1.9046079	1.3800753
22.946582078309387	1.8973637	1.3774482
22.96446647730047	1.8616508	1.3644233
22.98235144329098	1.8517052	1.3607738
23.000236976770562	1.8785855	1.370615
23.018123078229	1.8865058	1.3735013
23.03600974815619	1.8858832	1.3732747
23.053896987042194	1.9221119	1.3864025
23.071784795377173	1.9241761	1.3871467
23.08967317365145	1.9162016	1.3842694
23.10756212235546	1.9511368	1.396831
23.125451641979787	1.9648869	1.4017442
23.143341733015134	1.9553885	1.398352
23.161232395952357	1.910677	1.3822724
23.179123631282426	1.9262658	1.3878998
23.197015439496468	1.9092569	1.3817587
23.214907821085717	1.896534	1.3771471
23.23280077654157	1.9027342	1.3793963
23.250694306355538	1.9500489	1.3964416
23.268588411019277	1.9797444	1.4070339
23.28648309102458	1.955829	1.3985096
23.304378346863356	1.9578801	1.3992428
23.322274179027676	1.9664387	1.4022976
23.340170588009723	1.9970845	1.4131824
23.358067574301852	1.9695158	1.4033943
23.37596513839651	1.9240506	1.3871015
23.39386328078629	1.8908445	1.3750798
23.411762001963947	1.9190904	1.3853124
23.429661302422353	1.9566356	1.3987979
23.4475611826545	1.9978004	1.4134357
23.46546164315356	2.0043342	1.4157451
23.48336268441279	2.0014334	1.4147203
23.501264306925638	1.9848068	1.4088317
23.51916651118564	1.9342192	1.3907621
23.537069297686497	1.9232122	1.3867992
23.554972666922037	1.9384013	1.3922648
23.57287661938623	1.9616423	1.4005864
23.59078115557318	1.9308084	1.3895353
23.608686275977128	1.9190123	1.3852842
23.62659198109246	1.9339073	1.3906499
23.6444982714137	1.9724232	1.4044298
23.66240514743549	1.9833618	1.4083188
23.68031260965263	1.9983152	1.4136177
23.698220658560068	1.9558499	1.398517
23.716129294652845	1.9345968	1.3908979
23.7340385184262	1.9077663	1.3812191
23.75194833037546	1.8989184	1.3780124
23.769858730996123	1.9385155	1.3923059
23.78776972078382	1.9808385	1.4074227
23.80568130023431	1.9451087	1.3946716
23.823593469843495	1.9062672	1.3806764
23.841506230107424	1.8887467	1.3743168
23.859419581522275	1.8925	1.3756816
23.87733352458438	1.8660132	1.3660209
23.89524805979019	1.8514225	1.3606699
23.913163187636318	1.8873515	1.3738091
23.931078908619508	1.9182752	1.3850181
23.948995223236633	1.9690951	1.4032445
23.966912131984735	2.0001554	1.4142685
23.98482963536096	2.0031312	1.4153202
24.002747733862616	1.9988397	1.4138033
24.020666427987155	2.0131893	1.418869
24.038585718232156	2.0603235	1.4353827
24.056505605095353	2.0937839	1.4469913
24.074426089074617	2.1404972	1.4630438
24.092347170667946	2.1295958	1.4593135
24.110268850373515	2.0948942	1.4473749
24.128191128689586	2.0918994	1.44634
24.146114006114626	2.1023653	1.4499536
24.164037483147187	2.1064649	1.4513665
24.181961560286005	2.0864227	1.4444455
24.199886238029926	2.087394	1.4447817
24.21781151687797	2.0499942	1.4317801
24.235737397329274	2.0197825	1.4211905
24.253663879883135	2.0227766	1.4222435
24.271590965038975	2.0551925	1.4335942
24.289518653296376	2.0740318	1.4401499
24.30744694515505	2.070588	1.4389539
24.32537584111486	2.0742753	1.4402344
24.34330534167581	2.0494394	1.4315864
24.361235447338046	2.0400753	1.4283121
24.379166158601876	1.9996277	1.4140819
24.39709747596772	1.9817836	1.4077584
24.41502939993615	1.9557394	1.3984776
24.432961931007917	1.9799476	1.407106
24.450895069683856	1.9944668	1.4122559
24.468828816465	1.9748077	1.4052786
24.4867631718525	2.0261202	1.4234185
24.504698136347656	2.0670846	1.4377359
24.52263371045192	2.062046	1.4359826
24.540569894666874	2.0269673	1.4237161
24.558506689494266	2.0308938	1.4250944
24.57644409543597	2.0133026	1.418909
24.594382112994012	1.9682744	1.402952
24.61232074267057	1.9553213	1.3983281
24.630259984967953	1.9688308	1.4031503
24.64819984038863	1.9582582	1.3993778
24.66614030943522	1.9286183	1.388747
24.684081392610462	1.9526862	1.3973855
24.702023090417274	1.9768456	1.4060035
24.7199654033587	1.9963753	1.4129314
24.737908331937927	2.0187814	1.4208382
24.755851876658305	2.0564847	1.4340448
24.773796038023324	2.072075	1.4394703
24.79174081653661	2.0617323	1.4358734
24.809686212701962	2.0618186	1.4359034
24.827632227023294	2.0805936	1.4424263
24.8455788600047	2.0859363	1.444277
24.8635261121504	2.0521924	1.4325476
24.88147398396475	2.0498648	1.4317349
24.899422475952303	2.0645092	1.4368399
24.917371588617698	2.0769079	1.4411482
24.935321322465768	2.0907712	1.4459499
24.953271678001478	2.222873	1.4909302
24.97122265572994	2.5100658	1.5843188
24.989174256156414	2.8478286	1.687551
25.00712647978632	3.268216	1.8078208
25.02507932712521	3.871309	1.9675642
25.043032798678798	4.464603	2.1129608
25.060986894952933	5.0980897	2.257895
25.078941616453637	5.720314	2.391718
25.096896963687055	6.626921	2.5742807
25.114852937159508	7.760709	2.785805
25.132809537377444	8.21166	2.8655994
25.150766764847468	8.2318535	2.8691206
25.168724620076347	7.6817255	2.7715926
25.186683103570985	6.721968	2.592676
25.204642215838426	5.5328393	2.3521988
25.222601957385894	4.1720424	2.0425577
25.24056232872074	3.184267	1.7844515
25.25852333035048	2.6361873	1.623634
25.276484962782778	2.2795947	1.5098326
25.294447226525435	2.0987346	1.448701
25.312410122086423	2.001473	1.4147342
25.330373649973843	1.9731686	1.4046952
25.348337810695988	1.9628309	1.4010106
25.366302604761245	1.9111214	1.3824332
25.384268032678207	1.8495042	1.3599648
25.40223409495558	1.8046566	1.3433751
25.420200792102257	1.8394141	1.35625
25.438168124627246	1.8938005	1.3761542
25.45613609303974	1.892123	1.3755447
25.474104697849057	1.8608241	1.3641202
25.492073939564698	1.8733487	1.3687032
25.510043818696285	1.8661157	1.3660585
25.528014335753614	1.8475235	1.3592364
25.54598549124664	1.8345335	1.3544495
25.56395728568544	1.875922	1.369643
25.58192971958028	1.8930542	1.3758831
25.59990279344156	1.9390126	1.3924843
25.617876507779833	1.9449162	1.3946025
25.635850863105826	1.8953507	1.3767173
25.653825859930386	1.8691245	1.3671592
25.671801498764548	1.8840276	1.3725989
25.68977778011949	1.9359643	1.3913894
25.707754704506524	1.9134182	1.3832636
25.725732272437153	1.8971335	1.3773646
25.743710484423012	1.9041322	1.379903
25.761689340975888	1.9106568	1.3822651
25.77966884260774	1.8790874	1.3707981
25.797648989830662	1.8583946	1.3632295
25.815629783156922	1.847361	1.3591766
25.83361122309895	1.8412607	1.3569306
25.85159331016929	1.8661791	1.3660817
25.869576044880695	1.8412687	1.3569336
25.887559427746034	1.7979902	1.3408916
25.90554345927836	1.8152988	1.3473302
25.92352813999086	1.8838634	1.372539
25.94151347039689	1.9049438	1.380197
25.959499451009965	1.8637822	1.3652041
25.97748608234374	1.8207935	1.3493679
25.995473364912062	1.8116913	1.3459908
26.013461299228904	1.8300624	1.352798
26.03144988580839	1.8484234	1.3595673
26.04943912516483	1.8654974	1.3658321
26.067429017812675	1.8672934	1.3664894
26.085419564266537	1.911928	1.3827249
26.103410765041186	1.8792078	1.370842
26.12140262065155	1.8370893	1.3553927
26.139395131612723	1.8272275	1.3517498
26.157388298439948	1.8123803	1.3462467
26.17538212164861	1.7819003	1.3348783
26.193376601754295	1.8134747	1.3466531
26.211371739272714	1.8245353	1.3507535
26.229367534719746	1.81772	1.3482285
26.247363988611433	1.7897882	1.3378297
26.26536110146397	1.809606	1.3452159
26.283358873793727	1.8569212	1.3626889
26.301357306117204	1.8534216	1.3614043
26.319356398951104	1.8137399	1.3467516
26.33735615281224	1.8140767	1.3468766
26.35535656821762	1.8548877	1.3619426
26.373357645684404	1.8384279	1.3558863
26.39135938572991	1.8084974	1.3448038
26.409361788871614	1.7931592	1.3390889
26.427364855627165	1.8353722	1.3547591
26.445368586514352	1.8513966	1.3606603
26.46337298205115	1.8383125	1.3558438
26.48137804275568	1.78872	1.3374304
26.499383769146217	1.8034418	1.3429228
26.517390161741215	1.8200331	1.349086
26.53539722105928	1.8408644	1.3567846
26.553404947619182	1.8608147	1.3641168
26.571413341939856	1.9090246	1.3816745
26.589422404540397	1.8577623	1.3629975
26.60743213594006	1.7894272	1.3376948
26.62544253665827	1.786611	1.3366417
26.64345360721459	1.7847022	1.3359275
26.66146534812879	1.7923086	1.3387713
26.679477759920758	1.783824	1.3355987
26.69749084311057	1.7916156	1.3385124
26.71550459821847	1.7910935	1.3383174
26.733519025764842	1.8043948	1.3432777
26.751534126270258	1.7829105	1.3352567
26.769549900255434	1.7515529	1.3234625
26.787566348241267	1.7333152	1.3165543
26.80558347074881	1.7839037	1.3356286
26.823601268299267	1.8047866	1.3434235
26.841619741414036	1.7913568	1.3384157
26.85963889061465	1.8018266	1.3423214
26.877658716422832	1.8864942	1.373497
26.89567921936045	1.869156	1.3671708
26.913700399949544	1.840662	1.35671
26.93172225871233	1.8235458	1.3503873
26.949744796171174	1.816452	1.3477582
26.967768012848605	1.7910525	1.3383021
26.98579190926733	1.8019147	1.3423542
27.003816485950225	1.8728081	1.3685058
27.021841743420318	1.9311119	1.3896445
27.039867682200814	1.9157811	1.3841175
27.057894302815072	1.8467494	1.3589516
27.07592160578664	1.8326675	1.3537605
27.0939495916392	1.8898617	1.3747224
27.111978260896635	1.8702239	1.3675613
27.13000761408296	1.866266	1.3661134
27.148037651722397	1.8879137	1.3740137
27.166068374339304	1.8780043	1.3704029
27.184099782458215	1.8429198	1.3575418
27.20213187660384	1.8250234	1.3509343
27.22016465730105	1.7887135	1.337428
27.23819812507487	1.7510417	1.3232692
27.256232280450533	1.7558515	1.3250855
27.274267123953383	1.7458307	1.3212988
27.292302656108987	1.7784804	1.3335968
27.31033887744306	1.8457639	1.3585889
27.32837578848146	1.8362231	1.3550731
27.34641338975026	1.7853773	1.3361801
27.364451681775673	1.7714636	1.3309634
27.382490665084074	1.7843454	1.335794
27.400530340202046	1.7996492	1.34151
27.41857070765629	1.8000752	1.3416688
27.436611767973726	1.817027	1.3479714
27.454653521681404	1.8225809	1.35003
27.472695969306564	1.8659971	1.3660151
27.490739111376627	1.8648897	1.3656096
27.508782948419153	1.8286295	1.3522682
27.526827480961902	1.773998	1.3319151
27.54487270953279	1.775135	1.3323419
27.562918634659898	1.7920365	1.3386697
27.580965256871508	1.8192389	1.3487916
27.599012576696026	1.8282686	1.3521348
27.617060594662068	1.8224863	1.3499949
27.63510931129842	1.8179555	1.3483158
27.65315872713401	1.884629	1.3728179
27.67120884269797	1.8875476	1.3738805
27.68925965851958	1.8779173	1.3703712
27.707311175128307	1.8397306	1.3563668
27.725363393053787	1.8475271	1.3592377
27.74341631282583	1.863237	1.3650044
27.7614699349744	1.9126633	1.3829907
27.77952426002968	2.066505	1.4375343
27.797579288521973	2.1438632	1.4641937
27.815635020981784	2.561621	1.6005064
27.83369145793979	2.671236	1.6343917
27.85174859992682	2.5421357	1.5944077
27.869806447473923	2.3470657	1.5320137
27.887865001112267	1.9647413	1.4016923
27.905924261373233	1.9097252	1.3819281
27.92398422878836	1.9206827	1.3858869
27.94204490388936	1.914319	1.3835891
27.96010628720813	1.8779337	1.3703772
27.978168379276728	1.8706447	1.3677151
27.9962311806274	1.9221853	1.386429
28.014294691792568	1.9281045	1.3885621
28.0323589133048	1.9165623	1.3843997
28.050423845696887	1.8965473	1.3771518
28.068489489501758	1.905403	1.3803633
28.086555845252523	1.9174273	1.384712
28.104622913482487	1.9091415	1.3817168
28.122690694725115	1.9069626	1.3809282
28.14075918951405	1.9181267	1.3849645
28.15882839838312	1.9114838	1.3825642
28.176898321866304	1.9129701	1.3831016
28.1949689604978	1.9310492	1.389622
28.213040314811945	1.941423	1.3933495
28.23111238534327	1.9101627	1.3820864
28.249185172626493	1.9448264	1.3945704
28.267258677196473	2.0006602	1.414447
28.285332899588294	2.0220926	1.422003
28.303407840337172	1.9610622	1.4003793
28.321483499978545	1.9201802	1.3857057
28.33955987904799	1.9238657	1.3870349
28.357636978081285	1.9470085	1.3953525
28.37571479761439	1.9807764	1.4074006
28.393793338183425	2.0343955	1.4263223
28.41187260032469	2.0084112	1.4171842
28.429952584574686	1.9441715	1.3943355
28.448033291470065	1.9629792	1.4010636
28.46611472154769	1.9862102	1.4093297
28.484196875344566	1.9888047	1.4102498
28.502279753397914	1.9593848	1.3997803
28.52036335624511	1.934605	1.3909007
28.538447684423716	1.9486777	1.3959504
28.556532738471482	2.0256436	1.423251
28.574618518926325	2.0157728	1.4197792
28.59270502632635	1.9615357	1.4005483
28.61079226120985	1.9697092	1.4034632
28.628880224115274	1.9940637	1.4121132
28.646968915581287	1.9962534	1.4128883
28.66505833614671	2.0481603	1.4311395
28.68314848635055	2.0897064	1.4455817
28.701239366732004	2.0964086	1.447898
28.71933097783044	2.0805411	1.4424081
28.737423320185403	2.069766	1.4386681
28.75551639433665	2.0859091	1.4442676
28.773610200824074	2.1755	1.4749576
28.791704740187793	2.1777873	1.4757328
28.80980001296809	2.1436107	1.4641075
28.827896019705413	2.1205785	1.4562206
28.845992760940433	2.197056	1.482247
28.86409023721397	2.225701	1.4918784
28.88218844906704	2.226784	1.4922413
28.900287397040845	2.2510042	1.5003347
28.918387081676755	2.268903	1.5062878
28.936487503516343	2.2291157	1.4930223
28.954588663101365	2.2153358	1.4884005
28.97269056097374	2.258254	1.5027488
28.990793197675597	2.3472137	1.5320619
29.00889657374923	2.3914046	1.5464168
29.027000689737125	2.336202	1.528464
29.04510554618196	2.2849152	1.5115936
29.06321114362659	2.407131	1.5514932
29.08131748261405	2.47362	1.5727746
29.099424563687567	2.4851553	1.5764376
29.11753238739057	2.5278196	1.5899118
29.13564095426663	2.58038	1.6063561
29.15375026485954	2.6123803	1.6162859
29.171860319713275	2.601633	1.6129578
29.18997111937199	2.6735344	1.6350946
29.20808266438002	2.7931345	1.6712673
29.226194955281898	2.7849638	1.6688211
29.244307992622335	2.8201644	1.6793345
29.26242177694624	2.8303792	1.682373
29.2805363087987	2.901614	1.7034124
29.29865158872498	2.9590967	1.7202026
29.316767617270557	2.9771852	1.7254522
29.334884394981064	2.9985065	1.7316196
29.353001922402367	3.0284548	1.7402456
29.37112020008047	3.111794	1.7640278
29.389239228561596	3.2525084	1.8034712
29.407359008392152	3.445219	1.8561301
29.42547954011872	3.8401215	1.9596227
29.44360082428809	4.419736	2.1023169
29.46172286144722	5.4565825	2.335933
29.479845652143283	6.9913135	2.6441092
29.497969196923606	9.005091	3.0008483
29.516093496335728	11.4749975	3.3874767
29.5342185509274	14.145377	3.761034
29.55234436124651	16.405231	4.0503373
29.570470927841175	17.795511	4.2184725
29.588598251259686	17.420225	4.173754
29.60672633205055	16.075222	4.009392
29.624855170762405	13.753969	3.7086344
29.642984767944146	11.089752	3.330128
29.66111512414481	8.500971	2.9156425
29.67924623991366	6.44371	2.5384464
29.697378115800138	5.033207	2.243481
29.71551075235387	4.1772776	2.043839
29.733644150124675	3.7662406	1.9406805
29.751778309662576	3.57051	1.8895793
29.769913231517766	3.3577871	1.8324265
29.78804891624066	3.26991	1.8082893
29.806185364381818	3.3541517	1.8314344
29.82432257649206	3.3375604	1.8268992
29.842460553122333	3.2639427	1.8066385
29.86059929482382	3.2883344	1.8133765
29.878738802147872	3.3318462	1.8253345
29.896879075646048	3.3587513	1.8326896
29.915020115870114	3.3496408	1.8302025
29.933161923371976	3.302893	1.8173863
29.951304498703777	3.221391	1.7948234
29.969447842417857	3.2134337	1.7926053
29.987591955066733	3.261581	1.8059847
30.005736837203123	3.21998	1.7944303
30.023882489379943	3.172205	1.7810684
30.04202891215028	3.1829433	1.7840805
30.060176106067455	3.1556587	1.7764174
30.078324071684946	3.1424167	1.7726862
30.09647280955646	3.1935565	1.7870525
30.114622320235863	3.1754153	1.7819695
30.132772604277257	3.1871853	1.785269
30.1509236622349	3.1522346	1.7754533
30.16907549466328	3.1107938	1.7637442
30.18722810211705	3.0649707	1.7507058
30.205381485151097	2.955769	1.7192351
30.22353564432045	2.9362597	1.7135518
30.241690580180403	3.0057805	1.7337186
30.25984629328638	3.0589883	1.7489964
30.278002784194037	3.0698185	1.7520897
30.296160053459246	3.0280097	1.7401177
30.314318101638033	2.9928782	1.7299937
30.332476929286646	2.991135	1.7294898
30.35063653696153	2.95657	1.7194679
30.368796925219307	2.983554	1.7272967
30.386958094616844	2.914422	1.7071679
30.40512004571115	2.8384976	1.6847842
30.423282779059463	2.8819666	1.6976355
30.441446295219233	2.976174	1.7251592
30.459610594748067	2.975401	1.724935
30.47777567820382	2.91878	1.7084438
30.495941546144504	2.9423723	1.7153344
30.51410819912835	3.0224626	1.7385231
30.532275637713795	2.9971154	1.7312179
30.55044386245946	2.9016898	1.7034347
30.56861287392416	2.857788	1.6904993
30.586782672666956	2.8571193	1.6903015
30.604953259247047	2.8047469	1.6747378
30.623124634223885	2.7728796	1.6651965
30.641296798157075	2.7952232	1.6718922
30.659469751606462	2.7714908	1.6647795
30.677643495132074	2.7356288	1.6539737
30.695818029294152	2.7305489	1.6524372
30.713993354653116	2.7259977	1.6510595
30.73216947176962	2.7142837	1.6475084
30.75034638120448	2.6987958	1.6428012
30.768524083518756	2.7265682	1.6512324
30.786702579273673	2.777872	1.666695
30.80488186903069	2.8153422	1.6778982
30.82306195335144	2.9479766	1.7169672
30.841242832797782	3.150508	1.7749671
30.85942450793176	3.4152439	1.8480378
30.877606979315637	3.7232602	1.9295751
30.895790247511883	4.0601125	2.014972
30.913974313083134	4.4176683	2.101825
30.932159176592283	4.7090225	2.1700282
30.95034483860237	4.754207	2.1804144
30.968531299676698	4.559933	2.1354
30.98671856037873	4.2570996	2.063274
31.00490662127215	3.9324186	1.9830327
31.023095482920848	3.5384398	1.8810741
31.04128514588892	3.0652096	1.750774
31.059475610740662	2.6904323	1.6402538
31.07766687804056	2.5846071	1.6076714
31.09585894835335	2.5178914	1.5867865
31.11405182224393	2.4937246	1.5791532
31.132245500277417	2.5064366	1.5831729
31.15043998301914	2.4922554	1.5786879
31.168635271034628	2.483709	1.5759788
31.18683136488964	2.5212717	1.5878513
31.20502826515008	2.5052745	1.5828059
31.223225972382135	2.4190614	1.5553333
31.241424487152155	2.424922	1.557216
31.259623810026692	2.4764163	1.5736634
31.27782394157253	2.4596598	1.5683303
31.296024882356644	2.3273826	1.5255761
31.314226632946237	2.321964	1.5237992
31.332429193908684	2.3851156	1.544382
31.350632565811598	2.3911488	1.546334
31.368836749222787	2.435648	1.5606563
31.387041744710295	2.435594	1.560639
31.40524755284232	2.5014133	1.5815858
31.423454174187317	2.5223973	1.5882057
31.441661609313922	2.504567	1.5825824
31.459869858791002	2.4099097	1.5523884
31.478078923187628	2.3179848	1.522493
31.496288803073064	2.2812767	1.5103896
31.514499499016807	2.281419	1.5104367
31.532711011588546	2.335295	1.5281672
31.550923341358178	2.3323598	1.5272065
31.56913648889584	2.3135388	1.5210321
31.587350454771844	2.3229332	1.5241172
31.605565239556732	2.287146	1.5123314
31.62378084382127	2.3058097	1.5184892
31.641997268136382	2.3267412	1.525366
31.660214513073274	2.3481977	1.532383
31.67843257920331	2.3425412	1.5305363
31.6966514670981	2.3152614	1.5215983
31.71487117732944	2.2884846	1.5127738
31.733091710469346	2.2233942	1.491105
31.751313067090052	2.2470734	1.4990242
31.769535247764008	2.2524004	1.5007999
31.787758253063878	2.306254	1.5186355
31.805982083562526	2.3015041	1.5170709
31.824206739833024	2.2895014	1.5131098
31.84243222244869	2.3488314	1.5325898
31.860658531983013	2.3390014	1.5293794
31.878885669009737	2.292863	1.5142202
31.897113634102784	2.2615094	1.5038316
31.91534242783632	2.2204936	1.4901321
31.933572050784694	2.253014	1.5010043
31.951802503522508	2.2839918	1.5112882
31.970033786624548	2.267455	1.5058072
31.988265900665834	2.2377942	1.4959259
32.006498846221575	2.284631	1.5114996
32.02473262386724	2.311337	1.5203081
32.04296723417845	2.245602	1.4985332
32.0612026777311	2.1671648	1.4721293
32.07943895510129	2.1349869	1.4611595
32.097676066865304	2.1943405	1.4813306
32.115914013599685	2.2321503	1.4940382
32.13415279588115	2.2217333	1.490548
32.152392414286666	2.213523	1.4877913
32.1706328693934	2.2221925	1.490702
32.18887416177875	2.1805	1.4766517
32.20711629202032	2.1787133	1.4760466
32.225359260695924	2.1697602	1.4730107
32.243603068383614	2.1342936	1.4609221
32.26184771566166	2.116888	1.454953
32.28009320310852	2.114803	1.4542363
32.2983395313029	2.0830953	1.4432932
32.31658670082372	2.0177166	1.4204636
32.33483471225012	2.0042098	1.4157012
32.35308356616143	2.0951672	1.4474692
32.371333263137245	2.1535275	1.4674902
32.38958380375734	2.1744232	1.4745926
32.407835188601744	2.0951521	1.447464
32.42608741825067	1.9600197	1.400007
32.444340493284585	2.0164087	1.420003
32.46259441428416	2.030433	1.4249326
32.48084918183028	1.994991	1.4124415
32.49910479650405	1.9996871	1.4141029
32.51736125888683	2.0228138	1.4222566
32.53561856956014	2.0455015	1.4302102
32.5538767291058	2.0339954	1.4261822
32.572135738105764	1.9906194	1.4108931
32.59039559714228	1.9766823	1.4059453
32.608656306797776	2.017573	1.420413
32.62691786765491	2.0796602	1.4421027
32.645180280296586	2.1007652	1.4494017
32.663443545305896	2.0786064	1.4417373
32.68170766326619	2.0182865	1.4206641
32.69997263476099	2.0358355	1.4268271
32.7182384603741	2.0300515	1.4247987
32.7365051406895	1.9941038	1.4121274
32.75477267629144	1.9990736	1.413886
32.77304106776434	2.0370753	1.4272615
32.79131031569289	2.0994306	1.4489412
32.809580420661966	2.0876985	1.444887
32.827851383256714	1.9530632	1.3975204
32.84612320406245	1.9097018	1.3819196
32.86439588366476	1.9618945	1.4006765
32.88266942264945	1.9707512	1.4038345
32.9009438216025	1.9438648	1.3942255
32.9192190811102	1.9303033	1.3893535
32.937495201758985	1.9664086	1.4022869
32.95577218413556	2.064884	1.4369704
32.974050028826866	2.0653431	1.4371302
32.992328736420035	1.9525071	1.3973215
33.010608307502444	1.8724287	1.3683672
33.02888874266169	1.8818288	1.3717977
33.047170042485604	2.080274	1.4423156
33.06545220756225	2.0582912	1.4346746
33.083735238479896	1.9388931	1.3924414
33.10201913582707	1.9063771	1.3807162
33.12030390019248	1.9447385	1.3945388
33.138589532165135	1.9313028	1.3897132
33.15687603233419	1.9227811	1.3866439
33.17516340128909	1.9725847	1.4044874
33.19345163961947	1.9613357	1.4004769
33.211740747915215	1.8989977	1.3780413
33.23003072676643	1.8264518	1.3514628
33.248321576763466	1.8793086	1.3708788
33.266613298496885	1.9083436	1.3814281
33.28490589255747	1.9776065	1.406274
33.30319935953626	1.99904	1.4138741
33.32149370002451	1.8698833	1.3674368
33.339788914613706	1.8853678	1.3730869
33.358085003895575	1.982259	1.4079272
33.376381968462034	2.07706	1.4412009
33.39467980890529	2.0261133	1.423416
33.41297852581774	1.9727937	1.4045618
33.43127811979204	2.0014982	1.4147432
33.44957859142105	1.9934771	1.4119055
33.467879941297866	1.8938495	1.3761721
33.486182170015844	1.8961515	1.3770082
33.50448527816853	1.9307451	1.3895125
33.522789266349754	1.9717096	1.4041758
33.541094135153514	1.9394375	1.3926369
33.55939988517411	1.9012212	1.3788477
33.57770651700602	1.9459804	1.394984
33.59601403124398	1.9848315	1.4088404
33.61432242848296	1.9051365	1.3802668
33.632631709318154	1.8129562	1.3464606
33.650941874344994	1.8288143	1.3523366
33.66925292415916	1.7552146	1.3248451
33.68756485935654	1.7836226	1.3355234
33.70587768053328	1.881024	1.3715043
33.724191388285746	1.9140494	1.3834918
33.74250598321054	1.9179542	1.3849022
33.760821465904506	1.9835706	1.4083929
33.77913783696474	2.0214274	1.4217691
33.79745509698852	1.9072903	1.3810468
33.815773246573414	1.8788254	1.3707025
33.8340922863172	1.9086077	1.3815237
33.852412216817896	1.9233061	1.3868331
33.87073303867377	1.8905534	1.3749739
33.889054752483304	1.9715425	1.4041163
33.907377358845245	2.0037813	1.4155499
33.92570085835853	1.9735273	1.4048228
33.94402525162239	1.9503436	1.3965471
33.96235053923627	1.8938292	1.3761647
33.980676721799824	1.9267889	1.3880882
33.999003799912984	1.9847903	1.4088259
34.01733177417592	1.963993	1.4014254
34.03566064518901	1.9206859	1.3858881
34.0539904135529	1.9966302	1.4130217
34.07232107986846	1.9900858	1.410704
34.090652644736785	1.9237092	1.3869784
34.108985108759235	1.9684213	1.4030044
34.12731847253742	2.003923	1.4155998
34.14565273667313	1.9121433	1.3828027
34.16398790176847	1.9683589	1.4029821
34.18232396842574	1.9930727	1.4117622
34.20066093724749	1.9977463	1.4134165
34.21899880883651	1.9028893	1.3794525
34.23733758379583	1.842775	1.3574885
34.25567726272874	1.7823521	1.3350476
34.27401784623872	1.7125003	1.3086253
34.29235933492957	1.7019006	1.3045691
34.31070172940526	1.8027717	1.3426733
34.32904503027003	2.0050235	1.4159886
34.347389238128386	2.0412838	1.428735
34.36573435358502	1.9067311	1.3808444
34.38408037724492	1.9300665	1.3892683
34.402427309713296	1.9943185	1.4122034
34.42077515159559	2.0630474	1.4363313
34.43912390349752	2.0456123	1.4302491
34.45747356602499	1.9715707	1.4041263
34.47582413978423	2.0580807	1.4346012
34.49417562538163	2.1282318	1.4588461
34.51252802342388	2.0231714	1.4223824
34.53088133451789	1.9255672	1.3876481
34.54923555927084	1.9763	1.4058094
34.567590698290104	2.044584	1.4298896
34.58594675218336	1.9790435	1.4067848
34.6043037215585	1.9117063	1.3826447
34.62266160702365	1.838051	1.3557473
34.641020409187234	2.0217865	1.4218954
34.65938012865785	2.1932604	1.4809661
34.677740766044394	2.2181425	1.4893429
34.69610232195598	2.0626597	1.4361963
34.714464797002016	1.9604979	1.4001778
34.73282819179208	1.953132	1.397545
34.751192506936064	1.9305364	1.3894374
34.76955774304408	1.9291211	1.388928
34.7879239007265	1.8954076	1.3767381
34.80629098059391	1.7556249	1.3249999
34.824658983257194	1.7110058	1.3080542
34.843027909327446	1.8283807	1.3521763
34.86139775941603	2.002254	1.4150102
34.879768534134534	1.9906329	1.4108979
34.89814023409483	1.9634057	1.4012158
34.91651285990901	1.8531569	1.361307
34.93488641218944	1.8966584	1.3771923
34.95326089154871	1.9049734	1.3802078
34.97163629859967	1.9139463	1.3834544
34.99001263395542	1.9639028	1.4013932
35.00838989822934	2.0095637	1.4175909
35.02676809203499	1.8900411	1.3747877
35.04514721598624	1.7571259	1.3255663
35.063527270697215	1.6503391	1.2846552
35.081908256782256	1.8122284	1.3461903
35.10029017485597	1.8838031	1.3725171
35.11867302553321	1.8707325	1.3677473
35.137056809429104	1.9950852	1.4124749
35.155441527159006	1.9497726	1.3963426
35.173827179338524	1.6610088	1.2888013
35.19221376658354	1.709172	1.307353
35.21060128951017	1.8573322	1.3628398
35.2289897487348	1.6656601	1.2906046
35.24737914487405	1.7061647	1.3062024
35.26576947854479	1.9754752	1.405516
35.28416075036418	1.8647268	1.36555
35.30255296094958	1.6231827	1.2740419
35.32094611091867	1.7807647	1.334453
35.33934020088932	2.1927211	1.4807839
35.35773523147969	2.3618639	1.5368357
35.3761312033082	2.241038	1.4970098
35.394528116993506	2.0494637	1.4315948
35.41292597315452	2.0082235	1.4171181
35.431324772410434	2.0936081	1.4469306
35.449724515380666	2.2560194	1.5020051
35.46812520268491	2.3033507	1.5176793
35.486526834943106	2.2550116	1.5016696
35.504929412775454	2.04695	1.4307166
35.52333293680242	1.8966362	1.3771842
35.54173740764471	2.1629894	1.4707105
35.560142825923286	2.1649427	1.4713744
35.5785491922594	1.5809699	1.2573663
35.59695650727454	1.3397181	1.1574619
35.61536477159042	1.3578206	1.1652557
