0.008763373481513119	0.56609195	0.7523908
0.026290120649546365	0.18888974	0.43461448
0.043816868432600686	0.0908709	0.30144802
0.06134361724069026	0.116039455	0.34064564
0.07887036748382949	0.16056077	0.40070036
0.0963971195720331	0.16486558	0.40603644
0.11392387391531617	0.16351059	0.40436444
0.1314506309236943	0.12870163	0.3587501
0.1489773910071836	0.1479691	0.38466752
0.16650415457580078	0.12500474	0.3535601
0.18403092203956356	0.09033405	0.30055624
0.20155769380849	0.046968594	0.21672238
0.2190844702925996	0.086029515	0.29330787
0.2366112519019124	0.08953295	0.29922056
0.2541380390464497	0.092852876	0.3047177
0.27166483213623416	0.052312657	0.2287196
0.28919163158128947	0.04750912	0.21796587
0.3067184377916406	0.046705753	0.21611513
0.324245251177314	0.06052598	0.24602029
0.34177207214833777	0.1313248	0.36238763
0.3592989011147415	0.13800575	0.37149125
0.37682573848655654	0.16436905	0.40542454
0.39435258467381573	0.16200374	0.40249687
0.41187944008655414	0.18574432	0.43098065
0.42940630513480854	0.20430112	0.4519968
0.446933180228618	0.18931402	0.4351023
0.4644600657780234	0.15347898	0.39176393
0.48198696219306775	0.13804089	0.37153855
0.49951386988379676	0.122779526	0.3503991
0.5170407892602581	0.1337884	0.36577097
0.5345677207325025	0.17228943	0.41507763
0.5520946647105822	0.1840939	0.42906165
0.5696216216045534	0.1982744	0.44528013
0.5871485918244737	0.2148753	0.46354643
0.6046755757804043	0.23229513	0.48197004
0.6222025738824094	0.20785016	0.45590585
0.6397295865405557	0.19431907	0.44081637
0.6572566141649129	0.14138032	0.37600574
0.6747836571655547	0.16124895	0.40155816
0.6923107159525568	0.19210137	0.4382937
0.7098377909359992	0.1973836	0.44427875
0.7273648825259653	0.23880613	0.48867795
0.7448919911325411	0.23464961	0.48440644
0.762419117165817	0.22794566	0.47743654
0.7799462610358868	0.19321002	0.43955663
0.7974734231528482	0.1506839	0.38818023
0.8150006039268024	0.13609526	0.3689109
0.8325278037678551	0.1251139	0.35371444
0.8500550230861152	0.14148508	0.37614504
0.8675822622916969	0.14090118	0.37536806
0.8851095217947171	0.20184597	0.44927272
0.9026368020052984	0.19466381	0.44120723
0.9201641033335665	0.21382059	0.46240738
0.9376914261896523	0.22654524	0.4759677
0.9552187709836915	0.24866174	0.49865994
0.9727461381258234	0.29031056	0.53880477
0.990273528026193	0.26193833	0.5117991
1.0078009410949496	0.22674745	0.47618008
1.0253283777422473	0.20509566	0.4528749
1.0428558383782454	0.20631447	0.45421854
1.0603833234131086	0.25375938	0.5037454
1.0779108332570058	0.2658546	0.5156109
1.0954383683201119	0.2784357	0.5276701
1.112965929012607	0.29927626	0.5470615
1.1304935157446763	0.46788508	0.68402123
1.1480211289265108	0.5032492	0.7094006
1.1655487689683062	1.2663182	1.125308
1.1830764362802655	1.510468	1.2290109
1.200604131272596	1.993265	1.4118304
1.2181318543555117	2.5754466	1.6048198
1.235659605939232	2.6176724	1.6179223
1.253187386433982	4.245074	2.0603576
1.270715196249994	6.674078	2.5834236
1.2882430357975057	12.182642	3.490364
1.3057709054867608	16.812319	4.1002827
1.3232988057280106	22.446478	4.7377715
1.3408267369315112	27.467306	5.2409263
1.358354699507526	31.231842	5.588546
1.3758826938663256	35.200024	5.932961
1.3934107204181858	37.024174	6.084749
1.410938779573391	37.379913	6.1139116
1.4284668717422309	37.83127	6.150713
1.4459949973350033	37.79824	6.1480274
1.4635231567620117	38.274868	6.1866684
1.4810513504335687	37.855373	6.152672
1.4985795787599925	37.16046	6.095938
1.5161078421516088	36.513264	6.0426207
1.5336361410187505	35.94864	5.9957185
1.5511644757717598	36.23151	6.0192614
1.5686928468209842	36.59487	6.0493693
1.58622125457678	36.964634	6.079855
1.6037496994495108	37.897625	6.1561046
1.621278181849548	37.52259	6.1255684
1.6388067021872719	38.308807	6.1894107
1.6563352608730693	37.75305	6.144351
1.673863858317336	37.002277	6.0829496
1.6913924949304753	36.393093	6.0326686
1.7089211711228998	34.814587	5.9003887
1.7264498873050296	34.095463	5.839132
1.7439786438872935	33.47806	5.786023
1.7615074412801288	32.870377	5.733269
1.779036279893981	32.07754	5.663704
1.796565160139305	30.68576	5.539473
1.814094082426564	29.918198	5.469753
1.8316230471662298	29.222486	5.4057827
1.849152054768784	28.533693	5.341694
1.8666811056447168	27.955807	5.287325
1.8842102002045273	27.052593	5.201211
1.901739338858724	26.448132	5.1427746
1.9192685220178245	25.847256	5.0840197
1.9367977500923557	25.153572	5.0153337
1.9543270234928547	24.624413	4.9622993
1.971856342629867	24.071974	4.9063196
1.9893857079139496	23.589695	4.856922
2.006915119755667	23.126564	4.8090086
2.0244445785655945	22.417421	4.734704
2.0419740847543175	21.927444	4.682675
2.0595036387324317	21.57896	4.645316
2.0770332409105414	20.992718	4.581781
2.094562891699263	20.790026	4.559608
2.1120925915092217	20.224705	4.4971886
2.129622340751053	20.027136	4.4751687
2.1471521398354043	188.01779	13.711958
2.1646819891729323	444.3504	21.07962
2.182211889174303	440.64474	20.991539
2.1997418402501974	453.0748	21.285553
2.2172718428113023	433.14316	20.812092
2.234801897268317	320.95636	17.915255
2.2523320040319548	17.224072	4.1501894
2.269862163512935	16.81773	4.1009426
2.287392376121992	16.74702	4.0923123
2.304922642269869	16.539003	4.0668173
2.322452962367322	16.358244	4.044533
2.3399833368251164	15.954718	3.9943357
2.357513766054032	15.547952	3.943089
2.3750442504648586	15.061385	3.8809001
2.3925747904683963	14.766112	3.84267
2.410105386475459	14.305868	3.78231
2.4276360388968707	14.095213	3.7543592
2.445166748143469	13.879939	3.725579
2.4626975146261025	13.889672	3.726885
2.4802283387556323	13.80773	3.7158754
2.4977592209429305	13.613576	3.689658
2.5152901615988825	13.186074	3.6312635
2.5328211611343865	12.972552	3.601743
2.5503522199603523	12.724773	3.56718
2.5678833384877024	12.610272	3.5510945
2.5854145171273712	12.559456	3.5439322
2.6029457562903064	12.438654	3.5268476
2.620477056387469	12.2190275	3.4955726
2.6380084178298326	11.867179	3.4448771
2.655539841028383	11.661843	3.4149442
2.673071326394119	11.494043	3.3902867
2.6906028743380523	11.252895	3.3545334
2.708134485271211	11.023528	3.32017
2.7256661596046325	10.889101	3.2998638
2.743197897749369	10.804249	3.2869818
2.760729700116486	10.714306	3.2732713
2.778261567117063	10.594832	3.2549703
2.795793499162193	10.363709	3.2192717
2.8133254966629817	10.1583805	3.1872215
2.830857560030551	9.7971325	3.130037
2.8483896896760337	9.636367	3.1042497
2.865921886010578	9.448299	3.0738087
2.883454149445347	9.360924	3.0595627
2.9009864803915177	9.330529	3.0545914
2.91851887926028	9.249466	3.0412934
2.9360513464628384	9.193034	3.0320017
2.953583882410413	9.061256	3.0101922
2.9711164875142373	8.93513	2.989169
2.9886491621855606	8.695644	2.9488378
3.0061819068356455	8.516704	2.9183393
3.023714721875769	8.505346	2.9163928
3.041247607717225	8.527077	2.920116
3.0587805647713213	8.545483	2.9232657
3.0763135934493806	8.450881	2.9070399
3.0938466941627407	8.192754	2.8622987
3.1113798673227544	8.002025	2.828785
3.1289131133407904	7.892443	2.8093493
3.1464464326282315	7.8105817	2.7947419
3.1639798255964786	7.694423	2.7738824
3.1815132926569443	7.594425	2.7557986
3.1990468342210603	7.6061134	2.7579184
3.216580450700272	7.6612716	2.7679002
3.2341141425060416	7.4949	2.7376816
3.251647910049847	7.210845	2.6853015
3.2691817537431813	6.9900913	2.643878
3.286715673997555	6.9903426	2.6439257
3.3042496712244938	7.071506	2.6592302
3.32178374583554	7.0083456	2.647328
3.339317898242251	6.8792005	2.622823
3.3568521288562034	6.76891	2.601713
3.3743864380889876	6.7418027	2.5964983
3.3919208263522127	6.8015733	2.6079826
3.4094552940575023	6.673129	2.58324
3.4269898416164972	6.6499815	2.5787559
3.444524469440858	6.5916977	2.5674303
3.4620591779422587	6.707828	2.5899475
3.479593967532391	6.754714	2.5989833
3.4971288386229658	6.674701	2.5835443
3.5146637916257086	6.5416102	2.5576572
3.5321988269523628	6.4809194	2.545765
3.5497339450146903	6.4470057	2.5390954
3.5672691462244708	6.4111466	2.5320241
3.5848044309934988	6.3905196	2.5279477
3.60233979973359	6.41209	2.5322104
3.619875252856575	6.40683	2.5311716
3.6374107907743034	6.375323	2.5249403
3.6549464138986427	6.3100414	2.5119796
3.6724821226414788	6.2999597	2.509972
3.690017917414714	6.232078	2.496413
3.7075537986302702	6.182835	2.4865308
3.7250897667000857	6.2865005	2.5072894
3.7426258220361235	6.4658513	2.5428038
3.7601619650503553	6.8407693	2.6154864
3.777698196154779	7.4498773	2.7294464
3.7952345157614067	8.504103	2.9161794
3.8127709242822716	9.306733	3.050694
3.830307422129425	11.363146	3.3709266
3.847844009714936	30.182142	5.493828
3.8653806874508954	97.69425	9.88404
3.882917455749409	96.98893	9.848296
3.900454315022606	96.883286	9.842931
3.917991265682631	41.473064	6.4399586
3.9355283081416506	11.211483	3.3483553
3.9530654428118495	8.979821	2.996635
3.970602670105433	7.54928	2.7475953
3.9881399904346244	6.554554	2.5601864
4.005677404211669	6.472486	2.5441082
4.023214911848827	6.5144563	2.5523434
4.0407525137583855	6.501231	2.5497513
4.058290210352644	6.52392	2.5541966
4.075828002043927	6.4707923	2.5437753
4.0933658892445814	6.419935	2.533759
4.110903872366966	6.4257803	2.5349123
4.128441951823468	6.333392	2.5166233
4.145980128026488	6.238172	2.4976332
4.163518401388452	6.1172256	2.4733026
4.181056772321807	6.1062355	2.4710798
4.1985952412390155	6.1308866	2.4760628
4.216133808552567	6.2278223	2.4955604
4.233672474674966	6.2472386	2.4994476
4.251211240018741	6.4166536	2.5331113
4.268750104996445	6.712395	2.5908291
4.286289070020643	7.75206	2.7842522
4.303828135503928	9.44607	3.0734458
4.3213673018589125	29.68699	5.448577
4.3389065694982305	90.816605	9.529775
4.356445938834537	165.89009	12.879832
4.3739854102805085	171.69849	13.103377
4.391524984248844	172.634	13.139026
4.409064661152262	136.7353	11.693387
4.426604441403504	96.86966	9.842238
4.444144325415337	75.81959	8.707444
4.461684313600543	21.988817	4.6892233
4.47922440637193	22.561636	4.749909
4.496764604142329	20.974018	4.57974
4.5143049073245916	19.09678	4.3699865
4.531845316331589	16.823208	4.10161
4.5493858315762195	13.797418	3.7144876
4.566926453471405	11.324595	3.3652036
4.584467182430081	9.353558	3.0583587
4.602008018865218	8.305698	2.8819609
4.619548963189798	7.6284385	2.761963
4.637090015816834	7.0931954	2.6633053
4.654631177159353	6.831892	2.6137888
4.672172447630417	6.597752	2.568609
4.689713827643102	6.404497	2.5307107
4.7072553176105085	6.1173043	2.4733186
4.724796917945764	5.851476	2.4189825
4.742338629062015	5.7356215	2.3949158
4.759880451372434	5.7607565	2.4001577
4.777422385290215	5.7803316	2.404232
4.794964431228581	5.8623714	2.4212334
4.812506589600768	5.7757497	2.4032788
4.830048860820047	5.666325	2.3804045
4.847591245299709	5.5853195	2.363328
4.8651337434530655	5.514077	2.3482072
4.882676355693457	5.4822545	2.3414214
4.900219082434242	5.42966	2.330163
4.917761924088813	5.436096	2.3315437
4.935304881070575	5.470809	2.3389761
4.952847953792969	5.625039	2.3717165
4.970391142669449	5.669817	2.3811378
4.9879344481135055	5.7101593	2.389594
5.005477870538642	5.6252737	2.3717659
5.023021410358394	5.6371136	2.3742607
5.040565067986324	5.6036277	2.3671982
5.05810884383601	5.604986	2.3674853
5.075652738321066	5.495433	2.344234
5.09319675185512	5.3367066	2.3101313
5.110740884851836	5.308475	2.3040128
5.128285137724894	5.384977	2.3205552
5.145829510888007	5.474632	2.3397932
5.163374004754908	5.443121	2.3330498
5.1809186197393595	5.3849273	2.3205447
5.198463356255145	5.380708	2.3196354
5.216008214716077	5.3615785	2.3155084
5.233553195535998	5.3523493	2.3135145
5.251098299128764	5.3383827	2.310494
5.268643525908272	5.3403463	2.310919
5.286188876288432	5.3695216	2.3172228
5.3037343506831895	5.339973	2.3108382
5.32127994950651	5.2951245	2.3011138
5.3388256731723915	5.26165	2.2938287
5.356371522094851	5.1925445	2.2787156
5.373917496687938	5.2638617	2.2943108
5.391463597365729	5.3046927	2.303192
5.40900982454232	5.360036	2.315175
5.426556178631843	5.3334627	2.3094292
5.444102660048449	5.2018733	2.2807615
5.4616492692063225	5.1616635	2.2719295
5.479196006519669	5.1686563	2.273468
5.496742872402727	5.1775975	2.2754335
5.514289867269756	5.2602334	2.29352
5.531836991535049	5.312746	2.3049395
5.549384245612924	5.2825565	2.2983813
5.566931629917724	5.2545757	2.2922862
5.584479144863822	5.109974	2.2605252
5.6020267908656205	5.0732126	2.2523794
5.619574568337545	5.082363	2.2544098
5.637122477694054	5.0976725	2.2578025
5.654670519349629	5.1349697	2.2660472
5.672218693718784	5.163621	2.2723603
5.689767001216059	5.168114	2.2733486
5.707315442256021	5.207401	2.2819731
5.724864017253266	5.234834	2.287976
5.7424127266224225	5.250976	2.2915008
5.75996157077814	5.23015	2.2869523
5.777510550135105	5.183799	2.2767956
5.795059665108022	5.154916	2.270444
5.812608916111639	5.190163	2.278193
5.830158303560715	5.25134	2.2915802
5.847707827870055	5.259903	2.2934477
5.86525748945448	5.347242	2.3124104
5.8828072887288485	5.4428096	2.332983
5.900357226108044	5.5257545	2.3506923
5.917907302006979	5.59994	2.3664193
5.9354575168406	6.2106767	2.492123
5.9530078710238765	6.842499	2.615817
5.970558364971812	7.435379	2.7267892
5.988108999099438	7.723921	2.7791944
6.005659773821818	8.22665	2.8682137
6.023210689554039	7.997721	2.8280241
6.040761746711227	8.395978	2.8975813
6.058312945708531	7.834513	2.79902
6.075864286961132	7.451109	2.729672
6.093415770884244	6.7864523	2.605082
6.1109673978931065	6.257326	2.5014648
6.128519168402993	5.654357	2.3778892
6.146071082829204	5.4672556	2.3382163
6.163623141587075	5.3125515	2.3048973
6.181175345091969	5.2345233	2.287908
6.198727693759281	5.2522674	2.2917826
6.216280188004435	5.2541347	2.2921898
6.233832828242885	5.2457867	2.2903683
6.251385614890126	5.2926373	2.3005733
6.268938548361669	5.243383	2.2898433
6.286491629073067	5.168293	2.273388
6.304044857439898	5.133508	2.2657247
6.321598233877777	5.015759	2.239589
6.339151758802344	4.9971347	2.2354271
6.356705432629277	4.9869018	2.2331371
6.37425925577428	4.9947796	2.2349002
6.391813228653095	5.0449347	2.2460933
6.409367351681486	5.027618	2.242235
6.426921625275259	4.9607644	2.2272773
6.44447604985025	4.8748617	2.2079089
6.46203062582232	4.865021	2.2056794
6.47958535360737	4.9471703	2.2242236
6.497140233621328	5.003389	2.2368257
6.514695266280161	4.9817066	2.2319736
6.532250451999859	4.9292727	2.2201965
6.549805791196454	4.9387155	2.222322
6.567361284286002	5.0111947	2.2385697
6.584916931684597	5.1018357	2.2587245
6.602472733808367	5.2012796	2.2806313
6.6200286910734665	5.2030096	2.2810106
6.637584803896092	5.161375	2.271866
6.655141072692462	5.111722	2.2609117
6.672697497878842	5.0302563	2.2428234
6.690254079871514	4.98662	2.2330742
6.707810819086808	4.992779	2.2344527
6.725367715941078	4.9859295	2.2329195
6.742924770850719	4.981184	2.2318566
6.760481984232151	4.9898267	2.233792
6.778039356501836	4.9807405	2.2317572
6.795596888076266	4.9850993	2.2327335
6.813154579371963	4.956722	2.2263696
6.830712430805492	4.954547	2.225881
6.84827044279344	5.006398	2.2374983
6.865828615752445	5.0364676	2.2442076
6.883386950099159	5.054196	2.248154
6.900945446250287	5.0606937	2.2495985
6.918504104622553	4.998845	2.2358098
6.936062925632727	5.0004916	2.236178
6.953621909697607	5.0739117	2.2525344
6.971181057234028	5.1000714	2.2583337
6.988740368658859	5.1381764	2.2667546
7.006299844389007	5.2369547	2.2884393
7.023859484841407	5.248994	2.2910683
7.041419290433036	5.3129	2.304973
7.058979261580902	5.4356837	2.3314552
7.0765393987020495	5.7259197	2.3928895
7.094099702213559	6.1791706	2.4857938
7.111660172532549	6.564114	2.5620527
7.129220810076164	6.9617233	2.6385078
7.146781615261595	7.553621	2.7483852
7.16434258850606	7.7342443	2.781051
7.181903730226821	8.14526	2.85399
7.1994650408411704	8.254219	2.8730156
7.217026520766437	8.331661	2.8864617
7.234588170419983	8.5826845	2.929622
7.252149990219215	8.589607	2.930803
7.269711980581568	8.442555	2.9056077
7.2872741419245175	8.234257	2.8695395
7.304836474665574	7.8012357	2.7930691
7.322398979222286	7.6033893	2.7574244
7.339961656012233	7.3834767	2.7172554
7.357524505453039	7.0940056	2.6634574
7.375087527962357	6.7184935	2.5920057
7.392650723957886	6.38769	2.527388
7.410214093857353	6.044185	2.4584925
7.427777638078528	5.8350906	2.4155931
7.445341357039213	5.633596	2.3735197
7.4629052511572525	5.4904757	2.3431764
7.480469320850524	5.3602176	2.3152144
7.498033566536948	5.2727532	2.2962477
7.5155979886344735	5.2129064	2.283179
7.5331625875610975	5.150671	2.269509
7.550727363734844	5.2141004	2.2834404
7.568292317573788	5.3082523	2.3039644
7.585857449496025	5.3259234	2.3077962
7.603422759919705	5.253058	2.291955
7.620988249263007	5.220738	2.2848935
7.638553917944147	5.2519073	2.291704
7.656119766381391	5.2889285	2.299767
7.673685794993023	5.281271	2.2981017
7.691252004197388	5.2939234	2.3008528
7.70881839441285	5.3139544	2.3052015
7.726384966057826	5.345841	2.3121076
7.743951719550762	5.3214397	2.3068247
7.761518655310149	5.325372	2.3076768
7.779085773754511	5.3879886	2.3212042
7.796653075302419	5.4028215	2.324397
7.814220560372475	5.3580317	2.3147423
7.831788229383323	5.295418	2.3011775
7.8493560827536495	5.2675834	2.2951217
7.866924120902174	5.291191	2.3002589
7.884492344247663	5.331694	2.3090463
7.9020607532089135	5.335178	2.3098004
7.919629348204771	5.3285728	2.30837
7.937198129654115	5.3398128	2.3108034
7.954767097975865	5.4027185	2.324375
7.972336253588986	5.391002	2.3218532
7.989905596912472	5.453375	2.3352463
8.007475128365371	5.446155	2.3337
8.025044848366756	5.4996057	2.3451238
8.042614757335754	5.598613	2.3661387
8.060184855691523	5.65217	2.3774292
8.07775514385327	5.8322825	2.415012
8.095325622240228	5.906412	2.4303112
8.112896291271687	5.9363327	2.436459
8.130467151366968	5.844763	2.4175944
8.148038202945436	5.834577	2.4154868
8.165609446426497	5.8582263	2.4203773
8.183180882229594	5.9830313	2.4460235
8.200752510774217	6.070843	2.4639082
8.218324332479893	6.104821	2.4707937
8.235896347766193	6.123233	2.4745166
8.253468557052724	6.10605	2.4710424
8.27104096075914	6.144008	2.478711
8.288613559305137	6.202626	2.4905071
8.306186353110448	6.2568393	2.5013676
8.32375934259485	6.347435	2.5194116
8.341332528178162	6.2300324	2.4960034
8.358905910280246	6.261893	2.5023775
8.376479489321003	6.2041383	2.4908109
8.394053265720377	6.28294	2.5065794
8.411627239898356	6.27153	2.5043023
8.42920141227497	6.2490063	2.4998012
8.44677578327029	6.323004	2.5145583
8.464350353304427	6.2794027	2.5058737
8.48192512279754	6.3032045	2.5106184
8.499500092169827	6.245331	2.4990659
8.51707526184153	6.23558	2.4971144
8.534650632232934	6.206818	2.4913487
8.552226203764365	6.1692343	2.4837942
8.569801976856192	6.2302866	2.4960542
8.587377951928834	6.2530093	2.5006018
8.60495412940274	6.3764443	2.5251622
8.622530509698416	6.459712	2.5415964
8.6401070932364	6.6126347	2.5715044
8.657683880437283	6.7355714	2.595298
8.675260871721695	6.8197255	2.6114604
8.692838067510303	6.910594	2.6288009
8.710415468223834	7.039732	2.6532493
8.727993074283043	7.229334	2.6887422
8.745570886108737	7.3077655	2.7032878
8.763148904121765	7.301895	2.7022018
8.78072712874302	7.2432327	2.6913254
8.798305560393441	7.5049915	2.739524
8.815884199494006	7.7718606	2.7878058
8.833463046465745	7.925324	2.815195
8.851042101729728	8.029613	2.833657
8.86862136570707	8.218715	2.86683
8.886200838818924	8.366158	2.892431
8.903780521486505	8.411242	2.900214
8.921360414131055	8.444598	2.9059591
8.938940517173874	8.586799	2.930324
8.956520831036297	8.813529	2.9687588
8.97410135613971	9.139558	3.0231702
8.99168209290554	9.344121	3.0568154
9.009263041755265	9.623565	3.1021872
9.026844203110405	9.889636	3.1447792
9.044425577392525	10.149022	3.185753
9.062007165023239	10.246929	3.2010825
9.079588966424197	10.456348	3.2336278
9.097170982017108	10.535933	3.2459102
9.11475321222372	11.536433	3.3965325
9.132335657465825	12.321517	3.510202
9.149918318165264	12.355072	3.5149782
9.167501194743924	12.776242	3.574387
9.18508428762374	12.495497	3.534897
9.202667597226693	12.541512	3.5413997
9.220251123974803	12.368669	3.5169117
9.237834868290143	12.090557	3.4771478
9.255418830594836	11.931308	3.4541726
9.273003011311046	11.377376	3.3730366
9.290587410860985	11.12642	3.335629
9.308172029666911	10.479009	3.2371297
9.32575686815113	10.1541815	3.1865625
9.343341926735997	8.912898	2.9854476
9.360927205843916	8.641299	2.9396086
9.378512705897327	8.506585	2.916605
9.396098427318728	8.338515	2.8876488
9.413684370530664	8.211208	2.8655207
9.431270535955722	8.04616	2.8365753
9.448856924016539	7.9612045	2.8215606
9.466443535135806	7.80083	2.7929966
9.484030369736251	7.7837625	2.7899394
9.501617428240658	7.7688684	2.7872689
9.519204711071852	7.7802052	2.7893019
9.536792218652714	7.858381	2.8032804
9.55437995140617	7.877999	2.8067772
9.571967909755191	7.8822975	2.807543
9.589556094122802	7.81931	2.796303
9.60714450493207	7.862092	2.8039422
9.624733142606116	7.924238	2.8150024
9.642322007568108	7.9661045	2.822429
9.659911100241267	7.96062	2.8214571
9.677500421048851	7.9796133	2.824821
9.695089970414175	8.015304	2.8311312
9.712679748760609	8.136642	2.85248
9.730269756511557	8.210964	2.865478
9.747859994090492	8.2207775	2.86719
9.765450461920915	8.261375	2.874261
9.78304116042639	8.295624	2.8802125
9.800632090030527	8.356384	2.890741
9.81822325115699	8.4012375	2.8984888
9.835814644229481	8.380633	2.8949323
9.853406269671762	8.323871	2.8851118
9.870998127907646	8.334134	2.88689
9.888590219360985	8.355921	2.890661
9.906182544455698	8.385506	2.8957736
9.923775103615734	8.422424	2.9021413
9.941367897265108	8.481806	2.912354
9.958960925827878	8.5236435	2.919528
9.97655418972816	8.467899	2.9099655
9.994147689390106	8.36626	2.8924487
10.011741425237934	8.255297	2.8732033
10.029335397695904	8.308797	2.8824983
10.04692960718833	8.331878	2.8864992
10.06452405413958	8.31457	2.8834996
10.082118738974064	8.288541	2.8789825
10.099713662116246	8.319265	2.8843136
10.117308823990651	8.387531	2.8961234
10.134904225021844	8.378492	2.8945625
10.152499865634445	8.2428	2.8710277
10.170095746253125	8.304847	2.881813
10.18769186730261	8.280875	2.877651
10.205288229207675	8.304081	2.8816803
10.222884832393145	8.286531	2.8786335
10.2404816772839	8.20722	2.8648245
10.258078764304868	8.176334	2.8594291
10.275676093881035	8.170628	2.8584309
10.293273666437438	8.193292	2.8623927
10.310871482399158	8.235505	2.869757
10.32846954219134	8.220823	2.8671978
10.346067846239173	8.253133	2.8728266
10.363666394967908	8.2144375	2.866084
10.38126518880283	8.229703	2.8687458
10.398864228169298	8.287033	2.8787208
10.416463513492713	8.394756	2.8973706
10.434063045198531	8.410452	2.9000778
10.451662823712262	8.395467	2.8974931
10.469262849459467	8.314044	2.8834083
10.486863122865758	8.187559	2.861391
10.504463644356806	8.140194	2.8531024
10.522064414358338	8.011056	2.830381
10.539665433296118	7.937137	2.8172925
10.557266701595987	7.8819423	2.8074796
10.574868219683818	7.8110447	2.7948246
10.592469987985552	7.7566605	2.7850783
10.610072006927185	7.632683	2.762731
10.627674276934751	7.55271	2.7482195
10.64527679843435	7.372281	2.7151945
10.662879571852143	7.322148	2.7059467
10.680482597614331	7.170994	2.6778712
10.698085876147173	7.0372405	2.6527798
10.715689407876988	6.9733853	2.6407168
10.733293193230146	6.8522096	2.6176724
10.750897232633072	6.776123	2.6030986
10.76850152651225	6.6502967	2.578817
10.786106075294207	6.6131377	2.571602
10.803710879405534	6.545544	2.5584261
10.821315939272877	6.4882	2.5471945
10.83892125532294	6.3905387	2.5279515
10.856526827982472	6.307828	2.511539
10.874132657678285	6.227106	2.495417
10.891738744837243	6.2010384	2.4901884
10.909345089886271	6.153641	2.4806533
10.926951693252343	6.1591167	2.4817567
10.944558555362494	6.1420035	2.4783065
10.96216567664381	6.075883	2.4649305
10.979773057523436	6.0045605	2.4504204
10.997380698428573	5.9502363	2.4393106
11.014988599786477	5.9088125	2.430805
11.032596762024461	5.833062	2.4151733
11.050205185569892	5.7087007	2.3892887
11.067813870850198	5.6251674	2.3717434
11.085422818292859	5.5675225	2.3595598
11.10303202832541	5.5310335	2.351815
11.120641501375454	5.414777	2.3269672
11.138251237870636	5.3335648	2.309451
11.155861238238671	5.308564	2.304032
11.173471502907317	5.2792435	2.2976604
11.191082032304402	5.274723	2.2966766
11.208692826857805	5.1872315	2.2775495
11.226303886995465	5.1195974	2.2626526
11.243915213145371	5.043882	2.245859
11.261526805735578	4.9494486	2.2247357
11.279138665194196	4.8733273	2.2075615
11.296750791949393	4.839439	2.1998725
11.314363186429393	4.840039	2.2000089
11.331975849062479	4.8458657	2.2013328
11.34958878027699	4.801709	2.1912804
11.36720198050133	4.729708	2.1747892
11.384815450163948	4.6290216	2.1515162
11.402429189693366	4.5140867	2.124638
11.420043199518153	4.4712634	2.1145363
11.437657480066942	63.431614	7.9643965
11.455272031768422	85.176056	9.229088
11.472886855051353	107.54589	10.370434
11.490501950344528	99.09514	9.954654
11.508117318076819	84.463394	9.190397
11.52573295867715	45.895096	6.774592
11.543348872574514	4.220993	2.0545056
11.560965060197946	4.195093	2.0481927
11.57858152197655	4.127826	2.0317051
11.59619825833949	4.1019835	2.0253353
11.613815269715985	4.06814	2.016963
11.631432556535323	38.542496	6.20826
11.649050119226837	83.042336	9.112757
11.666667958219929	93.4547	9.667197
11.68428607394406	107.67855	10.376827
11.701904466828756	82.49735	9.082806
11.719523137303586	65.34045	8.0833435
11.737142085798196	4.628692	2.1514397
11.754761312742286	3.7802782	1.9442937
11.772380818565619	3.7011168	1.9238287
11.790000603698015	3.6662955	1.9147573
11.80762066856935	3.6348968	1.9065405
11.825241013609572	3.6053503	1.8987759
11.842861639248683	3.5456338	1.8829854
11.860482545916748	3.4978898	1.8702646
11.878103734043883	3.4957678	1.8696972
11.895725204060282	3.4705055	1.8629292
11.91334695639619	3.4610603	1.8603925
11.930968991481919	3.4348369	1.8533313
11.948591309747824	3.4168456	1.8484712
11.966213911624347	3.3756943	1.8373063
11.98383679754198	3.336592	1.826634
12.001459967931268	3.3174314	1.8213817
12.019083423222835	3.3234742	1.8230398
12.036707163847352	3.3219318	1.8226167
12.05433119023556	3.2917874	1.8143283
12.071955502818259	3.293162	1.8147072
12.089580102026313	3.2613938	1.805933
12.107204988290643	3.254879	1.8041283
12.12483016204224	3.2455456	1.8015398
12.142455623712152	3.2127602	1.7924174
12.16008137373149	3.161804	1.7781463
12.177707412531431	3.1433551	1.772951
12.19533374054321	3.1345618	1.7704693
12.212960358198126	3.1090443	1.7632482
12.230587265927545	3.0923276	1.7585015
12.248214464162889	3.0780284	1.7544311
12.265841953335649	3.0538087	1.747515
12.283469733877375	3.0109797	1.7352175
12.301097806219685	2.9779055	1.7256609
12.31872617079425	2.9530108	1.7184327
12.336354828032825	2.946588	1.7165629
12.353983778367205	2.9412081	1.714995
12.371613022229262	2.9641097	1.721659
12.389242560050928	2.9351966	1.7132416
12.406872392264201	2.9155488	1.7074978
12.424502519301143	2.8860276	1.6988312
12.442132941593874	2.8780386	1.6964782
12.459763659574586	2.905521	1.7045588
12.477394673675532	2.862023	1.6917515
12.49502598432903	2.8597417	1.6910771
12.51265759196746	2.8364942	1.6841894
12.530289497023267	2.8470206	1.6873116
12.547921699928967	2.8530836	1.6891073
12.565554201117134	2.84346	1.6862563
12.583187001020404	2.834169	1.683499
12.600820100071486	2.8021114	1.6739508
12.618453498703152	2.7959106	1.6720977
12.636087197348235	2.7952845	1.6719104
12.65372119643964	2.7949939	1.6718235
12.671355496410326	2.775743	1.6660562
12.68899009769333	2.8370864	1.6843653
12.706625000721749	2.8557036	1.6898828
12.724260205928752	2.8999982	1.7029381
12.741895713747551	2.9082077	1.7053468
12.759531524611454	2.9778273	1.7256383
12.777167638953818	3.04447	1.744841
12.794804057208072	3.0720356	1.7527224
12.812440779807702	3.083035	1.7558573
12.830077807186271	3.2006676	1.7890409
12.847715139777405	3.222459	1.795121
12.865352778014795	3.4227853	1.8500772
12.882990722332197	3.51378	1.874508
12.90062897316344	3.5864723	1.8937984
12.918267530942412	3.6935146	1.9218519
12.935906396103071	3.5886593	1.8943757
12.953545569079449	3.776495	1.9433206
12.971185050305628	3.6149395	1.9012994
12.988824840215775	3.658145	1.9126278
13.006464939244115	3.6424618	1.9085234
13.024105347824943	3.4729438	1.8635836
13.041746066392617	3.578021	1.8915658
13.05938709538157	3.3646894	1.834309
13.077028435226296	3.404427	1.845109
13.094670086361363	3.2513812	1.8031586
13.112312049221401	3.19195	1.786603
13.129954324241112	3.1086643	1.7631404
13.147596911855258	2.954014	1.7187245
13.165239812498685	2.8843703	1.6983434
13.182883026606293	2.773694	1.665441
13.200526554613058	2.7306159	1.6524575
13.218170396954017	2.7710834	1.6646571
13.235814554064284	2.791227	1.6706966
13.253459026379034	2.818664	1.6788877
13.271103814333523	2.7920914	1.6709552
13.288748918363058	2.777558	1.6666007
13.306394338903031	2.752293	1.6590036
13.32404007638889	2.7324803	1.6530216
13.341686131256164	2.732186	1.6529325
13.359332503940449	2.6924226	1.6408603
13.376979194877402	2.6773252	1.6362535
13.394626204502751	2.7161932	1.6480877
13.412273533252307	2.741579	1.6557715
13.429921181561937	2.7513077	1.6587067
13.447569149867581	2.7313812	1.6526891
13.465217438605247	2.7525425	1.6590788
13.482866048211022	2.756598	1.6603006
13.500514979121052	2.7777092	1.6666461
13.518164231771568	2.7420452	1.6559122
13.535813806598844	2.741355	1.6557038
13.553463704039254	2.7460086	1.6571085
13.571113924529229	2.7367263	1.6543053
13.588764468505275	2.7013125	1.643567
13.606415336403956	2.704609	1.6445695
13.624066528661917	2.7574363	1.660553
13.641718045715882	2.8152187	1.6778613
13.659369888002635	2.8579261	1.6905402
13.67702205595903	2.9105234	1.7060256
13.694674550021993	2.9608045	1.7206988
13.712327370628532	3.049074	1.7461598
13.729980518215713	3.1620913	1.778227
13.747633993220681	3.2156553	1.7932248
13.765287796080647	3.2660687	1.8072268
13.7829419272329	3.243256	1.8009043
13.800596387114801	3.2803872	1.8111839
13.818251176163775	3.310966	1.819606
13.835906294817324	3.4122806	1.8472359
13.853561743513023	3.4667265	1.8619148
13.871217522688525	3.4884586	1.8677416
13.888873632781538	3.4977577	1.8702294
13.906530074229858	3.540215	1.8815459
13.92418684747135	3.5387135	1.8811468
13.941843952943948	3.5130224	1.8743058
13.959501391085665	3.4584923	1.8597022
13.977159162334578	3.4166849	1.8484277
13.994817267128846	3.3926063	1.8419029
14.012475705906693	3.3086102	1.8189585
14.030134479106424	3.229738	1.7971472
14.047793587166414	3.108528	1.7631018
14.065453030525108	3.057211	1.7484882
14.083112809621026	3.038215	1.7430476
14.100772924892766	3.011297	1.7353089
14.118433376778997	2.9622595	1.7211215
14.136094165718458	2.8953078	1.7015604
14.153755292149969	2.8520226	1.6887933
14.171416756512416	2.7834432	1.6683655
14.189078559244768	2.6951046	1.6416774
14.20674070078606	2.614028	1.6167955
14.224403181575408	2.5376143	1.5929891
14.242066002051999	2.5092473	1.5840604
14.259729162655093	2.484432	1.5762081
14.277392663824022	2.4874191	1.5771554
14.295056505998208	2.5000062	1.5811408
14.312720689617128	2.466283	1.5704404
14.330385215120348	2.4311402	1.5592114
14.348050082947497	2.4543784	1.5666456
14.3657152935383	2.4499419	1.565229
14.383380847332528	2.4375467	1.5612645
14.401046744770051	2.4116395	1.5529454
14.418712986290798	2.4140368	1.553717
14.436379572334793	2.4375837	1.5612763
14.454046503342123	2.409745	1.5523354
14.471713779752946	2.4227936	1.5565326
14.489381402007504	2.4376514	1.561298
14.507049370546113	2.4675307	1.5708376
14.524717685809168	2.4572666	1.5675671
14.542386348237134	2.4544697	1.5666747
14.560055358270553	2.4614553	1.5689026
14.577724716350051	2.4834795	1.5759059
14.595394422916325	2.484898	1.5763559
14.61306447841015	2.4734976	1.5727357
14.63073488327237	2.5008364	1.5814033
14.648405637943917	2.5344713	1.5920023
14.6660767428658	2.5253906	1.5891478
14.683748198479094	2.5255418	1.5891954
14.701420005224954	2.5264127	1.5894693
14.719092163544628	2.6250033	1.6201862
14.73676467387942	2.7009928	1.6434698
14.754437536670727	2.7389128	1.6549661
14.772110752360014	2.703865	1.6443434
14.78978432138882	2.6707256	1.6342355
14.807458244198777	2.7131393	1.647161
14.82513252123159	2.7226658	1.6500503
14.842807152929028	2.7471247	1.6574452
14.860482139732962	2.705689	1.6448978
14.87815748208531	2.6501026	1.6279136
14.8958331804281	2.667176	1.6331491
14.91350923520342	2.6565802	1.6299019
14.931185646853438	2.7164705	1.6481719
14.948862415820408	2.6823587	1.6377908
14.966539542546656	2.684868	1.6385567
14.98421702747459	2.651896	1.6284643
15.001894871046696	2.6771045	1.636186
15.019573073705542	2.6811397	1.6374186
15.037251635893766	2.6786215	1.6366495
15.054930558054092	2.700682	1.6433752
15.072609840629323	2.766411	1.6632532
15.090289484062351	2.9041872	1.7041676
15.107969488796124	3.1644866	1.7789004
15.125649855273691	3.5901186	1.8947608
15.14333058393817	4.118914	2.0295107
15.161011675232768	5.131698	2.265325
15.17869312960076	6.531624	2.555704
15.196374947485506	8.466462	2.9097185
15.214057129330447	11.700723	3.420632
15.231739675579114	16.414396	4.0514684
15.249422586675102	21.4293	4.629179
15.267105863062092	24.375708	4.937176
15.284789505183847	24.395844	4.9392147
15.302473513484218	22.138529	4.7051597
15.320157888407127	18.459661	4.2964706
15.337842630396578	14.372951	3.7911675
15.355527739896656	11.20292	3.3470764
15.37321321735153	8.745702	2.9573133
15.39089906320545	6.399306	2.529685
15.408585277902748	4.8268123	2.1970007
15.42627186188783	3.7545455	1.937665
15.443958815605198	3.236884	1.7991343
15.461646139499424	2.9807427	1.7264827
15.479333834015168	2.874539	1.6954465
15.497021899597165	2.804247	1.6745886
15.514710336690234	2.732216	1.6529416
15.53239914573928	2.6690803	1.633732
15.550088327189297	2.599872	1.6124119
15.567777881485336	2.5617487	1.6005464
15.58546780907256	2.5598817	1.5999631
15.6031581103962	2.5338461	1.5918059
15.620848785901568	2.5024724	1.5819205
15.638539836034063	2.4778073	1.5741053
15.656231261239173	2.5019898	1.5817679
15.673923061962451	2.4923851	1.5787289
15.691615238649552	2.4855602	1.576566
15.709307791746202	2.4173703	1.5547894
15.727000721698221	2.4002798	1.5492836
15.744694028951498	2.3725512	1.5403088
15.76238771395202	2.3834326	1.543837
15.780081777145844	2.362866	1.5371616
15.797776218979125	2.3852797	1.544435
15.815471039898094	2.3840365	1.5440326
15.833166240349064	2.3968637	1.5481808
15.850861820778437	2.383997	1.5440197
15.868557781632699	2.4002142	1.5492625
15.886254123358412	2.3847203	1.544254
15.903950846402232	2.3795373	1.5425749
15.921647951210897	2.366168	1.5382353
15.939345438231225	2.3773673	1.5418713
15.957043307910133	2.39846	1.5486962
15.974741560694602	2.4106526	1.5526277
15.992440197031714	2.419631	1.5555164
16.01013921736862	2.398056	1.5485657
16.02783862215259	2.3863757	1.5447898
16.045538411830933	2.3554208	1.5347381
16.06323858685107	2.3678956	1.5387968
16.080939147660512	2.4333334	1.5599146
16.09864009470684	2.4711323	1.5719836
16.11634142843774	2.4713519	1.5720534
16.134043149300954	2.4543803	1.5666462
16.15174525774433	2.428396	1.5583311
16.169447754215817	2.4174082	1.5548017
16.18715063916342	2.4438112	1.5632694
16.204853913035244	2.4839911	1.5760683
16.222557576279478	2.516705	1.5864127
16.240261629344403	22.527061	4.7462683
16.257966072678386	43.067245	6.562564
16.275670906729868	38.150955	6.1766458
16.293376131947387	2.5655553	1.6017351
16.31108174877957	2.5627522	1.6008599
16.328787757675133	2.560467	1.6001459
16.34649415908287	2.588062	1.6087455
16.364200953451657	2.622586	1.6194401
16.38190814123048	2.6678615	1.633359
16.39961572286839	2.673245	1.6350061
16.41732369881455	2.702698	1.6439885
16.43503206951817	2.721687	1.6497537
16.45274083542859	2.778414	1.6668575
16.47044999699522	2.7959309	1.6721038
16.488159554667558	2.8771625	1.69622
16.505869508895184	2.9479117	1.7169484
16.523579860127786	2.9473586	1.7167873
16.541290608815117	2.9395282	1.7145052
16.559001755407035	2.9475796	1.7168517
16.57671330035348	3.0344636	1.7419713
16.59442524410448	3.1098063	1.7634643
16.61213758711015	3.1926987	1.7868124
16.629850329820705	3.2411149	1.8003097
16.647563472686436	3.3411286	1.8278754
16.665277016157724	3.4195101	1.8491918
16.682990960685053	3.4635515	1.8610619
16.70070530671898	3.5134046	1.8744078
16.718420054710155	3.56308	1.8876122
16.736135205109335	3.6274123	1.9045767
16.753850758367335	3.7252622	1.9300938
16.771566714935087	3.7973602	1.9486816
16.789283075263597	3.7906926	1.9469701
16.80699983980398	3.7753963	1.9430379
16.82471700900741	3.7785482	1.9438488
16.84243458332518	3.898279	1.974406
16.860152563208665	4.0031185	2.0007794
16.87787094910932	4.1269298	2.0314846
16.89558974147871	4.230118	2.056725
16.913308940768466	4.2758145	2.0678043
16.931028547430333	4.296082	2.0726993
16.94874856191613	4.3095355	2.075942
16.966468984677785	4.4124413	2.1005812
16.98418981616729	4.4290204	2.104524
17.00191105683676	4.4403086	2.107204
17.019632707138374	4.448213	2.1090786
17.03735476752442	4.5008125	2.121512
17.05507723844728	4.576859	2.1393595
17.072800120359403	4.6368823	2.153342
17.090523413713353	4.6973863	2.1673455
17.108247118961785	4.765224	2.1829393
17.125971236557437	4.7840576	2.187249
17.143695766953133	4.7666802	2.1832728
17.161420710601806	4.7632375	2.1824841
17.179146067956477	4.732928	2.1755292
17.19687183947025	4.759797	2.181696
17.21459802559634	4.795244	2.1898046
17.232324626788028	4.8032646	2.1916351
17.25005164349871	4.771341	2.18434
17.267779076181863	4.6880307	2.1651862
17.285506925291074	4.6478024	2.1558762
17.30323519127999	4.600763	2.144939
17.320963874602384	4.576374	2.1392462
17.33869297571211	4.549647	2.1329901
17.356422495063114	4.587502	2.1418455
17.37415243310944	4.556276	2.1345434
17.391882790305218	4.4871817	2.1182969
17.40961356710468	4.4854846	2.1178963
17.42734476396215	4.528174	2.1279507
17.445076381332044	4.532331	2.1289272
17.462808419668868	4.6056685	2.1460822
17.48054087942723	4.7726374	2.1846366
17.498273761061835	5.084139	2.2548034
17.51600706502747	5.6018934	2.366832
17.533740791779024	6.3973465	2.5292976
17.551474941771485	7.917937	2.8138828
17.56920951545993	9.084186	3.0139983
17.586944513299528	11.2406845	3.352713
17.60467993574556	12.937855	3.5969229
17.622415783253373	14.556118	3.815248
17.64015205627843	15.893267	3.986636
17.657888755276293	16.818087	4.100986
17.675625880702604	17.16212	4.142719
17.69336343301311	16.823906	4.1016955
17.71110141266366	16.203762	4.0253897
17.728839820110178	15.510184	3.938297
17.746578655808705	14.723476	3.8371181
17.764317920215372	13.2413435	3.6388657
17.7820576137864	11.683874	3.4181683
17.79979773697811	9.612217	3.1003575
17.81753829024692	7.6066422	2.7580142
17.835279274049356	5.843067	2.4172437
17.85302068884201	4.772968	2.1847124
17.870762535081607	4.178434	2.0441217
17.888504813224934	3.9268358	1.9816245
17.90624752372891	3.7604764	1.9391948
17.923990667050536	3.6545925	1.9116988
17.941734243646895	3.5661168	1.8884165
17.959478253975185	3.5229604	1.8769552
17.9772226984927	3.5197744	1.8761061
17.994967577656833	3.4881005	1.8676457
18.01271289192506	3.4751189	1.8641671
18.030458641754965	3.4388642	1.8544174
18.04820482760425	3.431208	1.852352
18.06595144993067	3.3706665	1.8359375
18.083698509192125	3.357427	1.8323283
18.101446005846576	3.3386257	1.8271906
18.119193940352105	3.3313644	1.8252026
18.136942313166887	3.3363848	1.8265773
18.1546911247492	3.283241	1.8119715
18.1724403755574	3.2175314	1.7937479
18.19019006604997	3.154652	1.776134
18.207940196685467	3.1315424	1.7696165
18.225690767922575	3.107001	1.7626687
18.243441780220046	3.104588	1.7619841
18.261193234036764	3.1070426	1.7626805
18.278945129831676	3.1159375	1.7652018
18.29669746806386	3.0818758	1.7555273
18.314450249192483	3.0726867	1.7529081
18.3322034736768	3.0551925	1.7479109
18.349957141976184	3.0561433	1.7481829
18.3677112545501	3.0568602	1.7483879
18.385465811858108	3.0845335	1.756284
18.403220814359884	3.1013222	1.7610571
18.420976262515172	3.1011345	1.7610039
18.43873215678387	3.1302974	1.7692647
18.456488497625923	3.1546988	1.7761472
18.474245285501407	3.210603	1.7918155
18.492002520870486	3.3019176	1.8171179
18.50976020419343	3.4043868	1.845098
18.527518335930615	3.7917495	1.9472415
18.545276916542516	4.4127336	2.1006508
18.563035946489688	4.6260214	2.1508188
18.580795426232832	4.9964557	2.2352753
18.598555356232698	4.8560004	2.2036335
18.616315736950185	5.2031646	2.2810447
18.63407656884626	4.8659477	2.2058892
18.65183785238201	5.045096	2.246129
18.669599588018617	4.702415	2.1685052
18.68736177621737	4.708389	2.1698823
18.705124417439652	4.6891823	2.165452
18.72288751214696	4.5172195	2.1253753
18.740651060800886	4.6489887	2.1561513
18.758415063863115	4.3182893	2.0780494
18.77617952179546	4.4449363	2.1083016
18.793944435059814	4.2023063	2.0499527
18.811709804118184	4.224082	2.055257
18.829475629432675	4.192583	2.0475798
18.8472419114655	4.004165	2.001041
18.86500865067897	4.1243095	2.0308397
18.88277584753551	3.8015792	1.9497639
18.90054350249763	3.8386703	1.9592525
18.918311616027957	3.4935505	1.8691043
18.936080188589226	3.371762	1.8362359
18.953849220644265	3.0681798	1.7516221
18.971618712656007	2.8953204	1.7015641
18.9893886650875	2.8578572	1.6905198
19.007159078401887	8.068751	2.8405547
19.024929953062408	32.94604	5.7398643
19.042701289532435	32.857964	5.732187
19.060473088275405	25.396841	5.039528
19.07824534975489	2.6824846	1.6378292
19.096018074434568	2.6651976	1.6325433
19.113791262778197	2.634124	1.6229985
19.13156491524966	2.6301353	1.6217692
19.149339032312945	2.6297388	1.621647
19.167113614432136	2.6777384	1.6363797
19.184888662071433	2.6569402	1.6300124
19.202664175695123	2.6304424	1.6218638
19.220440155767623	2.6209621	1.6189386
19.238216602753447	2.6112666	1.6159414
19.2559935171172	2.560125	1.6000391
19.27377089932361	2.5422275	1.5944364
19.291548749837514	2.571818	1.603689
19.309327069123835	2.569612	1.603001
19.32710585764763	2.525706	1.589247
19.344885115874032	2.4957924	1.5798078
19.362664844268313	2.5328674	1.5914985
19.380445043295822	2.5708995	1.6034025
19.39822571342203	2.5548189	1.5983801
19.41600685511252	2.5390906	1.5934525
19.43378846883297	2.5364878	1.5926355
19.451570555049173	2.5300338	1.590608
19.469353114227037	2.5005996	1.5813284
19.48713614683254	2.503172	1.5821415
19.50491965333182	2.5231733	1.58845
19.52270363419109	2.5402813	1.5938259
19.540488089876686	2.5153306	1.5859793
19.55827302085503	2.5407789	1.5939821
19.576058427592674	2.5801897	1.6062969
19.593844310556282	2.570139	1.6031653
19.611630670212598	2.5462117	1.5956854
19.629417507028506	2.519148	1.5871824
19.64720482147098	2.4831238	1.575793
19.6649926140071	2.4788284	1.5744295
19.682780885104084	2.469018	1.5713109
19.70056963522921	2.446329	1.5640745
19.718358864849908	2.4761174	1.5735683
19.7361485744337	2.5385146	1.5932716
19.753938764448215	2.5844505	1.6076226
19.771729435361202	2.571102	1.6034656
19.789520587640506	2.5548034	1.5983752
19.807312221754092	2.5333683	1.5916559
19.825104338170043	2.5198855	1.5874147
19.842896937356517	2.5337956	1.5917901
19.860690019781824	2.574417	1.604499
19.87848358591436	2.5940282	1.6105987
19.896277636222635	2.5842266	1.607553
19.914072171175278	2.5634532	1.6010787
19.931867191241015	2.5359445	1.5924649
19.94966269688869	2.5282466	1.5900462
19.967458688587264	2.4769366	1.5738286
19.985255166805807	2.4910126	1.5782942
20.00305213201348	2.5267699	1.5895816
20.020849584679578	2.5000427	1.5811523
20.038647525273507	2.486243	1.5767825
20.05644595426477	2.4759402	1.5735121
20.07424487212299	2.490954	1.5782756
20.092044279317903	2.4773133	1.5739483
20.109844176319353	2.4559636	1.5671514
20.127644563597304	2.4742105	1.5729623
20.145445441621817	2.4575565	1.5676595
20.16324681086307	2.4685693	1.5711682
20.181048671791373	2.4330256	1.5598159
20.198851024877122	2.420578	1.5558207
20.216653870590836	2.4277413	1.5581211
20.234457209403146	2.419052	1.5553302
20.252261041784802	2.4296272	1.5587262
20.270065368206662	2.443149	1.5630577
20.287870189139685	2.4334404	1.5599488
20.305675505054968	2.3843393	1.5441306
20.323481316423702	2.40337	1.5502806
20.341287623717207	2.4010434	1.54953
20.359094427406884	2.4096594	1.5523077
20.376901727964288	2.4065819	1.5513161
20.39470952586107	2.4177582	1.5549142
20.41251782156899	2.3695207	1.5393248
20.430326615559935	2.3387413	1.5292944
20.448135908305886	2.326522	1.5252941
20.465945700278965	2.330535	1.526609
20.483755991951384	2.3117735	1.5204518
20.50156678379548	2.2980554	1.5159339
20.519378076283708	2.2895277	1.5131185
20.537189869888635	2.3115153	1.5203668
20.55500216508294	2.342585	1.5305506
20.572814962339415	2.345721	1.5315747
20.59062826213098	2.3285406	1.5259557
20.60844206493066	2.3337972	1.527677
20.626256371211593	2.3542888	1.5343692
20.644071181447032	2.3822966	1.543469
20.66188649611036	2.388868	1.5455964
20.67970231567506	2.378382	1.5422003
20.697518640614742	2.3900943	1.545993
20.715335471403122	2.3960602	1.5479213
20.73315280851404	2.3802357	1.5428013
20.750970652421447	2.3438742	1.5309716
20.768789003599412	2.3291051	1.5261406
20.786607862522136	2.3030179	1.5175697
20.8044272296639	2.2884648	1.5127673
20.82224710549913	2.287259	1.5123687
20.84006749050237	2.300288	1.51667
20.857888385148268	3.826374	1.956112
20.8757097899116	45.94907	6.7785745
20.893531705267254	64.82163	8.051188
20.911354131690224	83.85256	9.1571045
20.92917706965566	69.100815	8.31269
20.94700051963877	50.167572	7.082907
20.96482448211493	29.417118	5.423755
20.982648957559622	4.1308007	2.032437
21.00047394644843	2.2482092	1.499403
21.01829944925707	2.2433624	1.4977858
21.036125466461375	2.234252	1.4947414
21.053951998537297	2.2245734	1.4915004
21.071779045960906	2.205894	1.4852252
21.089606609208378	2.2128215	1.4875555
21.10743468875603	2.2123892	1.4874102
21.12526328508028	2.241458	1.49715
21.143092398657675	2.2306702	1.4935428
21.16092202996488	2.2114015	1.4870782
21.17875217947867	2.1693172	1.4728602
21.19658284767596	2.174058	1.4744687
21.21441403503377	2.1605723	1.4698886
21.232245742029225	2.1419392	1.4635365
21.2500779691396	2.1579301	1.4689895
21.26791071684227	2.156951	1.4686562
21.28574398561475	2.1519408	1.4669495
21.30357777593465	2.1452124	1.4646543
21.321412088279704	2.1670454	1.4720888
21.339246923127792	2.19907	1.4829261
21.357082280956888	2.2002661	1.4833294
21.3749181622451	2.1617262	1.470281
21.392754567470647	2.1488867	1.4659082
21.41059149711187	2.141058	1.4632355
21.42842895164726	2.1423552	1.4636786
21.446266931555378	2.140706	1.4631152
21.464105437314945	2.129524	1.4592888
21.481944469404798	2.1222558	1.4567964
21.49978402830388	2.1390488	1.4625487
21.51762411449127	2.149869	1.4662431
21.53546472844617	2.0997431	1.449049
21.553305870647876	2.0415375	1.4288238
21.571147541575865	2.0522928	1.4325826
21.58898974170967	2.0883198	1.445102
21.60683247152899	2.0988877	1.4487538
21.62467573151363	2.0848963	1.443917
21.642519522143523	2.072381	1.4395766
21.660363843898722	2.0543182	1.4332893
21.6782086972594	2.035463	1.4266965
21.696054082705864	2.007532	1.4168739
21.713900000718535	2.0180721	1.4205886
21.73174645177795	2.0320463	1.4254986
21.749593436364794	2.0500867	1.4318124
21.767440954959845	2.0631936	1.436382
21.785289008044032	2.0492811	1.4315311
21.803137596098388	2.034631	1.426405
21.820986719604086	2.0494475	1.4315891
21.838836379042412	2.0809584	1.4425527
21.85668657489478	2.08492	1.4439251
21.87453730764273	2.09976	1.4490548
21.892388577767914	2.0755303	1.4406701
21.91024038575213	2.0529113	1.4327984
21.928092732077285	2.0317426	1.425392
21.945945617225426	2.0813243	1.4426795
21.963799041678694	2.0679483	1.4380363
21.981653005919398	31.36329	5.6002936
21.999507510429943	78.144226	8.839922
22.01736255569286	73.13068	8.551647
22.035218142190818	4.2309265	2.0569217
22.05307427040661	2.0582352	1.4346551
22.07093094082315	2.0340598	1.4262047
22.088788153923474	2.0103323	1.4178619
22.106645910190746	1.966777	1.4024183
22.12450421010827	1.960401	1.4001433
22.142363054159464	2.0351393	1.426583
22.16022244282787	2.042197	1.4290546
22.178082376597164	2.027461	1.4238894
22.195942855951145	1.9864658	1.4094204
22.213803881373742	2.0037568	1.4155412
22.231665453349002	2.0214298	1.42177
22.24952757236111	2.0232341	1.4224043
22.26739023889438	1.9795307	1.406958
22.28525345343323	1.9489424	1.3960453
22.30311721646225	1.945464	1.3947989
22.320981528466113	1.983673	1.4084293
22.33884638992964	2.0024867	1.4150925
22.356711801337788	2.0014882	1.4147396
22.37457776317561	1.9752846	1.4054482
22.392444275928337	1.9662943	1.4022461
22.410311340081282	1.960681	1.4002432
22.428178956119904	1.9533147	1.3976103
22.446047124529805	1.9500915	1.3964567
22.46391584579669	1.9608312	1.4002968
22.481785120406414	1.9647547	1.401697
22.49965494884496	1.96495	1.4017668
22.51752533159841	1.9518011	1.3970687
22.53539626915302	1.9584547	1.399448
22.553267761995137	1.9266171	1.3880264
22.571139810611264	1.9063205	1.3806956
22.589012415488025	1.9221213	1.386406
22.60688557711216	1.9649231	1.4017571
22.624759295970566	2.0061367	1.4163815
22.642633572550263	2.0138671	1.4191079
22.660508407338362	2.0017962	1.4148484
22.67838380082217	1.9996105	1.4140759
22.696259753489077	1.9669139	1.4024671
22.714136265826614	1.9325991	1.3901795
22.73201333832246	1.9217929	1.3862875
22.74989097146439	1.9642571	1.4015195
22.76776916574035	1.9763951	1.4058433
22.785647921638393	1.995695	1.4126906
22.803527239646712	1.9840679	1.4085695
22.82140712025363	1.956309	1.3986812
22.839287563947593	1.9630599	1.4010924
22.85716857121719	1.981823	1.4077723
22.875050142551135	1.9736204	1.404856
22.892932278438277	1.9979107	1.4134747
22.910814979367604	2.0260668	1.4233997
22.928698245828222	1.9774255	1.4062096
22.946582078309387	1.9215013	1.3861823
22.96446647730047	1.9281638	1.3885834
22.98235144329098	1.9242932	1.3871889
23.000236976770562	1.9167756	1.3844767
23.018123078229	1.8936622	1.376104
23.03600974815619	1.9124216	1.3829033
23.053896987042194	1.9304861	1.3894193
23.071784795377173	1.9556369	1.3984408
23.08967317365145	1.9421626	1.393615
23.10756212235546	1.9210789	1.38603
23.125451641979787	1.901022	1.3787755
23.143341733015134	1.9142699	1.3835714
23.161232395952357	1.9090105	1.3816695
23.179123631282426	1.9087864	1.3815883
23.197015439496468	1.9317007	1.3898563
23.214907821085717	1.9572737	1.399026
23.23280077654157	1.9634098	1.4012172
23.250694306355538	1.9590707	1.3996681
23.268588411019277	1.9691762	1.4032733
23.28648309102458	1.9485738	1.3959132
23.304378346863356	1.9496279	1.3962908
23.322274179027676	1.9742099	1.4050658
23.340170588009723	1.9542928	1.3979602
23.358067574301852	1.9047698	1.380134
23.37596513839651	1.906235	1.3806647
23.39386328078629	1.9405506	1.3930365
23.411762001963947	1.9746884	1.4052361
23.429661302422353	1.9745148	1.4051743
23.4475611826545	1.9526706	1.3973799
23.46546164315356	1.9441584	1.3943309
23.48336268441279	1.930764	1.3895193
23.501264306925638	1.9417727	1.393475
23.51916651118564	1.9313602	1.3897339
23.537069297686497	1.9236268	1.3869487
23.554972666922037	1.9233505	1.3868492
23.57287661938623	1.9040555	1.3798752
23.59078115557318	1.9149777	1.3838272
23.608686275977128	1.9051408	1.3802683
23.62659198109246	1.8932323	1.3759478
23.6444982714137	1.8678076	1.3666776
23.66240514743549	1.8658127	1.3659475
23.68031260965263	1.912657	1.3829885
23.698220658560068	1.8927206	1.3757619
23.716129294652845	1.9064354	1.3807373
23.7340385184262	1.9403391	1.3929605
23.75194833037546	1.9712774	1.4040219
23.769858730996123	1.9613788	1.4004923
23.78776972078382	1.9089905	1.3816622
23.80568130023431	1.9386944	1.3923701
23.823593469843495	1.9272037	1.3882376
23.841506230107424	1.9232472	1.3868119
23.859419581522275	1.9358217	1.3913381
23.87733352458438	1.9765162	1.4058863
23.89524805979019	1.9962907	1.4129015
23.913163187636318	1.9704388	1.4037232
23.931078908619508	1.9167113	1.3844534
23.948995223236633	1.9534633	1.3976635
23.966912131984735	1.9885002	1.410142
23.98482963536096	2.0677357	1.4379623
24.002747733862616	2.0377164	1.4274861
24.020666427987155	2.050052	1.4318002
24.038585718232156	2.0450258	1.4300439
24.056505605095353	2.047667	1.4309672
24.074426089074617	2.0647063	1.4369086
24.092347170667946	2.0846102	1.443818
24.110268850373515	2.1133876	1.4537495
24.128191128689586	2.1183805	1.4554658
24.146114006114626	2.104862	1.4508142
24.164037483147187	2.1039078	1.4504853
24.181961560286005	2.0619752	1.4359579
24.199886238029926	2.0396926	1.4281781
24.21781151687797	2.0607634	1.4355359
24.235737397329274	2.0514898	1.4323022
24.253663879883135	2.017496	1.420386
24.271590965038975	2.0146208	1.4193734
24.289518653296376	2.013675	1.4190402
24.30744694515505	2.0718005	1.439375
24.32537584111486	2.0870125	1.4446496
24.34330534167581	2.117172	1.4550505
24.361235447338046	2.060213	1.4353442
24.379166158601876	2.0469637	1.4307214
24.39709747596772	2.0436466	1.4295616
24.41502939993615	2.0335195	1.4260153
24.432961931007917	2.0027425	1.4151828
24.450895069683856	1.9997208	1.4141148
24.468828816465	2.0153224	1.4196205
24.4867631718525	2.022599	1.422181
24.504698136347656	2.035984	1.4268792
24.52263371045192	2.0114636	1.4182608
24.540569894666874	1.9800564	1.4071448
24.558506689494266	1.9440211	1.3942816
24.57644409543597	1.9352698	1.3911397
24.594382112994012	1.9150019	1.3838359
24.61232074267057	1.952665	1.3973778
24.630259984967953	1.9726936	1.4045261
24.64819984038863	1.9800549	1.4071442
24.66614030943522	2.0064619	1.4164963
24.684081392610462	1.979214	1.4068453
24.702023090417274	1.9336294	1.39055
24.7199654033587	1.9431853	1.3939818
24.737908331937927	1.9588183	1.3995779
24.755851876658305	1.9904743	1.4108417
24.773796038023324	2.037588	1.427441
24.79174081653661	2.137379	1.4619777
24.809686212701962	2.1506698	1.4665163
24.827632227023294	2.1351426	1.4612128
24.8455788600047	2.1173286	1.4551044
24.8635261121504	2.1321495	1.4601882
24.88147398396475	2.1409194	1.463188
24.899422475952303	2.1554143	1.468133
24.917371588617698	2.1457417	1.464835
24.935321322465768	2.164475	1.4712155
24.953271678001478	2.2471817	1.4990603
24.97122265572994	2.4978633	1.580463
24.989174256156414	2.8686817	1.6937183
25.00712647978632	3.3719554	1.8362885
25.02507932712521	3.87401	1.9682505
25.043032798678798	4.402576	2.0982316
25.060986894952933	5.091525	2.2564409
25.078941616453637	5.8819933	2.425282
25.096896963687055	6.7842536	2.60466
25.114852937159508	7.793327	2.7916532
25.132809537377444	8.208428	2.8650355
25.150766764847468	8.17965	2.8600087
25.168724620076347	7.544736	2.7467682
25.186683103570985	6.5248327	2.5543752
25.204642215838426	5.3799534	2.3194726
25.222601957385894	4.120607	2.0299277
25.24056232872074	3.178276	1.7827721
25.25852333035048	2.613715	1.6166987
25.276484962782778	2.2484674	1.4994891
25.294447226525435	2.0665195	1.4375393
25.312410122086423	2.014391	1.4192924
25.330373649973843	2.0146875	1.4193969
25.348337810695988	2.0152755	1.419604
25.366302604761245	1.9481561	1.3957636
25.384268032678207	1.9234989	1.3869026
25.40223409495558	1.8939682	1.3762152
25.420200792102257	1.938053	1.3921397
25.438168124627246	1.9185522	1.3851181
25.45613609303974	1.9040829	1.3798851
25.474104697849057	1.9037102	1.37975
25.492073939564698	1.9249197	1.3874148
25.510043818696285	1.9472474	1.3954381
25.528014335753614	1.9372456	1.3918498
25.54598549124664	1.9150126	1.3838398
25.56395728568544	1.8933091	1.3759757
25.58192971958028	1.881544	1.3716938
25.59990279344156	1.9165746	1.3844041
25.617876507779833	1.964638	1.4016554
25.635850863105826	1.9637872	1.4013519
25.653825859930386	1.9253044	1.3875533
25.671801498764548	1.9024844	1.3793057
25.68977778011949	1.9428383	1.3938574
25.707754704506524	1.9388884	1.3924397
25.725732272437153	1.9011484	1.3788214
25.743710484423012	1.8661574	1.3660737
25.761689340975888	1.8658575	1.3659639
25.77966884260774	1.9131927	1.3831822
25.797648989830662	1.8788607	1.3707154
25.815629783156922	1.8368565	1.3553067
25.83361122309895	1.8103263	1.3454837
25.85159331016929	1.8369012	1.3553233
25.869576044880695	1.8900872	1.3748045
25.887559427746034	1.8947885	1.3765131
25.90554345927836	1.8968874	1.3772753
25.92352813999086	1.8290783	1.3524343
25.94151347039689	1.8046337	1.3433666
25.959499451009965	1.7849011	1.3360019
25.97748608234374	1.8378077	1.3556577
25.995473364912062	1.8674438	1.3665445
26.013461299228904	1.8475682	1.3592528
26.03144988580839	1.8291935	1.3524768
26.04943912516483	1.8157495	1.3474975
26.067429017812675	1.7936522	1.339273
26.085419564266537	1.813663	1.3467231
26.103410765041186	1.837723	1.3556265
26.12140262065155	1.8455021	1.3584926
26.139395131612723	1.8472402	1.3591322
26.157388298439948	1.8182423	1.3484222
26.17538212164861	1.8314499	1.3533107
26.193376601754295	1.8521833	1.3609494
26.211371739272714	1.80716	1.3443065
26.229367534719746	1.8209229	1.3494158
26.247363988611433	1.8684855	1.3669256
26.26536110146397	1.9260585	1.3878251
26.283358873793727	1.9008223	1.3787031
26.301357306117204	1.8740897	1.368974
26.319356398951104	1.8722136	1.3682885
26.33735615281224	1.8767865	1.3699585
26.35535656821762	1.8355219	1.3548144
26.373357645684404	1.8168297	1.3478982
26.39135938572991	1.877132	1.3700846
26.409361788871614	1.8634976	1.3650999
26.427364855627165	1.8179015	1.3482958
26.445368586514352	1.8048421	1.3434441
26.46337298205115	1.8076926	1.3445046
26.48137804275568	1.8264023	1.3514445
26.499383769146217	1.8426852	1.3574554
26.517390161741215	1.8219292	1.3497885
26.53539722105928	1.8659906	1.3660127
26.553404947619182	1.8769825	1.37003
26.571413341939856	1.8884175	1.374197
26.589422404540397	1.9105555	1.3822285
26.60743213594006	1.8728788	1.3685316
26.62544253665827	1.8175937	1.3481816
26.64345360721459	1.8131701	1.3465401
26.66146534812879	1.8120865	1.3461376
26.679477759920758	1.8233708	1.3503225
26.69749084311057	1.8323771	1.3536532
26.71550459821847	1.8445357	1.3581369
26.733519025764842	1.8685806	1.3669603
26.751534126270258	1.865594	1.3658675
26.769549900255434	1.8246588	1.3507993
26.787566348241267	1.8188947	1.348664
26.80558347074881	1.8127422	1.3463812
26.823601268299267	1.8200947	1.3491088
26.841619741414036	1.8286344	1.3522701
26.85963889061465	1.8568696	1.3626701
26.877658716422832	1.8637094	1.3651774
26.89567921936045	1.8603655	1.3639522
26.913700399949544	1.8570987	1.3627541
26.93172225871233	1.8485826	1.3596259
26.949744796171174	1.8081969	1.3446921
26.967768012848605	1.8073274	1.3443688
26.98579190926733	1.8320229	1.3535224
27.003816485950225	1.7963525	1.3402808
27.021841743420318	1.8140588	1.34687
27.039867682200814	1.8494412	1.3599416
27.057894302815072	1.8536863	1.3615015
27.07592160578664	1.8369265	1.3553326
27.0939495916392	1.8111296	1.3457822
27.111978260896635	1.7945387	1.3396039
27.13000761408296	1.7891357	1.3375858
27.148037651722397	1.8098521	1.3453075
27.166068374339304	1.8603455	1.3639448
27.184099782458215	1.888874	1.3743632
27.20213187660384	1.8636422	1.3651528
27.22016465730105	1.7903564	1.338042
27.23819812507487	1.7427055	1.3201157
27.256232280450533	1.7338185	1.3167454
27.274267123953383	1.7347313	1.317092
27.292302656108987	1.7041852	1.3054445
27.31033887744306	1.7415956	1.3196952
27.32837578848146	1.7883462	1.3372906
27.34641338975026	1.8041875	1.3432004
27.364451681775673	1.8102502	1.3454554
27.382490665084074	1.8581038	1.3631228
27.400530340202046	1.8388479	1.3560412
27.41857070765629	1.849631	1.3600113
27.436611767973726	1.825216	1.3510056
27.454653521681404	1.814191	1.3469191
27.472695969306564	1.8287103	1.3522981
27.490739111376627	1.835895	1.354952
27.508782948419153	1.8430712	1.3575976
27.526827480961902	1.799066	1.3412926
27.54487270953279	1.7804004	1.3343165
27.562918634659898	1.8127981	1.3464019
27.580965256871508	1.8390502	1.3561158
27.599012576696026	1.8563527	1.3624804
27.617060594662068	1.8566694	1.3625966
27.63510931129842	1.831507	1.3533318
27.65315872713401	1.8092445	1.3450816
27.67120884269797	1.8351582	1.3546801
27.68925965851958	1.8244824	1.350734
27.707311175128307	1.8427039	1.3574623
27.725363393053787	1.8421005	1.3572401
27.74341631282583	1.9097544	1.3819387
27.7614699349744	1.9414184	1.3933479
27.77952426002968	2.1574984	1.4688425
27.797579288521973	2.1269085	1.4583925
27.815635020981784	2.4785435	1.574339
27.83369145793979	2.5834787	1.6073203
27.85174859992682	2.485328	1.5764923
27.869806447473923	2.332252	1.5271713
27.887865001112267	2.0167067	1.420108
27.905924261373233	1.9631793	1.401135
27.92398422878836	1.9473395	1.3954711
27.94204490388936	1.9389132	1.3924487
27.96010628720813	1.9734292	1.4047879
27.978168379276728	1.9674188	1.402647
27.9962311806274	1.8987806	1.3779625
28.014294691792568	1.8451875	1.3583769
28.0323589133048	1.8250097	1.3509291
28.050423845696887	1.8448526	1.3582535
28.068489489501758	1.8771964	1.3701081
28.086555845252523	1.8550313	1.3619953
28.104622913482487	1.8428311	1.3575091
28.122690694725115	1.860561	1.3640238
28.14075918951405	1.8898842	1.3747306
28.15882839838312	1.9557996	1.398499
28.176898321866304	1.9931258	1.4117811
28.1949689604978	1.9719033	1.4042448
28.213040314811945	1.9236828	1.386969
28.23111238534327	1.8854042	1.3731003
28.249185172626493	1.9143264	1.3835919
28.267258677196473	1.9070258	1.380951
28.285332899588294	1.884535	1.3727837
28.303407840337172	1.8941617	1.3762854
28.321483499978545	1.9186202	1.3851427
28.33955987904799	1.9416703	1.3934383
28.357636978081285	2.0060904	1.4163653
28.37571479761439	1.990532	1.4108622
28.393793338183425	1.9453028	1.3947412
28.41187260032469	1.9372873	1.3918647
28.429952584574686	1.9640874	1.401459
28.448033291470065	1.9827663	1.4081073
28.46611472154769	2.013054	1.4188213
28.484196875344566	2.0296266	1.4246496
28.502279753397914	2.0373325	1.4273516
28.52036335624511	2.0674264	1.4378548
28.538447684423716	2.0539606	1.4331645
28.556532738471482	1.9742419	1.4050772
28.574618518926325	1.950393	1.3965647
28.59270502632635	1.9413302	1.3933163
28.61079226120985	1.9534805	1.3976697
28.628880224115274	1.9823651	1.407965
28.646968915581287	1.9916708	1.4112657
28.66505833614671	2.0221195	1.4220124
28.68314848635055	2.0678773	1.4380115
28.701239366732004	2.0996606	1.4490206
28.71933097783044	2.100228	1.4492164
28.737423320185403	2.1446397	1.4644588
28.75551639433665	2.1813085	1.4769254
28.773610200824074	2.127726	1.4586728
28.791704740187793	2.0881345	1.4450378
28.80980001296809	2.1267807	1.4583486
28.827896019705413	2.1388102	1.4624672
28.845992760940433	2.1425557	1.4637471
28.86409023721397	2.1324048	1.4602757
28.88218844906704	2.1747236	1.4746944
28.900287397040845	2.226783	1.4922409
28.918387081676755	2.2861722	1.5120093
28.936487503516343	2.3446941	1.5312394
28.954588663101365	2.3402848	1.529799
28.97269056097374	2.322422	1.5239495
28.990793197675597	2.3248687	1.524752
29.00889657374923	2.3513043	1.5333964
29.027000689737125	2.3600225	1.5362365
29.04510554618196	2.3769903	1.5417491
29.06321114362659	2.4804828	1.5749549
29.08131748261405	2.5610027	1.6003133
29.099424563687567	2.5416167	1.5942448
29.11753238739057	2.521539	1.5879354
29.13564095426663	2.599997	1.6124506
29.15375026485954	2.6398685	1.6247672
29.171860319713275	2.6100247	1.6155571
29.18997111937199	2.6406274	1.6250007
29.20808266438002	2.7294703	1.6521108
29.226194955281898	2.8728395	1.6949452
29.244307992622335	2.9639156	1.7216027
29.26242177694624	2.9994943	1.7319049
29.2805363087987	2.9324596	1.7124426
29.29865158872498	2.8385544	1.684801
29.316767617270557	2.8141344	1.6775382
29.334884394981064	2.9070847	1.7050176
29.353001922402367	2.956217	1.7193654
29.37112020008047	3.027945	1.7400992
29.389239228561596	3.176111	1.7821647
29.407359008392152	3.3616502	1.8334804
29.42547954011872	3.6919408	1.9214424
29.44360082428809	4.4445896	2.1082196
29.46172286144722	5.6474338	2.376433
29.479845652143283	7.2346497	2.6897304
29.497969196923606	9.34407	3.0568073
29.516093496335728	11.993554	3.463171
29.5342185509274	14.792031	3.846041
29.55234436124651	16.86983	4.10729
29.570470927841175	18.065125	4.250309
29.588598251259686	17.74115	4.212024
29.60672633205055	16.17278	4.021539
29.624855170762405	13.837135	3.71983
29.642984767944146	11.126051	3.3355737
29.66111512414481	8.470498	2.910412
29.67924623991366	6.289752	2.507938
29.697378115800138	4.901066	2.213835
29.71551075235387	4.0445414	2.0111046
29.733644150124675	3.6813974	1.9186968
29.751778309662576	3.474333	1.8639563
29.769913231517766	3.348189	1.8298057
29.78804891624066	3.3464959	1.829343
29.806185364381818	3.3980489	1.8433797
29.82432257649206	3.37569	1.8373051
29.842460553122333	3.306461	1.8183677
29.86059929482382	3.1621408	1.7782409
29.878738802147872	3.1555235	1.7763793
29.896879075646048	3.2373435	1.7992619
29.915020115870114	3.2283096	1.7967497
29.933161923371976	3.316935	1.8212454
29.951304498703777	3.3701496	1.8357967
29.969447842417857	3.304297	1.8177725
29.987591955066733	3.1693408	1.7802643
30.005736837203123	3.100642	1.760864
30.023882489379943	3.1181324	1.7658234
30.04202891215028	3.1089985	1.7632352
30.060176106067455	3.190709	1.7862556
30.078324071684946	3.2839956	1.8121798
30.09647280955646	3.2738779	1.809386
30.114622320235863	3.2690485	1.808051
30.132772604277257	3.18604	1.7849481
30.1509236622349	3.0913482	1.758223
30.16907549466328	3.048136	1.7458912
30.18722810211705	3.0833485	1.7559466
30.205381485151097	3.1479871	1.7742568
30.22353564432045	3.128175	1.7686647
30.241690580180403	3.1214206	1.7667543
30.25984629328638	3.1224127	1.767035
30.278002784194037	3.052387	1.7471082
30.296160053459246	2.9405062	1.7147905
30.314318101638033	2.9588883	1.7201419
30.332476929286646	3.059233	1.7490664
30.35063653696153	3.0382006	1.7430435
30.368796925219307	2.9548292	1.7189617
30.386958094616844	2.9083931	1.7054012
30.40512004571115	2.876183	1.6959313
30.423282779059463	2.9393826	1.7144628
30.441446295219233	2.9163032	1.7077187
30.459610594748067	2.8362384	1.6841135
30.47777567820382	2.7536063	1.6593994
30.495941546144504	2.764379	1.6626422
30.51410819912835	2.7881331	1.6697704
30.532275637713795	2.8271236	1.6814053
30.55044386245946	2.8893766	1.6998167
30.56861287392416	2.94475	1.7160274
30.586782672666956	2.8880537	1.6994275
30.604953259247047	2.8569977	1.6902655
30.623124634223885	2.8917196	1.7005057
30.641296798157075	2.8395808	1.6851056
30.659469751606462	2.7717996	1.6648723
30.677643495132074	2.7582157	1.6607877
30.695818029294152	2.7642899	1.6626154
30.713993354653116	2.7113466	1.6466167
30.73216947176962	2.6810927	1.6374043
30.75034638120448	2.71807	1.6486571
30.768524083518756	2.7349	1.6537533
30.786702579273673	2.7647192	1.6627445
30.80488186903069	2.8473413	1.6874067
30.82306195335144	2.943595	1.7156909
30.841242832797782	3.130442	1.7693055
30.85942450793176	3.4113915	1.8469952
30.877606979315637	3.7745163	1.9428115
30.895790247511883	4.226183	2.0557683
30.913974313083134	4.6748905	2.1621494
30.932159176592283	4.861623	2.2049088
30.95034483860237	4.830318	2.1977985
30.968531299676698	4.6873507	2.165029
30.98671856037873	4.2880983	2.0707724
31.00490662127215	3.8433912	1.9604568
31.023095482920848	3.386799	1.8403258
31.04128514588892	2.9819555	1.7268339
31.059475610740662	2.7396653	1.6551934
31.07766687804056	2.6708214	1.6342648
31.09585894835335	2.6191745	1.6183864
31.11405182224393	2.5446765	1.5952042
31.132245500277417	2.5432055	1.5947431
31.15043998301914	2.4844394	1.5762105
31.168635271034628	2.4289322	1.5585032
31.18683136488964	2.407619	1.5516504
31.20502826515008	2.425321	1.5573442
31.223225972382135	2.4461594	1.5640203
31.241424487152155	2.536594	1.5926688
31.259623810026692	2.5208151	1.5877075
31.27782394157253	2.4877267	1.5772529
31.296024882356644	2.4390457	1.5617445
31.314226632946237	2.3905084	1.546127
31.332429193908684	2.3773713	1.5418726
31.350632565811598	2.4173234	1.5547744
31.368836749222787	2.4357123	1.5606769
31.387041744710295	2.4387813	1.5616598
31.40524755284232	2.4803772	1.5749214
31.423454174187317	2.5260606	1.5893586
31.441661609313922	2.511031	1.5846232
31.459869858791002	2.437604	1.5612828
31.478078923187628	2.3754587	1.5412524
31.496288803073064	2.346119	1.5317045
31.514499499016807	2.348569	1.5325041
31.532711011588546	2.3150158	1.5215176
31.550923341358178	2.3361347	1.5284419
31.56913648889584	2.3289793	1.5260993
31.587350454771844	2.296434	1.515399
31.605565239556732	2.2662895	1.5054201
31.62378084382127	2.2920506	1.513952
31.641997268136382	2.2948933	1.5148906
31.660214513073274	2.342758	1.5306071
31.67843257920331	2.3612003	1.5366198
31.6966514670981	2.4075785	1.5516373
31.71487117732944	2.3938298	1.5472007
31.733091710469346	2.3480413	1.532332
31.751313067090052	2.3299775	1.5264264
31.769535247764008	2.2619076	1.503964
31.787758253063878	2.2735314	1.5078235
31.805982083562526	2.2825823	1.5108217
31.824206739833024	2.3236012	1.5243363
31.84243222244869	2.2950482	1.5149417
31.860658531983013	2.255144	1.5017136
31.878885669009737	2.283623	1.5111661
31.897113634102784	2.305375	1.5183462
31.91534242783632	2.2464144	1.4988043
31.933572050784694	2.2056746	1.4851514
31.951802503522508	2.1754725	1.4749483
31.970033786624548	2.2312415	1.4937341
31.988265900665834	2.296777	1.5155121
32.006498846221575	2.2586148	1.5028689
32.02473262386724	2.2610824	1.5036896
32.04296723417845	2.1849992	1.4781743
32.0612026777311	2.1397045	1.4627728
32.07943895510129	2.1416435	1.4634355
32.097676066865304	2.1656816	1.4716254
32.115914013599685	2.180712	1.4767234
32.13415279588115	2.223183	1.4910342
32.152392414286666	2.2138095	1.4878876
32.1706328693934	2.1562762	1.4684265
32.18887416177875	2.1400907	1.4629049
32.20711629202032	2.1807415	1.4767334
32.225359260695924	2.1983285	1.4826761
32.243603068383614	2.1815107	1.4769938
32.26184771566166	2.2133029	1.4877173
32.28009320310852	2.2240245	1.4913163
32.2983395313029	2.1404445	1.4630258
32.31658670082372	2.065627	1.4372289
32.33483471225012	2.133844	1.4607682
32.35308356616143	2.1488361	1.4658909
32.371333263137245	2.139496	1.4627017
32.38958380375734	2.0532334	1.4329108
32.407835188601744	2.107627	1.4517668
32.42608741825067	2.1213834	1.456497
32.444340493284585	2.1036654	1.4504018
32.46259441428416	2.0841918	1.443673
32.48084918183028	2.0660422	1.4373734
32.49910479650405	2.0711615	1.4391531
32.51736125888683	2.0559053	1.4338429
32.53561856956014	2.077305	1.441286
32.5538767291058	2.01448	1.4193238
32.572135738105764	1.9355785	1.3912507
32.59039559714228	1.9956955	1.4126909
32.608656306797776	2.0727053	1.4396893
32.62691786765491	2.033851	1.4261315
32.645180280296586	1.9822346	1.4079186
32.663443545305896	1.9840341	1.4085574
32.68170766326619	1.9412068	1.3932719
32.69997263476099	1.9133435	1.3832366
32.7182384603741	1.9793638	1.4068986
32.7365051406895	2.0220459	1.4219866
32.75477267629144	2.0408304	1.4285764
32.77304106776434	1.9980975	1.4135408
32.79131031569289	2.041536	1.4288234
32.809580420661966	2.029879	1.4247383
32.827851383256714	2.079798	1.4421505
32.84612320406245	2.1071098	1.4515887
32.86439588366476	2.005387	1.416117
32.88266942264945	1.9759004	1.4056673
32.9009438216025	2.0604281	1.4354192
32.9192190811102	1.9996213	1.4140797
32.937495201758985	1.8567011	1.3626082
32.95577218413556	1.9361286	1.3914484
32.974050028826866	1.9565214	1.3987571
32.992328736420035	1.9160002	1.3841966
33.010608307502444	1.9108932	1.3823506
33.02888874266169	1.9205241	1.3858298
33.047170042485604	1.9373705	1.3918946
33.06545220756225	1.9452186	1.3947109
33.083735238479896	1.9232073	1.3867975
33.10201913582707	1.9576164	1.3991485
33.12030390019248	2.017402	1.4203527
33.138589532165135	2.0868287	1.444586
33.15687603233419	2.0110164	1.4181031
33.17516340128909	1.9250753	1.3874708
33.19345163961947	1.9039018	1.3798195
33.211740747915215	1.9284002	1.3886685
33.23003072676643	1.9428447	1.3938596
33.248321576763466	1.9156157	1.3840576
33.266613298496885	1.8925222	1.3756897
33.28490589255747	1.8821285	1.3719069
33.30319935953626	1.9736627	1.4048711
33.32149370002451	2.0649436	1.4369911
33.339788914613706	2.0417647	1.4289033
33.358085003895575	1.94841	1.3958546
33.376381968462034	1.9584105	1.3994322
33.39467980890529	2.0361762	1.4269465
33.41297852581774	2.0811133	1.4426064
33.43127811979204	1.999486	1.4140319
33.44957859142105	1.9845479	1.4087398
33.467879941297866	2.0532973	1.4329331
33.486182170015844	2.0328503	1.4257805
33.50448527816853	1.977523	1.4062443
33.522789266349754	1.9289075	1.3888512
33.541094135153514	1.9071593	1.3809994
33.55939988517411	1.9367383	1.3916675
33.57770651700602	1.9296381	1.3891141
33.59601403124398	1.9480715	1.3957334
33.61432242848296	1.9378095	1.3920523
33.632631709318154	1.9101629	1.3820864
33.650941874344994	1.838994	1.3560952
33.66925292415916	1.8677889	1.3666707
33.68756485935654	2.0019722	1.4149107
33.70587768053328	1.9417423	1.3934641
33.724191388285746	2.0075293	1.4168731
33.74250598321054	2.048804	1.4313644
33.760821465904506	1.9860749	1.4092817
33.77913783696474	1.8898976	1.3747355
33.79745509698852	1.7973685	1.3406597
33.815773246573414	1.7891238	1.3375813
33.8340922863172	1.7421203	1.3198941
33.852412216817896	1.7986462	1.3411362
33.87073303867377	1.8081901	1.3446896
33.889054752483304	1.8878601	1.3739942
33.907377358845245	1.9983196	1.4136193
33.92570085835853	2.0299056	1.4247476
33.94402525162239	1.9719725	1.4042693
33.96235053923627	1.9098631	1.3819779
33.980676721799824	2.0180962	1.4205971
33.999003799912984	2.0454912	1.4302067
34.01733177417592	2.036686	1.4271251
34.03566064518901	2.0138025	1.4190851
34.0539904135529	2.075753	1.4407474
34.07232107986846	1.9734942	1.404811
34.090652644736785	1.7997165	1.3415351
34.108985108759235	1.8984581	1.3778454
34.12731847253742	1.9878916	1.409926
34.14565273667313	2.0132966	1.4189068
34.16398790176847	1.9593782	1.3997779
34.18232396842574	2.0307033	1.4250275
34.20066093724749	2.0591252	1.4349653
34.21899880883651	2.0067701	1.4166051
34.23733758379583	1.9028682	1.3794448
34.25567726272874	1.9062703	1.3806775
34.27401784623872	1.9099722	1.3820175
34.29235933492957	1.8908921	1.3750972
34.31070172940526	1.9876024	1.4098235
34.32904503027003	2.0874772	1.4448104
34.347389238128386	2.0895529	1.4455286
34.36573435358502	1.925823	1.3877403
34.38408037724492	1.8732922	1.3686826
34.402427309713296	1.9481553	1.3957633
34.42077515159559	1.9466066	1.3952085
34.43912390349752	1.8780286	1.3704119
34.45747356602499	1.9003917	1.378547
34.47582413978423	1.965808	1.4020728
34.49417562538163	2.106015	1.4512116
34.51252802342388	2.0808067	1.4425001
34.53088133451789	1.9759429	1.4056823
34.54923555927084	1.9322946	1.39007
34.567590698290104	1.8120615	1.3461283
34.58594675218336	1.8831264	1.3722705
34.6043037215585	1.9637573	1.4013412
34.62266160702365	2.028682	1.4243181
34.641020409187234	2.0573962	1.4343626
34.65938012865785	1.9922714	1.4114784
34.677740766044394	1.9062184	1.3806587
34.69610232195598	1.8475839	1.3592585
34.714464797002016	1.7984915	1.3410785
34.73282819179208	1.8835667	1.3724309
34.751192506936064	2.1432984	1.4640008
34.76955774304408	2.1143432	1.4540781
34.7879239007265	1.9787637	1.4066854
34.80629098059391	2.1892364	1.4796069
34.824658983257194	2.276956	1.5089586
34.843027909327446	2.1512704	1.4667209
34.86139775941603	1.9606099	1.4002178
34.879768534134534	2.0264726	1.4235423
34.89814023409483	1.9873774	1.4097438
34.91651285990901	1.9625294	1.4009031
34.93488641218944	1.9126174	1.3829741
34.95326089154871	1.912177	1.3828149
34.97163629859967	1.8686731	1.3669941
34.99001263395542	1.7677034	1.32955
35.00838989822934	1.9323328	1.3900837
35.02676809203499	2.0132568	1.4188929
35.04514721598624	2.0044966	1.4158025
35.063527270697215	2.052161	1.4325366
35.081908256782256	1.9371735	1.3918238
35.10029017485597	1.7858813	1.3363687
35.11867302553321	1.8421705	1.3572658
35.137056809429104	1.9033022	1.3796022
35.155441527159006	1.8891053	1.3744472
35.173827179338524	1.933564	1.3905265
35.19221376658354	1.7607721	1.3269409
35.21060128951017	1.721413	1.3120263
35.2289897487348	1.7900398	1.3379236
35.24737914487405	1.8485838	1.3596263
35.26576947854479	1.912817	1.3830463
35.28416075036418	2.0896602	1.4455657
35.30255296094958	2.221884	1.4905986
35.32094611091867	2.3284767	1.5259347
35.33934020088932	2.3666902	1.5384051
35.35773523147969	2.311318	1.5203019
35.3761312033082	2.1556861	1.4682255
35.394528116993506	2.381685	1.5432708
35.41292597315452	2.4159012	1.554317
35.431324772410434	2.3494468	1.5327905
35.449724515380666	2.2655742	1.5051825
35.46812520268491	2.0797324	1.4421277
35.486526834943106	1.9037497	1.3797643
35.504929412775454	1.7714244	1.3309487
35.52333293680242	1.8065822	1.3440915
35.54173740764471	1.8633317	1.3650391
35.560142825923286	1.8450538	1.3583276
35.5785491922594	1.7804446	1.3343331
35.59695650727454	1.724822	1.3133248
35.61536477159042	2.153149	1.4673612
