0.008763373481513119	0.0	0.0
0.026290120649546365	0.0	0.0
0.043816868432600686	0.060138714	0.24523196
0.06134361724069026	0.08291717	0.2879534
0.07887036748382949	0.09781946	0.31276104
0.0963971195720331	0.15968022	0.39960006
0.11392387391531617	0.08942771	0.29904467
0.1314506309236943	0.077664025	0.27868265
0.1489773910071836	0.08429799	0.29034117
0.16650415457580078	0.09214663	0.30355662
0.18403092203956356	0.08394039	0.28972468
0.20155769380849	0.09787322	0.31284696
0.2190844702925996	0.09021677	0.30036107
0.2366112519019124	0.09016023	0.30026692
0.2541380390464497	0.093342654	0.3055203
0.27166483213623416	0.090164445	0.30027395
0.28919163158128947	0.1341702	0.3662925
0.3067184377916406	0.17901203	0.42309815
0.324245251177314	0.18561794	0.430834
0.34177207214833777	0.14388376	0.37932014
0.3592989011147415	0.09360054	0.30594206
0.37682573848655654	0.107804686	0.32833624
0.39435258467381573	0.11539782	0.33970255
0.41187944008655414	0.12595482	0.35490113
0.42940630513480854	0.1010802	0.31793112
0.446933180228618	0.14389981	0.37934127
0.4644600657780234	0.15970819	0.39963508
0.48198696219306775	0.19211537	0.43830967
0.49951386988379676	0.1701547	0.41249812
0.5170407892602581	0.1581869	0.39772716
0.5345677207325025	0.15834148	0.39792144
0.5520946647105822	0.1637791	0.4046963
0.5696216216045534	0.1538678	0.39225987
0.5871485918244737	0.12500234	0.3535567
0.6046755757804043	0.15195382	0.38981253
0.6222025738824094	0.17165804	0.41431636
0.6397295865405557	0.18376207	0.4286748
0.6572566141649129	0.12942813	0.3597612
0.6747836571655547	0.14944008	0.3865748
0.6923107159525568	0.17408963	0.4172405
0.7098377909359992	0.20680548	0.4547587
0.7273648825259653	0.19239463	0.4386281
0.7448919911325411	0.16712467	0.40880886
0.762419117165817	0.106720194	0.32668057
0.7799462610358868	0.12593974	0.3548799
0.7974734231528482	0.17448102	0.41770926
0.8150006039268024	0.20076455	0.44806758
0.8325278037678551	0.20303461	0.45059362
0.8500550230861152	0.19560623	0.44227394
0.8675822622916969	0.20077609	0.44808045
0.8851095217947171	0.2142515	0.4628731
0.9026368020052984	0.23469646	0.4844548
0.9201641033335665	0.21729371	0.46614772
0.9376914261896523	0.19908307	0.44618726
0.9552187709836915	0.18742344	0.4329243
0.9727461381258234	0.20217265	0.44963613
0.990273528026193	0.21945766	0.4684631
1.0078009410949496	0.24931213	0.49931166
1.0253283777422473	0.24964614	0.499646
1.0428558383782454	0.26847905	0.5181496
1.0603833234131086	0.26085937	0.5107439
1.0779108332570058	0.28887817	0.53747386
1.0954383683201119	0.31610432	0.56223154
1.112965929012607	0.43723398	0.6612367
1.1304935157446763	0.60210276	0.7759528
1.1480211289265108	0.64254594	0.8015896
1.1655487689683062	1.4360301	1.1983447
1.1830764362802655	1.707366	1.3066622
1.200604131272596	2.1725862	1.4739696
1.2181318543555117	2.5507388	1.5971032
1.235659605939232	2.5959954	1.6112093
1.253187386433982	4.1676235	2.0414758
1.270715196249994	6.405615	2.5309317
1.2882430357975057	11.686274	3.4185193
1.3057709054867608	16.704489	4.0871124
1.3232988057280106	22.796577	4.774576
1.3408267369315112	27.81355	5.273855
1.358354699507526	31.54821	5.6167793
1.3758826938663256	35.38598	5.9486113
1.3934107204181858	37.601643	6.1320176
1.410938779573391	38.022293	6.166222
1.4284668717422309	38.435295	6.1996207
1.4459949973350033	37.810406	6.149017
1.4635231567620117	37.465668	6.1209207
1.4810513504335687	36.513443	6.0426354
1.4985795787599925	36.234074	6.0194745
1.5161078421516088	36.210766	6.017538
1.5336361410187505	35.47227	5.95586
1.5511644757717598	35.377163	5.9478703
1.5686928468209842	35.934597	5.9945474
1.58622125457678	36.569668	6.047286
1.6037496994495108	37.567184	6.1292076
1.621278181849548	37.275898	6.105399
1.6388067021872719	37.815647	6.1494427
1.6563352608730693	37.39842	6.1154246
1.673863858317336	36.347683	6.028904
1.6913924949304753	35.766205	5.9804854
1.7089211711228998	34.632755	5.88496
1.7264498873050296	33.684418	5.803828
1.7439786438872935	32.96097	5.7411647
1.7615074412801288	31.973236	5.654488
1.779036279893981	30.941391	5.5624986
1.796565160139305	29.980204	5.475418
1.814094082426564	29.682322	5.4481483
1.8316230471662298	29.349277	5.417497
1.849152054768784	28.674274	5.3548365
1.8666811056447168	27.91195	5.283176
1.8842102002045273	27.148033	5.210377
1.901739338858724	26.869438	5.1835737
1.9192685220178245	26.24121	5.1226177
1.9367977500923557	25.390108	5.03886
1.9543270234928547	24.636982	4.9635653
1.971856342629867	24.116735	4.910879
1.9893857079139496	23.513565	4.8490787
2.006915119755667	22.889093	4.7842546
2.0244445785655945	22.3358	4.7260766
2.0419740847543175	22.0166	4.692185
2.0595036387324317	21.73327	4.6618958
2.0770332409105414	21.482912	4.6349664
2.094562891699263	21.251947	4.6099834
2.1120925915092217	20.625414	4.541521
2.129622340751053	20.066221	4.4795337
2.1471521398354043	188.14418	13.716566
2.1646819891729323	444.54675	21.084278
2.182211889174303	440.62985	20.991184
2.1997418402501974	453.00516	21.283918
2.2172718428113023	432.87375	20.805618
2.234801897268317	320.6952	17.907965
2.2523320040319548	17.133158	4.1392217
2.269862163512935	16.880413	4.108578
2.287392376121992	16.633007	4.078358
2.304922642269869	16.368134	4.045755
2.322452962367322	15.853358	3.9816277
2.3399833368251164	15.559038	3.9444947
2.357513766054032	15.393169	3.923413
2.3750442504648586	15.242786	3.904201
2.3925747904683963	15.0694475	3.8819387
2.410105386475459	14.902532	3.8603797
2.4276360388968707	14.674509	3.830732
2.445166748143469	14.317095	3.7837937
2.4626975146261025	13.745815	3.707535
2.4802283387556323	13.357133	3.654741
2.4977592209429305	13.236083	3.6381428
2.5152901615988825	13.129721	3.6234956
2.5328211611343865	12.873099	3.5879102
2.5503522199603523	12.960758	3.6001053
2.5678833384877024	12.731968	3.5681884
2.5854145171273712	12.5493765	3.54251
2.6029457562903064	12.126611	3.4823284
2.620477056387469	11.897865	3.4493282
2.6380084178298326	11.670709	3.416242
2.655539841028383	11.383029	3.3738744
2.673071326394119	11.276145	3.3579972
2.6906028743380523	11.111877	3.3334482
2.708134485271211	11.047702	3.3238084
2.7256661596046325	10.922759	3.3049598
2.743197897749369	10.723008	3.2746005
2.760729700116486	10.758152	3.2799623
2.778261567117063	10.523108	3.243934
2.795793499162193	10.287283	3.2073793
2.8133254966629817	10.074169	3.173983
2.830857560030551	9.894561	3.1455622
2.8483896896760337	9.728669	3.1190815
2.865921886010578	9.612202	3.1003551
2.883454149445347	9.43432	3.071534
2.9009864803915177	9.433984	3.071479
2.91851887926028	9.356071	3.0587697
2.9360513464628384	9.326257	3.0538921
2.953583882410413	9.271792	3.0449617
2.9711164875142373	9.198884	3.0329661
2.9886491621855606	9.0056715	3.000945
3.0061819068356455	8.76592	2.9607296
3.023714721875769	8.684897	2.947015
3.041247607717225	8.677708	2.9457948
3.0587805647713213	8.579425	2.9290655
3.0763135934493806	8.427801	2.9030676
3.0938466941627407	8.265436	2.874967
3.1113798673227544	8.164118	2.857292
3.1289131133407904	7.9891505	2.8265085
3.1464464326282315	7.9102683	2.81252
3.1639798255964786	7.8002734	2.792897
3.1815132926569443	7.6381073	2.7637126
3.1990468342210603	7.5193033	2.7421348
3.216580450700272	7.5453596	2.7468817
3.2341141425060416	7.5390835	2.7457392
3.251647910049847	7.4162774	2.7232842
3.2691817537431813	7.229251	2.6887267
3.286715673997555	7.038887	2.65309
3.3042496712244938	6.900295	2.6268413
3.32178374583554	6.906132	2.627952
3.339317898242251	6.8817434	2.6233077
3.3568521288562034	6.9292803	2.6323526
3.3743864380889876	6.902938	2.6273444
3.3919208263522127	6.8075867	2.6091352
3.4094552940575023	6.7280083	2.5938404
3.4269898416164972	6.668519	2.5823476
3.444524469440858	6.566848	2.562586
3.4620591779422587	6.5772853	2.564622
3.479593967532391	6.596164	2.5682998
3.4971288386229658	6.47371	2.5443487
3.5146637916257086	6.485573	2.5466788
3.5321988269523628	6.4620204	2.5420504
3.5497339450146903	6.4836216	2.5462956
3.5672691462244708	6.343161	2.5185633
3.5848044309934988	6.179725	2.4859054
3.60233979973359	6.16523	2.482988
3.619875252856575	6.2660837	2.5032146
3.6374107907743034	6.3697753	2.5238414
3.6549464138986427	6.4334803	2.5364306
3.6724821226414788	6.408469	2.5314953
3.690017917414714	6.432703	2.5362773
3.7075537986302702	6.4069858	2.5312023
3.7250897667000857	6.505058	2.5505016
3.7426258220361235	6.6479516	2.5783622
3.7601619650503553	6.946374	2.6355975
3.777698196154779	7.391131	2.7186635
3.7952345157614067	8.364924	2.8922179
3.8127709242822716	9.120729	3.0200546
3.830307422129425	11.215218	3.348913
3.847844009714936	12.684618	3.561547
3.8653806874508954	16.162357	4.0202436
3.882917455749409	15.752184	3.968902
3.900454315022606	15.9023905	3.98778
3.917991265682631	12.895907	3.591087
3.9355283081416506	11.151508	3.3393874
3.9530654428118495	9.0181265	3.0030196
3.970602670105433	7.790761	2.7911935
3.9881399904346244	6.7000794	2.5884511
4.005677404211669	6.547874	2.5588813
4.023214911848827	6.483057	2.5461848
4.0407525137583855	6.48836	2.547226
4.058290210352644	6.583366	2.565807
4.075828002043927	6.5112677	2.5517185
4.0933658892445814	6.4645	2.5425382
4.110903872366966	6.3150096	2.5129683
4.128441951823468	6.283848	2.5067604
4.145980128026488	6.3177733	2.513518
4.163518401388452	6.310291	2.5120292
4.181056772321807	6.41203	2.5321987
4.1985952412390155	6.285221	2.5070343
4.216133808552567	6.2938213	2.508749
4.233672474674966	6.267686	2.5035348
4.251211240018741	6.535914	2.5565434
4.268750104996445	6.7670417	2.601354
4.286289070020643	7.7731752	2.7880414
4.303828135503928	9.36669	3.060505
4.3213673018589125	29.58633	5.439332
4.3389065694982305	90.62458	9.519694
4.356445938834537	165.83675	12.877762
4.3739854102805085	171.71304	13.103932
4.391524984248844	172.63875	13.139207
4.409064661152262	136.71747	11.692624
4.426604441403504	96.98443	9.848067
4.444144325415337	75.864845	8.710043
4.461684313600543	21.880285	4.6776366
4.47922440637193	22.085514	4.699523
4.496764604142329	20.295448	4.505047
4.5143049073245916	18.68236	4.3223095
4.531845316331589	16.735449	4.0908985
4.5493858315762195	14.025504	3.745064
4.566926453471405	11.485296	3.3889964
4.584467182430081	9.429218	3.0707033
4.602008018865218	8.167258	2.8578415
4.619548963189798	7.390709	2.7185857
4.637090015816834	6.8487544	2.6170125
4.654631177159353	6.637875	2.5764074
4.672172447630417	6.5183268	2.5531013
4.689713827643102	6.407015	2.5312083
4.7072553176105085	6.2436414	2.498728
4.724796917945764	6.032012	2.4560156
4.742338629062015	5.9748344	2.4443474
4.759880451372434	5.84444	2.4175277
4.777422385290215	5.777384	2.4036188
4.794964431228581	5.6572905	2.378506
4.812506589600768	5.568714	2.3598123
4.830048860820047	5.5531297	2.356508
4.847591245299709	5.709012	2.389354
4.8651337434530655	5.774479	2.4030147
4.882676355693457	5.7642484	2.4008849
4.900219082434242	5.7028093	2.3880556
4.917761924088813	5.6278234	2.3723035
4.935304881070575	5.5645466	2.3589292
4.952847953792969	5.462198	2.3371346
4.970391142669449	5.3300176	2.3086832
4.9879344481135055	5.408957	2.3257165
5.005477870538642	5.4988484	2.3449624
5.023021410358394	5.5143175	2.3482585
5.040565067986324	5.4266257	2.329512
5.05810884383601	5.350511	2.3131173
5.075652738321066	5.4150386	2.3270235
5.09319675185512	5.4288692	2.3299935
5.110740884851836	5.4292064	2.3300657
5.128285137724894	5.412807	2.326544
5.145829510888007	5.4291515	2.330054
5.163374004754908	5.465716	2.337887
5.1809186197393595	5.4760957	2.340106
5.198463356255145	5.3909526	2.3218424
5.216008214716077	5.303266	2.3028822
5.233553195535998	5.267921	2.295195
5.251098299128764	5.252934	2.291928
5.268643525908272	5.2659597	2.2947679
5.286188876288432	5.228881	2.2866747
5.3037343506831895	5.2402415	2.2891574
5.32127994950651	5.2356906	2.2881632
5.3388256731723915	5.2159476	2.283845
5.356371522094851	5.2276297	2.286401
5.373917496687938	5.1424704	2.2677016
5.391463597365729	5.165991	2.2728815
5.40900982454232	5.1913347	2.27845
5.426556178631843	5.1947584	2.2792013
5.444102660048449	5.2786303	2.297527
5.4616492692063225	5.226475	2.2861485
5.479196006519669	5.2116127	2.2828956
5.496742872402727	5.213899	2.2833965
5.514289867269756	5.237411	2.2885392
5.531836991535049	5.207378	2.2819679
5.549384245612924	5.1899514	2.2781465
5.566931629917724	5.2315507	2.2872584
5.584479144863822	5.2448645	2.2901669
5.6020267908656205	5.194841	2.2792194
5.619574568337545	5.189837	2.2781215
5.637122477694054	5.170076	2.27378
5.654670519349629	5.1761084	2.2751062
5.672218693718784	5.1230407	2.2634134
5.689767001216059	5.0829606	2.254542
5.707315442256021	5.164503	2.2725544
5.724864017253266	5.172027	2.274209
5.7424127266224225	5.220267	2.2847903
5.75996157077814	5.0920434	2.2565556
5.777510550135105	5.089808	2.2560604
5.795059665108022	5.06389	2.2503088
5.812608916111639	5.2047615	2.2813947
5.830158303560715	5.4034295	2.3245277
5.847707827870055	5.382628	2.320049
5.86525748945448	5.3887258	2.321363
5.8828072887288485	5.425283	2.3292236
5.900357226108044	5.51276	2.3479269
5.917907302006979	5.6473446	2.3764143
5.9354575168406	6.266961	2.5033898
5.9530078710238765	6.8683224	2.6207485
5.970558364971812	7.385936	2.7177079
5.988108999099438	7.679863	2.7712567
6.005659773821818	8.119398	2.8494558
6.023210689554039	7.868294	2.805048
6.040761746711227	8.25924	2.8738894
6.058312945708531	7.6485734	2.7656054
6.075864286961132	7.2165465	2.686363
6.093415770884244	6.5553555	2.5603428
6.1109673978931065	6.0371184	2.4570549
6.128519168402993	5.523542	2.3502216
6.146071082829204	5.366416	2.3165526
6.163623141587075	5.331926	2.3090963
6.181175345091969	5.2658534	2.2947447
6.198727693759281	5.2722545	2.296139
6.216280188004435	5.244065	2.2899923
6.233832828242885	5.2061996	2.28171
6.251385614890126	5.2053967	2.281534
6.268938548361669	5.1762	2.2751265
6.286491629073067	5.148773	2.269091
6.304044857439898	5.1704173	2.2738552
6.321598233877777	5.070977	2.251883
6.339151758802344	5.016453	2.239744
6.356705432629277	4.9522247	2.2253594
6.37425925577428	4.9248886	2.219209
6.391813228653095	4.9665437	2.2285743
6.409367351681486	5.061083	2.249685
6.426921625275259	5.037184	2.2443671
6.44447604985025	5.035236	2.2439332
6.46203062582232	4.9940352	2.2347338
6.47958535360737	5.0080614	2.2378697
6.497140233621328	5.0699077	2.2516456
6.514695266280161	5.0726647	2.2522576
6.532250451999859	5.1280627	2.2645226
6.549805791196454	5.1501575	2.2693958
6.567361284286002	5.167805	2.2732806
6.584916931684597	5.1293426	2.264805
6.602472733808367	5.139992	2.2671552
6.6200286910734665	5.1593556	2.2714214
6.637584803896092	5.176141	2.2751133
6.655141072692462	5.089635	2.256022
6.672697497878842	5.012346	2.238827
6.690254079871514	4.9345455	2.2213838
6.707810819086808	5.000619	2.2362063
6.725367715941078	5.141191	2.2674196
6.742924770850719	5.225936	2.2860305
6.760481984232151	5.2305803	2.2870462
6.778039356501836	5.143522	2.2679334
6.795596888076266	5.0442386	2.2459383
6.813154579371963	4.986836	2.2331223
6.830712430805492	4.9998946	2.2360444
6.84827044279344	5.038838	2.2447357
6.865828615752445	5.1192923	2.2625854
6.883386950099159	5.0562434	2.2486093
6.900945446250287	5.0419145	2.2454207
6.918504104622553	5.080444	2.253984
6.936062925632727	5.1119356	2.260959
6.953621909697607	5.1286087	2.2646432
6.971181057234028	5.1597533	2.271509
6.988740368658859	5.1940765	2.2790518
7.006299844389007	5.294501	2.3009782
7.023859484841407	5.2582116	2.2930791
7.041419290433036	5.348507	2.3126838
7.058979261580902	5.449834	2.334488
7.0765393987020495	5.766498	2.4013534
7.094099702213559	6.221107	2.4942148
7.111660172532549	6.671764	2.5829759
7.129220810076164	7.028415	2.651116
7.146781615261595	7.635008	2.763152
7.16434258850606	7.7498884	2.783862
7.181903730226821	8.156386	2.8559387
7.1994650408411704	8.1987095	2.863339
7.217026520766437	8.367196	2.8926105
7.234588170419983	8.662764	2.9432573
7.252149990219215	8.581217	2.9293714
7.269711980581568	8.388788	2.8963404
7.2872741419245175	8.099595	2.8459787
7.304836474665574	7.708507	2.7764199
7.322398979222286	7.4303017	2.725858
7.339961656012233	7.157458	2.6753426
7.357524505453039	6.841934	2.615709
7.375087527962357	6.6442523	2.5776448
7.392650723957886	6.3606744	2.5220377
7.410214093857353	5.95311	2.4398997
7.427777638078528	5.685296	2.3843858
7.445341357039213	5.4448056	2.3334107
7.4629052511572525	5.4116473	2.3262947
7.480469320850524	5.3724647	2.3178577
7.498033566536948	5.3273926	2.3081145
7.5155979886344735	5.2684326	2.2953067
7.5331625875610975	5.2379394	2.2886546
7.550727363734844	5.257169	2.2928517
7.568292317573788	5.241022	2.2893279
7.585857449496025	5.2585692	2.293157
7.603422759919705	5.2409844	2.2893198
7.620988249263007	5.256053	2.2926083
7.638553917944147	5.2403665	2.2891846
7.656119766381391	5.252242	2.2917771
7.673685794993023	5.267416	2.2950852
7.691252004197388	5.2591615	2.293286
7.70881839441285	5.272738	2.2962444
7.726384966057826	5.2517614	2.2916722
7.743951719550762	5.296649	2.301445
7.761518655310149	5.294446	2.3009663
7.779085773754511	5.334166	2.3095813
7.796653075302419	5.308413	2.3039994
7.814220560372475	5.310625	2.3044794
7.831788229383323	5.222734	2.28533
7.8493560827536495	5.2372637	2.288507
7.866924120902174	5.314736	2.305371
7.884492344247663	5.3629856	2.315812
7.9020607532089135	5.449682	2.3344555
7.919629348204771	5.4128585	2.326555
7.937198129654115	5.4067135	2.3252342
7.954767097975865	5.4113474	2.3262303
7.972336253588986	5.4190154	2.3278778
7.989905596912472	5.462344	2.3371658
8.007475128365371	5.4409366	2.3325815
8.025044848366756	5.454285	2.335441
8.042614757335754	5.568494	2.3597655
8.060184855691523	5.5743675	2.3610098
8.07775514385327	5.723799	2.3924463
8.095325622240228	5.818035	2.4120603
8.112896291271687	5.935116	2.4362092
8.130467151366968	6.0697727	2.4636908
8.148038202945436	6.1431484	2.4785376
8.165609446426497	6.1353216	2.476958
8.183180882229594	6.119137	2.4736888
8.200752510774217	6.1061063	2.4710536
8.218324332479893	6.1252866	2.4749317
8.235896347766193	6.1002617	2.4698708
8.253468557052724	6.069772	2.4636908
8.27104096075914	5.9856753	2.446564
8.288613559305137	5.9928207	2.4480238
8.306186353110448	6.0632405	2.462365
8.32375934259485	6.154063	2.4807384
8.341332528178162	6.1960235	2.4891813
8.358905910280246	6.2250247	2.495
8.376479489321003	6.305214	2.5110185
8.394053265720377	6.349775	2.519876
8.411627239898356	6.3543134	2.5207763
8.42920141227497	6.30936	2.511844
8.44677578327029	6.3437176	2.5186737
8.464350353304427	6.2408395	2.4981673
8.48192512279754	6.1732802	2.4846087
8.499500092169827	6.143204	2.4785488
8.51707526184153	6.1343064	2.4767532
8.534650632232934	6.1132298	2.4724946
8.552226203764365	6.0715733	2.4640563
8.569801976856192	6.118621	2.4735847
8.587377951928834	6.190322	2.4880357
8.60495412940274	6.2946324	2.5089107
8.622530509698416	6.3846507	2.5267866
8.6401070932364	6.5383873	2.557027
8.657683880437283	6.616725	2.5722995
8.675260871721695	6.765885	2.6011314
8.692838067510303	6.954259	2.6370928
8.710415468223834	7.1602583	2.675866
8.727993074283043	7.338822	2.709026
8.745570886108737	7.3288584	2.7071865
8.763148904121765	7.392391	2.7188952
8.78072712874302	7.3273234	2.706903
8.798305560393441	7.550225	2.7477672
8.815884199494006	7.676117	2.7705805
8.833463046465745	7.87451	2.8061557
8.851042101729728	8.001702	2.828728
8.86862136570707	8.22491	2.8679104
8.886200838818924	8.370771	2.8932285
8.903780521486505	8.392139	2.896919
8.921360414131055	8.568058	2.9271245
8.938940517173874	8.709132	2.951124
8.956520831036297	8.838986	2.9730432
8.97410135613971	9.107483	3.0178607
8.99168209290554	9.2303	3.0381408
9.009263041755265	9.6568365	3.1075451
9.026844203110405	9.8699875	3.1416535
9.044425577392525	10.066055	3.1727047
9.062007165023239	10.213857	3.1959126
9.079588966424197	10.469357	3.2356386
9.097170982017108	10.548742	3.2478828
9.11475321222372	11.504692	3.3918567
9.132335657465825	12.4826	3.5330722
9.149918318165264	12.552498	3.5429504
9.167501194743924	13.014363	3.6075425
9.18508428762374	12.614836	3.551737
9.202667597226693	12.617621	3.552129
9.220251123974803	12.253087	3.500441
9.237834868290143	11.912643	3.4514697
9.255418830594836	11.692843	3.41948
9.273003011311046	11.183452	3.3441668
9.290587410860985	11.00059	3.3167138
9.308172029666911	10.295898	3.2087224
9.32575686815113	9.979603	3.159051
9.343341926735997	8.787323	2.9643419
9.360927205843916	8.605226	2.9334664
9.378512705897327	8.462415	2.909023
9.396098427318728	8.191733	2.8621204
9.413684370530664	8.063649	2.8396566
9.431270535955722	7.9233737	2.814849
9.448856924016539	7.8660355	2.8046453
9.466443535135806	7.7955446	2.7920504
9.484030369736251	7.807733	2.7942321
9.501617428240658	7.7757177	2.7884974
9.519204711071852	7.8263245	2.7975569
9.536792218652714	7.8771048	2.806618
9.55437995140617	7.950211	2.8196118
9.571967909755191	7.909174	2.8123255
9.589556094122802	7.879084	2.8069706
9.60714450493207	7.8793797	2.8070233
9.624733142606116	7.935793	2.817054
9.642322007568108	8.034128	2.8344538
9.659911100241267	8.10975	2.8477623
9.677500421048851	8.08145	2.8427892
9.695089970414175	8.1366415	2.85248
9.712679748760609	8.104044	2.8467603
9.730269756511557	8.172108	2.8586898
9.747859994090492	8.139163	2.8529217
9.765450461920915	8.090325	2.8443496
9.78304116042639	8.140676	2.8531868
9.800632090030527	8.212574	2.865759
9.81822325115699	8.328556	2.8859239
9.835814644229481	8.2919	2.879566
9.853406269671762	8.25743	2.8735745
9.870998127907646	8.335425	2.8871136
9.888590219360985	8.358909	2.8911777
9.906182544455698	8.38061	2.8949285
9.923775103615734	8.32793	2.8858154
9.941367897265108	8.238293	2.8702426
9.958960925827878	8.229473	2.8687057
9.97655418972816	8.198082	2.8632293
9.994147689390106	8.32108	2.8846283
10.011741425237934	8.325782	2.885443
10.029335397695904	8.368432	2.8928242
10.04692960718833	8.377931	2.8944654
10.06452405413958	8.421167	2.9019248
10.082118738974064	8.427007	2.9029307
10.099713662116246	8.421329	2.9019525
10.117308823990651	8.3621235	2.8917336
10.134904225021844	8.364155	2.8920848
10.152499865634445	8.318086	2.8841093
10.170095746253125	8.209429	2.86521
10.18769186730261	8.104516	2.8468432
10.205288229207675	8.101866	2.8463776
10.222884832393145	8.138976	2.852889
10.2404816772839	8.173037	2.8588524
10.258078764304868	8.142916	2.8535795
10.275676093881035	8.135426	2.8522668
10.293273666437438	8.112112	2.848177
10.310871482399158	8.135826	2.852337
10.32846954219134	8.1796665	2.8600116
10.346067846239173	8.186961	2.8612866
10.363666394967908	8.219267	2.8669264
10.38126518880283	8.239305	2.8704188
10.398864228169298	8.319632	2.8843772
10.416463513492713	8.251011	2.8724573
10.434063045198531	8.206702	2.8647342
10.451662823712262	8.189416	2.8617156
10.469262849459467	8.168969	2.858141
10.486863122865758	8.071431	2.8410265
10.504463644356806	7.993895	2.8273478
10.522064414358338	7.951538	2.819847
10.539665433296118	7.934236	2.8167777
10.557266701595987	7.9313293	2.8162615
10.574868219683818	7.8254123	2.7973938
10.592469987985552	7.7261095	2.779588
10.610072006927185	7.6068044	2.7580435
10.627674276934751	7.5338235	2.7447813
10.64527679843435	7.439412	2.7275286
10.662879571852143	7.3344193	2.7082133
10.680482597614331	7.1913104	2.6816618
10.698085876147173	7.1121135	2.6668546
10.715689407876988	7.013301	2.6482637
10.733293193230146	6.9393277	2.6342604
10.750897232633072	6.825714	2.6126068
10.76850152651225	6.734471	2.5950859
10.786106075294207	6.7220397	2.5926898
10.803710879405534	6.6056323	2.5701425
10.821315939272877	6.51489	2.5524282
10.83892125532294	6.387744	2.5273986
10.856526827982472	6.318427	2.5136483
10.874132657678285	6.3111367	2.5121975
10.891738744837243	6.2348967	2.4969776
10.909345089886271	6.154332	2.4807928
10.926951693252343	6.1436505	2.478639
10.944558555362494	6.123755	2.4746222
10.96216567664381	6.0596914	2.461644
10.979773057523436	5.97162	2.4436898
10.997380698428573	5.906795	2.43039
11.014988599786477	5.808067	2.4099932
11.032596762024461	5.778883	2.4039307
11.050205185569892	5.6765003	2.3825407
11.067813870850198	5.6363053	2.3740904
11.085422818292859	5.5074983	2.346806
11.10303202832541	5.407901	2.3254893
11.120641501375454	5.363945	2.3160193
11.138251237870636	5.339287	2.3106897
11.155861238238671	5.274019	2.296523
11.173471502907317	5.2417593	2.2894888
11.191082032304402	5.1824126	2.2764914
11.208692826857805	5.135585	2.266183
11.226303886995465	5.067208	2.251046
11.243915213145371	5.0001082	2.236092
11.261526805735578	4.9263816	2.2195454
11.279138665194196	4.913617	2.2166681
11.296750791949393	4.8848276	2.2101645
11.314363186429393	4.807722	2.1926517
11.331975849062479	4.7505894	2.1795847
11.34958878027699	4.6533003	2.157151
11.36720198050133	4.595165	2.1436336
11.384815450163948	4.5677466	2.1372287
11.402429189693366	4.5475893	2.1325078
11.420043199518153	4.5099025	2.1236532
11.437657480066942	63.45359	7.965776
11.455272031768422	85.175255	9.229044
11.472886855051353	107.57409	10.371793
11.490501950344528	99.20167	9.960004
11.508117318076819	84.54781	9.194988
11.52573295867715	45.929146	6.7771044
11.543348872574514	4.2159014	2.053266
11.560965060197946	4.1688547	2.0417774
11.57858152197655	4.098971	2.0245914
11.59619825833949	4.0488076	2.0121648
11.613815269715985	3.968862	1.9922003
11.631432556535323	38.513027	6.2058864
11.649050119226837	83.07035	9.114294
11.666667958219929	93.46532	9.667747
11.68428607394406	107.74425	10.3799925
11.701904466828756	82.600555	9.088485
11.719523137303586	65.50106	8.093272
11.737142085798196	4.696549	2.1671522
11.754761312742286	3.7604904	1.9391984
11.772380818565619	3.7157884	1.927638
11.790000603698015	3.6875513	1.9202998
11.80762066856935	3.6070786	1.8992311
11.825241013609572	3.5397108	1.8814119
11.842861639248683	3.513949	1.874553
11.860482545916748	3.5111887	1.8738166
11.878103734043883	3.4900064	1.8681558
11.895725204060282	3.4244177	1.8505182
11.91334695639619	3.4232905	1.8502136
11.930968991481919	3.3576288	1.8323834
11.948591309747824	3.3637354	1.8340489
11.966213911624347	3.345276	1.8290097
11.98383679754198	3.3330731	1.8256706
12.001459967931268	3.3338997	1.825897
12.019083423222835	3.3078594	1.8187522
12.036707163847352	3.2860165	1.8127372
12.05433119023556	3.2665098	1.8073488
12.071955502818259	3.2439988	1.8011104
12.089580102026313	3.1963913	1.7878455
12.107204988290643	3.2123759	1.7923102
12.12483016204224	3.2133172	1.7925727
12.142455623712152	3.1862698	1.7850125
12.16008137373149	3.1615016	1.7780612
12.177707412531431	3.1098266	1.76347
12.19533374054321	3.086665	1.7568907
12.212960358198126	3.0606766	1.7494789
12.230587265927545	3.0410914	1.7438725
12.248214464162889	3.0176725	1.737145
12.265841953335649	3.0011559	1.7323844
12.283469733877375	2.970262	1.7234448
12.301097806219685	2.9584765	1.7200222
12.31872617079425	2.953891	1.7186887
12.336354828032825	2.9610791	1.7207786
12.353983778367205	2.9722447	1.7240199
12.371613022229262	2.9716032	1.7238338
12.389242560050928	3.005693	1.7336935
12.406872392264201	2.98277	1.7270697
12.424502519301143	2.9353614	1.7132896
12.442132941593874	2.87122	1.6944675
12.459763659574586	2.8330984	1.683181
12.477394673675532	2.8200536	1.6793015
12.49502598432903	2.8149083	1.6777688
12.51265759196746	2.8219924	1.6798787
12.530289497023267	2.8084245	1.6758355
12.547921699928967	2.8059878	1.6751083
12.565554201117134	2.7880745	1.6697528
12.583187001020404	2.786005	1.6691331
12.600820100071486	2.7657452	1.6630529
12.618453498703152	2.7766218	1.6663198
12.636087197348235	2.7676768	1.6636336
12.65372119643964	2.756008	1.6601229
12.671355496410326	2.7401822	1.6553496
12.68899009769333	2.808121	1.6757449
12.706625000721749	2.928935	1.7114131
12.724260205928752	3.0079582	1.7343466
12.741895713747551	3.039556	1.7434323
12.759531524611454	3.0266583	1.7397294
12.777167638953818	2.9754186	1.7249402
12.794804057208072	2.9695327	1.7232332
12.812440779807702	3.0197752	1.73775
12.830077807186271	3.2268405	1.7963408
12.847715139777405	3.2988536	1.8162746
12.865352778014795	3.503696	1.8718163
12.882990722332197	3.5911644	1.8950368
12.90062897316344	3.7016788	1.9239748
12.918267530942412	3.748607	1.936132
12.935906396103071	3.603448	1.898275
12.953545569079449	3.739405	1.9337541
12.971185050305628	3.5856268	1.8935752
12.988824840215775	3.6319525	1.9057683
13.006464939244115	3.5903456	1.8948207
13.024105347824943	3.474571	1.8640201
13.041746066392617	3.5695543	1.8893265
13.05938709538157	3.4375052	1.854051
13.077028435226296	3.4324505	1.8526874
13.094670086361363	3.330039	1.8248395
13.112312049221401	3.233732	1.7982581
13.129954324241112	3.169401	1.7802812
13.147596911855258	2.9706707	1.7235633
13.165239812498685	2.9457815	1.7163279
13.182883026606293	2.8619533	1.6917309
13.200526554613058	2.842064	1.6858422
13.218170396954017	2.773371	1.6653441
13.235814554064284	2.752115	1.65895
13.253459026379034	2.7404234	1.6554224
13.271103814333523	2.730534	1.6524328
13.288748918363058	2.7171853	1.6483887
13.306394338903031	2.6870596	1.6392254
13.32404007638889	2.6331441	1.6226965
13.341686131256164	2.6330361	1.6226633
13.359332503940449	2.6446326	1.6262326
13.376979194877402	2.6621475	1.6316088
13.394626204502751	2.7143335	1.6475234
13.412273533252307	2.7747152	1.6657476
13.429921181561937	2.7937498	1.6714514
13.447569149867581	2.7959783	1.672118
13.465217438605247	2.751599	1.6587945
13.482866048211022	2.7200234	1.6492493
13.500514979121052	2.7614756	1.6617688
13.518164231771568	2.7669325	1.66341
13.535813806598844	2.7566228	1.660308
13.553463704039254	2.7022438	1.6438503
13.571113924529229	2.6720934	1.6346539
13.588764468505275	2.6939754	1.6413335
13.606415336403956	2.7086976	1.6458122
13.624066528661917	2.7373595	1.6544968
13.641718045715882	2.7733448	1.6653363
13.659369888002635	2.8423529	1.6859279
13.67702205595903	2.8968303	1.7020078
13.694674550021993	3.028893	1.7403715
13.712327370628532	3.1345155	1.7704563
13.729980518215713	3.218602	1.7940463
13.747633993220681	3.255737	1.8043661
13.765287796080647	3.2541976	1.8039395
13.7829419272329	3.3152149	1.8207731
13.800596387114801	3.359374	1.8328595
13.818251176163775	3.356792	1.832155
13.835906294817324	3.3299215	1.8248073
13.853561743513023	3.378002	1.8379341
13.871217522688525	3.4590025	1.8598393
13.888873632781538	3.541675	1.8819339
13.906530074229858	3.55029	1.8842213
13.92418684747135	3.5234625	1.8770889
13.941843952943948	3.4781113	1.8649695
13.959501391085665	3.4560206	1.8590375
13.977159162334578	3.4113114	1.8469735
13.994817267128846	3.4072134	1.8458638
14.012475705906693	3.3244843	1.8233168
14.030134479106424	3.2682726	1.8078364
14.047793587166414	3.1601148	1.7776712
14.065453030525108	3.115524	1.7650847
14.083112809621026	3.0259964	1.7395391
14.100772924892766	2.9625978	1.7212199
14.118433376778997	2.8945684	1.7013432
14.136094165718458	2.882932	1.6979198
14.153755292149969	2.822612	1.6800631
14.171416756512416	2.717092	1.6483604
14.189078559244768	2.6146407	1.6169851
14.20674070078606	2.544998	1.595305
14.224403181575408	2.5246117	1.5889027
14.242066002051999	2.5365813	1.5926648
14.259729162655093	2.5341842	1.5919122
14.277392663824022	2.519024	1.5871433
14.295056505998208	2.4762208	1.5736012
14.312720689617128	2.4553664	1.5669609
14.330385215120348	2.4426372	1.5628939
14.348050082947497	2.4191802	1.5553714
14.3657152935383	2.4244096	1.5570515
14.383380847332528	2.41863	1.5551945
14.401046744770051	2.44095	1.562354
14.418712986290798	2.4152236	1.554099
14.436379572334793	2.3915992	1.5464796
14.454046503342123	2.3649886	1.5378519
14.471713779752946	2.3664691	1.5383332
14.489381402007504	2.401305	1.5496144
14.507049370546113	2.4058678	1.5510861
14.524717685809168	2.437989	1.5614061
14.542386348237134	2.4615457	1.5689313
14.560055358270553	2.4592483	1.568199
14.577724716350051	2.4942427	1.5793171
14.595394422916325	2.4712381	1.5720172
14.61306447841015	2.5101147	1.5843341
14.63073488327237	2.5122023	1.5849929
14.648405637943917	2.5295587	1.5904586
14.6660767428658	2.5166428	1.586393
14.683748198479094	2.5250154	1.5890297
14.701420005224954	2.5761669	1.6050442
14.719092163544628	2.6444209	1.6261675
14.73676467387942	2.714665	1.647624
14.754437536670727	2.7216368	1.6497384
14.772110752360014	2.7094855	1.6460515
14.78978432138882	2.6723022	1.6347178
14.807458244198777	2.683179	1.6380411
14.82513252123159	2.6945486	1.641508
14.842807152929028	2.7460687	1.6571267
14.860482139732962	2.7265868	1.651238
14.87815748208531	2.679389	1.636884
14.8958331804281	2.6684425	1.6335368
14.91350923520342	2.6628997	1.6318394
14.931185646853438	2.697571	1.6424284
14.948862415820408	2.7118394	1.6467663
14.966539542546656	2.6876674	1.6394107
14.98421702747459	2.6526165	1.6286855
15.001894871046696	2.632621	1.6225353
15.019573073705542	2.6205738	1.6188186
15.037251635893766	2.654206	1.6291734
15.054930558054092	2.6895814	1.6399944
15.072609840629323	2.7451074	1.6568365
15.090289484062351	2.8592944	1.6909448
15.107969488796124	3.125515	1.7679126
15.125649855273691	3.5419247	1.8820002
15.14333058393817	4.056344	2.0140367
15.161011675232768	5.061628	2.2498062
15.17869312960076	6.4857817	2.5467198
15.196374947485506	8.448716	2.9066675
15.214057129330447	11.668697	3.4159474
15.231739675579114	16.349695	4.0434756
15.249422586675102	21.296076	4.614767
15.267105863062092	24.228382	4.9222336
15.284789505183847	24.234077	4.922812
15.302473513484218	21.894825	4.6791906
15.320157888407127	18.15501	4.2608695
15.337842630396578	14.137711	3.7600148
15.355527739896656	11.027572	3.3207788
15.37321321735153	8.640548	2.9394808
15.39089906320545	6.363581	2.522614
15.408585277902748	4.8093696	2.1930275
15.42627186188783	3.7433958	1.9347857
15.443958815605198	3.1952336	1.7875216
15.461646139499424	2.9039257	1.7040908
15.479333834015168	2.753567	1.6593876
15.497021899597165	2.7255445	1.6509223
15.514710336690234	2.7486148	1.6578947
15.53239914573928	2.7385182	1.6548469
15.550088327189297	2.6719208	1.6346011
15.567777881485336	2.6008554	1.6127168
15.58546780907256	2.5066938	1.5832542
15.6031581103962	2.494203	1.5793046
15.620848785901568	2.483966	1.5760603
15.638539836034063	2.4690654	1.571326
15.656231261239173	2.42126	1.5560399
15.673923061962451	2.3943264	1.5473611
15.691615238649552	2.4068656	1.5514076
15.709307791746202	2.4205656	1.5558167
15.727000721698221	2.435255	1.5605304
15.744694028951498	2.4025185	1.5500059
15.76238771395202	2.3814185	1.5431845
15.780081777145844	2.3614197	1.5366912
15.797776218979125	2.3418584	1.5303131
15.815471039898094	2.3687696	1.5390807
15.833166240349064	2.4043372	1.5505925
15.850861820778437	2.3832865	1.5437896
15.868557781632699	2.358053	1.5355953
15.886254123358412	2.3462203	1.5317377
15.903950846402232	2.4045293	1.5506545
15.921647951210897	2.457777	1.56773
15.939345438231225	2.4450116	1.5636533
15.957043307910133	2.4273226	1.5579867
15.974741560694602	2.3884716	1.5454681
15.992440197031714	2.4068315	1.5513966
16.01013921736862	2.421745	1.5561957
16.02783862215259	2.427823	1.5581473
16.045538411830933	2.427272	1.5579705
16.06323858685107	2.4377396	1.5613263
16.080939147660512	2.4161668	1.5544024
16.09864009470684	2.4018767	1.549799
16.11634142843774	2.3845885	1.5442113
16.134043149300954	2.402123	1.5498784
16.15174525774433	2.420275	1.5557233
16.169447754215817	2.478526	1.5743335
16.18715063916342	2.4808676	1.575077
16.204853913035244	2.4284208	1.5583391
16.222557576279478	2.408024	1.5517809
16.240261629344403	22.43319	4.7363687
16.257966072678386	42.99218	6.5568423
16.275670906729868	38.11442	6.173688
16.293376131947387	2.5140998	1.5855913
16.31108174877957	2.55179	1.5974323
16.328787757675133	2.5946753	1.6107996
16.34649415908287	2.569223	1.6028795
16.364200953451657	2.5773582	1.6054153
16.38190814123048	2.6163497	1.6175134
16.39961572286839	2.685104	1.6386287
16.41732369881455	2.7180645	1.6486554
16.43503206951817	2.7418952	1.6558669
16.45274083542859	2.7546787	1.6597224
16.47044999699522	2.7909412	1.670611
16.488159554667558	2.8478835	1.6875674
16.505869508895184	2.905741	1.7046235
16.523579860127786	2.9649415	1.7219006
16.541290608815117	3.024811	1.7391984
16.559001755407035	3.066486	1.7511384
16.57671330035348	3.107717	1.7628719
16.59442524410448	3.1036587	1.7617204
16.61213758711015	3.1748195	1.7818023
16.629850329820705	3.2324615	1.7979047
16.647563472686436	3.3556025	1.8318304
16.665277016157724	3.3883712	1.8407528
16.682990960685053	3.3930874	1.8420335
16.70070530671898	3.3712099	1.8360854
16.718420054710155	3.4392092	1.8545105
16.736135205109335	3.542053	1.8820343
16.753850758367335	3.6537285	1.9114729
16.771566714935087	3.7197888	1.9286754
16.789283075263597	3.7661865	1.9406666
16.80699983980398	3.7687502	1.9413269
16.82471700900741	3.8390462	1.9593484
16.84243458332518	3.9375126	1.9843167
16.860152563208665	3.9914773	1.9978682
16.87787094910932	4.0330606	2.008248
16.89558974147871	4.0687156	2.0171058
16.913308940768466	4.1396923	2.0346234
16.931028547430333	4.191172	2.0472353
16.94874856191613	4.275503	2.067729
16.966468984677785	4.323772	2.079368
16.98418981616729	4.4272027	2.104092
17.00191105683676	4.476582	2.1157935
17.019632707138374	4.5089216	2.1234221
17.03735476752442	4.5134735	2.1244936
17.05507723844728	4.5526905	2.1337035
17.072800120359403	4.6170273	2.148727
17.090523413713353	4.6514306	2.1567175
17.108247118961785	4.6562724	2.1578398
17.125971236557437	4.6356378	2.153053
17.143695766953133	4.6341634	2.1527107
17.161420710601806	4.6623893	2.1592567
17.179146067956477	4.6512036	2.1566648
17.19687183947025	4.6463265	2.155534
17.21459802559634	4.618525	2.1490755
17.232324626788028	4.669366	2.1608715
17.25005164349871	4.6435556	2.154891
17.267779076181863	4.6144123	2.1481183
17.285506925291074	4.5923123	2.1429682
17.30323519127999	4.6053143	2.1459997
17.320963874602384	4.6305046	2.1518607
17.33869297571211	4.5846567	2.1411812
17.356422495063114	4.5153265	2.1249297
17.37415243310944	4.493617	2.1198153
17.391882790305218	4.424115	2.103358
17.40961356710468	4.4070816	2.099305
17.42734476396215	4.4588842	2.111607
17.445076381332044	4.5240483	2.126981
17.462808419668868	4.658221	2.158291
17.48054087942723	4.8238626	2.1963294
17.498273761061835	5.1433177	2.2678883
17.51600706502747	5.6399937	2.3748672
17.533740791779024	6.370229	2.5239313
17.551474941771485	7.8447113	2.800841
17.56920951545993	8.947308	2.991205
17.586944513299528	11.032984	3.3215935
17.60467993574556	12.643137	3.555719
17.622415783253373	14.265824	3.7770126
17.64015205627843	15.553849	3.943837
17.657888755276293	16.605028	4.074927
17.675625880702604	17.000622	4.123181
17.69336343301311	16.786993	4.0971932
17.71110141266366	16.061247	4.0076485
17.728839820110178	15.366983	3.9200745
17.746578655808705	14.621973	3.8238688
17.764317920215372	13.273146	3.6432328
17.7820576137864	11.670429	3.4162009
17.79979773697811	9.529467	3.0869834
17.81753829024692	7.5595555	2.7494645
17.835279274049356	5.829074	2.4143474
17.85302068884201	4.783311	2.1870782
17.870762535081607	4.132042	2.0327425
17.888504813224934	3.8541245	1.9631925
17.90624752372891	3.6943088	1.9220585
17.923990667050536	3.56532	1.8882055
17.941734243646895	3.4896638	1.8680642
17.959478253975185	3.4743912	1.863972
17.9772226984927	3.5077596	1.8729013
17.994967577656833	3.4670353	1.8619976
18.01271289192506	3.4230502	1.8501487
18.030458641754965	3.3598292	1.8329837
18.04820482760425	3.365219	1.8344533
18.06595144993067	3.354085	1.8314161
18.083698509192125	3.3544116	1.8315053
18.101446005846576	3.3355834	1.826358
18.119193940352105	3.2835097	1.8120457
18.136942313166887	3.2458303	1.8016188
18.1546911247492	3.1973262	1.7881069
18.1724403755574	3.212521	1.7923508
18.19019006604997	3.1657336	1.7792509
18.207940196685467	3.1225767	1.7670814
18.225690767922575	3.1099942	1.7635175
18.243441780220046	3.1188607	1.7660296
18.261193234036764	3.1284416	1.76874
18.278945129831676	3.10922	1.763298
18.29669746806386	3.0892353	1.757622
18.314450249192483	3.0654116	1.7508317
18.3322034736768	3.069549	1.7520128
18.349957141976184	3.0592482	1.7490706
18.3677112545501	3.0599568	1.7492732
18.385465811858108	3.0519595	1.7469858
18.403220814359884	3.0727508	1.7529263
18.420976262515172	3.0581417	1.7487544
18.43873215678387	3.080832	1.75523
18.456488497625923	3.1209915	1.7666328
18.474245285501407	3.230598	1.7973864
18.492002520870486	3.3203638	1.8221866
18.50976020419343	3.4151642	1.8480163
18.527518335930615	3.7135458	1.9270562
18.545276916542516	4.292525	2.071841
18.563035946489688	4.465341	2.1131353
18.580795426232832	4.964184	2.2280447
18.598555356232698	4.8680696	2.2063704
18.616315736950185	5.1635733	2.2723498
18.63407656884626	4.7370005	2.176465
18.65183785238201	4.923103	2.2188067
18.669599588018617	4.725594	2.1738431
18.68736177621737	4.7698526	2.1839993
18.705124417439652	4.7212706	2.1728485
18.72288751214696	4.5183864	2.1256497
18.740651060800886	4.646422	2.155556
18.758415063863115	4.351887	2.0861177
18.77617952179546	4.5013404	2.1216362
18.793944435059814	4.2769074	2.0680685
18.811709804118184	4.3417807	2.083694
18.829475629432675	4.2931175	2.071984
18.8472419114655	4.051548	2.0128458
18.86500865067897	4.1066346	2.0264833
18.88277584753551	3.7950861	1.9480981
18.90054350249763	3.859375	1.9645292
18.918311616027957	3.5454578	1.8829386
18.936080188589226	3.4143004	1.8477826
18.953849220644265	3.1009347	1.7609471
18.971618712656007	2.9394705	1.7144884
18.9893886650875	2.8781784	1.6965195
19.007159078401887	8.040258	2.835535
19.024929953062408	32.95997	5.7410774
19.042701289532435	32.86677	5.732955
19.060473088275405	25.40313	5.0401516
19.07824534975489	2.6176143	1.6179043
19.096018074434568	2.6152945	1.6171873
19.113791262778197	2.5800507	1.6062536
19.13156491524966	2.5603578	1.6001118
19.149339032312945	2.5566297	1.5989465
19.167113614432136	2.5688448	1.6027616
19.184888662071433	2.5775952	1.6054891
19.202664175695123	2.609672	1.615448
19.220440155767623	2.6164532	1.6175454
19.238216602753447	2.6006951	1.6126671
19.2559935171172	2.5703526	1.6032319
19.27377089932361	2.5577703	1.599303
19.291548749837514	2.526728	1.5895685
19.309327069123835	2.5009212	1.5814301
19.32710585764763	2.5082667	1.5837508
19.344885115874032	2.530955	1.5908976
19.362664844268313	2.5296807	1.590497
19.380445043295822	2.4923754	1.5787258
19.39822571342203	2.456175	1.5672189
19.41600685511252	2.4712877	1.572033
19.43378846883297	2.487236	1.5770973
19.451570555049173	2.4740002	1.5728955
19.469353114227037	2.4550438	1.5668579
19.48713614683254	2.4438558	1.5632837
19.50491965333182	2.4533548	1.5663189
19.52270363419109	2.49664	1.580076
19.540488089876686	2.534381	1.5919739
19.55827302085503	2.5293038	1.5903785
19.576058427592674	2.483786	1.5760032
19.593844310556282	2.500024	1.5811465
19.611630670212598	2.5394812	1.593575
19.629417507028506	2.536209	1.592548
19.64720482147098	2.4937255	1.5791534
19.6649926140071	2.5129292	1.5852221
19.682780885104084	2.5380588	1.5931286
19.70056963522921	2.531279	1.5909994
19.718358864849908	2.508748	1.5839028
19.7361485744337	2.475101	1.5732454
19.753938764448215	2.4862926	1.5767982
19.771729435361202	2.5279832	1.5899633
19.789520587640506	2.5412667	1.594135
19.807312221754092	2.5015686	1.5816348
19.825104338170043	2.4911144	1.5783265
19.842896937356517	2.5007062	1.5813621
19.860690019781824	2.5290217	1.5902898
19.87848358591436	2.5467904	1.5958667
19.896277636222635	2.5294843	1.5904353
19.914072171175278	2.479344	1.5745933
19.931867191241015	2.4609616	1.5687453
19.94966269688869	2.4879792	1.577333
19.967458688587264	2.4921863	1.578666
19.985255166805807	2.5390065	1.593426
20.00305213201348	2.5129561	1.5852306
20.020849584679578	2.485607	1.5765808
20.038647525273507	2.4761925	1.5735922
20.05644595426477	2.4413803	1.5624917
20.07424487212299	2.450388	1.5653715
20.092044279317903	2.409143	1.5521414
20.109844176319353	2.389786	1.5458933
20.127644563597304	2.3913512	1.5463995
20.145445441621817	2.4190762	1.555338
20.16324681086307	2.4293764	1.5586457
20.181048671791373	2.4196448	1.5555208
20.198851024877122	2.403959	1.5504706
20.216653870590836	2.3874025	1.5451221
20.234457209403146	2.3673375	1.5386155
20.252261041784802	2.3973663	1.5483431
20.270065368206662	2.3979514	1.548532
20.287870189139685	2.3828006	1.5436323
20.305675505054968	2.3823273	1.543479
20.323481316423702	2.3796682	1.5426173
20.341287623717207	2.3765316	1.5416003
20.359094427406884	2.3741148	1.5408163
20.376901727964288	2.3638139	1.53747
20.39470952586107	2.3400805	1.5297321
20.41251782156899	2.3090224	1.5195467
20.430326615559935	2.3237948	1.5243999
20.448135908305886	2.3497758	1.5328978
20.465945700278965	2.3648353	1.5378021
20.483755991951384	2.3641875	1.5375915
20.50156678379548	2.3520906	1.5336527
20.519378076283708	2.3623745	1.5370018
20.537189869888635	2.3336728	1.5276363
20.55500216508294	2.2985706	1.5161037
20.572814962339415	2.2852645	1.5117091
20.59062826213098	2.325408	1.5249288
20.60844206493066	2.3524928	1.5337838
20.626256371211593	2.3180723	1.5225217
20.644071181447032	2.3323576	1.5272058
20.66188649611036	2.3356504	1.5282835
20.67970231567506	2.3043482	1.518008
20.697518640614742	2.3017137	1.51714
20.715335471403122	2.3009162	1.5168772
20.73315280851404	2.319324	1.5229326
20.750970652421447	2.304163	1.517947
20.768789003599412	2.29687	1.5155427
20.786607862522136	2.3004944	1.516738
20.8044272296639	2.3438082	1.5309501
20.82224710549913	2.3666	1.5383757
20.84006749050237	2.3299887	1.52643
20.857888385148268	3.867132	1.9665024
20.8757097899116	45.98056	6.7808967
20.893531705267254	64.82273	8.051256
20.911354131690224	83.795074	9.153965
20.92917706965566	69.0344	8.308694
20.94700051963877	50.103798	7.0784035
20.96482448211493	29.384546	5.4207516
20.982648957559622	4.144371	2.0357728
21.00047394644843	2.2590075	1.5029995
21.01829944925707	2.265986	1.5053192
21.036125466461375	2.2712843	1.507078
21.053951998537297	2.2444563	1.498151
21.071779045960906	2.2451217	1.498373
21.089606609208378	2.2522662	1.5007552
21.10743468875603	2.2728012	1.5075812
21.12526328508028	2.2279649	1.4926369
21.143092398657675	2.208218	1.4860075
21.16092202996488	2.2091048	1.4863057
21.17875217947867	2.232146	1.4940368
21.19658284767596	2.230007	1.4933208
21.21441403503377	2.237916	1.4959666
21.232245742029225	2.2374957	1.4958261
21.2500779691396	2.2058306	1.4852039
21.26791071684227	2.1390686	1.4625555
21.28574398561475	2.116319	1.4547573
21.30357777593465	2.1395495	1.4627199
21.321412088279704	2.1421213	1.4635987
21.339246923127792	2.154911	1.4679615
21.357082280956888	2.1706135	1.4733002
21.3749181622451	2.1924624	1.4806966
21.392754567470647	2.168927	1.4727278
21.41059149711187	2.1536157	1.4675202
21.42842895164726	2.1599464	1.4696757
21.446266931555378	2.1812887	1.4769187
21.464105437314945	2.1333175	1.4605881
21.481944469404798	2.117007	1.4549938
21.49978402830388	2.1127791	1.4535402
21.51762411449127	2.1395547	1.4627217
21.53546472844617	2.153579	1.4675077
21.553305870647876	2.122317	1.4568174
21.571147541575865	2.08054	1.4424077
21.58898974170967	2.0689862	1.438397
21.60683247152899	2.0850477	1.4439695
21.62467573151363	2.1049268	1.4508365
21.642519522143523	2.1162655	1.454739
21.660363843898722	2.1158648	1.4546013
21.6782086972594	2.1085858	1.452097
21.696054082705864	2.0537171	1.4330796
21.713900000718535	2.0390475	1.4279522
21.73174645177795	2.0437002	1.4295805
21.749593436364794	2.0586843	1.4348116
21.767440954959845	2.0706196	1.4389647
21.785289008044032	2.070666	1.4389809
21.803137596098388	2.067187	1.4377716
21.820986719604086	2.049329	1.4315478
21.838836379042412	2.0181184	1.420605
21.85668657489478	1.9975929	1.4133623
21.87453730764273	1.9963424	1.4129199
21.892388577767914	2.0241616	1.4227303
21.91024038575213	2.011749	1.4183614
21.928092732077285	2.0243218	1.4227866
21.945945617225426	2.0282784	1.4241763
21.963799041678694	2.010457	1.4179058
21.981653005919398	31.31636	5.596102
21.999507510429943	78.113625	8.838191
22.01736255569286	73.057976	8.547396
22.035218142190818	4.1530743	2.0379093
22.05307427040661	1.9825685	1.4080371
22.07093094082315	1.9954014	1.4125868
22.088788153923474	1.9747423	1.4052552
22.106645910190746	1.9464006	1.3951347
22.12450421010827	1.9399215	1.3928107
22.142363054159464	1.9383769	1.392256
22.16022244282787	1.9561824	1.3986359
22.178082376597164	1.9838537	1.4084934
22.195942855951145	1.9925627	1.4115816
22.213803881373742	1.9710939	1.4039565
22.231665453349002	1.9853989	1.4090419
22.24952757236111	1.9743257	1.405107
22.26739023889438	1.9780784	1.4064417
22.28525345343323	1.9910463	1.4110444
22.30311721646225	2.0278492	1.4240257
22.320981528466113	2.0329094	1.4258013
22.33884638992964	2.0109482	1.418079
22.356711801337788	1.9878223	1.4099015
22.37457776317561	1.9773718	1.4061905
22.392444275928337	1.9144361	1.3836315
22.410311340081282	1.9143572	1.383603
22.428178956119904	1.8984293	1.377835
22.446047124529805	1.90564	1.3804492
22.46391584579669	1.8955795	1.3768004
22.481785120406414	1.8901458	1.3748257
22.49965494884496	1.8908864	1.375095
22.51752533159841	1.9032854	1.3795961
22.53539626915302	1.9208189	1.3859361
22.553267761995137	1.9707462	1.4038327
22.571139810611264	1.9798506	1.4070717
22.589012415488025	1.9875336	1.4097991
22.60688557711216	1.9699711	1.4035566
22.624759295970566	1.9215405	1.3861964
22.642633572550263	1.8939445	1.3762065
22.660508407338362	1.9233233	1.3868393
22.67838380082217	1.9633207	1.4011855
22.696259753489077	1.9592712	1.3997397
22.714136265826614	1.967485	1.4026706
22.73201333832246	1.9734838	1.4048074
22.74989097146439	1.9763315	1.4058206
22.76776916574035	1.9588903	1.3996036
22.785647921638393	1.9192699	1.3853772
22.803527239646712	1.8731515	1.3686312
22.82140712025363	1.8808229	1.371431
22.839287563947593	1.9107994	1.3823167
22.85716857121719	1.9082061	1.3813783
22.875050142551135	1.8629721	1.3649074
22.892932278438277	1.8443604	1.3580723
22.910814979367604	1.8405536	1.35667
22.928698245828222	1.867184	1.3664495
22.946582078309387	1.885537	1.3731486
22.96446647730047	1.9042271	1.3799374
22.98235144329098	1.8753754	1.3694434
23.000236976770562	1.8465531	1.3588793
23.018123078229	1.8748219	1.3692414
23.03600974815619	1.9128559	1.3830603
23.053896987042194	1.8978395	1.3776209
23.071784795377173	1.8797059	1.3710237
23.08967317365145	1.8919147	1.375469
23.10756212235546	1.9050303	1.3802283
23.125451641979787	1.90834	1.3814268
23.143341733015134	1.8968617	1.377266
23.161232395952357	1.9158076	1.384127
23.179123631282426	1.9481406	1.395758
23.197015439496468	1.9956957	1.412691
23.214907821085717	1.9601994	1.4000711
23.23280077654157	1.9399905	1.3928354
23.250694306355538	1.946481	1.3951634
23.268588411019277	1.9314467	1.389765
23.28648309102458	1.8966774	1.377199
23.304378346863356	1.8816488	1.371732
23.322274179027676	1.9267681	1.3880807
23.340170588009723	1.9304093	1.3893917
23.358067574301852	1.9287374	1.3887899
23.37596513839651	1.918974	1.3852704
23.39386328078629	1.8949825	1.3765836
23.411762001963947	1.9392792	1.39258
23.429661302422353	1.9729229	1.4046078
23.4475611826545	2.0026743	1.4151587
23.46546164315356	1.9549662	1.3982011
23.48336268441279	1.9412097	1.393273
23.501264306925638	1.9114919	1.3825672
23.51916651118564	1.9303534	1.3893716
23.537069297686497	1.9449017	1.3945973
23.554972666922037	1.9117789	1.382671
23.57287661938623	1.9211828	1.3860674
23.59078115557318	1.9286108	1.3887444
23.608686275977128	1.9314158	1.3897538
23.62659198109246	1.867685	1.3666327
23.6444982714137	1.8950263	1.3765996
23.66240514743549	1.9292307	1.3889675
23.68031260965263	1.9262053	1.387878
23.698220658560068	1.911977	1.3827425
23.716129294652845	1.9255502	1.3876419
23.7340385184262	1.9245677	1.3872879
23.75194833037546	1.8920305	1.3755109
23.769858730996123	1.8855387	1.3731492
23.78776972078382	1.8648525	1.365596
23.80568130023431	1.8424884	1.3573829
23.823593469843495	1.8342605	1.3543488
23.841506230107424	1.877238	1.3701234
23.859419581522275	1.8840494	1.3726068
23.87733352458438	1.8829497	1.3722061
23.89524805979019	1.8719089	1.3681772
23.913163187636318	1.8836244	1.372452
23.931078908619508	1.9341381	1.3907329
23.948995223236633	2.0017998	1.4148498
23.966912131984735	2.0507715	1.4320515
23.98482963536096	2.082706	1.4431584
24.002747733862616	2.0792253	1.4419519
24.020666427987155	2.0455046	1.4302114
24.038585718232156	2.028754	1.4243433
24.056505605095353	2.0541718	1.4332383
24.074426089074617	2.1024442	1.4499807
24.092347170667946	2.0932293	1.4467996
24.110268850373515	2.0574322	1.4343752
24.128191128689586	2.0564787	1.4340428
24.146114006114626	2.0629911	1.4363116
24.164037483147187	2.0713177	1.4392073
24.181961560286005	2.0588703	1.4348764
24.199886238029926	2.0765207	1.4410138
24.21781151687797	2.0994248	1.4489392
24.235737397329274	2.0566921	1.4341172
24.253663879883135	2.0013251	1.414682
24.271590965038975	2.0098593	1.417695
24.289518653296376	2.0378733	1.427541
24.30744694515505	2.0479827	1.4310775
24.32537584111486	2.0295808	1.4246336
24.34330534167581	2.015315	1.4196179
24.361235447338046	1.9989938	1.4138577
24.379166158601876	1.9970909	1.4131846
24.39709747596772	2.0459242	1.430358
24.41502939993615	2.0646036	1.4368728
24.432961931007917	2.035884	1.426844
24.450895069683856	1.9964947	1.4129736
24.468828816465	1.9767494	1.4059693
24.4867631718525	1.9790016	1.40677
24.504698136347656	1.9266533	1.3880394
24.52263371045192	1.865929	1.3659902
24.540569894666874	1.8401518	1.356522
24.558506689494266	1.8513789	1.3606539
24.57644409543597	1.9113027	1.3824987
24.594382112994012	1.9220756	1.3863894
24.61232074267057	1.9268308	1.3881032
24.630259984967953	1.9478927	1.3956692
24.64819984038863	1.9493098	1.3961768
24.66614030943522	1.9593402	1.3997643
24.684081392610462	1.9489024	1.3960309
24.702023090417274	1.9534953	1.3976749
24.7199654033587	1.9903445	1.4107957
24.737908331937927	2.0028853	1.4152334
24.755851876658305	2.0066206	1.4165524
24.773796038023324	2.0236979	1.4225674
24.79174081653661	2.0882177	1.4450667
24.809686212701962	2.0900962	1.4457165
24.827632227023294	2.0549502	1.4335097
24.8455788600047	2.05054	1.4319707
24.8635261121504	2.087157	1.4446996
24.88147398396475	2.072128	1.4394888
24.899422475952303	2.0642548	1.4367515
24.917371588617698	2.0801632	1.4422771
24.935321322465768	2.1311734	1.4598539
24.953271678001478	2.2695296	1.5064958
24.97122265572994	2.510045	1.5843122
24.989174256156414	2.8891816	1.6997592
25.00712647978632	3.3527308	1.8310463
25.02507932712521	3.8479054	1.9616078
25.043032798678798	4.3141375	2.0770502
25.060986894952933	5.0023155	2.2365856
25.078941616453637	5.751563	2.3982418
25.096896963687055	6.6629624	2.5812714
25.114852937159508	7.7154183	2.7776642
25.132809537377444	8.110343	2.8478663
25.150766764847468	8.117159	2.849063
25.168724620076347	7.4663076	2.7324545
25.186683103570985	6.515379	2.552524
25.204642215838426	5.4002705	2.3238482
25.222601957385894	4.094544	2.023498
25.24056232872074	3.0770473	1.7541515
25.25852333035048	2.5135014	1.5854026
25.276484962782778	2.216465	1.4887797
25.294447226525435	2.0687878	1.4383281
25.312410122086423	2.0167475	1.4201224
25.330373649973843	1.9933606	1.4118643
25.348337810695988	1.9889413	1.4102983
25.366302604761245	1.9595064	1.3998237
25.384268032678207	1.9552008	1.3982849
25.40223409495558	1.9443631	1.3944042
25.420200792102257	1.9556726	1.3984537
25.438168124627246	1.9286299	1.3887511
25.45613609303974	1.9329174	1.390294
25.474104697849057	1.8828725	1.372178
25.492073939564698	1.9188813	1.3852369
25.510043818696285	1.9348127	1.3909755
25.528014335753614	1.9406792	1.3930826
25.54598549124664	1.9390342	1.392492
25.56395728568544	1.9035608	1.3796959
25.58192971958028	1.8827533	1.3721346
25.59990279344156	1.9220307	1.3863732
25.617876507779833	1.9397337	1.3927432
25.635850863105826	1.9225202	1.3865497
25.653825859930386	1.8869362	1.373658
25.671801498764548	1.8772285	1.3701199
25.68977778011949	1.8197383	1.3489767
25.707754704506524	1.842904	1.357536
25.725732272437153	1.8519534	1.360865
25.743710484423012	1.8458091	1.3586056
25.761689340975888	1.8392519	1.3561902
25.77966884260774	1.8249096	1.3508922
25.797648989830662	1.843458	1.35774
25.815629783156922	1.824289	1.3506625
25.83361122309895	1.7878088	1.3370897
25.85159331016929	1.8142213	1.3469303
25.869576044880695	1.8059919	1.343872
25.887559427746034	1.8276727	1.3519144
25.90554345927836	1.8928176	1.375797
25.92352813999086	1.9239795	1.3870759
25.94151347039689	1.8885046	1.3742287
25.959499451009965	1.8169518	1.3479435
25.97748608234374	1.8242427	1.3506453
25.995473364912062	1.8380345	1.3557413
26.013461299228904	1.8319621	1.3534999
26.03144988580839	1.8377488	1.3556359
26.04943912516483	1.8755414	1.3695041
26.067429017812675	1.9070873	1.3809733
26.085419564266537	1.9026532	1.379367
26.103410765041186	1.87574	1.3695766
26.12140262065155	1.8358362	1.3549303
26.139395131612723	1.8421968	1.3572755
26.157388298439948	1.8603398	1.3639427
26.17538212164861	1.851147	1.3605686
26.193376601754295	1.854231	1.3617015
26.211371739272714	1.8999968	1.3784037
26.229367534719746	1.9115369	1.3825834
26.247363988611433	1.8936046	1.3760831
26.26536110146397	1.8300611	1.3527975
26.283358873793727	1.7989117	1.3412352
26.301357306117204	1.7761954	1.3327398
26.319356398951104	1.8143675	1.3469846
26.33735615281224	1.8409942	1.3568324
26.35535656821762	1.8597792	1.3637372
26.373357645684404	1.8481067	1.3594509
26.39135938572991	1.7994782	1.3414463
26.409361788871614	1.755073	1.3247917
26.427364855627165	1.750834	1.3231908
26.445368586514352	1.7859931	1.3364105
26.46337298205115	1.8107846	1.345654
26.48137804275568	1.8379352	1.3557047
26.499383769146217	1.8166573	1.3478343
26.517390161741215	1.788741	1.3374382
26.53539722105928	1.7577304	1.3257942
26.553404947619182	1.7336453	1.3166797
26.571413341939856	1.7418644	1.3197972
26.589422404540397	1.7731973	1.3316145
26.60743213594006	1.8149196	1.3471895
26.62544253665827	1.8461436	1.3587286
26.64345360721459	1.8805134	1.3713181
26.66146534812879	1.9233712	1.3868566
26.679477759920758	1.949036	1.3960788
26.69749084311057	1.889577	1.3746189
26.71550459821847	1.824925	1.3508978
26.733519025764842	1.7888794	1.33749
26.751534126270258	1.8180073	1.348335
26.769549900255434	1.8161627	1.3476508
26.787566348241267	1.8321285	1.3535614
26.80558347074881	1.8040241	1.3431396
26.823601268299267	1.8259587	1.3512805
26.841619741414036	1.8455213	1.3584996
26.85963889061465	1.8161479	1.3476453
26.877658716422832	1.7999334	1.341616
26.89567921936045	1.8421115	1.357244
26.913700399949544	1.8425496	1.3574054
26.93172225871233	1.8368338	1.3552984
26.949744796171174	1.8274268	1.3518234
26.967768012848605	1.7931616	1.3390899
26.98579190926733	1.780556	1.3343748
27.003816485950225	1.769903	1.330377
27.021841743420318	1.7879723	1.3371508
27.039867682200814	1.7573917	1.3256665
27.057894302815072	1.7496595	1.322747
27.07592160578664	1.7601609	1.3267106
27.0939495916392	1.7729547	1.3315234
27.111978260896635	1.806318	1.3439933
27.13000761408296	1.7953539	1.3399081
27.148037651722397	1.793113	1.3390716
27.166068374339304	1.7865536	1.3366202
27.184099782458215	1.8309817	1.3531377
27.20213187660384	1.8228993	1.3501478
27.22016465730105	1.7798347	1.3341044
27.23819812507487	1.7519071	1.3235962
27.256232280450533	1.770941	1.330767
27.274267123953383	1.8023553	1.3425182
27.292302656108987	1.8438324	1.3578779
27.31033887744306	1.8759764	1.3696629
27.32837578848146	1.8888564	1.3743567
27.34641338975026	1.9283932	1.388666
27.364451681775673	1.9169995	1.3845575
27.382490665084074	1.864865	1.3656006
27.400530340202046	1.8612101	1.3642617
27.41857070765629	1.8651955	1.3657216
27.436611767973726	1.8613926	1.3643286
27.454653521681404	1.8186448	1.3485714
27.472695969306564	1.7964939	1.3403335
27.490739111376627	1.8222008	1.3498892
27.508782948419153	1.8348277	1.3545581
27.526827480961902	1.8103821	1.3455044
27.54487270953279	1.8122518	1.346199
27.562918634659898	1.8394581	1.3562663
27.580965256871508	1.8246807	1.3508074
27.599012576696026	1.8485159	1.3596014
27.617060594662068	1.824095	1.3505906
27.63510931129842	1.8382999	1.3558391
27.65315872713401	1.8339949	1.3542507
27.67120884269797	1.8587335	1.3633537
27.68925965851958	1.8510959	1.3605498
27.707311175128307	1.8925402	1.3756963
27.725363393053787	1.8822848	1.3719639
27.74341631282583	1.8701687	1.3675411
27.7614699349744	1.8823192	1.3719764
27.77952426002968	2.05725	1.4343117
27.797579288521973	2.0932796	1.446817
27.815635020981784	2.5249467	1.5890081
27.83369145793979	2.615844	1.6173571
27.85174859992682	2.5150993	1.5859065
27.869806447473923	2.3714674	1.5399569
27.887865001112267	2.0305154	1.4249616
27.905924261373233	1.8989623	1.3780284
27.92398422878836	1.901685	1.3790159
27.94204490388936	1.9110233	1.3823977
27.96010628720813	1.8656356	1.3658828
27.978168379276728	1.8708422	1.3677874
27.9962311806274	1.8813392	1.3716192
28.014294691792568	1.8883792	1.374183
28.0323589133048	1.8395777	1.3563104
28.050423845696887	1.7933974	1.3391778
28.068489489501758	1.809238	1.3450792
28.086555845252523	1.8712577	1.3679392
28.104622913482487	1.8955525	1.3767906
28.122690694725115	1.8904352	1.374931
28.14075918951405	1.9100914	1.3820605
28.15882839838312	1.8977782	1.3775986
28.176898321866304	1.8646169	1.3655097
28.1949689604978	1.8468045	1.3589718
28.213040314811945	1.8880161	1.374051
28.23111238534327	1.8908105	1.3750675
28.249185172626493	1.9313192	1.3897191
28.267258677196473	1.9550943	1.3982469
28.285332899588294	1.9525865	1.3973498
28.303407840337172	1.9272647	1.3882596
28.321483499978545	1.8904878	1.37495
28.33955987904799	1.913722	1.3833734
28.357636978081285	1.92485	1.3873897
28.37571479761439	1.9109046	1.3823547
28.393793338183425	1.8616223	1.3644128
28.41187260032469	1.8849255	1.3729259
28.429952584574686	1.9487262	1.3959678
28.448033291470065	1.9667201	1.402398
28.46611472154769	1.9738626	1.4049423
28.484196875344566	1.9322375	1.3900495
28.502279753397914	1.9263746	1.387939
28.52036335624511	1.9308891	1.3895644
28.538447684423716	1.9671307	1.4025444
28.556532738471482	1.997787	1.4134309
28.574618518926325	2.030165	1.4248385
28.59270502632635	2.0254648	1.4231882
28.61079226120985	1.9786301	1.4066379
28.628880224115274	2.0298283	1.4247204
28.646968915581287	2.0651717	1.4370705
28.66505833614671	2.0565562	1.4340698
28.68314848635055	2.0476863	1.4309739
28.701239366732004	2.0497963	1.431711
28.71933097783044	2.0059795	1.416326
28.737423320185403	2.0067997	1.4166156
28.75551639433665	2.0562189	1.4339522
28.773610200824074	2.086552	1.4444902
28.791704740187793	2.0848157	1.4438891
28.80980001296809	2.0967054	1.4480006
28.827896019705413	2.1599624	1.469681
28.845992760940433	2.216126	1.4886658
28.86409023721397	2.2081409	1.4859815
28.88218844906704	2.2383454	1.4961101
28.900287397040845	2.2613702	1.5037853
28.918387081676755	2.2715714	1.5071733
28.936487503516343	2.2587297	1.502907
28.954588663101365	2.2634234	1.5044678
28.97269056097374	2.274665	1.5081993
28.990793197675597	2.362669	1.5370976
29.00889657374923	2.4347527	1.5603694
29.027000689737125	2.4085743	1.5519582
29.04510554618196	2.4324143	1.5596199
29.06321114362659	2.4550898	1.5668726
29.08131748261405	2.4680111	1.5709904
29.099424563687567	2.5031517	1.5821352
29.11753238739057	2.5693314	1.6029134
29.13564095426663	2.5764456	1.605131
29.15375026485954	2.5758405	1.6049426
29.171860319713275	2.5676868	1.6024003
29.18997111937199	2.6114933	1.6160115
29.20808266438002	2.6524293	1.628628
29.226194955281898	2.6984463	1.6426948
29.244307992622335	2.7077243	1.6455164
29.26242177694624	2.7600331	1.6613348
29.2805363087987	2.8579426	1.6905451
29.29865158872498	2.9208825	1.709059
29.316767617270557	2.9916794	1.7296472
29.334884394981064	3.0124407	1.7356384
29.353001922402367	2.989702	1.7290754
29.37112020008047	3.0666268	1.7511787
29.389239228561596	3.2010124	1.7891374
29.407359008392152	3.34949	1.8301612
29.42547954011872	3.7323313	1.9319242
29.44360082428809	4.5165052	2.1252072
29.46172286144722	5.645613	2.37605
29.479845652143283	7.302873	2.7023828
29.497969196923606	9.442315	3.072835
29.516093496335728	12.005636	3.464915
29.5342185509274	14.629228	3.8248174
29.55234436124651	16.676378	4.083672
29.570470927841175	17.6553	4.201821
29.588598251259686	17.228376	4.1507077
29.60672633205055	15.842002	3.9802012
29.624855170762405	13.722523	3.7043924
29.642984767944146	11.0797	3.3286183
29.66111512414481	8.372484	2.8935246
29.67924623991366	6.2565694	2.5013134
29.697378115800138	4.910645	2.2159975
29.71551075235387	4.133449	2.0330884
29.733644150124675	3.7011359	1.9238336
29.751778309662576	3.4379025	1.8541582
29.769913231517766	3.29293	1.8146431
29.78804891624066	3.3280585	1.8242967
29.806185364381818	3.3118107	1.819838
29.82432257649206	3.3489282	1.8300077
29.842460553122333	3.381517	1.8388902
29.86059929482382	3.293164	1.8147076
29.878738802147872	3.217344	1.7936957
29.896879075646048	3.231467	1.7976282
29.915020115870114	3.2384446	1.7995679
29.933161923371976	3.230459	1.7973478
29.951304498703777	3.258668	1.805178
29.969447842417857	3.3240564	1.8231995
29.987591955066733	3.2806497	1.8112564
30.005736837203123	3.229803	1.7971653
30.023882489379943	3.2125177	1.7923498
30.04202891215028	3.189306	1.7858628
30.060176106067455	3.2228618	1.795233
30.078324071684946	3.2168734	1.7935644
30.09647280955646	3.1543565	1.7760508
30.114622320235863	3.0540972	1.7475976
30.132772604277257	3.0754554	1.7536976
30.1509236622349	3.1944869	1.7873127
30.16907549466328	3.1709464	1.7807151
30.18722810211705	3.0497367	1.7463496
30.205381485151097	2.9758472	1.7250644
30.22353564432045	2.972669	1.7241429
30.241690580180403	3.0033755	1.733025
30.25984629328638	3.0627966	1.7500848
30.278002784194037	3.094317	1.759067
30.296160053459246	3.0839982	1.7561316
30.314318101638033	3.1019762	1.7612427
30.332476929286646	3.06083	1.7495228
30.35063653696153	3.0321605	1.74131
30.368796925219307	2.9527233	1.718349
30.386958094616844	2.9709723	1.7236508
30.40512004571115	2.9400256	1.7146503
30.423282779059463	2.8525455	1.688948
30.441446295219233	2.8400517	1.6852453
30.459610594748067	2.8953383	1.7015693
30.47777567820382	2.9237456	1.7098963
30.495941546144504	2.877542	1.696332
30.51410819912835	2.7865598	1.6692992
30.532275637713795	2.803987	1.674511
30.55044386245946	2.7908697	1.6705897
30.56861287392416	2.771084	1.6646574
30.586782672666956	2.7920074	1.6709301
30.604953259247047	2.7959428	1.6721073
30.623124634223885	2.8176734	1.6785927
30.641296798157075	2.840522	1.6853849
30.659469751606462	2.8412025	1.6855867
30.677643495132074	2.802525	1.6740744
30.695818029294152	2.754249	1.6595931
30.713993354653116	2.8196354	1.679177
30.73216947176962	2.8287783	1.6818972
30.75034638120448	2.7331064	1.6532109
30.768524083518756	2.7157283	1.6479467
30.786702579273673	2.78026	1.6674112
30.80488186903069	2.880593	1.697231
30.82306195335144	2.9854	1.727831
30.841242832797782	3.1351082	1.7706237
30.85942450793176	3.4085734	1.8462322
30.877606979315637	3.752658	1.9371778
30.895790247511883	4.1267676	2.0314448
30.913974313083134	4.461115	2.1121352
30.932159176592283	4.765603	2.183026
30.95034483860237	4.791105	2.1888592
30.968531299676698	4.5569587	2.1347034
30.98671856037873	4.2510962	2.0618186
31.00490662127215	3.905835	1.9763185
31.023095482920848	3.436245	1.8537111
31.04128514588892	2.9690943	1.723106
31.059475610740662	2.7583888	1.6608398
31.07766687804056	2.6441147	1.6260734
31.09585894835335	2.5687633	1.6027362
31.11405182224393	2.5236359	1.5885955
31.132245500277417	2.4842584	1.576153
31.15043998301914	2.4199631	1.555623
31.168635271034628	2.420428	1.5557725
31.18683136488964	2.468813	1.5712457
31.20502826515008	2.4597864	1.5683706
31.223225972382135	2.4474492	1.5644325
31.241424487152155	2.3580248	1.5355861
31.259623810026692	2.3114417	1.5203426
31.27782394157253	2.3752642	1.5411892
31.296024882356644	2.3618014	1.5368153
31.314226632946237	2.2948925	1.5148903
31.332429193908684	2.3280344	1.5257897
31.350632565811598	2.4136496	1.5535924
31.368836749222787	2.4545422	1.5666978
31.387041744710295	2.5146244	1.5857567
31.40524755284232	2.6293654	1.6215318
31.423454174187317	2.6683285	1.6335019
31.441661609313922	2.6356018	1.6234536
31.459869858791002	2.4955056	1.5797169
31.478078923187628	2.3619459	1.5368624
31.496288803073064	2.3301249	1.5264746
31.514499499016807	2.3049147	1.5181946
31.532711011588546	2.2817056	1.5105315
31.550923341358178	2.26603	1.5053339
31.56913648889584	2.3215568	1.5236655
31.587350454771844	2.3349504	1.5280545
31.605565239556732	2.2730765	1.5076725
31.62378084382127	2.1989856	1.4828976
31.641997268136382	2.1754816	1.4749514
31.660214513073274	2.289432	1.5130869
31.67843257920331	2.3871784	1.5450497
31.6966514670981	2.2644346	1.5048038
31.71487117732944	2.140072	1.4628985
31.733091710469346	2.2108088	1.4868789
31.751313067090052	2.276908	1.5089426
31.769535247764008	2.3035393	1.5177416
31.787758253063878	2.3082654	1.5192977
31.805982083562526	2.3481615	1.5323712
31.824206739833024	2.315416	1.5216491
31.84243222244869	2.3392081	1.529447
31.860658531983013	2.3120732	1.5205503
31.878885669009737	2.306859	1.5188347
31.897113634102784	2.2770286	1.5089827
31.91534242783632	2.24206	1.4973509
31.933572050784694	2.2262828	1.4920733
31.951802503522508	2.1840227	1.4778439
31.970033786624548	2.130322	1.4595623
31.988265900665834	2.1503181	1.4663963
32.006498846221575	2.2075598	1.485786
32.02473262386724	2.2238057	1.491243
32.04296723417845	2.13398	1.4608148
32.0612026777311	2.1167183	1.4548945
32.07943895510129	2.1496193	1.466158
32.097676066865304	2.1896694	1.4797531
32.115914013599685	2.164739	1.4713051
32.13415279588115	2.1170309	1.4550021
32.152392414286666	2.0916686	1.4462602
32.1706328693934	2.1198	1.4559534
32.18887416177875	2.1268005	1.4583554
32.20711629202032	2.2074704	1.4857558
32.225359260695924	2.2189746	1.4896224
32.243603068383614	2.0708985	1.4390616
32.26184771566166	2.02854	1.4242682
32.28009320310852	2.1487687	1.4658679
32.2983395313029	2.1422167	1.4636314
32.31658670082372	2.1574204	1.468816
32.33483471225012	2.1997077	1.4831412
32.35308356616143	2.175294	1.4748877
32.371333263137245	2.04209	1.4290171
32.38958380375734	2.010356	1.4178702
32.407835188601744	2.1184814	1.4555004
32.42608741825067	2.1113176	1.4530374
32.444340493284585	2.0725987	1.4396523
32.46259441428416	2.1001577	1.449192
32.48084918183028	2.1126707	1.4535029
32.49910479650405	2.1390548	1.4625508
32.51736125888683	2.1094542	1.452396
32.53561856956014	2.094306	1.4471717
32.5538767291058	1.9663212	1.4022558
32.572135738105764	1.9701847	1.4036326
32.59039559714228	2.068967	1.4383905
32.608656306797776	2.1828098	1.4774336
32.62691786765491	2.2083926	1.4860661
32.645180280296586	2.1923883	1.4806715
32.663443545305896	2.166908	1.4720421
32.68170766326619	2.0886936	1.4452313
32.69997263476099	2.0420222	1.4289935
32.7182384603741	1.9472606	1.3954428
32.7365051406895	1.9499145	1.3963934
32.75477267629144	2.0103	1.4178505
32.77304106776434	2.0627325	1.4362216
32.79131031569289	2.0238793	1.4226311
32.809580420661966	1.9828583	1.4081401
32.827851383256714	2.0572603	1.4343152
32.84612320406245	2.0057273	1.416237
32.86439588366476	2.0262225	1.4234544
32.88266942264945	2.0701168	1.4387901
32.9009438216025	2.058014	1.434578
32.9192190811102	2.0045996	1.4158388
32.937495201758985	1.9706751	1.4038074
32.95577218413556	1.8902162	1.3748513
32.974050028826866	1.9048626	1.3801676
32.992328736420035	1.9996092	1.4140754
33.010608307502444	2.1286092	1.4589754
33.02888874266169	2.0623505	1.4360886
33.047170042485604	2.0245185	1.4228557
33.06545220756225	2.0388258	1.4278746
33.083735238479896	2.0380397	1.4275993
33.10201913582707	2.027202	1.4237984
33.12030390019248	1.9620894	1.400746
33.138589532165135	1.9135517	1.3833119
33.15687603233419	1.9408721	1.3931519
33.17516340128909	2.0824592	1.4430728
33.19345163961947	2.1106493	1.4528074
33.211740747915215	2.0234342	1.4224746
33.23003072676643	2.017429	1.4203624
33.248321576763466	2.033744	1.426094
33.266613298496885	1.9484528	1.39587
33.28490589255747	1.8783853	1.3705419
33.30319935953626	1.9733026	1.4047428
33.32149370002451	2.040059	1.4283063
33.339788914613706	1.9751244	1.4053912
33.358085003895575	1.9303263	1.3893619
33.376381968462034	1.9361229	1.3914464
33.39467980890529	1.911447	1.382551
33.41297852581774	1.8726751	1.3684572
33.43127811979204	1.8760209	1.3696791
33.44957859142105	1.9154581	1.3840008
33.467879941297866	1.9906528	1.410905
33.486182170015844	1.9155186	1.3840226
33.50448527816853	1.8859327	1.3732927
33.522789266349754	1.9370584	1.3917825
33.541094135153514	2.011069	1.4181217
33.55939988517411	2.0688527	1.4383507
33.57770651700602	2.080573	1.4424192
33.59601403124398	2.1220345	1.4567205
33.61432242848296	2.07608	1.4408609
33.632631709318154	2.0169437	1.4201914
33.650941874344994	1.7961705	1.3402128
33.66925292415916	1.7394642	1.3188875
33.68756485935654	1.8437194	1.3578362
33.70587768053328	1.9663539	1.4022675
33.724191388285746	1.8991699	1.3781037
33.74250598321054	1.8606766	1.3640662
33.760821465904506	1.8401914	1.3565365
33.77913783696474	1.8008116	1.3419433
33.79745509698852	1.8509209	1.3604856
33.815773246573414	1.9384043	1.3922659
33.8340922863172	1.8973455	1.3774416
33.852412216817896	1.9681678	1.402914
33.87073303867377	1.957412	1.3990754
33.889054752483304	1.9409074	1.3931645
33.907377358845245	1.9261805	1.387869
33.92570085835853	1.9203174	1.3857552
33.94402525162239	1.8528099	1.3611796
33.96235053923627	2.0062	1.4164039
33.980676721799824	2.053176	1.4328908
33.999003799912984	1.976865	1.4060104
34.01733177417592	1.866975	1.366373
34.03566064518901	1.9933118	1.4118469
34.0539904135529	2.0919158	1.4463457
34.07232107986846	2.0699966	1.4387482
34.090652644736785	2.0330725	1.4258585
34.108985108759235	1.9301279	1.3892905
34.12731847253742	1.8984914	1.3778576
34.14565273667313	1.8837864	1.372511
34.16398790176847	1.8740802	1.3689705
34.18232396842574	1.8992847	1.3781453
34.20066093724749	1.9851811	1.4089645
34.21899880883651	1.988496	1.4101404
34.23733758379583	1.8526922	1.3611364
34.25567726272874	1.8060638	1.3438988
34.27401784623872	1.842976	1.3575625
34.29235933492957	1.965972	1.4021312
34.31070172940526	2.00703	1.4166969
34.32904503027003	2.0166054	1.4200723
34.347389238128386	2.0530531	1.4328479
34.36573435358502	2.072337	1.4395614
34.38408037724492	2.0584545	1.4347315
34.402427309713296	2.0290096	1.4244331
34.42077515159559	2.1307676	1.4597149
34.43912390349752	2.1792915	1.4762423
34.45747356602499	2.0561235	1.433919
34.47582413978423	2.0121539	1.4185041
34.49417562538163	2.1490688	1.4659703
34.51252802342388	2.1383111	1.4622965
34.53088133451789	2.0392265	1.4280149
34.54923555927084	1.9525577	1.3973395
34.567590698290104	1.8793466	1.3708926
34.58594675218336	1.9023191	1.3792459
34.6043037215585	1.9292384	1.3889703
34.62266160702365	2.018017	1.4205693
34.641020409187234	2.0210261	1.421628
34.65938012865785	2.0615678	1.435816
34.677740766044394	2.0816069	1.4427775
34.69610232195598	2.0838928	1.4435694
34.714464797002016	2.1079671	1.451884
34.73282819179208	2.0184445	1.4207197
34.751192506936064	1.9074107	1.3810904
34.76955774304408	1.8663989	1.3661621
34.7879239007265	1.7028515	1.3049335
34.80629098059391	1.6933836	1.3013008
34.824658983257194	1.90051	1.3785899
34.843027909327446	2.106408	1.451347
34.86139775941603	1.9778619	1.4063648
34.879768534134534	1.9381609	1.3921784
34.89814023409483	1.9710077	1.4039258
34.91651285990901	1.9599545	1.3999838
34.93488641218944	1.949405	1.3962109
34.95326089154871	1.8662622	1.3661121
34.97163629859967	2.0136075	1.4190164
34.99001263395542	2.0730226	1.4397995
35.00838989822934	2.0048048	1.4159113
35.02676809203499	1.8668594	1.3663306
35.04514721598624	1.9549892	1.3982093
35.063527270697215	2.0454078	1.4301776
35.081908256782256	2.0776331	1.4413997
35.10029017485597	1.8895069	1.3745934
35.11867302553321	1.8679012	1.3667119
35.137056809429104	2.041712	1.4288849
35.155441527159006	1.8696427	1.3673488
35.173827179338524	1.6169116	1.2715784
35.19221376658354	1.515366	1.231002
35.21060128951017	1.7629403	1.3277576
35.2289897487348	1.909518	1.3818531
35.24737914487405	1.9761887	1.4057698
35.26576947854479	2.181695	1.4770561
35.28416075036418	2.1821382	1.4772062
35.30255296094958	1.9757357	1.4056087
35.32094611091867	1.735932	1.3175477
35.33934020088932	2.0154126	1.4196522
35.35773523147969	2.2707355	1.506896
35.3761312033082	2.1514254	1.4667737
35.394528116993506	2.3050563	1.5182412
35.41292597315452	2.5705674	1.6032989
35.431324772410434	2.8460767	1.687032
35.449724515380666	2.822251	1.6799557
35.46812520268491	2.5319188	1.5912005
35.486526834943106	2.216841	1.488906
35.504929412775454	2.20291	1.4842203
35.52333293680242	2.6535895	1.6289842
35.54173740764471	2.317599	1.5223663
35.560142825923286	1.5613835	1.2495533
35.5785491922594	1.5651382	1.2510549
35.59695650727454	1.7441723	1.3206712
35.61536477159042	2.8211615	1.6796314
