0.008763373481513119	0.0	0.0
0.026290120649546365	0.0	0.0
0.043816868432600686	0.0	0.0
0.06134361724069026	0.0	0.0
0.07887036748382949	0.0	0.0
0.0963971195720331	0.0	0.0
0.11392387391531617	0.045735195	0.21385789
0.1314506309236943	0.07962068	0.28217137
0.1489773910071836	0.070141725	0.26484284
0.16650415457580078	0.053998925	0.2323767
0.18403092203956356	0.050020117	0.22365178
0.20155769380849	0.117959306	0.34345204
0.2190844702925996	0.19501205	0.4416017
0.2366112519019124	0.20771411	0.45575663
0.2541380390464497	0.20144269	0.44882366
0.27166483213623416	0.1766119	0.42025217
0.28919163158128947	0.14730564	0.38380417
0.3067184377916406	0.16973197	0.4119854
0.324245251177314	0.19459623	0.44113064
0.34177207214833777	0.20056254	0.4478421
0.3592989011147415	0.19221044	0.43841812
0.37682573848655654	0.15606993	0.39505687
0.39435258467381573	0.15279298	0.3908874
0.41187944008655414	0.18347456	0.4283393
0.42940630513480854	0.19013722	0.43604726
0.446933180228618	0.15160182	0.3893608
0.4644600657780234	0.14100914	0.37551183
0.48198696219306775	0.13176337	0.36299226
0.49951386988379676	0.1341454	0.36625865
0.5170407892602581	0.15259719	0.3906369
0.5345677207325025	0.14915761	0.38620928
0.5520946647105822	0.13283671	0.3644677
0.5696216216045534	0.15372224	0.3920743
0.5871485918244737	0.16155797	0.40194276
0.6046755757804043	0.17776193	0.42161822
0.6222025738824094	0.20554966	0.45337585
0.6397295865405557	0.17680398	0.42048064
0.6572566141649129	0.17876446	0.42280546
0.6747836571655547	0.1764645	0.4200768
0.6923107159525568	0.18963297	0.43546867
0.7098377909359992	0.17967442	0.4238802
0.7273648825259653	0.18172346	0.42629033
0.7448919911325411	0.21345732	0.4620144
0.762419117165817	0.26605964	0.5158097
0.7799462610358868	0.30074704	0.5484041
0.7974734231528482	0.29453018	0.5427064
0.8150006039268024	0.22731666	0.47677737
0.8325278037678551	0.17288454	0.41579387
0.8500550230861152	0.16908717	0.4112021
0.8675822622916969	0.15594879	0.3949035
0.8851095217947171	0.18789057	0.43346345
0.9026368020052984	0.22574581	0.47512716
0.9201641033335665	0.24959698	0.49959683
0.9376914261896523	0.24657278	0.49656096
0.9552187709836915	0.27799544	0.52725273
0.9727461381258234	0.24823357	0.49823043
0.990273528026193	0.22072963	0.4698187
1.0078009410949496	0.22007006	0.46911627
1.0253283777422473	0.2674848	0.5171893
1.0428558383782454	0.33336443	0.5773772
1.0603833234131086	0.3488387	0.5906257
1.0779108332570058	0.33038267	0.5747892
1.0954383683201119	0.34749016	0.58948296
1.112965929012607	0.39097446	0.6252795
1.1304935157446763	0.52549165	0.72490805
1.1480211289265108	0.58762634	0.7665679
1.1655487689683062	1.433038	1.1970956
1.1830764362802655	1.6974984	1.3028809
1.200604131272596	2.103604	1.4503807
1.2181318543555117	2.3861568	1.544719
1.235659605939232	2.3965127	1.5480675
1.253187386433982	3.8867972	1.9714962
1.270715196249994	6.2459826	2.4991963
1.2882430357975057	11.7447405	3.4270601
1.3057709054867608	16.502645	4.062345
1.3232988057280106	22.338095	4.7263193
1.3408267369315112	27.283688	5.223379
1.358354699507526	30.618856	5.5334306
1.3758826938663256	34.609158	5.8829546
1.3934107204181858	36.2271	6.018895
1.410938779573391	36.660835	6.054819
1.4284668717422309	37.769253	6.1456695
1.4459949973350033	37.61217	6.1328764
1.4635231567620117	37.837284	6.1512017
1.4810513504335687	36.94801	6.0784874
1.4985795787599925	35.79521	5.98291
1.5161078421516088	35.409927	5.950624
1.5336361410187505	34.631863	5.8848844
1.5511644757717598	34.6729	5.88837
1.5686928468209842	35.350807	5.9456544
1.58622125457678	35.62018	5.968264
1.6037496994495108	36.50511	6.041946
1.621278181849548	36.382603	6.0317993
1.6388067021872719	37.29921	6.107308
1.6563352608730693	37.15436	6.095438
1.673863858317336	36.34976	6.029076
1.6913924949304753	35.51014	5.9590383
1.7089211711228998	34.599773	5.8821573
1.7264498873050296	33.56073	5.7931623
1.7439786438872935	32.709755	5.7192445
1.7615074412801288	31.477558	5.6104865
1.779036279893981	30.765995	5.5467105
1.796565160139305	29.803936	5.459298
1.814094082426564	29.273438	5.4104934
1.8316230471662298	28.8408	5.370363
1.849152054768784	28.415216	5.3305926
1.8666811056447168	27.925306	5.28444
1.8842102002045273	26.958025	5.192112
1.901739338858724	26.323317	5.1306252
1.9192685220178245	25.40958	5.0407915
1.9367977500923557	24.950468	4.995044
1.9543270234928547	24.755144	4.9754543
1.971856342629867	24.19605	4.918948
1.9893857079139496	23.502436	4.847931
2.006915119755667	22.915123	4.7869744
2.0244445785655945	22.307579	4.72309
2.0419740847543175	21.739588	4.662573
2.0595036387324317	21.058699	4.588976
2.0770332409105414	20.587679	4.537365
2.094562891699263	20.377563	4.5141516
2.1120925915092217	19.978815	4.4697666
2.129622340751053	19.734396	4.4423413
2.1471521398354043	188.04088	13.7128
2.1646819891729323	444.33823	21.079332
2.182211889174303	440.5076	20.988274
2.1997418402501974	452.5963	21.274311
2.2172718428113023	432.52774	20.7973
2.234801897268317	320.76425	17.909893
2.2523320040319548	17.29175	4.158335
2.269862163512935	16.856438	4.105659
2.287392376121992	16.387486	4.048146
2.304922642269869	16.14854	4.0185246
2.322452962367322	15.8293	3.9786053
2.3399833368251164	15.49182	3.935965
2.357513766054032	15.248128	3.904885
2.3750442504648586	14.914739	3.8619604
2.3925747904683963	14.804579	3.8476717
2.410105386475459	14.585034	3.8190358
2.4276360388968707	14.208907	3.7694705
2.445166748143469	14.015698	3.7437546
2.4626975146261025	13.654916	3.6952558
2.4802283387556323	13.360189	3.6551592
2.4977592209429305	13.158265	3.6274323
2.5152901615988825	12.889898	3.5902505
2.5328211611343865	12.905922	3.5924814
2.5503522199603523	12.783259	3.5753684
2.5678833384877024	12.774288	3.5741136
2.5854145171273712	12.488864	3.5339587
2.6029457562903064	12.141903	3.4845233
2.620477056387469	11.796298	3.434574
2.6380084178298326	11.71538	3.4227736
2.655539841028383	11.76246	3.4296443
2.673071326394119	11.791591	3.4338887
2.6906028743380523	11.681655	3.4178436
2.708134485271211	11.483462	3.3887258
2.7256661596046325	11.259503	3.3555183
2.743197897749369	10.8998785	3.3014965
2.760729700116486	10.622524	3.2592213
2.778261567117063	10.390412	3.2234163
2.795793499162193	10.182243	3.1909628
2.8133254966629817	10.169937	3.189034
2.830857560030551	9.932385	3.1515687
2.8483896896760337	9.817219	3.133244
2.865921886010578	9.560442	3.0919964
2.883454149445347	9.326995	3.054013
2.9009864803915177	9.155801	3.0258553
2.91851887926028	9.004512	3.000752
2.9360513464628384	9.0687685	3.0114396
2.953583882410413	8.942128	2.990339
2.9711164875142373	8.975886	2.9959784
2.9886491621855606	8.770578	2.9615161
3.0061819068356455	8.624111	2.9366837
3.023714721875769	8.48729	2.9132955
3.041247607717225	8.398278	2.8979783
3.0587805647713213	8.366711	2.8925266
3.0763135934493806	8.288304	2.8789415
3.0938466941627407	8.132866	2.851818
3.1113798673227544	7.932779	2.816519
3.1289131133407904	7.8298364	2.7981844
3.1464464326282315	7.892611	2.809379
3.1639798255964786	7.842391	2.800427
3.1815132926569443	7.6695194	2.7693896
3.1990468342210603	7.5059204	2.7396934
3.216580450700272	7.346233	2.7103934
3.2341141425060416	7.297784	2.701441
3.251647910049847	7.178952	2.6793566
3.2691817537431813	7.078109	2.6604714
3.286715673997555	7.1074514	2.6659803
3.3042496712244938	7.0390253	2.6531162
3.32178374583554	6.981397	2.6422334
3.339317898242251	6.8938904	2.6256218
3.3568521288562034	6.864081	2.619939
3.3743864380889876	6.867466	2.620585
3.3919208263522127	6.8207536	2.6116571
3.4094552940575023	6.7341247	2.595019
3.4269898416164972	6.7319303	2.5945964
3.444524469440858	6.631987	2.5752645
3.4620591779422587	6.5420337	2.55774
3.479593967532391	6.488232	2.547201
3.4971288386229658	6.4789166	2.5453715
3.5146637916257086	6.53429	2.5562258
3.5321988269523628	6.431896	2.5361183
3.5497339450146903	6.404472	2.5307057
3.5672691462244708	6.3788652	2.5256414
3.5848044309934988	6.3450294	2.5189342
3.60233979973359	6.2935996	2.5087047
3.619875252856575	6.2762127	2.505237
3.6374107907743034	6.2536373	2.5007274
3.6549464138986427	6.317797	2.5135229
3.6724821226414788	6.3767123	2.5252154
3.690017917414714	6.3598614	2.5218766
3.7075537986302702	6.2863727	2.507264
3.7250897667000857	6.3158665	2.5131388
3.7426258220361235	6.5377474	2.556902
3.7601619650503553	6.9671855	2.6395426
3.777698196154779	7.574186	2.7521238
3.7952345157614067	8.564337	2.9264889
3.8127709242822716	9.284898	3.047113
3.830307422129425	11.497695	3.390825
3.847844009714936	30.225172	5.4977427
3.8653806874508954	97.76274	9.887505
3.882917455749409	97.00006	9.848861
3.900454315022606	96.93184	9.845397
3.917991265682631	41.454437	6.438512
3.9355283081416506	11.016202	3.3190665
3.9530654428118495	8.714631	2.9520555
3.970602670105433	7.4955215	2.737795
3.9881399904346244	6.7003922	2.5885117
4.005677404211669	6.618195	2.5725853
4.023214911848827	6.534877	2.5563405
4.0407525137583855	6.387617	2.5273736
4.058290210352644	6.3225303	2.5144641
4.075828002043927	6.235627	2.4971237
4.0933658892445814	6.17141	2.4842322
4.110903872366966	6.1289883	2.4756794
4.128441951823468	6.0341806	2.456457
4.145980128026488	5.9963174	2.4487379
4.163518401388452	6.0021334	2.4499252
4.181056772321807	6.051336	2.4599464
4.1985952412390155	6.0891123	2.4676127
4.216133808552567	6.136006	2.4770963
4.233672474674966	6.3107047	2.5121117
4.251211240018741	6.553393	2.5599597
4.268750104996445	6.713421	2.591027
4.286289070020643	7.504828	2.739494
4.303828135503928	9.018026	3.003003
4.3213673018589125	29.19786	5.4035044
4.3389065694982305	90.501144	9.513209
4.356445938834537	165.9294	12.881358
4.3739854102805085	171.56325	13.098215
4.391524984248844	172.47285	13.132892
4.409064661152262	136.33379	11.676206
4.426604441403504	96.49517	9.823195
4.444144325415337	75.53193	8.69091
4.461684313600543	21.698534	4.6581683
4.47922440637193	22.224373	4.7142735
4.496764604142329	20.638973	4.5430136
4.5143049073245916	18.815454	4.3376784
4.531845316331589	16.603027	4.0746813
4.5493858315762195	13.616691	3.69008
4.566926453471405	11.116397	3.334126
4.584467182430081	8.986316	2.9977183
4.602008018865218	7.8990097	2.8105178
4.619548963189798	7.329851	2.7073698
4.637090015816834	6.919099	2.630418
4.654631177159353	6.6623373	2.5811503
4.672172447630417	6.431233	2.5359876
4.689713827643102	6.2774997	2.5054939
4.7072553176105085	6.0796905	2.4657028
4.724796917945764	5.919228	2.4329464
4.742338629062015	5.8695836	2.4227223
4.759880451372434	5.772974	2.4027014
4.777422385290215	5.6957765	2.3865826
4.794964431228581	5.635	2.3738155
4.812506589600768	5.586926	2.363668
4.830048860820047	5.5655923	2.3591506
4.847591245299709	5.4694905	2.338694
4.8651337434530655	5.4169903	2.327443
4.882676355693457	5.4683595	2.3384523
4.900219082434242	5.5981092	2.3660324
4.917761924088813	5.594845	2.3653424
4.935304881070575	5.5001802	2.3452463
4.952847953792969	5.4289603	2.330013
4.970391142669449	5.4317417	2.3306098
4.9879344481135055	5.4674397	2.3382556
5.005477870538642	5.469864	2.338774
5.023021410358394	5.46948	2.338692
5.040565067986324	5.5349402	2.3526454
5.05810884383601	5.587618	2.3638144
5.075652738321066	5.537189	2.3531232
5.09319675185512	5.404323	2.32472
5.110740884851836	5.3967786	2.3230968
5.128285137724894	5.432999	2.3308794
5.145829510888007	5.4306445	2.3303742
5.163374004754908	5.33778	2.3103635
5.1809186197393595	5.244318	2.2900476
5.198463356255145	5.235778	2.2881823
5.216008214716077	5.2694387	2.2955258
5.233553195535998	5.282505	2.2983701
5.251098299128764	5.23173	2.2872975
5.268643525908272	5.210399	2.28263
5.286188876288432	5.148786	2.2690938
5.3037343506831895	5.1221566	2.2632182
5.32127994950651	5.139896	2.267134
5.3388256731723915	5.1268435	2.2642534
5.356371522094851	5.190954	2.2783666
5.373917496687938	5.168804	2.2735004
5.391463597365729	5.2087083	2.2822595
5.40900982454232	5.221906	2.285149
5.426556178631843	5.249507	2.2911801
5.444102660048449	5.13784	2.2666802
5.4616492692063225	5.0871787	2.2554774
5.479196006519669	5.070979	2.2518835
5.496742872402727	5.0772734	2.2532806
5.514289867269756	5.0732627	2.2523904
5.531836991535049	5.092024	2.2565513
5.549384245612924	5.150618	2.2694974
5.566931629917724	5.232991	2.287573
5.584479144863822	5.214415	2.2835095
5.6020267908656205	5.144209	2.2680848
5.619574568337545	5.0623755	2.2499723
5.637122477694054	5.0859246	2.2551994
5.654670519349629	5.1141706	2.2614532
5.672218693718784	5.1618137	2.2719626
5.689767001216059	5.1471725	2.268738
5.707315442256021	5.1063	2.2597125
5.724864017253266	5.108852	2.260277
5.7424127266224225	5.064211	2.2503803
5.75996157077814	5.1222343	2.2632353
5.777510550135105	5.210583	2.2826703
5.795059665108022	5.2095	2.2824328
5.812608916111639	5.196218	2.2795215
5.830158303560715	5.258775	2.293202
5.847707827870055	5.3397336	2.3107862
5.86525748945448	5.413123	2.326612
5.8828072887288485	5.5617037	2.3583264
5.900357226108044	5.6353993	2.3738997
5.917907302006979	5.613692	2.369323
5.9354575168406	6.1292562	2.4757335
5.9530078710238765	6.7179313	2.5918972
5.970558364971812	7.3382273	2.7089162
5.988108999099438	7.8104987	2.7947268
6.005659773821818	8.451919	2.9072185
6.023210689554039	8.117759	2.849168
6.040761746711227	8.424555	2.9025083
6.058312945708531	7.6803145	2.771338
6.075864286961132	7.2140183	2.6858926
6.093415770884244	6.6540647	2.5795474
6.1109673978931065	6.124898	2.474853
6.128519168402993	5.476237	2.340136
6.146071082829204	5.285408	2.2990015
6.163623141587075	5.217578	2.2842019
6.181175345091969	5.274995	2.2967358
6.198727693759281	5.267727	2.295153
6.216280188004435	5.283538	2.2985947
6.233832828242885	5.2276154	2.286398
6.251385614890126	5.2413096	2.2893906
6.268938548361669	5.147383	2.2687845
6.286491629073067	5.01256	2.2388747
6.304044857439898	4.9644365	2.2281015
6.321598233877777	4.956014	2.2262108
6.339151758802344	5.022541	2.2411027
6.356705432629277	5.0796404	2.2538059
6.37425925577428	5.066078	2.2507951
6.391813228653095	5.0120473	2.2387602
6.409367351681486	5.013229	2.2390242
6.426921625275259	5.035122	2.2439077
6.44447604985025	5.0403113	2.2450638
6.46203062582232	5.035987	2.2441006
6.47958535360737	5.006472	2.2375147
6.497140233621328	5.0575786	2.2489061
6.514695266280161	4.9953947	2.235038
6.532250451999859	5.002545	2.2366369
6.549805791196454	4.965494	2.228339
6.567361284286002	5.035665	2.2440288
6.584916931684597	5.0821915	2.2543716
6.602472733808367	5.0651813	2.2505958
6.6200286910734665	5.0283256	2.2423928
6.637584803896092	4.9700956	2.229371
6.655141072692462	4.926156	2.2194946
6.672697497878842	4.9441566	2.223546
6.690254079871514	4.975102	2.2304935
6.707810819086808	5.0362353	2.244156
6.725367715941078	5.065022	2.2505603
6.742924770850719	5.0280104	2.2423224
6.760481984232151	4.9562073	2.226254
6.778039356501836	4.9166265	2.2173467
6.795596888076266	4.9318037	2.2207665
6.813154579371963	4.98396	2.2324784
6.830712430805492	4.913923	2.216737
6.84827044279344	4.9100695	2.2158678
6.865828615752445	4.9187374	2.2178228
6.883386950099159	4.9321065	2.2208347
6.900945446250287	4.965	2.228228
6.918504104622553	4.9773912	2.2310069
6.936062925632727	5.0636506	2.2502556
6.953621909697607	5.0531125	2.247913
6.971181057234028	5.097769	2.257824
6.988740368658859	5.15912	2.2713697
7.006299844389007	5.266954	2.2949846
7.023859484841407	5.2807355	2.297985
7.041419290433036	5.3375063	2.3103044
7.058979261580902	5.4027734	2.3243866
7.0765393987020495	5.5862617	2.3635273
7.094099702213559	5.927271	2.4345987
7.111660172532549	6.3885436	2.527557
7.129220810076164	6.788699	2.6055133
7.146781615261595	7.3531656	2.711672
7.16434258850606	7.5224586	2.74271
7.181903730226821	7.9734488	2.8237295
7.1994650408411704	8.112025	2.8481617
7.217026520766437	8.202309	2.8639672
7.234588170419983	8.472542	2.910763
7.252149990219215	8.459964	2.9086018
7.269711980581568	8.41369	2.900636
7.2872741419245175	8.248062	2.871944
7.304836474665574	7.756719	2.7850888
7.322398979222286	7.475069	2.7340572
7.339961656012233	7.2541604	2.6933548
7.357524505453039	6.943896	2.6351273
7.375087527962357	6.683226	2.5851936
7.392650723957886	6.359982	2.5219004
7.410214093857353	6.0306034	2.4557288
7.427777638078528	5.7501583	2.3979487
7.445341357039213	5.5512	2.3560984
7.4629052511572525	5.3358626	2.3099487
7.480469320850524	5.220002	2.2847323
7.498033566536948	5.0738955	2.2525308
7.5155979886344735	4.9763126	2.230765
7.5331625875610975	4.9607077	2.2272646
7.550727363734844	5.047437	2.2466502
7.568292317573788	5.1735435	2.2745426
7.585857449496025	5.2151284	2.2836657
7.603422759919705	5.221397	2.2850375
7.620988249263007	5.2182884	2.2843573
7.638553917944147	5.2288966	2.286678
7.656119766381391	5.227501	2.286373
7.673685794993023	5.2221713	2.285207
7.691252004197388	5.186314	2.277348
7.70881839441285	5.183978	2.2768352
7.726384966057826	5.1898785	2.2781305
7.743951719550762	5.171548	2.2741036
7.761518655310149	5.246712	2.2905703
7.779085773754511	5.230198	2.2869625
7.796653075302419	5.286829	2.2993104
7.814220560372475	5.2799993	2.2978249
7.831788229383323	5.3128433	2.3049605
7.8493560827536495	5.298363	2.3018174
7.866924120902174	5.287782	2.2995179
7.884492344247663	5.291248	2.3002713
7.9020607532089135	5.315399	2.305515
7.919629348204771	5.3624516	2.3156967
7.937198129654115	5.3566422	2.3144422
7.954767097975865	5.376416	2.31871
7.972336253588986	5.386432	2.3208687
7.989905596912472	5.4113326	2.3262272
8.007475128365371	5.433618	2.3310122
8.025044848366756	5.499407	2.3450813
8.042614757335754	5.6054535	2.367584
8.060184855691523	5.656825	2.3784082
8.07775514385327	5.742398	2.39633
8.095325622240228	5.7769556	2.40353
8.112896291271687	5.829541	2.4144442
8.130467151366968	5.8987494	2.428734
8.148038202945436	5.9930916	2.448079
8.165609446426497	5.9611917	2.4415553
8.183180882229594	6.006655	2.4508479
8.200752510774217	5.9741373	2.4442048
8.218324332479893	6.0186996	2.4533038
8.235896347766193	6.003971	2.4503002
8.253468557052724	6.0391355	2.4574652
8.27104096075914	6.03723	2.4570775
8.288613559305137	6.0936546	2.4685328
8.306186353110448	6.153737	2.4806726
8.32375934259485	6.189865	2.487944
8.341332528178162	6.1749825	2.4849513
8.358905910280246	6.195275	2.4890308
8.376479489321003	6.188009	2.4875708
8.394053265720377	6.2641134	2.5028212
8.411627239898356	6.2357626	2.497151
8.42920141227497	6.242567	2.498513
8.44677578327029	6.2527847	2.500557
8.464350353304427	6.256845	2.5013685
8.48192512279754	6.1954174	2.4890594
8.499500092169827	6.1971874	2.4894152
8.51707526184153	6.133475	2.4765854
8.534650632232934	6.0883994	2.4674683
8.552226203764365	6.09169	2.4681349
8.569801976856192	6.1486893	2.479655
8.587377951928834	6.2132463	2.4926383
8.60495412940274	6.219316	2.4938557
8.622530509698416	6.1876545	2.4874997
8.6401070932364	6.33248	2.5164418
8.657683880437283	6.5314913	2.5556781
8.675260871721695	6.7116857	2.590692
8.692838067510303	6.874895	2.6220021
8.710415468223834	7.039119	2.6531339
8.727993074283043	7.1488194	2.6737275
8.745570886108737	7.1683607	2.6773794
8.763148904121765	7.230901	2.6890335
8.78072712874302	7.251103	2.6927872
8.798305560393441	7.4576154	2.7308636
8.815884199494006	7.5117044	2.740749
8.833463046465745	7.7363997	2.7814384
8.851042101729728	7.900997	2.8108714
8.86862136570707	8.259023	2.8738515
8.886200838818924	8.377861	2.8944535
8.903780521486505	8.432589	2.903892
8.921360414131055	8.460423	2.9086807
8.938940517173874	8.503913	2.916147
8.956520831036297	8.737955	2.9560032
8.97410135613971	9.040931	3.006814
8.99168209290554	9.298325	3.0493155
9.009263041755265	9.546426	3.089729
9.026844203110405	9.747782	3.1221437
9.044425577392525	9.894915	3.1456184
9.062007165023239	9.977973	3.158793
9.079588966424197	10.273104	3.2051682
9.097170982017108	10.352433	3.2175198
9.11475321222372	11.288769	3.3598764
9.132335657465825	12.157423	3.4867496
9.149918318165264	12.220545	3.4957895
9.167501194743924	12.942901	3.5976243
9.18508428762374	12.623872	3.5530088
9.202667597226693	12.599523	3.5495806
9.220251123974803	12.345163	3.5135684
9.237834868290143	11.924952	3.4532523
9.255418830594836	11.750693	3.4279284
9.273003011311046	11.17005	3.3421624
9.290587410860985	11.021732	3.3198996
9.308172029666911	10.408318	3.2261925
9.32575686815113	10.141543	3.184579
9.343341926735997	8.798023	2.9661462
9.360927205843916	8.469341	2.9102132
9.378512705897327	8.275505	2.8767178
9.396098427318728	8.038799	2.8352776
9.413684370530664	8.021683	2.8322575
9.431270535955722	7.9100256	2.8124769
9.448856924016539	7.777252	2.7887726
9.466443535135806	7.635401	2.763223
9.484030369736251	7.6502705	2.7659123
9.501617428240658	7.720255	2.7785347
9.519204711071852	7.750429	2.7839592
9.536792218652714	7.7784123	2.7889805
9.55437995140617	7.7669177	2.786919
9.571967909755191	7.7964954	2.7922206
9.589556094122802	7.880235	2.8071756
9.60714450493207	7.8978252	2.810307
9.624733142606116	7.9292655	2.815895
9.642322007568108	7.954641	2.8203974
9.659911100241267	8.011937	2.8305366
9.677500421048851	7.9223943	2.8146749
9.695089970414175	7.8985424	2.8104346
9.712679748760609	7.9543986	2.8203545
9.730269756511557	8.048997	2.8370755
9.747859994090492	8.123071	2.8501
9.765450461920915	8.132915	2.8518264
9.78304116042639	8.1985	2.8633022
9.800632090030527	8.241331	2.870772
9.81822325115699	8.236693	2.8699641
9.835814644229481	8.216725	2.8664832
9.853406269671762	8.246274	2.8716326
9.870998127907646	8.246032	2.8715904
9.888590219360985	8.209975	2.8653054
9.906182544455698	8.141203	2.8532794
9.923775103615734	8.125021	2.8504422
9.941367897265108	8.122473	2.8499951
9.958960925827878	8.152893	2.8553271
9.97655418972816	8.222427	2.8674774
9.994147689390106	8.269202	2.875622
10.011741425237934	8.322418	2.8848603
10.029335397695904	8.344731	2.8887248
10.04692960718833	8.314047	2.8834088
10.06452405413958	8.268021	2.8754165
10.082118738974064	8.248133	2.8719563
10.099713662116246	8.211204	2.8655198
10.117308823990651	8.292058	2.8795934
10.134904225021844	8.244082	2.871251
10.152499865634445	8.2274275	2.8683493
10.170095746253125	8.194804	2.8626568
10.18769186730261	8.176728	2.8594978
10.205288229207675	8.2179165	2.8666909
10.222884832393145	8.245091	2.8714268
10.2404816772839	8.235965	2.869837
10.258078764304868	8.186275	2.8611667
10.275676093881035	8.077279	2.8420553
10.293273666437438	8.008726	2.8299692
10.310871482399158	8.099014	2.8458767
10.32846954219134	8.126499	2.8507016
10.346067846239173	8.177305	2.8595989
10.363666394967908	8.107394	2.8473487
10.38126518880283	8.0430565	2.8360283
10.398864228169298	8.111281	2.848031
10.416463513492713	8.243258	2.8711076
10.434063045198531	8.323707	2.8850834
10.451662823712262	8.28603	2.8785465
10.469262849459467	8.197392	2.8631089
10.486863122865758	8.110332	2.8478644
10.504463644356806	8.056461	2.8383906
10.522064414358338	7.97317	2.8236802
10.539665433296118	7.8320684	2.7985833
10.557266701595987	7.9109373	2.8126388
10.574868219683818	7.918504	2.8139837
10.592469987985552	7.8617487	2.803881
10.610072006927185	7.713396	2.7773001
10.627674276934751	7.553637	2.748388
10.64527679843435	7.394769	2.7193325
10.662879571852143	7.288661	2.699752
10.680482597614331	7.188623	2.6811607
10.698085876147173	7.069126	2.6587827
10.715689407876988	7.0154147	2.6486628
10.733293193230146	6.8772593	2.622453
10.750897232633072	6.7400827	2.5961668
10.76850152651225	6.6348257	2.5758154
10.786106075294207	6.623745	2.5736637
10.803710879405534	6.5483136	2.5589674
10.821315939272877	6.457368	2.541135
10.83892125532294	6.268448	2.503687
10.856526827982472	6.1641045	2.4827614
10.874132657678285	6.1321373	2.4763153
10.891738744837243	6.130871	2.4760594
10.909345089886271	6.1335773	2.4766061
10.926951693252343	6.1012444	2.4700696
10.944558555362494	6.0773816	2.4652345
10.96216567664381	6.017485	2.4530563
10.979773057523436	5.988117	2.447063
10.997380698428573	5.921569	2.4334273
11.014988599786477	5.8917828	2.4272995
11.032596762024461	5.799325	2.4081788
11.050205185569892	5.646558	2.3762486
11.067813870850198	5.5575776	2.3574514
11.085422818292859	5.5063143	2.3465538
11.10303202832541	5.5282345	2.35122
11.120641501375454	5.50802	2.3469172
11.138251237870636	5.4363894	2.3316066
11.155861238238671	5.345376	2.312007
11.173471502907317	5.27349	2.296408
11.191082032304402	5.21383	2.2833812
11.208692826857805	5.1524596	2.269903
11.226303886995465	5.041622	2.2453556
11.243915213145371	4.956466	2.2263122
11.261526805735578	4.883424	2.209847
11.279138665194196	4.808143	2.1927478
11.296750791949393	4.7455606	2.1784308
11.314363186429393	4.7291923	2.1746707
11.331975849062479	4.7145534	2.1713023
11.34958878027699	4.6693664	2.1608717
11.36720198050133	4.6369605	2.1533604
11.384815450163948	4.564748	2.136527
11.402429189693366	4.509348	2.1235225
11.420043199518153	4.4939947	2.1199045
11.437657480066942	63.499825	7.9686775
11.455272031768422	85.263245	9.233809
11.472886855051353	107.622856	10.374144
11.490501950344528	99.14464	9.95714
11.508117318076819	84.453636	9.189866
11.52573295867715	45.84922	6.7712054
11.543348872574514	4.1896944	2.0468743
11.560965060197946	4.124058	2.0307777
11.57858152197655	4.1008	2.0250432
11.59619825833949	4.05182	2.0129132
11.613815269715985	4.0348997	2.008706
11.631432556535323	38.4844	6.20358
11.649050119226837	83.01831	9.111439
11.666667958219929	93.44837	9.66687
11.68428607394406	107.69397	10.37757
11.701904466828756	82.5242	9.084283
11.719523137303586	65.35343	8.0841465
11.737142085798196	4.5750294	2.1389318
11.754761312742286	3.6871972	1.9202076
11.772380818565619	3.6344519	1.9064238
11.790000603698015	3.6049688	1.8986756
11.80762066856935	3.5894423	1.8945824
11.825241013609572	3.586752	1.8938723
11.842861639248683	3.5472643	1.8834182
11.860482545916748	3.4973211	1.8701125
11.878103734043883	3.4444528	1.8559237
11.895725204060282	3.3749752	1.8371105
11.91334695639619	3.32492	1.8234363
11.930968991481919	3.2980914	1.8160648
11.948591309747824	3.2981257	1.8160743
11.966213911624347	3.3036609	1.8175975
11.98383679754198	3.286539	1.8128815
12.001459967931268	3.257378	1.8048208
12.019083423222835	3.2019234	1.7893919
12.036707163847352	3.1627855	1.7784222
12.05433119023556	3.1361167	1.7709085
12.071955502818259	3.1604383	1.7777622
12.089580102026313	3.1653836	1.7791525
12.107204988290643	3.1616967	1.778116
12.12483016204224	3.1354108	1.7707092
12.142455623712152	3.1563284	1.7766058
12.16008137373149	3.1797988	1.7831991
12.177707412531431	3.1663833	1.7794334
12.19533374054321	3.0936909	1.7588891
12.212960358198126	3.032722	1.7414712
12.230587265927545	3.0201485	1.7378575
12.248214464162889	2.9831636	1.7271837
12.265841953335649	2.9905288	1.7293146
12.283469733877375	2.984194	1.727482
12.301097806219685	2.981221	1.7266213
12.31872617079425	2.9892862	1.7289553
12.336354828032825	2.9638402	1.7215807
12.353983778367205	2.9829347	1.7271174
12.371613022229262	2.9614742	1.7208934
12.389242560050928	2.978515	1.7258375
12.406872392264201	2.9640055	1.7216288
12.424502519301143	2.910004	1.7058734
12.442132941593874	2.8492057	1.6879591
12.459763659574586	2.8416374	1.6857157
12.477394673675532	2.8246114	1.680658
12.49502598432903	2.8263905	1.6811873
12.51265759196746	2.7919915	1.6709254
12.530289497023267	2.80073	1.6735382
12.547921699928967	2.800106	1.6733518
12.565554201117134	2.781464	1.6677722
12.583187001020404	2.7762976	1.6662226
12.600820100071486	2.763364	1.662337
12.618453498703152	2.788022	1.6697371
12.636087197348235	2.7668192	1.6633759
12.65372119643964	2.77869	1.6669403
12.671355496410326	2.7819564	1.6679198
12.68899009769333	2.7980356	1.672733
12.706625000721749	2.8352005	1.6838053
12.724260205928752	2.8922763	1.7006694
12.741895713747551	2.9168005	1.7078643
12.759531524611454	2.942026	1.7152334
12.777167638953818	2.921822	1.7093338
12.794804057208072	2.9663112	1.7222983
12.812440779807702	3.0165603	1.7368248
12.830077807186271	3.181243	1.7836039
12.847715139777405	3.1901288	1.7860931
12.865352778014795	3.3343577	1.8260224
12.882990722332197	3.404636	1.8451655
12.90062897316344	3.494154	1.8692657
12.918267530942412	3.6499555	1.9104856
12.935906396103071	3.657222	1.9123864
12.953545569079449	3.8386981	1.9592596
12.971185050305628	3.6496456	1.9104046
12.988824840215775	3.585413	1.8935187
13.006464939244115	3.6051528	1.898724
13.024105347824943	3.4798667	1.8654401
13.041746066392617	3.5963333	1.8964001
13.05938709538157	3.3510141	1.8305775
13.077028435226296	3.3254073	1.8235699
13.094670086361363	3.2097955	1.7915902
13.112312049221401	3.1372738	1.7712351
13.129954324241112	3.0692565	1.7519294
13.147596911855258	2.8637714	1.6922681
13.165239812498685	2.8039196	1.6744908
13.182883026606293	2.7617245	1.6618437
13.200526554613058	2.7436132	1.6563855
13.218170396954017	2.737215	1.654453
13.235814554064284	2.7337236	1.6533976
13.253459026379034	2.7239757	1.6504471
13.271103814333523	2.7034063	1.6442039
13.288748918363058	2.687549	1.6393746
13.306394338903031	2.7145562	1.647591
13.32404007638889	2.7218246	1.6497953
13.341686131256164	2.7398794	1.655258
13.359332503940449	2.68917	1.6398689
13.376979194877402	2.6852791	1.6386821
13.394626204502751	2.6964905	1.6420994
13.412273533252307	2.7369366	1.6543689
13.429921181561937	2.7157493	1.647953
13.447569149867581	2.6578832	1.6303016
13.465217438605247	2.6570885	1.6300578
13.482866048211022	2.6350024	1.6232691
13.500514979121052	2.6313295	1.6221373
13.518164231771568	2.6369562	1.6238707
13.535813806598844	2.6811726	1.6374286
13.553463704039254	2.7228966	1.6501201
13.571113924529229	2.7191825	1.6489944
13.588764468505275	2.6854005	1.6387192
13.606415336403956	2.7014577	1.6436112
13.624066528661917	2.7356646	1.6539844
13.641718045715882	2.802886	1.6741822
13.659369888002635	2.861409	1.6915699
13.67702205595903	2.9010377	1.7032433
13.694674550021993	2.9950972	1.7306349
13.712327370628532	3.0602198	1.7493484
13.729980518215713	3.139476	1.7718567
13.747633993220681	3.1789584	1.7829634
13.765287796080647	3.2719598	1.8088559
13.7829419272329	3.3120492	1.8199036
13.800596387114801	3.3783264	1.8380225
13.818251176163775	3.3787858	1.8381474
13.835906294817324	3.4406571	1.8549008
13.853561743513023	3.452539	1.8581009
13.871217522688525	3.44845	1.8570004
13.888873632781538	3.4699252	1.8627735
13.906530074229858	3.477857	1.8649014
13.92418684747135	3.4980175	1.8702987
13.941843952943948	3.5269198	1.8780096
13.959501391085665	3.5063345	1.8725209
13.977159162334578	3.4274933	1.8513491
13.994817267128846	3.3736038	1.8367373
14.012475705906693	3.293377	1.8147664
14.030134479106424	3.235218	1.7986712
14.047793587166414	3.1516736	1.7752954
14.065453030525108	3.0702987	1.7522268
14.083112809621026	2.9875536	1.7284541
14.100772924892766	2.9116511	1.706356
14.118433376778997	2.840602	1.6854085
14.136094165718458	2.8012986	1.6737081
14.153755292149969	2.7420337	1.6559087
14.171416756512416	2.6919498	1.6407163
14.189078559244768	2.635987	1.6235723
14.20674070078606	2.599059	1.6121597
14.224403181575408	2.5627968	1.6008738
14.242066002051999	2.5290258	1.5902911
14.259729162655093	2.5005195	1.5813031
14.277392663824022	2.4616547	1.5689662
14.295056505998208	2.4345598	1.5603076
14.312720689617128	2.4069526	1.5514357
14.330385215120348	2.3950002	1.5475788
14.348050082947497	2.3980656	1.5485688
14.3657152935383	2.4068096	1.5513896
14.383380847332528	2.3964746	1.548055
14.401046744770051	2.3906999	1.5461888
14.418712986290798	2.3605523	1.5364089
14.436379572334793	2.3629417	1.5371863
14.454046503342123	2.3661208	1.53822
14.471713779752946	2.380607	1.5429215
14.489381402007504	2.38096	1.543036
14.507049370546113	2.348379	1.5324421
14.524717685809168	2.3607783	1.5364825
14.542386348237134	2.3746734	1.5409975
14.560055358270553	2.3943973	1.547384
14.577724716350051	2.3989153	1.5488433
14.595394422916325	2.4188561	1.5552672
14.61306447841015	2.4788554	1.5744381
14.63073488327237	2.5257647	1.5892655
14.648405637943917	2.5205212	1.5876149
14.6660767428658	2.512728	1.5851587
14.683748198479094	2.5101454	1.5843438
14.701420005224954	2.5482159	1.5963132
14.719092163544628	2.6359847	1.6235716
14.73676467387942	2.683584	1.6381649
14.754437536670727	2.6761277	1.6358874
14.772110752360014	2.624925	1.620162
14.78978432138882	2.5951054	1.6109331
14.807458244198777	2.6312406	1.6221099
14.82513252123159	2.6996453	1.6430597
14.842807152929028	2.7393436	1.6550963
14.860482139732962	2.708654	1.6457989
14.87815748208531	2.6791666	1.636816
14.8958331804281	2.6912382	1.6404994
14.91350923520342	2.6500149	1.6278867
14.931185646853438	2.627999	1.6211104
14.948862415820408	2.6325712	1.62252
14.966539542546656	2.634923	1.6232446
14.98421702747459	2.61815	1.6180699
15.001894871046696	2.6296701	1.6216258
15.019573073705542	2.6344476	1.6230981
15.037251635893766	2.6803336	1.6371725
15.054930558054092	2.7357287	1.6540039
15.072609840629323	2.7783618	1.6668419
15.090289484062351	2.8686619	1.6937125
15.107969488796124	3.1039114	1.7617921
15.125649855273691	3.480304	1.8655573
15.14333058393817	3.9971752	1.9992937
15.161011675232768	4.9717097	2.229733
15.17869312960076	6.355376	2.520987
15.196374947485506	8.312769	2.8831873
15.214057129330447	11.466377	3.386204
15.231739675579114	16.180363	4.0224824
15.249422586675102	21.27211	4.6121697
15.267105863062092	24.425894	4.942256
15.284789505183847	24.643366	4.9642086
15.302473513484218	22.42502	4.7355065
15.320157888407127	18.696878	4.323989
15.337842630396578	14.5099325	3.8091905
15.355527739896656	11.371342	3.372142
15.37321321735153	8.84082	2.9733517
15.39089906320545	6.4222865	2.534223
15.408585277902748	4.7613106	2.1820428
15.42627186188783	3.676049	1.9173025
15.443958815605198	3.1679385	1.7798704
15.461646139499424	2.8564873	1.6901146
15.479333834015168	2.700936	1.6434525
15.497021899597165	2.6470275	1.6269689
15.514710336690234	2.6205037	1.618797
15.53239914573928	2.618616	1.6182139
15.550088327189297	2.6142545	1.6168656
15.567777881485336	2.5844643	1.6076269
15.58546780907256	2.565212	1.601628
15.6031581103962	2.5279186	1.5899429
15.620848785901568	2.4864588	1.5768509
15.638539836034063	2.4495797	1.5651133
15.656231261239173	2.4338367	1.5600759
15.673923061962451	2.4513574	1.5656811
15.691615238649552	2.434576	1.5603127
15.709307791746202	2.4256165	1.5574391
15.727000721698221	2.3844888	1.544179
15.744694028951498	2.378975	1.5423926
15.76238771395202	2.3577516	1.5354972
15.780081777145844	2.3703048	1.5395794
15.797776218979125	2.370226	1.5395538
15.815471039898094	2.3572679	1.5353397
15.833166240349064	2.3471997	1.5320573
15.850861820778437	2.3511117	1.5333335
15.868557781632699	2.3797927	1.5426576
15.886254123358412	2.361294	1.5366503
15.903950846402232	2.3248518	1.5247464
15.921647951210897	2.3283715	1.5259002
15.939345438231225	2.3515046	1.5334616
15.957043307910133	2.3712976	1.5399019
15.974741560694602	2.3713276	1.5399116
15.992440197031714	2.390848	1.5462368
16.01013921736862	2.3902452	1.5460417
16.02783862215259	2.3731463	1.540502
16.045538411830933	2.369593	1.5393482
16.06323858685107	2.3806033	1.5429204
16.080939147660512	2.3899102	1.5459335
16.09864009470684	2.3793967	1.5425293
16.11634142843774	2.3848233	1.5442873
16.134043149300954	2.4099844	1.5524124
16.15174525774433	2.3999665	1.5491825
16.169447754215817	2.3647752	1.5377825
16.18715063916342	2.4031348	1.5502048
16.204853913035244	2.444434	1.5634686
16.222557576279478	2.4685698	1.5711683
16.240261629344403	22.44505	4.737621
16.257966072678386	42.964493	6.5547304
16.275670906729868	38.109776	6.1733117
16.293376131947387	2.5506432	1.5970733
16.31108174877957	2.582623	1.6070541
16.328787757675133	2.5197983	1.5873872
16.34649415908287	2.5070744	1.5833744
16.364200953451657	2.5331428	1.591585
16.38190814123048	2.5792584	1.606007
16.39961572286839	2.606879	1.6145833
16.41732369881455	2.639945	1.6247908
16.43503206951817	2.6824372	1.6378148
16.45274083542859	2.7067842	1.6452308
16.47044999699522	2.7425373	1.6560608
16.488159554667558	2.7455378	1.6569664
16.505869508895184	2.8150408	1.6778083
16.523579860127786	2.8836346	1.6981268
16.541290608815117	2.9297292	1.7116451
16.559001755407035	2.9870884	1.7283195
16.57671330035348	3.0579424	1.7486974
16.59442524410448	3.1168609	1.7654634
16.61213758711015	3.1680274	1.7798953
16.629850329820705	3.1993015	1.7886591
16.647563472686436	3.2494323	1.8026181
16.665277016157724	3.3173628	1.8213629
16.682990960685053	3.3802664	1.8385501
16.70070530671898	3.4180217	1.8487892
16.718420054710155	3.4493906	1.8572536
16.736135205109335	3.5260499	1.8777779
16.753850758367335	3.5905821	1.8948832
16.771566714935087	3.6583297	1.9126761
16.789283075263597	3.7278652	1.930768
16.80699983980398	3.7682137	1.9411887
16.82471700900741	3.7936122	1.9477198
16.84243458332518	3.812153	1.9524736
16.860152563208665	3.9057584	1.9762992
16.87787094910932	3.9579227	1.9894528
16.89558974147871	4.0214467	2.0053544
16.913308940768466	4.079131	2.019686
16.931028547430333	4.1838818	2.045454
16.94874856191613	4.248184	2.0611124
16.966468984677785	4.3091006	2.0758374
16.98418981616729	4.329177	2.0806675
17.00191105683676	4.3796654	2.092765
17.019632707138374	4.452943	2.1101997
17.03735476752442	4.515021	2.124858
17.05507723844728	4.6073813	2.146481
17.072800120359403	4.616614	2.1486306
17.090523413713353	4.6528325	2.1570425
17.108247118961785	4.669755	2.1609616
17.125971236557437	4.6851788	2.1645274
17.143695766953133	4.701542	2.168304
17.161420710601806	4.6836348	2.1641707
17.179146067956477	4.684929	2.1644697
17.19687183947025	4.642341	2.1546092
17.21459802559634	4.6391163	2.1538608
17.232324626788028	4.6604505	2.1588078
17.25005164349871	4.6854258	2.1645844
17.267779076181863	4.6603117	2.1587756
17.285506925291074	4.5816517	2.1404793
17.30323519127999	4.50633	2.1228118
17.320963874602384	4.4912233	2.1192505
17.33869297571211	4.499365	2.1211705
17.356422495063114	4.457615	2.1113064
17.37415243310944	4.4472346	2.1088467
17.391882790305218	4.4573174	2.111236
17.40961356710468	4.4893274	2.1188033
17.42734476396215	4.525349	2.127287
17.445076381332044	4.5801396	2.140126
17.462808419668868	4.623472	2.150226
17.48054087942723	4.70846	2.1698985
17.498273761061835	4.977237	2.2309723
17.51600706502747	5.471491	2.3391218
17.533740791779024	6.205875	2.4911594
17.551474941771485	7.659672	2.7676113
17.56920951545993	8.748143	2.957726
17.586944513299528	10.919539	3.3044727
17.60467993574556	12.648828	3.556519
17.622415783253373	14.442231	3.8002934
17.64015205627843	15.916859	3.9895937
17.657888755276293	16.967258	4.119133
17.675625880702604	17.453678	4.17776
17.69336343301311	17.264505	4.155058
17.71110141266366	16.464388	4.0576334
17.728839820110178	15.498803	3.936852
17.746578655808705	14.514755	3.8098235
17.764317920215372	12.973765	3.6019113
17.7820576137864	11.4423895	3.3826602
17.79979773697811	9.449728	3.074041
17.81753829024692	7.599589	2.756735
17.835279274049356	5.902565	2.4295194
17.85302068884201	4.8438773	2.200881
17.870762535081607	4.2022314	2.0499344
17.888504813224934	3.941435	1.9853048
17.90624752372891	3.7583497	1.9386463
17.923990667050536	3.6136603	1.900963
17.941734243646895	3.4484487	1.8569999
17.959478253975185	3.4225438	1.8500118
17.9772226984927	3.4194155	1.8491662
17.994967577656833	3.450103	1.8574454
18.01271289192506	3.4759402	1.8643874
18.030458641754965	3.4621925	1.8606968
18.04820482760425	3.4089067	1.8463225
18.06595144993067	3.3427184	1.8283103
18.083698509192125	3.2662752	1.8072839
18.101446005846576	3.199184	1.7886263
18.119193940352105	3.1922803	1.7866954
18.136942313166887	3.1780813	1.7827173
18.1546911247492	3.2062716	1.7906065
18.1724403755574	3.172267	1.7810858
18.19019006604997	3.129722	1.7691021
18.207940196685467	3.052709	1.7472004
18.225690767922575	3.024555	1.7391248
18.243441780220046	3.0319402	1.7412467
18.261193234036764	3.0754044	1.7536831
18.278945129831676	3.0659652	1.7509898
18.29669746806386	3.0458603	1.7452394
18.314450249192483	2.9959493	1.7308811
18.3322034736768	2.985337	1.7278128
18.349957141976184	3.0087037	1.7345616
18.3677112545501	3.010102	1.7349646
18.385465811858108	3.0264485	1.7396691
18.403220814359884	3.0481756	1.7459025
18.420976262515172	3.0753253	1.7536606
18.43873215678387	3.12433	1.7675774
18.456488497625923	3.1373508	1.7712568
18.474245285501407	3.2096415	1.7915472
18.492002520870486	3.2681434	1.8078008
18.50976020419343	3.3304849	1.8249617
18.527518335930615	3.5763443	1.8911225
18.545276916542516	4.1382623	2.034272
18.563035946489688	4.3290176	2.080629
18.580795426232832	4.7885137	2.1882672
18.598555356232698	4.701027	2.1681852
18.616315736950185	5.040759	2.2451634
18.63407656884626	4.7174325	2.1719651
18.65183785238201	4.8785114	2.2087352
18.669599588018617	4.6251736	2.1506217
18.68736177621737	4.6289716	2.1515045
18.705124417439652	4.6459923	2.1554563
18.72288751214696	4.490387	2.1190534
18.740651060800886	4.6253967	2.1506736
18.758415063863115	4.3299923	2.0808632
18.77617952179546	4.457553	2.1112916
18.793944435059814	4.166786	2.0412707
18.811709804118184	4.174614	2.0431871
18.829475629432675	4.1631436	2.0403783
18.8472419114655	3.9775867	1.9943888
18.86500865067897	4.072355	2.0180075
18.88277584753551	3.7529275	1.9372474
18.90054350249763	3.8087692	1.9516069
18.918311616027957	3.493511	1.8690937
18.936080188589226	3.3735173	1.8367137
18.953849220644265	3.0361767	1.7424629
18.971618712656007	2.8705578	1.694272
18.9893886650875	2.8265026	1.6812205
19.007159078401887	8.00729	2.8297155
19.024929953062408	32.84743	5.731268
19.042701289532435	32.747593	5.7225513
19.060473088275405	25.310066	5.030911
19.07824534975489	2.6136653	1.6166835
19.096018074434568	2.6564937	1.6298753
19.113791262778197	2.6375427	1.6240513
19.13156491524966	2.628226	1.6211804
19.149339032312945	2.6053038	1.6140953
19.167113614432136	2.6114361	1.6159939
19.184888662071433	2.57694	1.605285
19.202664175695123	2.4992259	1.580894
19.220440155767623	2.49301	1.5789269
19.238216602753447	2.459079	1.568145
19.2559935171172	2.474164	1.5729475
19.27377089932361	2.4860733	1.5767287
19.291548749837514	2.5082345	1.5837407
19.309327069123835	2.5054111	1.582849
19.32710585764763	2.495258	1.5796386
19.344885115874032	2.4670587	1.5706873
19.362664844268313	2.4713905	1.5720657
19.380445043295822	2.4957552	1.579796
19.39822571342203	2.520583	1.5876343
19.41600685511252	2.501193	1.581516
19.43378846883297	2.4378915	1.5613749
19.451570555049173	2.411571	1.5529233
19.469353114227037	2.434548	1.5603038
19.48713614683254	2.47211	1.5722945
19.50491965333182	2.4692953	1.5713991
19.52270363419109	2.4445803	1.5635154
19.540488089876686	2.4391863	1.5617895
19.55827302085503	2.4887567	1.5775794
19.576058427592674	2.5391004	1.5934554
19.593844310556282	2.5398395	1.5936874
19.611630670212598	2.5073338	1.5834563
19.629417507028506	2.4967904	1.5801235
19.64720482147098	2.5097365	1.5842148
19.6649926140071	2.4887826	1.5775876
19.682780885104084	2.4676108	1.5708631
19.70056963522921	2.4399905	1.5620469
19.718358864849908	2.4445221	1.5634967
19.7361485744337	2.482203	1.5755008
19.753938764448215	2.4929223	1.578899
19.771729435361202	2.4818153	1.5753778
19.789520587640506	2.465291	1.5701245
19.807312221754092	2.4499302	1.5652252
19.825104338170043	2.4537747	1.5664529
19.842896937356517	2.4787886	1.5744169
19.860690019781824	2.4952202	1.5796266
19.87848358591436	2.493425	1.5790582
19.896277636222635	2.4558506	1.5671154
19.914072171175278	2.4402492	1.5621297
19.931867191241015	2.417238	1.5547469
19.94966269688869	2.4183474	1.5551037
19.967458688587264	2.4256687	1.5574559
19.985255166805807	2.4600255	1.5684469
20.00305213201348	2.4599962	1.5684375
20.020849584679578	2.4720206	1.5722661
20.038647525273507	2.4773908	1.573973
20.05644595426477	2.4861324	1.5767474
20.07424487212299	2.4754374	1.5733523
20.092044279317903	2.4825673	1.5756165
20.109844176319353	2.462132	1.5691183
20.127644563597304	2.4179888	1.5549884
20.145445441621817	2.3880205	1.5453222
20.16324681086307	2.3863266	1.5447739
20.181048671791373	2.4040513	1.5505004
20.198851024877122	2.3826091	1.5435703
20.216653870590836	2.3523848	1.5337486
20.234457209403146	2.3218102	1.5237488
20.252261041784802	2.3400989	1.5297382
20.270065368206662	2.3775363	1.5419261
20.287870189139685	2.3867233	1.5449023
20.305675505054968	2.379208	1.5424682
20.323481316423702	2.3468907	1.5319564
20.341287623717207	2.3381982	1.5291167
20.359094427406884	2.3617196	1.5367887
20.376901727964288	2.367677	1.5387257
20.39470952586107	2.373822	1.5407213
20.41251782156899	2.3547614	1.5345231
20.430326615559935	2.3487103	1.5325502
20.448135908305886	2.3514097	1.5334307
20.465945700278965	2.3659518	1.5381651
20.483755991951384	2.3670802	1.5385318
20.50156678379548	2.387897	1.5452821
20.519378076283708	2.3513193	1.5334013
20.537189869888635	2.3469381	1.5319719
20.55500216508294	2.334881	1.5280317
20.572814962339415	2.3302996	1.5265319
20.59062826213098	2.3542953	1.5343713
20.60844206493066	2.3808372	1.5429962
20.626256371211593	2.3925698	1.5467933
20.644071181447032	2.351621	1.5334996
20.66188649611036	2.2923331	1.5140452
20.67970231567506	2.2481885	1.4993961
20.697518640614742	2.2701135	1.5066895
20.715335471403122	2.2932804	1.514358
20.73315280851404	2.304002	1.5178939
20.750970652421447	2.3187697	1.5227507
20.768789003599412	2.3079765	1.5192026
20.786607862522136	2.3284242	1.5259175
20.8044272296639	2.318008	1.5225005
20.82224710549913	2.3068082	1.518818
20.84006749050237	2.2848952	1.511587
20.857888385148268	3.8089268	1.9516472
20.8757097899116	45.91798	6.776281
20.893531705267254	64.794655	8.049513
20.911354131690224	83.834236	9.156104
20.92917706965566	69.057045	8.310057
20.94700051963877	50.10967	7.0788183
20.96482448211493	29.406935	5.4228163
20.982648957559622	4.158209	2.0391686
21.00047394644843	2.2515457	1.5005151
21.01829944925707	2.2398996	1.4966295
21.036125466461375	2.218916	1.4896026
21.053951998537297	2.2488275	1.4996091
21.071779045960906	2.2710104	1.5069872
21.089606609208378	2.2732086	1.5077164
21.10743468875603	2.2444963	1.4981643
21.12526328508028	2.232755	1.4942406
21.143092398657675	2.2136767	1.4878429
21.16092202996488	2.1901147	1.4799036
21.17875217947867	2.1768477	1.4754144
21.19658284767596	2.1954696	1.4817117
21.21441403503377	2.1998053	1.4831741
21.232245742029225	2.199512	1.4830751
21.2500779691396	2.1750102	1.4747915
21.26791071684227	2.1571207	1.468714
21.28574398561475	2.1511948	1.4666952
21.30357777593465	2.1601372	1.4697405
21.321412088279704	2.1649504	1.471377
21.339246923127792	2.1232808	1.4571482
21.357082280956888	2.102454	1.4499841
21.3749181622451	2.0880814	1.4450195
21.392754567470647	2.0993755	1.4489222
21.41059149711187	2.1308434	1.4597409
21.42842895164726	2.1688404	1.4726983
21.446266931555378	2.1450343	1.4645935
21.464105437314945	2.1650732	1.4714187
21.481944469404798	2.1540093	1.4676543
21.49978402830388	2.1427407	1.4638103
21.51762411449127	2.107733	1.4518033
21.53546472844617	2.1064124	1.4513484
21.553305870647876	2.1115427	1.4531149
21.571147541575865	2.1119053	1.4532396
21.58898974170967	2.084864	1.4439058
21.60683247152899	2.0807488	1.4424801
21.62467573151363	2.0708082	1.4390303
21.642519522143523	2.0864737	1.4444631
21.660363843898722	2.0869713	1.4446354
21.6782086972594	2.0877635	1.4449096
21.696054082705864	2.0771153	1.44122
21.713900000718535	2.0335648	1.4260311
21.73174645177795	2.0221653	1.4220285
21.749593436364794	2.0290403	1.4244438
21.767440954959845	2.0550928	1.4335595
21.785289008044032	2.0757692	1.440753
21.803137596098388	2.0835836	1.4434624
21.820986719604086	2.031962	1.425469
21.838836379042412	2.000627	1.4144353
21.85668657489478	1.9623446	1.4008372
21.87453730764273	1.9773842	1.4061949
21.892388577767914	1.9807327	1.407385
21.91024038575213	1.993964	1.4120779
21.928092732077285	1.9538825	1.3978134
21.945945617225426	1.9604111	1.4001468
21.963799041678694	1.9680567	1.4028745
21.981653005919398	31.2973	5.594399
21.999507510429943	78.10496	8.837701
22.01736255569286	73.06866	8.54802
22.035218142190818	4.169448	2.0419226
22.05307427040661	1.9931843	1.4118018
22.07093094082315	1.9989125	1.413829
22.088788153923474	2.0014555	1.414728
22.106645910190746	2.0109055	1.418064
22.12450421010827	2.0244322	1.4228255
22.142363054159464	2.00406	1.4156482
22.16022244282787	1.9885501	1.4101596
22.178082376597164	1.9965545	1.4129949
22.195942855951145	1.9883872	1.4101019
22.213803881373742	1.961801	1.4006431
22.231665453349002	1.9647167	1.4016836
22.24952757236111	1.9809917	1.407477
22.26739023889438	1.9550782	1.3982412
22.28525345343323	1.9544712	1.3980241
22.30311721646225	1.933787	1.3906066
22.320981528466113	1.9049457	1.3801978
22.33884638992964	1.9157609	1.3841101
22.356711801337788	1.9367418	1.3916687
22.37457776317561	1.9912585	1.4111196
22.392444275928337	1.9758344	1.4056437
22.410311340081282	1.9904642	1.4108381
22.428178956119904	1.9907198	1.4109287
22.446047124529805	1.9917564	1.411296
22.46391584579669	2.0131538	1.4188565
22.481785120406414	2.0194635	1.4210783
22.49965494884496	2.033433	1.4259849
22.51752533159841	2.000971	1.4145569
22.53539626915302	1.9942468	1.412178
22.553267761995137	1.9628316	1.4010109
22.571139810611264	1.9407312	1.3931013
22.589012415488025	1.9421282	1.3936026
22.60688557711216	1.9324853	1.3901386
22.624759295970566	1.9546497	1.3980879
22.642633572550263	1.941955	1.3935405
22.660508407338362	1.9407303	1.393101
22.67838380082217	1.9433662	1.3940467
22.696259753489077	1.9472133	1.3954258
22.714136265826614	1.9345541	1.3908825
22.73201333832246	1.9428294	1.3938541
22.74989097146439	1.9626096	1.4009317
22.76776916574035	1.9649338	1.4017609
22.785647921638393	1.9519295	1.3971146
22.803527239646712	1.9487991	1.395994
22.82140712025363	1.9307672	1.3895205
22.839287563947593	1.9093846	1.3818048
22.85716857121719	1.8882753	1.3741453
22.875050142551135	1.9161928	1.3842661
22.892932278438277	1.9296211	1.3891081
22.910814979367604	1.9278822	1.388482
22.928698245828222	1.9328091	1.3902551
22.946582078309387	1.9325873	1.3901752
22.96446647730047	1.9313929	1.3897456
22.98235144329098	1.91253	1.3829424
23.000236976770562	1.9211946	1.3860717
23.018123078229	1.9472333	1.3954331
23.03600974815619	1.9298264	1.3891819
23.053896987042194	1.8886149	1.3742689
23.071784795377173	1.8747053	1.3691988
23.08967317365145	1.892722	1.3757623
23.10756212235546	1.8810859	1.3715268
23.125451641979787	1.8736911	1.3688284
23.143341733015134	1.8761148	1.3697134
23.161232395952357	1.8891017	1.374446
23.179123631282426	1.9157419	1.3841033
23.197015439496468	1.9687299	1.4031143
23.214907821085717	1.9899946	1.4106717
23.23280077654157	1.9244292	1.387238
23.250694306355538	1.8861485	1.3733712
23.268588411019277	1.8961198	1.3769966
23.28648309102458	1.9196523	1.3855152
23.304378346863356	1.92351	1.3869066
23.322274179027676	1.9095156	1.3818523
23.340170588009723	1.9439714	1.3942637
23.358067574301852	1.939032	1.3924912
23.37596513839651	1.966404	1.4022852
23.39386328078629	1.9587007	1.3995359
23.411762001963947	1.9178412	1.3848615
23.429661302422353	1.8589103	1.3634186
23.4475611826545	1.86552	1.3658404
23.46546164315356	1.8964642	1.3771217
23.48336268441279	1.9121274	1.3827969
23.501264306925638	1.8721843	1.3682779
23.51916651118564	1.8831048	1.3722627
23.537069297686497	1.9125067	1.3829341
23.554972666922037	1.9100928	1.3820611
23.57287661938623	1.8964367	1.3771117
23.59078115557318	1.8774203	1.3701899
23.608686275977128	1.8559613	1.3623368
23.62659198109246	1.8833226	1.372342
23.6444982714137	1.9284035	1.3886697
23.66240514743549	1.9175314	1.3847495
23.68031260965263	1.9237652	1.3869987
23.698220658560068	1.8770071	1.3700391
23.716129294652845	1.871575	1.3680552
23.7340385184262	1.8965865	1.3771662
23.75194833037546	1.9341536	1.3907385
23.769858730996123	1.9208636	1.3859522
23.78776972078382	1.9206873	1.3858887
23.80568130023431	1.9164021	1.3843417
23.823593469843495	1.8839618	1.3725749
23.841506230107424	1.8657659	1.3659304
23.859419581522275	1.8979028	1.377644
23.87733352458438	1.9608699	1.4003106
23.89524805979019	1.9972737	1.4132494
23.913163187636318	1.937986	1.3921157
23.931078908619508	1.8941832	1.3762933
23.948995223236633	1.9171996	1.3846297
23.966912131984735	2.0001705	1.4142739
23.98482963536096	2.048081	1.4311118
24.002747733862616	2.0984135	1.4485902
24.020666427987155	2.094744	1.4473231
24.038585718232156	2.0960498	1.447774
24.056505605095353	2.0619059	1.4359338
24.074426089074617	2.0404086	1.4284288
24.092347170667946	2.0250826	1.423054
24.110268850373515	2.05196	1.4324664
24.128191128689586	2.0725648	1.4396405
24.146114006114626	2.0835083	1.4434363
24.164037483147187	2.0607321	1.4355251
24.181961560286005	2.061028	1.435628
24.199886238029926	2.045245	1.4301206
24.21781151687797	2.0494552	1.4315919
24.235737397329274	2.0204191	1.4214145
24.253663879883135	2.0315168	1.4253129
24.271590965038975	2.0419369	1.4289635
24.289518653296376	2.0507493	1.4320438
24.30744694515505	2.0175076	1.4203899
24.32537584111486	2.0070941	1.4167196
24.34330534167581	2.019684	1.4211559
24.361235447338046	2.0082202	1.4171169
24.379166158601876	2.002787	1.4151986
24.39709747596772	2.0270624	1.4237494
24.41502939993615	2.0735536	1.4399838
24.432961931007917	2.0595353	1.4351081
24.450895069683856	2.026771	1.423647
24.468828816465	2.0185397	1.4207532
24.4867631718525	2.0092192	1.4174693
24.504698136347656	1.9782386	1.4064987
24.52263371045192	1.9486557	1.3959426
24.540569894666874	1.9402442	1.3929265
24.558506689494266	1.9746197	1.4052117
24.57644409543597	1.9620556	1.400734
24.594382112994012	2.0002	1.4142842
24.61232074267057	1.9918474	1.4113282
24.630259984967953	1.9778099	1.4063463
24.64819984038863	1.9923782	1.4115163
24.66614030943522	2.015898	1.4198232
24.684081392610462	2.0279038	1.4240448
24.702023090417274	2.0007734	1.414487
24.7199654033587	1.9676039	1.4027131
24.737908331937927	1.9386934	1.3923697
24.755851876658305	1.9833628	1.4083191
24.773796038023324	2.032615	1.425698
24.79174081653661	2.0755868	1.4406897
24.809686212701962	2.122832	1.4569942
24.827632227023294	2.1389306	1.4625083
24.8455788600047	2.1125352	1.4534563
24.8635261121504	2.0822148	1.4429882
24.88147398396475	2.0559158	1.4338465
24.899422475952303	2.1125019	1.4534448
24.917371588617698	2.1317089	1.4600372
24.935321322465768	2.1665459	1.4719191
24.953271678001478	2.2614253	1.5038036
24.97122265572994	2.4462836	1.56406
24.989174256156414	2.7585921	1.660901
25.00712647978632	3.208129	1.791125
25.02507932712521	3.7789862	1.9439615
25.043032798678798	4.321071	2.0787187
25.060986894952933	4.9573236	2.2265048
25.078941616453637	5.694479	2.3863108
25.096896963687055	6.735117	2.5952103
25.114852937159508	7.945247	2.8187315
25.132809537377444	8.429921	2.9034326
25.150766764847468	8.39349	2.897152
25.168724620076347	7.7629967	2.7862155
25.186683103570985	6.7663774	2.601226
25.204642215838426	5.5771646	2.361602
25.222601957385894	4.1772547	2.0438333
25.24056232872074	3.1430848	1.7728747
25.25852333035048	2.591381	1.6097767
25.276484962782778	2.2470212	1.4990067
25.294447226525435	2.0693176	1.4385123
25.312410122086423	1.9799644	1.4071121
25.330373649973843	1.946849	1.3952953
25.348337810695988	1.9240782	1.3871114
25.366302604761245	1.9236821	1.3869686
25.384268032678207	1.9191701	1.3853412
25.40223409495558	1.9140897	1.3835063
25.420200792102257	1.909071	1.3816913
25.438168124627246	1.9231852	1.3867896
25.45613609303974	1.872117	1.3682532
25.474104697849057	1.8602948	1.3639263
25.492073939564698	1.8831078	1.3722638
25.510043818696285	1.8900741	1.3747997
25.528014335753614	1.8681426	1.3668002
25.54598549124664	1.8650132	1.3656548
25.56395728568544	1.8720248	1.3682196
25.58192971958028	1.8407636	1.3567474
25.59990279344156	1.8329293	1.3538572
25.617876507779833	1.8412243	1.3569173
25.635850863105826	1.8794221	1.3709202
25.653825859930386	1.912403	1.3828965
25.671801498764548	1.903503	1.3796749
25.68977778011949	1.8338739	1.354206
25.707754704506524	1.7775356	1.3332425
25.725732272437153	1.8241733	1.3506196
25.743710484423012	1.8451542	1.3583645
25.761689340975888	1.8056097	1.3437297
25.77966884260774	1.8081053	1.3446581
25.797648989830662	1.8394132	1.3562497
25.815629783156922	1.8402874	1.3565719
25.83361122309895	1.8284637	1.352207
25.85159331016929	1.8298234	1.3527097
25.869576044880695	1.7958107	1.3400786
25.887559427746034	1.7949758	1.3397671
25.90554345927836	1.8181338	1.3483819
25.92352813999086	1.8622907	1.3646578
25.94151347039689	1.8457553	1.3585858
25.959499451009965	1.8796699	1.3710105
25.97748608234374	1.8903762	1.3749095
25.995473364912062	1.9242462	1.387172
26.013461299228904	1.9530624	1.3975201
26.03144988580839	1.9050084	1.3802204
26.04943912516483	1.8272189	1.3517466
26.067429017812675	1.8252773	1.3510282
26.085419564266537	1.8462164	1.3587555
26.103410765041186	1.8856831	1.3732017
26.12140262065155	1.8662037	1.3660907
26.139395131612723	1.871354	1.3679744
26.157388298439948	1.8326718	1.353762
26.17538212164861	1.8178549	1.3482785
26.193376601754295	1.8417207	1.3571001
26.211371739272714	1.8449073	1.3582736
26.229367534719746	1.8390787	1.3561263
26.247363988611433	1.8071797	1.3443139
26.26536110146397	1.819292	1.3488113
26.283358873793727	1.8219979	1.349814
26.301357306117204	1.8283793	1.3521757
26.319356398951104	1.8057728	1.3437904
26.33735615281224	1.8026717	1.3426361
26.35535656821762	1.791826	1.3385911
26.373357645684404	1.799792	1.3415633
26.39135938572991	1.8032576	1.3428543
26.409361788871614	1.8023884	1.3425306
26.427364855627165	1.8187759	1.3486199
26.445368586514352	1.8423691	1.357339
26.46337298205115	1.8237833	1.3504752
26.48137804275568	1.7825865	1.3351353
26.499383769146217	1.7875334	1.3369867
26.517390161741215	1.7896426	1.3377752
26.53539722105928	1.80261	1.3426131
26.553404947619182	1.7684262	1.3298218
26.571413341939856	1.7685297	1.3298608
26.589422404540397	1.7991263	1.3413152
26.60743213594006	1.829763	1.3526874
26.62544253665827	1.8224618	1.3499858
26.64345360721459	1.7731664	1.3316029
26.66146534812879	1.7196207	1.3113431
26.679477759920758	1.7094123	1.3074449
26.69749084311057	1.7291195	1.3149599
26.71550459821847	1.7957864	1.3400695
26.733519025764842	1.8395538	1.3563015
26.751534126270258	1.8130821	1.3465074
26.769549900255434	1.7954439	1.3399417
26.787566348241267	1.8018484	1.3423295
26.80558347074881	1.7892382	1.3376241
26.823601268299267	1.7853943	1.3361865
26.841619741414036	1.7588198	1.326205
26.85963889061465	1.747376	1.3218834
26.877658716422832	1.7538754	1.3243396
26.89567921936045	1.8200703	1.3490998
26.913700399949544	1.8783313	1.3705223
26.93172225871233	1.8815488	1.3716956
26.949744796171174	1.8772572	1.3701304
26.967768012848605	1.8488435	1.3597218
26.98579190926733	1.8194716	1.3488779
27.003816485950225	1.7834896	1.3354735
27.021841743420318	1.8128998	1.3464397
27.039867682200814	1.8003447	1.3417692
27.057894302815072	1.7880858	1.3371933
27.07592160578664	1.8179117	1.3482996
27.0939495916392	1.8038384	1.3430705
27.111978260896635	1.8195436	1.3489046
27.13000761408296	1.921419	1.3861526
27.148037651722397	1.9107835	1.382311
27.166068374339304	1.8137218	1.3467449
27.184099782458215	1.7768967	1.3330029
27.20213187660384	1.7950655	1.3398006
27.22016465730105	1.7796649	1.3340408
27.23819812507487	1.7953368	1.3399018
27.256232280450533	1.793251	1.3391232
27.274267123953383	1.7974415	1.3406869
27.292302656108987	1.749905	1.3228397
27.31033887744306	1.766033	1.3289218
27.32837578848146	1.828966	1.3523927
27.34641338975026	1.8785027	1.3705848
27.364451681775673	1.8245339	1.3507531
27.382490665084074	1.7430164	1.3202335
27.400530340202046	1.7837496	1.3355709
27.41857070765629	1.8155788	1.3474342
27.436611767973726	1.87645	1.3698357
27.454653521681404	1.8633438	1.3650435
27.472695969306564	1.8279198	1.3520058
27.490739111376627	1.8034979	1.3429438
27.508782948419153	1.7528801	1.3239638
27.526827480961902	1.750186	1.322946
27.54487270953279	1.8110389	1.3457484
27.562918634659898	1.8354017	1.35477
27.580965256871508	1.8438076	1.3578688
27.599012576696026	1.8436534	1.357812
27.617060594662068	1.8259752	1.3512865
27.63510931129842	1.8217446	1.3497201
27.65315872713401	1.8110273	1.3457441
27.67120884269797	1.7886289	1.3373964
27.68925965851958	1.8051345	1.343553
27.707311175128307	1.8499204	1.3601178
27.725363393053787	1.8632056	1.3649929
27.74341631282583	1.8893467	1.3745351
27.7614699349744	1.8993815	1.3781805
27.77952426002968	2.1327014	1.4603771
27.797579288521973	2.18931	1.4796318
27.815635020981784	2.4985995	1.5806959
27.83369145793979	2.4812384	1.5751947
27.85174859992682	2.3821008	1.5434055
27.869806447473923	2.2933156	1.5143697
27.887865001112267	2.0135486	1.4189956
27.905924261373233	1.9177294	1.384821
27.92398422878836	1.9027009	1.3793843
27.94204490388936	1.8406079	1.35669
27.96010628720813	1.7996519	1.341511
27.978168379276728	1.820647	1.3493135
27.9962311806274	1.8093476	1.34512
28.014294691792568	1.8166759	1.3478411
28.0323589133048	1.8564324	1.3625096
28.050423845696887	1.8990364	1.3780553
28.068489489501758	1.9069797	1.3809344
28.086555845252523	1.9156826	1.3840818
28.104622913482487	1.8905731	1.3749812
28.122690694725115	1.8896474	1.3746444
28.14075918951405	1.8983608	1.3778101
28.15882839838312	1.8646903	1.3655367
28.176898321866304	1.8613764	1.3643227
28.1949689604978	1.8782955	1.3705093
28.213040314811945	1.895159	1.3766477
28.23111238534327	1.9293348	1.389005
28.249185172626493	1.9425569	1.3937564
28.267258677196473	1.9403371	1.3929598
28.285332899588294	1.9702947	1.4036719
28.303407840337172	1.973721	1.4048918
28.321483499978545	1.9030128	1.3794973
28.33955987904799	1.9063798	1.3807172
28.357636978081285	2.006628	1.416555
28.37571479761439	2.0791245	1.441917
28.393793338183425	2.0257127	1.4232754
28.41187260032469	1.9791228	1.406813
28.429952584574686	1.9794812	1.4069403
28.448033291470065	1.9203825	1.3857787
28.46611472154769	1.9177513	1.3848289
28.484196875344566	1.9554456	1.3983725
28.502279753397914	2.03932	1.4280477
28.52036335624511	2.0694869	1.4385711
28.538447684423716	2.057526	1.434408
28.556532738471482	1.98289	1.4081513
28.574618518926325	2.0109134	1.4180667
28.59270502632635	2.0375094	1.4274136
28.61079226120985	1.998369	1.4136368
28.628880224115274	1.9677936	1.4027807
28.646968915581287	2.0201328	1.4213138
28.66505833614671	2.0608933	1.4355812
28.68314848635055	2.0846195	1.4438212
28.701239366732004	2.0667925	1.4376343
28.71933097783044	2.0119512	1.4184327
28.737423320185403	2.0213299	1.4217348
28.75551639433665	2.0761764	1.4408944
28.773610200824074	2.1136963	1.4538556
28.791704740187793	2.1052146	1.4509357
28.80980001296809	2.0950074	1.447414
28.827896019705413	2.1219223	1.456682
28.845992760940433	2.1588597	1.4693059
28.86409023721397	2.1223068	1.4568139
28.88218844906704	2.1171825	1.4550542
28.900287397040845	2.1400356	1.4628861
28.918387081676755	2.2402282	1.4967391
28.936487503516343	2.3270009	1.5254511
28.954588663101365	2.3159447	1.5218228
28.97269056097374	2.263379	1.5044531
28.990793197675597	2.292283	1.5140288
29.00889657374923	2.35516	1.5346531
29.027000689737125	2.3891501	1.5456876
29.04510554618196	2.4147696	1.5539529
29.06321114362659	2.5017357	1.5816876
29.08131748261405	2.5509892	1.5971817
29.099424563687567	2.5235207	1.5885593
29.11753238739057	2.4603302	1.568544
29.13564095426663	2.444811	1.5635892
29.15375026485954	2.5347848	1.5921007
29.171860319713275	2.6113718	1.615974
29.18997111937199	2.6569238	1.6300073
29.20808266438002	2.7341032	1.6535124
29.226194955281898	2.781046	1.6676468
29.244307992622335	2.7464862	1.6572526
29.26242177694624	2.7521322	1.6589551
29.2805363087987	2.8103435	1.6764079
29.29865158872498	2.818099	1.6787194
29.316767617270557	2.9165983	1.7078052
29.334884394981064	2.9363148	1.7135679
29.353001922402367	2.9770646	1.7254173
29.37112020008047	3.1073122	1.762757
29.389239228561596	3.2413409	1.8003725
29.407359008392152	3.4360898	1.8536693
29.42547954011872	3.780973	1.9444724
29.44360082428809	4.3137164	2.076949
29.46172286144722	5.2937584	2.300817
29.479845652143283	6.888401	2.6245763
29.497969196923606	9.072993	3.012141
29.516093496335728	11.719153	3.4233248
29.5342185509274	14.607086	3.8219218
29.55234436124651	16.762882	4.0942497
29.570470927841175	18.075445	4.2515225
29.588598251259686	17.925722	4.233878
29.60672633205055	16.551619	4.068368
29.624855170762405	14.260309	3.7762825
29.642984767944146	11.62043	3.4088752
29.66111512414481	9.013467	3.0022435
29.67924623991366	6.6851144	2.585559
29.697378115800138	5.0307274	2.2429283
29.71551075235387	4.096818	2.0240598
29.733644150124675	3.7638192	1.9400564
29.751778309662576	3.5749245	1.8907471
29.769913231517766	3.4299145	1.8520029
29.78804891624066	3.3011024	1.8168936
29.806185364381818	3.2819202	1.8116071
29.82432257649206	3.3461173	1.8292395
29.842460553122333	3.3725486	1.83645
29.86059929482382	3.3301775	1.8248774
29.878738802147872	3.2794144	1.8109154
29.896879075646048	3.2474372	1.8020647
29.915020115870114	3.28564	1.8126334
29.933161923371976	3.2671144	1.8075161
29.951304498703777	3.1682825	1.779967
29.969447842417857	3.1346033	1.7704811
29.987591955066733	3.20703	1.7908182
30.005736837203123	3.2055335	1.7904004
30.023882489379943	3.1796048	1.7831446
30.04202891215028	3.1199958	1.766351
30.060176106067455	3.0675588	1.7514448
30.078324071684946	3.071853	1.7526702
30.09647280955646	3.1819522	1.7838027
30.114622320235863	3.261368	1.8059258
30.132772604277257	3.2272627	1.7964584
30.1509236622349	3.1585681	1.7772361
30.16907549466328	3.1245878	1.7676504
30.18722810211705	3.1276696	1.7685219
30.205381485151097	3.0864449	1.7568281
30.22353564432045	3.0654733	1.7508494
30.241690580180403	2.9818985	1.7268175
30.25984629328638	2.9122107	1.7065201
30.278002784194037	2.9969578	1.7311723
30.296160053459246	3.0532844	1.747365
30.314318101638033	2.9496315	1.7174491
30.332476929286646	2.945177	1.7161518
30.35063653696153	2.952335	1.718236
30.368796925219307	2.8624666	1.6918826
30.386958094616844	2.8655522	1.6927942
30.40512004571115	2.8729901	1.6949897
30.423282779059463	2.8928733	1.7008449
30.441446295219233	2.901676	1.7034307
30.459610594748067	2.871107	1.6944342
30.47777567820382	2.7891085	1.6700624
30.495941546144504	2.7761786	1.6661868
30.51410819912835	2.7995524	1.6731863
30.532275637713795	2.834392	1.6835653
30.55044386245946	2.8115063	1.6767547
30.56861287392416	2.8327298	1.6830715
30.586782672666956	2.8357763	1.6839763
30.604953259247047	2.8824306	1.6977723
30.623124634223885	2.900614	1.7031189
30.641296798157075	2.8873966	1.6992341
30.659469751606462	2.7969706	1.6724147
30.677643495132074	2.7004583	1.6433071
30.695818029294152	2.6852295	1.638667
30.713993354653116	2.686458	1.6390418
30.73216947176962	2.695844	1.6419026
30.75034638120448	2.6995332	1.6430256
30.768524083518756	2.711428	1.6466414
30.786702579273673	2.7150953	1.6477547
30.80488186903069	2.8563273	1.6900673
30.82306195335144	3.007616	1.7342479
30.841242832797782	3.1660097	1.7793285
30.85942450793176	3.4615285	1.8605183
30.877606979315637	3.8927693	1.9730102
30.895790247511883	4.2656436	2.0653434
30.913974313083134	4.6044126	2.1457894
30.932159176592283	4.8051515	2.1920655
30.95034483860237	4.796736	2.1901453
30.968531299676698	4.552105	2.1335661
30.98671856037873	4.252024	2.0620437
31.00490662127215	3.9184585	1.9795097
31.023095482920848	3.5486314	1.8837812
31.04128514588892	3.174513	1.7817163
31.059475610740662	2.757068	1.6604421
31.07766687804056	2.5072145	1.5834186
31.09585894835335	2.4962618	1.5799563
31.11405182224393	2.5248997	1.5889933
31.132245500277417	2.5116072	1.5848051
31.15043998301914	2.463758	1.5696362
31.168635271034628	2.474355	1.5730083
31.18683136488964	2.4686255	1.5711861
31.20502826515008	2.4158545	1.554302
31.223225972382135	2.4082446	1.551852
31.241424487152155	2.4708533	1.5718948
31.259623810026692	2.4824674	1.5755848
31.27782394157253	2.4633648	1.569511
31.296024882356644	2.3970742	1.5482488
31.314226632946237	2.3978662	1.5485045
31.332429193908684	2.4097083	1.5523235
31.350632565811598	2.4225125	1.5564423
31.368836749222787	2.4749253	1.5731895
31.387041744710295	2.594555	1.6107622
31.40524755284232	2.6220963	1.6192888
31.423454174187317	2.5833156	1.6072696
31.441661609313922	2.4649165	1.5700053
31.459869858791002	2.3923564	1.5467244
31.478078923187628	2.4230137	1.5566033
31.496288803073064	2.4230125	1.5566028
31.514499499016807	2.3388133	1.529318
31.532711011588546	2.3250132	1.5247993
31.550923341358178	2.362578	1.537068
31.56913648889584	2.3467228	1.5319017
31.587350454771844	2.3142726	1.5212734
31.605565239556732	2.328091	1.5258083
31.62378084382127	2.3751254	1.5411441
31.641997268136382	2.3491273	1.5326864
31.660214513073274	2.2639256	1.5046347
31.67843257920331	2.2637858	1.5045882
31.6966514670981	2.265634	1.5052023
31.71487117732944	2.231412	1.4937911
31.733091710469346	2.215027	1.4882967
31.751313067090052	2.1857293	1.4784212
31.769535247764008	2.2102222	1.4866816
31.787758253063878	2.2037358	1.4844985
31.805982083562526	2.261853	1.5039458
31.824206739833024	2.3529186	1.5339227
31.84243222244869	2.3751452	1.5411506
31.860658531983013	2.2987309	1.5161566
31.878885669009737	2.2446616	1.4982195
31.897113634102784	2.2821267	1.5106709
31.91534242783632	2.2838998	1.5112576
31.933572050784694	2.204411	1.484726
31.951802503522508	2.2394893	1.4964924
31.970033786624548	2.241752	1.497248
31.988265900665834	2.2046719	1.4848137
32.006498846221575	2.2265427	1.4921604
32.02473262386724	2.2832918	1.5110565
32.04296723417845	2.2640102	1.5046629
32.0612026777311	2.24793	1.4993099
32.07943895510129	2.2399359	1.4966415
32.097676066865304	2.231891	1.4939514
32.115914013599685	2.1992242	1.4829781
32.13415279588115	2.1813285	1.4769322
32.152392414286666	2.1463103	1.4650291
32.1706328693934	2.060394	1.4354073
32.18887416177875	2.053781	1.4331019
32.20711629202032	2.0792131	1.4419477
32.225359260695924	2.1398072	1.462808
32.243603068383614	2.1189487	1.4556609
32.26184771566166	2.1402526	1.4629602
32.28009320310852	2.1495697	1.4661411
32.2983395313029	2.0568078	1.4341575
32.31658670082372	2.0559409	1.4338553
32.33483471225012	2.0394757	1.4281021
32.35308356616143	1.9727725	1.4045542
32.371333263137245	2.0101707	1.4178048
32.38958380375734	2.125218	1.4578127
32.407835188601744	2.1431863	1.4639626
32.42608741825067	2.1361265	1.4615494
32.444340493284585	2.0787425	1.4417845
32.46259441428416	2.0289528	1.4244132
32.48084918183028	2.0910378	1.4460421
32.49910479650405	2.133317	1.4605879
32.51736125888683	2.0495071	1.43161
32.53561856956014	2.051608	1.4323436
32.5538767291058	2.055283	1.4336258
32.572135738105764	2.0391362	1.4279833
32.59039559714228	2.0095212	1.4175758
32.608656306797776	1.9215007	1.3861821
32.62691786765491	1.8753127	1.3694205
32.645180280296586	1.8775475	1.3702363
32.663443545305896	1.8882993	1.3741541
32.68170766326619	1.9035347	1.3796865
32.69997263476099	2.0143607	1.4192817
32.7182384603741	2.1659718	1.471724
32.7365051406895	2.0979593	1.4484334
32.75477267629144	1.9101306	1.3820747
32.77304106776434	1.8653712	1.365786
32.79131031569289	1.9693491	1.403335
32.809580420661966	2.0119836	1.418444
32.827851383256714	1.9743325	1.4051094
32.84612320406245	1.9600226	1.4000081
32.86439588366476	1.9718883	1.4042394
32.88266942264945	1.9334166	1.3904735
32.9009438216025	1.8954741	1.3767622
32.9192190811102	1.9034264	1.3796473
32.937495201758985	1.9408904	1.3931584
32.95577218413556	1.9376062	1.3919792
32.974050028826866	1.8835713	1.3724326
32.992328736420035	1.8593997	1.3635981
33.010608307502444	1.8567462	1.3626248
33.02888874266169	1.8470888	1.3590765
33.047170042485604	1.9008027	1.3786961
33.06545220756225	2.055775	1.4337974
33.083735238479896	2.1008258	1.4494226
33.10201913582707	2.0923426	1.4464933
33.12030390019248	2.0047033	1.4158754
33.138589532165135	1.9252397	1.3875301
33.15687603233419	1.8694321	1.3672718
33.17516340128909	1.9036491	1.379728
33.19345163961947	2.071478	1.439263
33.211740747915215	2.1113064	1.4530336
33.23003072676643	2.0091207	1.4174346
33.248321576763466	1.9215002	1.3861818
33.266613298496885	1.9116573	1.382627
33.28490589255747	1.955331	1.3983315
33.30319935953626	1.924968	1.3874322
33.32149370002451	1.860309	1.3639314
33.339788914613706	1.934035	1.3906958
33.358085003895575	2.0007243	1.4144696
33.376381968462034	2.017059	1.420232
33.39467980890529	2.0054116	1.4161255
33.41297852581774	2.0160882	1.4198902
33.43127811979204	2.0385878	1.4277912
33.44957859142105	2.0436108	1.4295492
33.467879941297866	1.9906937	1.4109194
33.486182170015844	1.8539863	1.3616116
33.50448527816853	1.8795811	1.3709781
33.522789266349754	1.8980838	1.3777096
33.541094135153514	1.9145325	1.3836664
33.55939988517411	1.903969	1.3798438
33.57770651700602	1.8666323	1.3662475
33.59601403124398	1.7459667	1.3213503
33.61432242848296	1.6793814	1.2959095
33.632631709318154	1.7544369	1.3245516
33.650941874344994	1.772722	1.331436
33.66925292415916	1.8159878	1.3475859
33.68756485935654	1.8250557	1.3509462
33.70587768053328	1.8460844	1.3587068
33.724191388285746	1.9417493	1.3934667
33.74250598321054	1.9982916	1.4136094
33.760821465904506	1.9067438	1.3808489
33.77913783696474	1.7936192	1.3392607
33.79745509698852	1.7870729	1.3368144
33.815773246573414	1.8757463	1.3695788
33.8340922863172	1.9669548	1.4024817
33.852412216817896	1.9886187	1.4101839
33.87073303867377	1.9551183	1.3982555
33.889054752483304	1.9850376	1.4089136
33.907377358845245	2.026458	1.4235371
33.92570085835853	1.9925259	1.4115686
33.94402525162239	1.9274197	1.3883154
33.96235053923627	1.8645291	1.3654776
33.980676721799824	1.8546078	1.3618399
33.999003799912984	1.9217246	1.3862628
34.01733177417592	1.9575756	1.3991338
34.03566064518901	1.9688883	1.4031708
34.0539904135529	1.976481	1.4058738
34.07232107986846	1.9389497	1.3924618
34.090652644736785	1.9591824	1.3997079
34.108985108759235	2.0398352	1.428228
34.12731847253742	2.0328004	1.4257631
34.14565273667313	1.897542	1.3775129
34.16398790176847	1.8534191	1.3614033
34.18232396842574	1.9388486	1.3924254
34.20066093724749	2.041848	1.4289324
34.21899880883651	1.9881335	1.4100119
34.23733758379583	1.8346782	1.3545029
34.25567726272874	1.7732087	1.3316188
34.27401784623872	1.7597524	1.3265566
34.29235933492957	1.7567469	1.3254232
34.31070172940526	1.8574232	1.3628731
34.32904503027003	1.9239887	1.3870792
34.347389238128386	1.9008632	1.3787179
34.36573435358502	2.028174	1.4241397
34.38408037724492	2.1307435	1.4597067
34.402427309713296	2.0911157	1.446069
34.42077515159559	1.9061618	1.3806381
34.43912390349752	1.8543403	1.3617417
34.45747356602499	1.7696428	1.3302792
34.47582413978423	1.6936532	1.3014044
34.49417562538163	1.7415218	1.3196673
34.51252802342388	1.9327462	1.3902324
34.53088133451789	2.0106413	1.4179709
34.54923555927084	2.0399837	1.42828
34.567590698290104	1.984784	1.4088236
34.58594675218336	2.0624409	1.43612
34.6043037215585	1.9510278	1.3967919
34.62266160702365	1.8615017	1.3643686
34.641020409187234	1.8017339	1.3422868
34.65938012865785	1.8831481	1.3722785
34.677740766044394	1.8930029	1.3758644
34.69610232195598	1.9696454	1.4034406
34.714464797002016	1.9979558	1.4134907
34.73282819179208	2.0589695	1.434911
34.751192506936064	2.0498903	1.4317437
34.76955774304408	1.9188336	1.3852197
34.7879239007265	1.8075337	1.3444455
34.80629098059391	1.9561456	1.3986228
34.824658983257194	2.0499475	1.4317638
34.843027909327446	1.9493214	1.396181
34.86139775941603	1.9671748	1.4025601
34.879768534134534	1.9648864	1.401744
34.89814023409483	1.989378	1.4104531
34.91651285990901	1.9192762	1.3853794
34.93488641218944	1.8702955	1.3675874
34.95326089154871	2.039901	1.428251
34.97163629859967	2.1796548	1.4763654
34.99001263395542	2.2440922	1.4980295
35.00838989822934	2.1942701	1.4813069
35.02676809203499	2.0789475	1.4418555
35.04514721598624	2.0646954	1.4369048
35.063527270697215	2.1226408	1.4569286
35.081908256782256	2.058158	1.4346281
35.10029017485597	2.0322125	1.4255569
35.11867302553321	2.210628	1.4868181
35.137056809429104	2.2041605	1.4846416
35.155441527159006	2.08661	1.4445103
35.173827179338524	2.010969	1.4180864
35.19221376658354	2.281061	1.5103182
35.21060128951017	2.4716291	1.5721415
35.2289897487348	2.3049598	1.5182093
35.24737914487405	2.1311352	1.4598408
35.26576947854479	1.9459305	1.3949661
35.28416075036418	1.8891388	1.3744595
35.30255296094958	2.0020814	1.4149493
35.32094611091867	2.1434991	1.4640694
35.33934020088932	2.2756958	1.508541
35.35773523147969	2.4313955	1.5592933
35.3761312033082	2.3285398	1.5259554
35.394528116993506	2.2323675	1.494111
35.41292597315452	2.318266	1.5225853
35.431324772410434	2.0836747	1.443494
35.449724515380666	2.0672903	1.4378074
35.46812520268491	2.3615599	1.5367367
35.486526834943106	2.3671665	1.5385599
35.504929412775454	2.0982933	1.4485487
35.52333293680242	2.247709	1.4992361
35.54173740764471	2.2913845	1.513732
35.560142825923286	1.9026623	1.3793702
35.5785491922594	1.5486158	1.2444339
35.59695650727454	1.2811124	1.1318624
35.61536477159042	0.6898081	0.83054686
