0.008763373481513119	0.3822274	0.6182454
0.026290120649546365	0.19633481	0.44309685
0.043816868432600686	0.13175425	0.36297968
0.06134361724069026	0.015320444	0.12377578
0.07887036748382949	0.007021293	0.083793156
0.0963971195720331	0.05314522	0.23053247
0.11392387391531617	0.1257868	0.35466436
0.1314506309236943	0.23588799	0.48568302
0.1489773910071836	0.30649891	0.55362344
0.16650415457580078	0.2531199	0.50311023
0.18403092203956356	0.25675535	0.50671035
0.20155769380849	0.23911601	0.4889949
0.2190844702925996	0.20205835	0.449509
0.2366112519019124	0.16218325	0.40271983
0.2541380390464497	0.0999985	0.31622538
0.27166483213623416	0.117569916	0.3428847
0.28919163158128947	0.14301537	0.37817374
0.3067184377916406	0.17229539	0.4150848
0.324245251177314	0.15714894	0.39642015
0.34177207214833777	0.15748237	0.39684048
0.3592989011147415	0.1121752	0.33492565
0.37682573848655654	0.1043449	0.3230246
0.39435258467381573	0.06593292	0.25677407
0.41187944008655414	0.113091365	0.3362906
0.42940630513480854	0.11200343	0.33466914
0.446933180228618	0.15067929	0.3881743
0.4644600657780234	0.14050579	0.37484103
0.48198696219306775	0.14070174	0.3751023
0.49951386988379676	0.16152558	0.40190244
0.5170407892602581	0.18481807	0.42990473
0.5345677207325025	0.20677227	0.4547222
0.5520946647105822	0.22258805	0.47179237
0.5696216216045534	0.22492386	0.47426137
0.5871485918244737	0.22030045	0.46936175
0.6046755757804043	0.22108023	0.4701917
0.6222025738824094	0.1960323	0.44275534
0.6397295865405557	0.1788592	0.4229175
0.6572566141649129	0.18943234	0.43523824
0.6747836571655547	0.18676187	0.43215954
0.6923107159525568	0.16421854	0.40523887
0.7098377909359992	0.16764994	0.40945077
0.7273648825259653	0.16468768	0.4058173
0.7448919911325411	0.19114175	0.43719763
0.762419117165817	0.17550525	0.41893348
0.7799462610358868	0.15032803	0.38772157
0.7974734231528482	0.15690142	0.39610785
0.8150006039268024	0.14030476	0.37457278
0.8325278037678551	0.19411175	0.44058114
0.8500550230861152	0.2356316	0.485419
0.8675822622916969	0.22634907	0.47576156
0.8851095217947171	0.21940461	0.46840647
0.9026368020052984	0.20522732	0.45302022
0.9201641033335665	0.2270659	0.47651434
0.9376914261896523	0.26078892	0.51067495
0.9552187709836915	0.2944607	0.54264235
0.9727461381258234	0.33945748	0.5826298
0.990273528026193	0.3382559	0.58159775
1.0078009410949496	0.30024084	0.5479424
1.0253283777422473	0.2719644	0.5215021
1.0428558383782454	0.27502573	0.52442896
1.0603833234131086	0.2746113	0.52403367
1.0779108332570058	0.2938078	0.5420404
1.0954383683201119	0.3201394	0.56580865
1.112965929012607	0.3997038	0.63222134
1.1304935157446763	0.5587004	0.74746263
1.1480211289265108	0.5826962	0.7633454
1.1655487689683062	1.3405873	1.1578373
1.1830764362802655	1.596915	1.2636911
1.200604131272596	1.9850963	1.4089345
1.2181318543555117	2.2647471	1.5049077
1.235659605939232	2.1960785	1.4819171
1.253187386433982	3.563061	1.8876072
1.270715196249994	5.9889693	2.447237
1.2882430357975057	11.524834	3.3948245
1.3057709054867608	16.495956	4.0615215
1.3232988057280106	22.322367	4.724655
1.3408267369315112	27.25463	5.220597
1.358354699507526	30.678692	5.538835
1.3758826938663256	34.729122	5.8931417
1.3934107204181858	36.840027	6.0695987
1.410938779573391	37.31223	6.1083736
1.4284668717422309	37.557716	6.128435
1.4459949973350033	36.96317	6.0797343
1.4635231567620117	36.747498	6.061971
1.4810513504335687	36.16376	6.0136313
1.4985795787599925	35.57077	5.9641237
1.5161078421516088	35.382084	5.948284
1.5336361410187505	34.72116	5.8924665
1.5511644757717598	34.605766	5.8826666
1.5686928468209842	34.97719	5.9141517
1.58622125457678	35.81671	5.9847064
1.6037496994495108	37.44803	6.1194797
1.621278181849548	37.67804	6.138244
1.6388067021872719	38.45047	6.2008443
1.6563352608730693	37.911842	6.1572595
1.673863858317336	37.28032	6.105761
1.6913924949304753	36.1352	6.011256
1.7089211711228998	34.852028	5.9035606
1.7264498873050296	33.814278	5.8150043
1.7439786438872935	32.884552	5.734505
1.7615074412801288	31.891699	5.6472735
1.779036279893981	31.172983	5.583277
1.796565160139305	30.660313	5.5371757
1.814094082426564	30.259731	5.5008845
1.8316230471662298	29.358192	5.41832
1.849152054768784	28.401142	5.3292723
1.8666811056447168	27.534496	5.247332
1.8842102002045273	26.948381	5.191183
1.901739338858724	26.456396	5.143578
1.9192685220178245	25.773138	5.076725
1.9367977500923557	24.799791	4.979939
1.9543270234928547	24.372654	4.9368668
1.971856342629867	24.070284	4.9061475
1.9893857079139496	23.620886	4.860132
2.006915119755667	23.049986	4.80104
2.0244445785655945	22.233953	4.715289
2.0419740847543175	21.989513	4.6892977
2.0595036387324317	21.650742	4.6530356
2.0770332409105414	21.228958	4.6074896
2.094562891699263	20.740114	4.5541315
2.1120925915092217	19.942879	4.465745
2.129622340751053	19.610722	4.4283996
2.1471521398354043	187.66628	13.699134
2.1646819891729323	444.1346	21.074501
2.182211889174303	440.65292	20.991735
2.1997418402501974	453.16595	21.287695
2.2172718428113023	433.1318	20.81182
2.234801897268317	321.04633	17.917767
2.2523320040319548	17.352982	4.165691
2.269862163512935	16.92751	4.1143055
2.287392376121992	16.603277	4.074712
2.304922642269869	16.335716	4.0417466
2.322452962367322	16.347204	4.0431676
2.3399833368251164	16.182045	4.0226912
2.357513766054032	15.773646	3.971605
2.3750442504648586	15.371397	3.9206374
2.3925747904683963	15.0794525	3.883227
2.410105386475459	14.92647	3.863479
2.4276360388968707	14.618638	3.8234327
2.445166748143469	14.370009	3.7907796
2.4626975146261025	13.931001	3.7324257
2.4802283387556323	13.72347	3.7045202
2.4977592209429305	13.48294	3.6719122
2.5152901615988825	13.1418295	3.6251662
2.5328211611343865	12.8625765	3.5864434
2.5503522199603523	12.646044	3.5561275
2.5678833384877024	12.524782	3.539037
2.5854145171273712	12.328672	3.511221
2.6029457562903064	12.117254	3.4809847
2.620477056387469	11.987911	3.4623563
2.6380084178298326	11.850697	3.4424841
2.655539841028383	11.718604	3.4232447
2.673071326394119	11.681466	3.417816
2.6906028743380523	11.530285	3.3956273
2.708134485271211	11.244719	3.3533146
2.7256661596046325	11.130545	3.3362472
2.743197897749369	10.903009	3.3019705
2.760729700116486	10.817552	3.2890046
2.778261567117063	10.489153	3.238696
2.795793499162193	10.424402	3.2286842
2.8133254966629817	10.106439	3.1790626
2.830857560030551	9.803443	3.131045
2.8483896896760337	9.578426	3.0949032
2.865921886010578	9.406551	3.0670102
2.883454149445347	9.368185	3.060749
2.9009864803915177	9.359829	3.0593839
2.91851887926028	9.199414	3.0330536
2.9360513464628384	9.188509	3.0312552
2.953583882410413	9.015648	3.0026069
2.9711164875142373	8.985123	2.9975195
2.9886491621855606	8.8982115	2.982987
3.0061819068356455	8.758831	2.9595323
3.023714721875769	8.711424	2.951512
3.041247607717225	8.539128	2.9221787
3.0587805647713213	8.311089	2.882896
3.0763135934493806	8.080569	2.8426342
3.0938466941627407	7.9818883	2.8252237
3.1113798673227544	7.9759	2.8241637
3.1289131133407904	8.024552	2.8327641
3.1464464326282315	7.9223866	2.8146734
3.1639798255964786	7.8728604	2.8058617
3.1815132926569443	7.815472	2.7956166
3.1990468342210603	7.7878327	2.790669
3.216580450700272	7.5949683	2.755897
3.2341141425060416	7.3463445	2.7104142
3.251647910049847	7.1729007	2.6782272
3.2691817537431813	7.1694536	2.6775835
3.286715673997555	7.237507	2.6902616
3.3042496712244938	7.1488533	2.673734
3.32178374583554	7.0465145	2.6545272
3.339317898242251	6.9143596	2.629517
3.3568521288562034	6.9326563	2.6329937
3.3743864380889876	6.9342346	2.6332934
3.3919208263522127	6.784434	2.6046946
3.4094552940575023	6.7943406	2.6065955
3.4269898416164972	6.8113413	2.6098547
3.444524469440858	6.8483763	2.6169403
3.4620591779422587	6.775942	2.6030638
3.479593967532391	6.5246563	2.5543406
3.4971288386229658	6.3657365	2.523041
3.5146637916257086	6.2463636	2.4992726
3.5321988269523628	6.263183	2.5026352
3.5497339450146903	6.3176293	2.5134895
3.5672691462244708	6.3429008	2.5185115
3.5848044309934988	6.2696824	2.5039334
3.60233979973359	6.2924366	2.508473
3.619875252856575	6.370406	2.5239663
3.6374107907743034	6.376421	2.5251577
3.6549464138986427	6.3746037	2.5247977
3.6724821226414788	6.374746	2.5248258
3.690017917414714	6.4055142	2.5309117
3.7075537986302702	6.464496	2.5425375
3.7250897667000857	6.4530706	2.5402894
3.7426258220361235	6.6826234	2.585077
3.7601619650503553	7.0445833	2.6541634
3.777698196154779	7.574857	2.752246
3.7952345157614067	8.565317	2.9266562
3.8127709242822716	9.224584	3.0372
3.830307422129425	11.457447	3.384885
3.847844009714936	30.33898	5.5080833
3.8653806874508954	97.9501	9.896975
3.882917455749409	97.115395	9.854714
3.900454315022606	96.69672	9.833448
3.917991265682631	41.202797	6.4189405
3.9355283081416506	10.818194	3.2891023
3.9530654428118495	8.703358	2.9501455
3.970602670105433	7.431455	2.7260695
3.9881399904346244	6.6164618	2.5722485
4.005677404211669	6.6778445	2.5841525
4.023214911848827	6.6463757	2.5780566
4.0407525137583855	6.619462	2.5728316
4.058290210352644	6.475864	2.544772
4.075828002043927	6.4289184	2.5355313
4.0933658892445814	6.4201503	2.5338016
4.110903872366966	6.3626614	2.5224316
4.128441951823468	6.2948503	2.508954
4.145980128026488	6.2738347	2.5047624
4.163518401388452	6.385199	2.526895
4.181056772321807	6.4308057	2.5359032
4.1985952412390155	6.427432	2.535238
4.216133808552567	6.3117166	2.512313
4.233672474674966	6.292946	2.5085745
4.251211240018741	6.540625	2.5574646
4.268750104996445	6.8321905	2.6138458
4.286289070020643	7.741865	2.7824206
4.303828135503928	9.409118	3.0674286
4.3213673018589125	29.611671	5.441661
4.3389065694982305	90.71609	9.524499
4.356445938834537	166.02707	12.885149
4.3739854102805085	171.4078	13.09228
4.391524984248844	172.26045	13.124803
4.409064661152262	136.31766	11.675515
4.426604441403504	96.69016	9.833116
4.444144325415337	75.95028	8.714946
4.461684313600543	21.939562	4.6839685
4.47922440637193	22.240002	4.7159305
4.496764604142329	20.592415	4.5378866
4.5143049073245916	18.610073	4.3139396
4.531845316331589	16.501896	4.0622525
4.5493858315762195	13.50798	3.6753204
4.566926453471405	11.268863	3.3569126
4.584467182430081	9.224567	3.0371974
4.602008018865218	8.120718	2.8496873
4.619548963189798	7.48128	2.7351928
4.637090015816834	6.947323	2.6357775
4.654631177159353	6.735365	2.5952582
4.672172447630417	6.4277873	2.5353081
4.689713827643102	6.2955627	2.509096
4.7072553176105085	6.0636396	2.462446
4.724796917945764	5.8835993	2.4256132
4.742338629062015	5.8284006	2.4142082
4.759880451372434	5.862511	2.4212623
4.777422385290215	5.843193	2.4172697
4.794964431228581	5.7915874	2.4065716
4.812506589600768	5.6420145	2.3752925
4.830048860820047	5.609243	2.3683841
4.847591245299709	5.5838294	2.3630128
4.8651337434530655	5.5744643	2.3610303
4.882676355693457	5.5725026	2.3606148
4.900219082434242	5.5127788	2.3479307
4.917761924088813	5.4278717	2.3297794
4.935304881070575	5.394122	2.322525
4.952847953792969	5.3929067	2.3222632
4.970391142669449	5.4499555	2.334514
4.9879344481135055	5.4330783	2.3308964
5.005477870538642	5.4642234	2.3375678
5.023021410358394	5.466006	2.337949
5.040565067986324	5.4149275	2.3269997
5.05810884383601	5.3847985	2.3205168
5.075652738321066	5.324857	2.3075652
5.09319675185512	5.410818	2.3261166
5.110740884851836	5.442467	2.3329096
5.128285137724894	5.490269	2.3431323
5.145829510888007	5.444173	2.333275
5.163374004754908	5.476747	2.340245
5.1809186197393595	5.4150124	2.327018
5.198463356255145	5.38523	2.3206098
5.216008214716077	5.320281	2.3065734
5.233553195535998	5.284902	2.2988915
5.251098299128764	5.260052	2.2934804
5.268643525908272	5.2594075	2.2933397
5.286188876288432	5.175798	2.275038
5.3037343506831895	5.21472	2.283576
5.32127994950651	5.1848664	2.2770302
5.3388256731723915	5.257693	2.292966
5.356371522094851	5.2405252	2.2892194
5.373917496687938	5.2708917	2.2958422
5.391463597365729	5.219973	2.2847261
5.40900982454232	5.1279907	2.2645068
5.426556178631843	5.1035285	2.259099
5.444102660048449	5.0660276	2.2507837
5.4616492692063225	5.139219	2.2669845
5.479196006519669	5.224295	2.2856717
5.496742872402727	5.281355	2.2981198
5.514289867269756	5.234826	2.287974
5.531836991535049	5.2171273	2.2841032
5.549384245612924	5.199014	2.2801347
5.566931629917724	5.276709	2.297109
5.584479144863822	5.2870617	2.2993612
5.6020267908656205	5.270395	2.295734
5.619574568337545	5.1591077	2.2713668
5.637122477694054	5.106297	2.2597117
5.654670519349629	5.128454	2.264609
5.672218693718784	5.1821766	2.2764394
5.689767001216059	5.209497	2.2824323
5.707315442256021	5.162604	2.2721364
5.724864017253266	5.106799	2.2598228
5.7424127266224225	5.070532	2.251784
5.75996157077814	5.0538707	2.2480814
5.777510550135105	5.0247755	2.241601
5.795059665108022	5.1572447	2.2709568
5.812608916111639	5.225126	2.2858534
5.830158303560715	5.4050145	2.3248687
5.847707827870055	5.4254084	2.3292506
5.86525748945448	5.4624524	2.337189
5.8828072887288485	5.5723305	2.3605785
5.900357226108044	5.590833	2.3644943
5.917907302006979	5.726198	2.3929477
5.9354575168406	6.392487	2.5283368
5.9530078710238765	7.021081	2.6497324
5.970558364971812	7.4867444	2.7361915
5.988108999099438	7.7899175	2.7910423
6.005659773821818	8.350994	2.8898087
6.023210689554039	8.127207	2.8508255
6.040761746711227	8.565202	2.9266367
6.058312945708531	7.941003	2.8179786
6.075864286961132	7.4070697	2.7215931
6.093415770884244	6.726272	2.5935059
6.1109673978931065	6.1732597	2.4846046
6.128519168402993	5.565624	2.3591576
6.146071082829204	5.369641	2.3172486
6.163623141587075	5.2455387	2.2903142
6.181175345091969	5.162025	2.2720091
6.198727693759281	5.184992	2.2770576
6.216280188004435	5.2040477	2.281238
6.233832828242885	5.204873	2.281419
6.251385614890126	5.20646	2.281767
6.268938548361669	5.1549325	2.2704477
6.286491629073067	5.061279	2.2497287
6.304044857439898	5.043699	2.2458181
6.321598233877777	5.040315	2.2450647
6.339151758802344	5.0331974	2.2434788
6.356705432629277	5.047305	2.246621
6.37425925577428	4.999395	2.2359326
6.391813228653095	4.8885455	2.2110054
6.409367351681486	4.8741813	2.2077549
6.426921625275259	4.843221	2.200732
6.44447604985025	4.977303	2.230987
6.46203062582232	5.052314	2.2477353
6.47958535360737	5.1289372	2.2647157
6.497140233621328	5.114885	2.2616112
6.514695266280161	5.054237	2.248163
6.532250451999859	5.087774	2.2556095
6.549805791196454	5.095714	2.2573688
6.567361284286002	5.104766	2.259373
6.584916931684597	5.0976353	2.2577944
6.602472733808367	5.039405	2.2448618
6.6200286910734665	4.9444475	2.2236114
6.637584803896092	4.8268824	2.1970167
6.655141072692462	4.85019	2.2023146
6.672697497878842	4.891272	2.211622
6.690254079871514	4.9299536	2.2203498
6.707810819086808	5.0022984	2.2365818
6.725367715941078	5.0105596	2.2384279
6.742924770850719	5.026492	2.241984
6.760481984232151	5.0232778	2.241267
6.778039356501836	5.004852	2.2371526
6.795596888076266	5.0416617	2.2453644
6.813154579371963	5.066543	2.2508984
6.830712430805492	5.0790434	2.2536733
6.84827044279344	5.0460815	2.2463484
6.865828615752445	5.067887	2.2511969
6.883386950099159	5.1252956	2.2639115
6.900945446250287	5.142291	2.267662
6.918504104622553	5.1748714	2.2748344
6.936062925632727	5.1468296	2.2686625
6.953621909697607	5.119801	2.2626977
6.971181057234028	5.1249466	2.2638345
6.988740368658859	5.1380587	2.2667286
7.006299844389007	5.193722	2.2789738
7.023859484841407	5.302632	2.3027444
7.041419290433036	5.407698	2.325446
7.058979261580902	5.487099	2.3424559
7.0765393987020495	5.6388316	2.3746223
7.094099702213559	5.9699717	2.4433525
7.111660172532549	6.282682	2.506528
7.129220810076164	6.6827555	2.5851026
7.146781615261595	7.3089914	2.7035146
7.16434258850606	7.5630965	2.7501085
7.181903730226821	7.95908	2.8211842
7.1994650408411704	8.109	2.8476307
7.217026520766437	8.245227	2.8714504
7.234588170419983	8.580228	2.9292026
7.252149990219215	8.628069	2.9373574
7.269711980581568	8.527501	2.9201884
7.2872741419245175	8.237229	2.8700573
7.304836474665574	7.823841	2.797113
7.322398979222286	7.5343065	2.7448692
7.339961656012233	7.2011037	2.6834872
7.357524505453039	6.84252	2.6158211
7.375087527962357	6.5796185	2.5650766
7.392650723957886	6.3570275	2.5213146
7.410214093857353	5.963337	2.4419944
7.427777638078528	5.73268	2.3943017
7.445341357039213	5.526334	2.3508155
7.4629052511572525	5.4197583	2.3280375
7.480469320850524	5.3856044	2.3206904
7.498033566536948	5.362527	2.315713
7.5155979886344735	5.3327093	2.3092659
7.5331625875610975	5.2809973	2.298042
7.550727363734844	5.27675	2.2971177
7.568292317573788	5.1832404	2.276673
7.585857449496025	5.235732	2.2881722
7.603422759919705	5.2433615	2.2898388
7.620988249263007	5.3203325	2.3065846
7.638553917944147	5.335956	2.309969
7.656119766381391	5.351981	2.3134348
7.673685794993023	5.2596817	2.2933996
7.691252004197388	5.2284274	2.2865756
7.70881839441285	5.170848	2.2739499
7.726384966057826	5.175338	2.274937
7.743951719550762	5.204795	2.2814019
7.761518655310149	5.2484736	2.2909548
7.779085773754511	5.263182	2.2941625
7.796653075302419	5.2898808	2.299974
7.814220560372475	5.2562203	2.2926447
7.831788229383323	5.2664833	2.294882
7.8493560827536495	5.342831	2.3114564
7.866924120902174	5.376184	2.31866
7.884492344247663	5.4067655	2.3252451
7.9020607532089135	5.3939047	2.322478
7.919629348204771	5.401513	2.3241155
7.937198129654115	5.3773894	2.31892
7.954767097975865	5.4068246	2.325258
7.972336253588986	5.443021	2.3330283
7.989905596912472	5.52225	2.3499467
8.007475128365371	5.515523	2.348515
8.025044848366756	5.54781	2.3553789
8.042614757335754	5.605433	2.3675795
8.060184855691523	5.721716	2.392011
8.07775514385327	5.8824024	2.4253664
8.095325622240228	5.959783	2.4412668
8.112896291271687	5.8478427	2.4182312
8.130467151366968	5.8272414	2.413968
8.148038202945436	5.766251	2.4013019
8.165609446426497	5.776142	2.4033606
8.183180882229594	5.8542542	2.4195566
8.200752510774217	5.9179955	2.432693
8.218324332479893	6.02285	2.4541495
8.235896347766193	6.0194664	2.45346
8.253468557052724	6.0424557	2.4581406
8.27104096075914	6.049413	2.4595554
8.288613559305137	6.0791035	2.4655838
8.306186353110448	6.1170583	2.4732687
8.32375934259485	6.1828566	2.486535
8.341332528178162	6.233999	2.4967978
8.358905910280246	6.314208	2.5128088
8.376479489321003	6.2734256	2.5046806
8.394053265720377	6.335656	2.517073
8.411627239898356	6.329859	2.515921
8.42920141227497	6.311762	2.512322
8.44677578327029	6.303268	2.510631
8.464350353304427	6.23371	2.4967399
8.48192512279754	6.207948	2.4915755
8.499500092169827	6.13018	2.47592
8.51707526184153	6.1457677	2.479066
8.534650632232934	6.226334	2.4952624
8.552226203764365	6.2616444	2.5023277
8.569801976856192	6.2512145	2.500243
8.587377951928834	6.2926126	2.508508
8.60495412940274	6.2893553	2.5078588
8.622530509698416	6.3521976	2.5203567
8.6401070932364	6.365187	2.5229323
8.657683880437283	6.4654655	2.542728
8.675260871721695	6.5871243	2.5665393
8.692838067510303	6.7428937	2.5967083
8.710415468223834	6.938524	2.6341078
8.727993074283043	7.1154585	2.6674817
8.745570886108737	7.071722	2.659271
8.763148904121765	7.0788302	2.660607
8.78072712874302	7.112982	2.6670175
8.798305560393441	7.3797903	2.716577
8.815884199494006	7.5927057	2.7554865
8.833463046465745	7.7891464	2.7909043
8.851042101729728	7.920687	2.8143716
8.86862136570707	8.200334	2.8636224
8.886200838818924	8.391579	2.8968222
8.903780521486505	8.447312	2.906426
8.921360414131055	8.496203	2.9148247
8.938940517173874	8.561541	2.926011
8.956520831036297	8.736716	2.9557936
8.97410135613971	9.052104	3.0086715
8.99168209290554	9.310065	3.05124
9.009263041755265	9.605601	3.0992904
9.026844203110405	9.87577	3.1425738
9.044425577392525	10.076233	3.1743083
9.062007165023239	10.172927	3.1895027
9.079588966424197	10.434915	3.2303119
9.097170982017108	10.520541	3.2435384
9.11475321222372	11.447316	3.3833883
9.132335657465825	12.396341	3.5208437
9.149918318165264	12.494391	3.5347407
9.167501194743924	13.067675	3.614924
9.18508428762374	12.745059	3.5700223
9.202667597226693	12.724462	3.5671363
9.220251123974803	12.425348	3.5249608
9.237834868290143	12.044207	3.4704764
9.255418830594836	11.780144	3.4322214
9.273003011311046	11.243334	3.3531082
9.290587410860985	11.043	3.323101
9.308172029666911	10.476981	3.2368164
9.32575686815113	10.205294	3.1945724
9.343341926735997	8.859158	2.9764338
9.360927205843916	8.656272	2.9421544
9.378512705897327	8.446376	2.906265
9.396098427318728	8.196273	2.8629134
9.413684370530664	8.095756	2.845304
9.431270535955722	7.9815	2.8251548
9.448856924016539	7.9537873	2.820246
9.466443535135806	7.8788304	2.8069255
9.484030369736251	7.87731	2.8066545
9.501617428240658	7.798231	2.7925313
9.519204711071852	7.7465386	2.7832603
9.536792218652714	7.7512155	2.7841005
9.55437995140617	7.770717	2.7876005
9.571967909755191	7.7977095	2.7924378
9.589556094122802	7.840181	2.8000324
9.60714450493207	7.9399905	2.8177989
9.624733142606116	8.049592	2.8371804
9.642322007568108	8.124535	2.8503568
9.659911100241267	8.154891	2.855677
9.677500421048851	8.11492	2.8486698
9.695089970414175	8.037098	2.8349776
9.712679748760609	7.976505	2.8242707
9.730269756511557	8.077143	2.8420315
9.747859994090492	8.212826	2.8658028
9.765450461920915	8.25995	2.8740127
9.78304116042639	8.261151	2.8742218
9.800632090030527	8.26182	2.8743382
9.81822325115699	8.277804	2.8771174
9.835814644229481	8.372508	2.8935287
9.853406269671762	8.293312	2.879811
9.870998127907646	8.273599	2.8763864
9.888590219360985	8.311161	2.8829083
9.906182544455698	8.356518	2.8907642
9.923775103615734	8.395572	2.8975112
9.941367897265108	8.362012	2.8917143
9.958960925827878	8.356853	2.8908222
9.97655418972816	8.354088	2.890344
9.994147689390106	8.379552	2.8947456
10.011741425237934	8.3673115	2.8926306
10.029335397695904	8.396012	2.8975873
10.04692960718833	8.418512	2.9014673
10.06452405413958	8.444802	2.9059942
10.082118738974064	8.417069	2.9012187
10.099713662116246	8.420528	2.9018147
10.117308823990651	8.441681	2.905457
10.134904225021844	8.397137	2.8977814
10.152499865634445	8.340209	2.887942
10.170095746253125	8.275226	2.8766692
10.18769186730261	8.306924	2.8821735
10.205288229207675	8.30795	2.8823514
10.222884832393145	8.232281	2.8691952
10.2404816772839	8.167167	2.8578255
10.258078764304868	8.165827	2.8575912
10.275676093881035	8.14895	2.8546364
10.293273666437438	8.1577835	2.8561833
10.310871482399158	8.13289	2.8518221
10.32846954219134	8.044839	2.8363426
10.346067846239173	8.062378	2.8394327
10.363666394967908	8.112279	2.8482063
10.38126518880283	8.178302	2.859773
10.398864228169298	8.246146	2.8716104
10.416463513492713	8.247087	2.8717742
10.434063045198531	8.164615	2.857379
10.451662823712262	8.139781	2.8530302
10.469262849459467	8.141211	2.8532808
10.486863122865758	8.110853	2.847956
10.504463644356806	8.126712	2.8507388
10.522064414358338	8.026579	2.8331218
10.539665433296118	7.9529977	2.820106
10.557266701595987	7.8901296	2.8089375
10.574868219683818	7.8651576	2.804489
10.592469987985552	7.8203807	2.7964942
10.610072006927185	7.730684	2.7804108
10.627674276934751	7.652478	2.7663114
10.64527679843435	7.5136924	2.7411115
10.662879571852143	7.3942413	2.7192354
10.680482597614331	7.228013	2.6884964
10.698085876147173	7.1343	2.671011
10.715689407876988	7.074786	2.659847
10.733293193230146	7.0151386	2.6486106
10.750897232633072	6.874763	2.6219769
10.76850152651225	6.664757	2.581619
10.786106075294207	6.547707	2.5588489
10.803710879405534	6.5351763	2.556399
10.821315939272877	6.53639	2.5566363
10.83892125532294	6.4743867	2.5444815
10.856526827982472	6.3611155	2.5221252
10.874132657678285	6.320136	2.513988
10.891738744837243	6.234952	2.4969885
10.909345089886271	6.2000527	2.4899905
10.926951693252343	6.141869	2.4782794
10.944558555362494	6.0940022	2.4686034
10.96216567664381	5.9409294	2.4374022
10.979773057523436	5.8421464	2.4170532
10.997380698428573	5.876122	2.4240713
11.014988599786477	5.835428	2.415663
11.032596762024461	5.821492	2.412777
11.050205185569892	5.721829	2.3920345
11.067813870850198	5.6828423	2.3838713
11.085422818292859	5.610024	2.3685489
11.10303202832541	5.538565	2.3534157
11.120641501375454	5.460804	2.3368363
11.138251237870636	5.3791165	2.3192923
11.155861238238671	5.2863393	2.299204
11.173471502907317	5.1926594	2.2787406
11.191082032304402	5.169399	2.273631
11.208692826857805	5.1437755	2.2679894
11.226303886995465	5.045782	2.2462819
11.243915213145371	4.9662337	2.228505
11.261526805735578	4.9222603	2.2186167
11.279138665194196	4.9309673	2.2205782
11.296750791949393	4.9240785	2.2190266
11.314363186429393	4.8645577	2.2055743
11.331975849062479	4.8061795	2.1923
11.34958878027699	4.709036	2.1700313
11.36720198050133	4.689017	2.1654139
11.384815450163948	4.632868	2.1524098
11.402429189693366	4.605781	2.1461084
11.420043199518153	4.581973	2.1405544
11.437657480066942	63.540424	7.971225
11.455272031768422	85.19606	9.230171
11.472886855051353	107.51845	10.36911
11.490501950344528	99.133446	9.956578
11.508117318076819	84.528305	9.193928
11.52573295867715	45.941277	6.7779994
11.543348872574514	4.2460914	2.0606046
11.560965060197946	4.166104	2.0411036
11.57858152197655	4.1597576	2.0395484
11.59619825833949	4.0926704	2.023035
11.613815269715985	4.044252	2.0110326
11.631432556535323	38.526848	6.207
11.649050119226837	83.0547	9.113436
11.666667958219929	93.502716	9.669681
11.68428607394406	107.78318	10.381867
11.701904466828756	82.59794	9.088341
11.719523137303586	65.40562	8.087374
11.737142085798196	4.5956116	2.1437378
11.754761312742286	3.742278	1.9344969
11.772380818565619	3.7106621	1.9263079
11.790000603698015	3.6787481	1.9180063
11.80762066856935	3.6312315	1.9055791
11.825241013609572	3.6116948	1.9004459
11.842861639248683	3.5800185	1.8920937
11.860482545916748	3.52572	1.8776901
11.878103734043883	3.4853735	1.8669155
11.895725204060282	3.4567785	1.8592414
11.91334695639619	3.3914866	1.841599
11.930968991481919	3.3198178	1.8220367
11.948591309747824	3.303493	1.8175514
11.966213911624347	3.2917967	1.8143309
11.98383679754198	3.3292718	1.8246292
12.001459967931268	3.3174045	1.8213743
12.019083423222835	3.2889483	1.8135458
12.036707163847352	3.2480345	1.8022304
12.05433119023556	3.2311254	1.7975332
12.071955502818259	3.2312667	1.7975725
12.089580102026313	3.230295	1.7973021
12.107204988290643	3.2404172	1.800116
12.12483016204224	3.198904	1.788548
12.142455623712152	3.187329	1.7853092
12.16008137373149	3.1899228	1.7860355
12.177707412531431	3.170116	1.7804819
12.19533374054321	3.1475544	1.7741349
12.212960358198126	3.077792	1.7543637
12.230587265927545	3.083836	1.7560854
12.248214464162889	3.0853853	1.7565265
12.265841953335649	3.0683987	1.7516845
12.283469733877375	3.0335813	1.7417179
12.301097806219685	3.0033257	1.7330105
12.31872617079425	2.9907362	1.7293745
12.336354828032825	2.9743495	1.7246302
12.353983778367205	2.9443164	1.715901
12.371613022229262	2.9331787	1.7126526
12.389242560050928	2.9212656	1.709171
12.406872392264201	2.9288864	1.711399
12.424502519301143	2.8822541	1.6977203
12.442132941593874	2.9175653	1.7080882
12.459763659574586	2.9375596	1.7139311
12.477394673675532	2.950168	1.7176052
12.49502598432903	2.8861291	1.6988611
12.51265759196746	2.8253055	1.6808645
12.530289497023267	2.8348515	1.6837018
12.547921699928967	2.8450825	1.6867373
12.565554201117134	2.8364096	1.6841644
12.583187001020404	2.817755	1.678617
12.600820100071486	2.7774594	1.6665711
12.618453498703152	2.8034844	1.6743609
12.636087197348235	2.8125665	1.6770709
12.65372119643964	2.8226125	1.6800632
12.671355496410326	2.800292	1.6734073
12.68899009769333	2.8283587	1.6817725
12.706625000721749	2.8607013	1.6913608
12.724260205928752	2.885584	1.6987007
12.741895713747551	2.8929944	1.7008805
12.759531524611454	2.918292	1.708301
12.777167638953818	2.9432766	1.715598
12.794804057208072	2.989942	1.7291449
12.812440779807702	3.068253	1.751643
12.830077807186271	3.2533288	1.8036987
12.847715139777405	3.2845953	1.8123453
12.865352778014795	3.44683	1.856564
12.882990722332197	3.587795	1.8941475
12.90062897316344	3.684683	1.9195528
12.918267530942412	3.7588985	1.9387879
12.935906396103071	3.6578107	1.9125403
12.953545569079449	3.8575358	1.964061
12.971185050305628	3.6964188	1.9226073
12.988824840215775	3.6404107	1.907986
13.006464939244115	3.6323678	1.9058772
13.024105347824943	3.4736176	1.8637644
13.041746066392617	3.5510294	1.8844175
13.05938709538157	3.3496413	1.8302026
13.077028435226296	3.369868	1.8357201
13.094670086361363	3.3054898	1.8181006
13.112312049221401	3.213047	1.7924974
13.129954324241112	3.1030264	1.7615409
13.147596911855258	2.898014	1.7023555
13.165239812498685	2.8682308	1.6935852
13.182883026606293	2.8030567	1.6742332
13.200526554613058	2.7475874	1.6575848
13.218170396954017	2.720993	1.6495433
13.235814554064284	2.739519	1.6551492
13.253459026379034	2.780974	1.6676252
13.271103814333523	2.7425766	1.6560726
13.288748918363058	2.7285566	1.6518344
13.306394338903031	2.6912136	1.6404918
13.32404007638889	2.680972	1.6373675
13.341686131256164	2.6970298	1.6422637
13.359332503940449	2.7258265	1.6510078
13.376979194877402	2.7556	1.66
13.394626204502751	2.7722182	1.6649979
13.412273533252307	2.769346	1.6641352
13.429921181561937	2.7674453	1.6635641
13.447569149867581	2.7997255	1.673238
13.465217438605247	2.7599728	1.6613166
13.482866048211022	2.7048392	1.6446395
13.500514979121052	2.6693187	1.6338049
13.518164231771568	2.6511765	1.6282433
13.535813806598844	2.669986	1.6340092
13.553463704039254	2.6893747	1.6399313
13.571113924529229	2.6833835	1.6381036
13.588764468505275	2.6557155	1.6296366
13.606415336403956	2.6625175	1.6317222
13.624066528661917	2.706929	1.6452748
13.641718045715882	2.8063169	1.6752065
13.659369888002635	2.862846	1.6919947
13.67702205595903	2.8888085	1.6996496
13.694674550021993	2.944016	1.7158135
13.712327370628532	3.0502083	1.7464845
13.729980518215713	3.1566987	1.77671
13.747633993220681	3.197161	1.7880607
13.765287796080647	3.2104442	1.7917713
13.7829419272329	3.2495131	1.8026406
13.800596387114801	3.3126848	1.8200783
13.818251176163775	3.3375714	1.8269022
13.835906294817324	3.4342227	1.8531656
13.853561743513023	3.4677231	1.8621824
13.871217522688525	3.523419	1.8770772
13.888873632781538	3.51099	1.8737636
13.906530074229858	3.517367	1.8754644
13.92418684747135	3.5233233	1.8770517
13.941843952943948	3.5103316	1.8735878
13.959501391085665	3.4861875	1.8671335
13.977159162334578	3.4239638	1.8503956
13.994817267128846	3.3984582	1.8434907
14.012475705906693	3.3296394	1.8247299
14.030134479106424	3.2671638	1.8075297
14.047793587166414	3.1821535	1.7838591
14.065453030525108	3.1264033	1.7681638
14.083112809621026	3.0583599	1.7488167
14.100772924892766	2.9663057	1.7222966
14.118433376778997	2.9124067	1.7065774
14.136094165718458	2.801436	1.6737491
14.153755292149969	2.7407658	1.6555258
14.171416756512416	2.7125318	1.6469766
14.189078559244768	2.7141075	1.6474549
14.20674070078606	2.6800666	1.6370909
14.224403181575408	2.5941725	1.6106435
14.242066002051999	2.5270975	1.5896847
14.259729162655093	2.4990582	1.580841
14.277392663824022	2.4962933	1.5799662
14.295056505998208	2.4626594	1.5692862
14.312720689617128	2.4658983	1.5703179
14.330385215120348	2.4612527	1.568838
14.348050082947497	2.4816592	1.5753282
14.3657152935383	2.4745169	1.5730597
14.383380847332528	2.4465942	1.5641593
14.401046744770051	2.4134653	1.5535332
14.418712986290798	2.3710952	1.539836
14.436379572334793	2.365766	1.5381047
14.454046503342123	2.3729985	1.540454
14.471713779752946	2.368391	1.5389578
14.489381402007504	2.4091694	1.5521499
14.507049370546113	2.425877	1.5575228
14.524717685809168	2.4401257	1.5620902
14.542386348237134	2.4177647	1.5549163
14.560055358270553	2.4282534	1.5582854
14.577724716350051	2.4608884	1.5687219
14.595394422916325	2.4748201	1.5731561
14.61306447841015	2.4930115	1.5789273
14.63073488327237	2.4825585	1.5756137
14.648405637943917	2.5153725	1.5859926
14.6660767428658	2.5321374	1.5912691
14.683748198479094	2.559197	1.599749
14.701420005224954	2.5810885	1.6065767
14.719092163544628	2.6215818	1.6191299
14.73676467387942	2.6441934	1.6260976
14.754437536670727	2.676484	1.6359963
14.772110752360014	2.6737754	1.6351683
14.78978432138882	2.661292	1.6313467
14.807458244198777	2.6885474	1.6396791
14.82513252123159	2.7302892	1.6523587
14.842807152929028	2.7323644	1.6529865
14.860482139732962	2.6687613	1.6336343
14.87815748208531	2.6326175	1.6225343
14.8958331804281	2.6769607	1.636142
14.91350923520342	2.6968327	1.6422036
14.931185646853438	2.7458932	1.6570737
14.948862415820408	2.6950161	1.6416504
14.966539542546656	2.6975384	1.6424185
14.98421702747459	2.6710308	1.6343288
15.001894871046696	2.6730223	1.634938
15.019573073705542	2.6712787	1.6344047
15.037251635893766	2.6441891	1.6260962
15.054930558054092	2.6375697	1.6240597
15.072609840629323	2.665647	1.6326809
15.090289484062351	2.7932818	1.6713114
15.107969488796124	3.0353646	1.7422298
15.125649855273691	3.425779	1.850886
15.14333058393817	3.9531581	1.988255
15.161011675232768	4.9440246	2.2235162
15.17869312960076	6.3697014	2.5238268
15.196374947485506	8.296801	2.8804166
15.214057129330447	11.465278	3.3860416
15.231739675579114	16.247095	4.0307684
15.249422586675102	21.406816	4.62675
15.267105863062092	24.672318	4.9671235
15.284789505183847	24.973442	4.9973435
15.302473513484218	22.758245	4.7705603
15.320157888407127	19.080997	4.3681803
15.337842630396578	14.827804	3.8506887
15.355527739896656	11.580044	3.4029462
15.37321321735153	8.973629	2.9956017
15.39089906320545	6.498509	2.5492172
15.408585277902748	4.8453407	2.2012134
15.42627186188783	3.7468066	1.9356669
15.443958815605198	3.2409987	1.8002774
15.461646139499424	2.9357414	1.7134006
15.479333834015168	2.8285115	1.6818179
15.497021899597165	2.778311	1.6668266
15.514710336690234	2.7352962	1.6538731
15.53239914573928	2.674589	1.6354171
15.550088327189297	2.619664	1.6185375
15.567777881485336	2.5569751	1.5990545
15.58546780907256	2.510446	1.5844387
15.6031581103962	2.4991808	1.5808798
15.620848785901568	2.496162	1.5799247
15.638539836034063	2.478638	1.5743691
15.656231261239173	2.4636424	1.5695994
15.673923061962451	2.4450455	1.5636641
15.691615238649552	2.4349217	1.5604236
15.709307791746202	2.4118855	1.5530246
15.727000721698221	2.4297807	1.5587754
15.744694028951498	2.40174	1.5497549
15.76238771395202	2.4091945	1.552158
15.780081777145844	2.391773	1.5465358
15.797776218979125	2.383444	1.5438406
15.815471039898094	2.3979998	1.5485476
15.833166240349064	2.3981738	1.5486038
15.850861820778437	2.3875542	1.5451713
15.868557781632699	2.3848567	1.5442982
15.886254123358412	2.3850796	1.5443703
15.903950846402232	2.4165506	1.5545259
15.921647951210897	2.449673	1.5651431
15.939345438231225	2.4565134	1.5673268
15.957043307910133	2.410587	1.5526066
15.974741560694602	2.3717875	1.5400609
15.992440197031714	2.4131663	1.5534369
16.01013921736862	2.4619377	1.5690563
16.02783862215259	2.4635093	1.5695571
16.045538411830933	2.4052649	1.5508916
16.06323858685107	2.3790035	1.5424019
16.080939147660512	2.3831122	1.5437332
16.09864009470684	2.395047	1.547594
16.11634142843774	2.4004447	1.5493369
16.134043149300954	2.381482	1.543205
16.15174525774433	2.3801894	1.5427862
16.169447754215817	2.4003048	1.5492917
16.18715063916342	2.4161122	1.5543848
16.204853913035244	2.440194	1.562112
16.222557576279478	2.4304345	1.5589851
16.240261629344403	22.40269	4.733148
16.257966072678386	42.965984	6.5548444
16.275670906729868	38.104073	6.1728497
16.293376131947387	2.5532837	1.5978998
16.31108174877957	2.559929	1.5999777
16.328787757675133	2.5903454	1.609455
16.34649415908287	2.592247	1.6100457
16.364200953451657	2.6019745	1.6130637
16.38190814123048	2.6173747	1.6178303
16.39961572286839	2.641257	1.6251944
16.41732369881455	2.6659257	1.6327662
16.43503206951817	2.6683235	1.6335003
16.45274083542859	2.7052011	1.6447495
16.47044999699522	2.7545128	1.6596725
16.488159554667558	2.8351455	1.683789
16.505869508895184	2.9107356	1.7060878
16.523579860127786	2.9254913	1.7104068
16.541290608815117	2.972358	1.7240528
16.559001755407035	2.9774687	1.7255343
16.57671330035348	3.0612626	1.7496464
16.59442524410448	3.1178467	1.7657425
16.61213758711015	3.1849165	1.7846334
16.629850329820705	3.2598014	1.805492
16.647563472686436	3.3237088	1.8231041
16.665277016157724	3.3761504	1.8374304
16.682990960685053	3.4017787	1.8443911
16.70070530671898	3.4092171	1.8464066
16.718420054710155	3.4255211	1.8508164
16.736135205109335	3.4806302	1.8656447
16.753850758367335	3.5616577	1.8872354
16.771566714935087	3.6301618	1.9052984
16.789283075263597	3.710524	1.926272
16.80699983980398	3.8014684	1.9497354
16.82471700900741	3.8759277	1.9687376
16.84243458332518	3.9098704	1.9773393
16.860152563208665	3.9798443	1.9949547
16.87787094910932	4.077414	2.019261
16.89558974147871	4.2200756	2.0542822
16.913308940768466	4.2915606	2.0716083
16.931028547430333	4.294687	2.0723627
16.94874856191613	4.3071547	2.0753686
16.966468984677785	4.3921437	2.0957441
16.98418981616729	4.4324775	2.105345
17.00191105683676	4.4638786	2.1127894
17.019632707138374	4.4944887	2.1200209
17.03735476752442	4.5447173	2.1318343
17.05507723844728	4.581184	2.1403701
17.072800120359403	4.635053	2.1529174
17.090523413713353	4.6249127	2.150561
17.108247118961785	4.639967	2.1540582
17.125971236557437	4.653047	2.1570923
17.143695766953133	4.706829	2.1695228
17.161420710601806	4.7502885	2.1795156
17.179146067956477	4.793161	2.189329
17.19687183947025	4.752159	2.1799448
17.21459802559634	4.729287	2.1746924
17.232324626788028	4.665725	2.160029
17.25005164349871	4.6820517	2.163805
17.267779076181863	4.681865	2.1637619
17.285506925291074	4.648521	2.1560428
17.30323519127999	4.663054	2.1594105
17.320963874602384	4.657725	2.1581762
17.33869297571211	4.644893	2.1552014
17.356422495063114	4.5853944	2.1413534
17.37415243310944	4.577024	2.139398
17.391882790305218	4.551182	2.13335
17.40961356710468	4.559756	2.1353586
17.42734476396215	4.600246	2.1448183
17.445076381332044	4.6115775	2.1474583
17.462808419668868	4.6284823	2.1513908
17.48054087942723	4.6961946	2.1670706
17.498273761061835	5.0332117	2.243482
17.51600706502747	5.5606956	2.3581128
17.533740791779024	6.284573	2.506905
17.551474941771485	7.674253	2.7702441
17.56920951545993	8.823768	2.9704828
17.586944513299528	11.128645	3.3359623
17.60467993574556	12.85487	3.5853689
17.622415783253373	14.66338	3.8292792
17.64015205627843	16.126545	4.015787
17.657888755276293	17.30535	4.15997
17.675625880702604	17.74322	4.2122703
17.69336343301311	17.66079	4.202474
17.71110141266366	16.727589	4.0899377
17.728839820110178	15.720174	3.9648674
17.746578655808705	14.641376	3.826405
17.764317920215372	13.122424	3.6224887
17.7820576137864	11.563618	3.400532
17.79979773697811	9.527753	3.086706
17.81753829024692	7.598077	2.756461
17.835279274049356	5.8648973	2.421755
17.85302068884201	4.8118024	2.193582
17.870762535081607	4.173889	2.0430098
17.888504813224934	3.871855	1.967703
17.90624752372891	3.694859	1.9222016
17.923990667050536	3.6357179	1.9067558
17.941734243646895	3.5346012	1.8800535
17.959478253975185	3.4979348	1.8702767
17.9772226984927	3.4256058	1.8508393
17.994967577656833	3.415435	1.8480896
18.01271289192506	3.430014	1.8520297
18.030458641754965	3.39011	1.8412251
18.04820482760425	3.3712711	1.8361021
18.06595144993067	3.3341367	1.8259618
18.083698509192125	3.3171067	1.8212926
18.101446005846576	3.272096	1.8088936
18.119193940352105	3.2272546	1.7964561
18.136942313166887	3.2187037	1.7940747
18.1546911247492	3.2342052	1.7983897
18.1724403755574	3.184083	1.7843999
18.19019006604997	3.1798143	1.7832034
18.207940196685467	3.123086	1.7672255
18.225690767922575	3.1405315	1.7721545
18.243441780220046	3.114387	1.7647626
18.261193234036764	3.1412067	1.772345
18.278945129831676	3.1123655	1.7641897
18.29669746806386	3.0815873	1.755445
18.314450249192483	3.0263543	1.739642
18.3322034736768	2.9994335	1.7318872
18.349957141976184	3.0173879	1.737063
18.3677112545501	3.045755	1.7452091
18.385465811858108	3.069367	1.7519609
18.403220814359884	3.072183	1.7527643
18.420976262515172	3.1188557	1.7660283
18.43873215678387	3.1903048	1.7861425
18.456488497625923	3.2185466	1.7940308
18.474245285501407	3.2937365	1.8148655
18.492002520870486	3.3513815	1.8306779
18.50976020419343	3.4562204	1.8590913
18.527518335930615	3.7548463	1.9377426
18.545276916542516	4.3532705	2.0864491
18.563035946489688	4.4844484	2.1176517
18.580795426232832	4.957551	2.2265558
18.598555356232698	4.8292956	2.1975658
18.616315736950185	5.118703	2.262455
18.63407656884626	4.6776814	2.1627948
18.65183785238201	4.8327975	2.1983624
18.669599588018617	4.628609	2.1514204
18.68736177621737	4.6371403	2.153402
18.705124417439652	4.6435513	2.15489
18.72288751214696	4.4328275	2.105428
18.740651060800886	4.565886	2.1367934
18.758415063863115	4.3227453	2.0791214
18.77617952179546	4.5509453	2.1332946
18.793944435059814	4.2920938	2.0717368
18.811709804118184	4.295937	2.0726643
18.829475629432675	4.206894	2.0510714
18.8472419114655	4.0060315	2.0015073
18.86500865067897	4.1136365	2.0282102
18.88277584753551	3.7819986	1.9447361
18.90054350249763	3.785683	1.9456831
18.918311616027957	3.4877448	1.8675505
18.936080188589226	3.388971	1.8409158
18.953849220644265	3.0441306	1.7447437
18.971618712656007	2.8461416	1.6870512
18.9893886650875	2.7846227	1.6687188
19.007159078401887	8.022095	2.8323302
19.024929953062408	32.92369	5.737917
19.042701289532435	32.86527	5.732824
19.060473088275405	25.401905	5.0400305
19.07824534975489	2.6664236	1.6329187
19.096018074434568	2.6701124	1.6340479
19.113791262778197	2.6503572	1.6279918
19.13156491524966	2.618353	1.6181326
19.149339032312945	2.6079228	1.6149064
19.167113614432136	2.6051824	1.6140578
19.184888662071433	2.5990784	1.6121658
19.202664175695123	2.5956593	1.611105
19.220440155767623	2.584317	1.6075811
19.238216602753447	2.5447752	1.5952352
19.2559935171172	2.52043	1.5875863
19.27377089932361	2.5446212	1.595187
19.291548749837514	2.5418985	1.5943333
19.309327069123835	2.526774	1.5895829
19.32710585764763	2.5064757	1.5831853
19.344885115874032	2.496835	1.5801376
19.362664844268313	2.4996946	1.5810423
19.380445043295822	2.4999733	1.5811304
19.39822571342203	2.4880836	1.577366
19.41600685511252	2.499829	1.5810847
19.43378846883297	2.5303888	1.5907196
19.451570555049173	2.552758	1.5977353
19.469353114227037	2.5291283	1.5903233
19.48713614683254	2.5244157	1.588841
19.50491965333182	2.5080502	1.5836825
19.52270363419109	2.5042536	1.5824834
19.540488089876686	2.476043	1.5735447
19.55827302085503	2.5046303	1.5826024
19.576058427592674	2.499382	1.5809433
19.593844310556282	2.4884014	1.5774667
19.611630670212598	2.4751475	1.5732602
19.629417507028506	2.475445	1.5733547
19.64720482147098	2.5108044	1.5845518
19.6649926140071	2.545712	1.5955287
19.682780885104084	2.536212	1.5925488
19.70056963522921	2.507086	1.5833781
19.718358864849908	2.4990187	1.5808284
19.7361485744337	2.525437	1.5891623
19.753938764448215	2.5149004	1.5858438
19.771729435361202	2.514455	1.5857034
19.789520587640506	2.4917645	1.5785325
19.807312221754092	2.5154004	1.5860014
19.825104338170043	2.5078301	1.583613
19.842896937356517	2.5319765	1.5912186
19.860690019781824	2.5014067	1.5815836
19.87848358591436	2.507559	1.5835274
19.896277636222635	2.5025742	1.5819527
19.914072171175278	2.5201542	1.5874994
19.931867191241015	2.5238633	1.5886672
19.94966269688869	2.5457008	1.5955253
19.967458688587264	2.5637703	1.6011778
19.985255166805807	2.5119033	1.5848985
20.00305213201348	2.4795787	1.5746678
20.020849584679578	2.5027268	1.5820009
20.038647525273507	2.5277739	1.5898974
20.05644595426477	2.488772	1.5775841
20.07424487212299	2.4413497	1.5624819
20.092044279317903	2.4170566	1.5546886
20.109844176319353	2.4398818	1.5620121
20.127644563597304	2.4307303	1.55908
20.145445441621817	2.4166832	1.5545685
20.16324681086307	2.4103749	1.5525382
20.181048671791373	2.4071789	1.5515085
20.198851024877122	2.4100032	1.5524185
20.216653870590836	2.399577	1.5490568
20.234457209403146	2.395818	1.547843
20.252261041784802	2.3831081	1.5437319
20.270065368206662	2.3859406	1.544649
20.287870189139685	2.3711505	1.539854
20.305675505054968	2.360769	1.5364795
20.323481316423702	2.3594928	1.536064
20.341287623717207	2.3701606	1.5395325
20.359094427406884	2.369774	1.539407
20.376901727964288	2.3546917	1.5345005
20.39470952586107	2.3434007	1.530817
20.41251782156899	2.3413746	1.5301551
20.430326615559935	2.3186219	1.5227022
20.448135908305886	2.3169186	1.5221428
20.465945700278965	2.3394964	1.5295413
20.483755991951384	2.3567374	1.5351669
20.50156678379548	2.3710275	1.5398141
20.519378076283708	2.3607433	1.536471
20.537189869888635	2.3256044	1.5249933
20.55500216508294	2.3113573	1.5203148
20.572814962339415	2.3311338	1.5268052
20.59062826213098	2.3348107	1.5280087
20.60844206493066	2.3153846	1.5216388
20.626256371211593	2.313832	1.5211285
20.644071181447032	2.3072345	1.5189583
20.66188649611036	2.3476734	1.5322119
20.67970231567506	2.326512	1.5252908
20.697518640614742	2.3008714	1.5168624
20.715335471403122	2.2857418	1.511867
20.73315280851404	2.280369	1.510089
20.750970652421447	2.30121	1.516974
20.768789003599412	2.3193345	1.5229361
20.786607862522136	2.3489203	1.5326188
20.8044272296639	2.3401618	1.5297587
20.82224710549913	2.3214254	1.5236225
20.84006749050237	2.3098104	1.519806
20.857888385148268	3.8330686	1.9578224
20.8757097899116	45.942806	6.7781124
20.893531705267254	64.81639	8.050862
20.911354131690224	83.811134	9.154842
20.92917706965566	69.076164	8.311207
20.94700051963877	50.16574	7.082778
20.96482448211493	29.435932	5.425489
20.982648957559622	4.191218	2.0472465
21.00047394644843	2.301282	1.5169977
21.01829944925707	2.284115	1.5113289
21.036125466461375	2.2615578	1.5038477
21.053951998537297	2.1964405	1.4820393
21.071779045960906	2.1959605	1.4818773
21.089606609208378	2.2061126	1.4852989
21.10743468875603	2.2159965	1.4886223
21.12526328508028	2.2204847	1.4901291
21.143092398657675	2.2236786	1.4912003
21.16092202996488	2.2321427	1.4940357
21.17875217947867	2.2198837	1.4899274
21.19658284767596	2.1954072	1.4816906
21.21441403503377	2.1934655	1.4810352
21.232245742029225	2.1966646	1.4821149
21.2500779691396	2.1897254	1.4797721
21.26791071684227	2.1467528	1.4651802
21.28574398561475	2.1681964	1.4724797
21.30357777593465	2.1598587	1.4696457
21.321412088279704	2.1244214	1.4575394
21.339246923127792	2.1009333	1.4494597
21.357082280956888	2.1335802	1.460678
21.3749181622451	2.1577322	1.4689221
21.392754567470647	2.1560705	1.4683564
21.41059149711187	2.144548	1.4644275
21.42842895164726	2.1656456	1.4716133
21.446266931555378	2.1464164	1.4650654
21.464105437314945	2.152822	1.4672499
21.481944469404798	2.1596472	1.4695739
21.49978402830388	2.154898	1.467957
21.51762411449127	2.1414342	1.463364
21.53546472844617	2.124874	1.4576948
21.553305870647876	2.1344779	1.4609852
21.571147541575865	2.109888	1.4525454
21.58898974170967	2.0956023	1.4476196
21.60683247152899	2.0875478	1.4448348
21.62467573151363	2.1224594	1.4568663
21.642519522143523	2.0997262	1.4490432
21.660363843898722	2.0900278	1.4456929
21.6782086972594	2.0458527	1.430333
21.696054082705864	2.0199866	1.4212624
21.713900000718535	2.028267	1.4241724
21.73174645177795	2.0152674	1.4196011
21.749593436364794	2.035976	1.4268763
21.767440954959845	2.039512	1.4281148
21.785289008044032	2.0307071	1.4250288
21.803137596098388	2.012804	1.4187332
21.820986719604086	2.0168786	1.4201685
21.838836379042412	2.038134	1.4276323
21.85668657489478	2.0571434	1.4342746
21.87453730764273	2.0451517	1.430088
21.892388577767914	2.019177	1.4209775
21.91024038575213	1.9839051	1.4085116
21.928092732077285	1.9854738	1.4090683
21.945945617225426	1.9905975	1.4108853
21.963799041678694	2.003439	1.4154289
21.981653005919398	31.32437	5.596818
21.999507510429943	78.13127	8.83919
22.01736255569286	73.10107	8.549916
22.035218142190818	4.1820426	2.0450044
22.05307427040661	1.9757204	1.4056032
22.07093094082315	1.9848131	1.408834
22.088788153923474	2.0220122	1.4219748
22.106645910190746	2.07694	1.4411592
22.12450421010827	2.074948	1.440468
22.142363054159464	2.0284736	1.4242449
22.16022244282787	2.009411	1.417537
22.178082376597164	2.021251	1.421707
22.195942855951145	2.0425322	1.4291718
22.213803881373742	2.0343902	1.4263206
22.231665453349002	2.0210333	1.4216305
22.24952757236111	1.9986418	1.4137332
22.26739023889438	1.9964479	1.4129572
22.28525345343323	2.0085351	1.417228
22.30311721646225	1.9936687	1.4119734
22.320981528466113	1.9757488	1.4056133
22.33884638992964	1.9403874	1.3929778
22.356711801337788	1.9604352	1.4001554
22.37457776317561	1.9750681	1.4053712
22.392444275928337	1.9947438	1.412354
22.410311340081282	1.9881008	1.4100003
22.428178956119904	2.0201447	1.4213179
22.446047124529805	2.0082068	1.4171121
22.46391584579669	2.0030956	1.4153076
22.481785120406414	1.958423	1.3994367
22.49965494884496	1.9243696	1.3872164
22.51752533159841	1.8946277	1.3764547
22.53539626915302	1.8852361	1.373039
22.553267761995137	1.9279236	1.3884969
22.571139810611264	1.9319489	1.3899456
22.589012415488025	1.9533706	1.3976303
22.60688557711216	1.9482927	1.3958125
22.624759295970566	1.9562032	1.3986434
22.642633572550263	1.9434015	1.3940593
22.660508407338362	1.9555157	1.3983976
22.67838380082217	1.9385586	1.3923213
22.696259753489077	1.9176619	1.3847967
22.714136265826614	1.9012923	1.3788736
22.73201333832246	1.9328762	1.3902792
22.74989097146439	1.9200866	1.3856719
22.76776916574035	1.9190795	1.3853085
22.785647921638393	1.9102802	1.3821288
22.803527239646712	1.9335848	1.390534
22.82140712025363	1.9810554	1.4074997
22.839287563947593	1.9556056	1.3984298
22.85716857121719	1.9078637	1.3812544
22.875050142551135	1.9172511	1.3846483
22.892932278438277	1.9656065	1.4020009
22.910814979367604	1.9337968	1.3906102
22.928698245828222	1.9013225	1.3788846
22.946582078309387	1.9291131	1.3889252
22.96446647730047	1.9302607	1.3893383
22.98235144329098	1.8940473	1.376244
23.000236976770562	1.893246	1.3759528
23.018123078229	1.9313544	1.3897318
23.03600974815619	1.9313627	1.3897347
23.053896987042194	1.9112287	1.3824719
23.071784795377173	1.9120364	1.3827641
23.08967317365145	1.9006356	1.3786354
23.10756212235546	1.8944478	1.3763894
23.125451641979787	1.9185014	1.3850998
23.143341733015134	1.9400737	1.3928653
23.161232395952357	1.9335606	1.3905253
23.179123631282426	1.909945	1.3820076
23.197015439496468	1.956009	1.3985739
23.214907821085717	1.9763532	1.4058282
23.23280077654157	2.0069213	1.4166585
23.250694306355538	2.0167208	1.420113
23.268588411019277	2.007009	1.4166895
23.28648309102458	2.0178993	1.4205278
23.304378346863356	1.9834111	1.4083363
23.322274179027676	1.9778194	1.4063497
23.340170588009723	1.9373659	1.3918929
23.358067574301852	1.9554297	1.3983668
23.37596513839651	1.9477543	1.3956196
23.39386328078629	1.9407839	1.3931202
23.411762001963947	1.92201	1.3863658
23.429661302422353	1.9412174	1.3932757
23.4475611826545	1.9296302	1.3891113
23.46546164315356	1.9434941	1.3940926
23.48336268441279	1.9135225	1.3833013
23.501264306925638	1.9388043	1.3924096
23.51916651118564	1.9219693	1.3863511
23.537069297686497	1.9257318	1.3877074
23.554972666922037	1.9219176	1.3863324
23.57287661938623	1.9326854	1.3902105
23.59078115557318	1.9444679	1.3944418
23.608686275977128	1.9490349	1.3960785
23.62659198109246	1.9799083	1.4070922
23.6444982714137	2.020167	1.4213258
23.66240514743549	1.9902428	1.4107597
23.68031260965263	1.9361124	1.3914425
23.698220658560068	1.8981134	1.3777204
23.716129294652845	1.9032377	1.3795788
23.7340385184262	1.8945957	1.3764431
23.75194833037546	1.9079065	1.3812699
23.769858730996123	1.9072444	1.3810302
23.78776972078382	1.9122247	1.3828322
23.80568130023431	1.8922873	1.3756043
23.823593469843495	1.9203415	1.3857639
23.841506230107424	1.9297357	1.3891493
23.859419581522275	1.9291823	1.3889501
23.87733352458438	1.9340044	1.3906848
23.89524805979019	1.9430823	1.3939449
23.913163187636318	1.9282616	1.3886186
23.931078908619508	1.957598	1.3991419
23.948995223236633	1.9957426	1.4127076
23.966912131984735	2.0369935	1.4272329
23.98482963536096	2.0877464	1.4449036
24.002747733862616	2.0778825	1.4414862
24.020666427987155	2.0683832	1.4381875
24.038585718232156	2.0175009	1.4203876
24.056505605095353	2.0225468	1.4221627
24.074426089074617	2.0743282	1.4402528
24.092347170667946	2.0866199	1.4445137
24.110268850373515	2.0869646	1.444633
24.128191128689586	2.107376	1.4516804
24.146114006114626	2.0878465	1.4449382
24.164037483147187	2.0700219	1.4387571
24.181961560286005	2.0417974	1.4289148
24.199886238029926	2.0774019	1.4413195
24.21781151687797	2.080223	1.4422978
24.235737397329274	2.0532231	1.4329072
24.253663879883135	2.0606756	1.4355054
24.271590965038975	2.0332208	1.4259105
24.289518653296376	2.0069816	1.4166797
24.30744694515505	2.009796	1.4176728
24.32537584111486	2.0462213	1.4304619
24.34330534167581	2.0630295	1.436325
24.361235447338046	2.056509	1.4340533
24.379166158601876	2.0745766	1.4403391
24.39709747596772	2.0835395	1.4434471
24.41502939993615	2.085694	1.4441932
24.432961931007917	2.0764015	1.4409724
24.450895069683856	2.0650914	1.4370426
24.468828816465	2.0716634	1.4393274
24.4867631718525	2.057641	1.434448
24.504698136347656	2.0160906	1.4198911
24.52263371045192	2.01338	1.4189363
24.540569894666874	2.0151455	1.4195582
24.558506689494266	2.0249548	1.423009
24.57644409543597	1.9537905	1.3977805
24.594382112994012	1.9014583	1.3789338
24.61232074267057	1.9152148	1.3839128
24.630259984967953	1.9805248	1.4073112
24.64819984038863	2.0036323	1.4154972
24.66614030943522	2.014001	1.419155
24.684081392610462	2.0005143	1.4143953
24.702023090417274	1.9963948	1.4129384
24.7199654033587	1.9907333	1.4109335
24.737908331937927	1.9905479	1.4108678
24.755851876658305	1.9674408	1.4026549
24.773796038023324	1.9912425	1.411114
24.79174081653661	2.0545115	1.4333568
24.809686212701962	2.0859516	1.4442824
24.827632227023294	2.0957606	1.4476742
24.8455788600047	2.0802875	1.4423201
24.8635261121504	2.0717285	1.43935
24.88147398396475	2.0663292	1.4374732
24.899422475952303	2.1168396	1.4549363
24.917371588617698	2.1833906	1.47763
24.935321322465768	2.2587929	1.5029281
24.953271678001478	2.366399	1.5383104
24.97122265572994	2.5399058	1.5937082
24.989174256156414	2.8613865	1.6915634
25.00712647978632	3.2959414	1.8154727
25.02507932712521	3.8651597	1.9660009
25.043032798678798	4.3927555	2.09589
25.060986894952933	5.110117	2.2605567
25.078941616453637	5.9557776	2.4404461
25.096896963687055	6.9822116	2.6423874
25.114852937159508	8.050157	2.8372798
25.132809537377444	8.493737	2.9144018
25.150766764847468	8.4734955	2.9109268
25.168724620076347	7.909245	2.812338
25.186683103570985	6.8610115	2.6193533
25.204642215838426	5.580571	2.3623233
25.222601957385894	4.149369	2.037
25.24056232872074	3.143143	1.7728912
25.25852333035048	2.5676622	1.6023927
25.276484962782778	2.2333665	1.4944452
25.294447226525435	2.0741699	1.4401978
25.312410122086423	1.9583604	1.3994143
25.330373649973843	1.917799	1.3848462
25.348337810695988	1.9101816	1.3820932
25.366302604761245	1.9290892	1.3889165
25.384268032678207	1.9531485	1.397551
25.40223409495558	1.95977	1.3999178
25.420200792102257	1.9092933	1.3817718
25.438168124627246	1.8768815	1.3699932
25.45613609303974	1.8904375	1.3749318
25.474104697849057	1.9036071	1.3797127
25.492073939564698	1.8713241	1.3679634
25.510043818696285	1.8085144	1.3448101
25.528014335753614	1.788499	1.3373477
25.54598549124664	1.8300089	1.3527782
25.56395728568544	1.904331	1.379975
25.58192971958028	1.9508278	1.3967204
25.59990279344156	1.9672152	1.4025745
25.617876507779833	1.9248639	1.3873947
25.635850863105826	1.8571451	1.3627712
25.653825859930386	1.8711631	1.3679047
25.671801498764548	1.876211	1.3697486
25.68977778011949	1.864021	1.3652915
25.707754704506524	1.8314826	1.3533229
25.725732272437153	1.8812613	1.3715909
25.743710484423012	1.9168446	1.3845016
25.761689340975888	1.8963065	1.3770645
25.77966884260774	1.8437535	1.3578489
25.797648989830662	1.8182034	1.3484077
25.815629783156922	1.8137236	1.3467455
25.83361122309895	1.843701	1.3578296
25.85159331016929	1.8752886	1.3694118
25.869576044880695	1.8705585	1.3676836
25.887559427746034	1.8389004	1.3560606
25.90554345927836	1.8142848	1.3469539
25.92352813999086	1.8645654	1.3654909
25.94151347039689	1.8899281	1.3747466
25.959499451009965	1.8946187	1.3764515
25.97748608234374	1.8613507	1.3643132
25.995473364912062	1.8637406	1.3651888
26.013461299228904	1.852749	1.3611572
26.03144988580839	1.8093494	1.3451205
26.04943912516483	1.8158318	1.347528
26.067429017812675	1.8594071	1.3636007
26.085419564266537	1.853071	1.3612756
26.103410765041186	1.8204722	1.3492488
26.12140262065155	1.826373	1.3514336
26.139395131612723	1.8766723	1.3699169
26.157388298439948	1.8835756	1.3724341
26.17538212164861	1.8807639	1.3714094
26.193376601754295	1.869779	1.3673986
26.211371739272714	1.8555504	1.3621858
26.229367534719746	1.8049784	1.3434949
26.247363988611433	1.7755222	1.3324872
26.26536110146397	1.7577486	1.3258011
26.283358873793727	1.7545792	1.3246053
26.301357306117204	1.7695452	1.3302425
26.319356398951104	1.8393437	1.3562241
26.33735615281224	1.8503269	1.3602672
26.35535656821762	1.852509	1.3610691
26.373357645684404	1.8520843	1.360913
26.39135938572991	1.8400873	1.3564981
26.409361788871614	1.8135749	1.3466903
26.427364855627165	1.8275111	1.3518547
26.445368586514352	1.81415	1.3469038
26.46337298205115	1.8088974	1.3449526
26.48137804275568	1.8468411	1.3589853
26.499383769146217	1.8805883	1.3713454
26.517390161741215	1.9087961	1.3815919
26.53539722105928	1.8831007	1.3722612
26.553404947619182	1.8847697	1.3728691
26.571413341939856	1.8667861	1.3663038
26.589422404540397	1.8221619	1.3498747
26.60743213594006	1.8005024	1.341828
26.62544253665827	1.7878019	1.337087
26.64345360721459	1.7326756	1.3163114
26.66146534812879	1.7369632	1.3179389
26.679477759920758	1.7538286	1.324322
26.69749084311057	1.8049502	1.3434844
26.71550459821847	1.8336238	1.3541137
26.733519025764842	1.8505851	1.3603622
26.751534126270258	1.8255439	1.3511269
26.769549900255434	1.8427128	1.3574655
26.787566348241267	1.8932892	1.3759685
26.80558347074881	1.9019777	1.379122
26.823601268299267	1.8703942	1.3676236
26.841619741414036	1.8475451	1.3592443
26.85963889061465	1.8502963	1.360256
26.877658716422832	1.8026124	1.342614
26.89567921936045	1.7741315	1.3319653
26.913700399949544	1.772042	1.3311807
26.93172225871233	1.7631044	1.3278195
26.949744796171174	1.7774998	1.3332291
26.967768012848605	1.817039	1.3479759
26.98579190926733	1.8338817	1.354209
27.003816485950225	1.8512418	1.3606035
27.021841743420318	1.871107	1.3678842
27.039867682200814	1.8722057	1.3682857
27.057894302815072	1.811178	1.3458002
27.07592160578664	1.7957667	1.3400623
27.0939495916392	1.8083844	1.3447618
27.111978260896635	1.8222123	1.3498935
27.13000761408296	1.8199848	1.3490682
27.148037651722397	1.8132087	1.3465544
27.166068374339304	1.8098758	1.3453163
27.184099782458215	1.7901872	1.3379788
27.20213187660384	1.7767813	1.3329597
27.22016465730105	1.8113537	1.3458654
27.23819812507487	1.8466353	1.3589096
27.256232280450533	1.8450383	1.3583219
27.274267123953383	1.8758196	1.3696057
27.292302656108987	1.8948562	1.3765378
27.31033887744306	1.8445785	1.3581526
27.32837578848146	1.7946423	1.3396426
27.34641338975026	1.7767601	1.3329517
27.364451681775673	1.7757814	1.3325845
27.382490665084074	1.8056614	1.343749
27.400530340202046	1.8314734	1.3533194
27.41857070765629	1.8103864	1.345506
27.436611767973726	1.7777358	1.3333176
27.454653521681404	1.7585696	1.3261107
27.472695969306564	1.7576865	1.3257776
27.490739111376627	1.7436079	1.3204575
27.508782948419153	1.7523512	1.323764
27.526827480961902	1.7970448	1.340539
27.54487270953279	1.8548557	1.3619308
27.562918634659898	1.8311528	1.3532009
27.580965256871508	1.8063501	1.3440052
27.599012576696026	1.7959003	1.3401121
27.617060594662068	1.8115642	1.3459436
27.63510931129842	1.8317256	1.3534126
27.65315872713401	1.8549145	1.3619524
27.67120884269797	1.874982	1.3692998
27.68925965851958	1.8392999	1.356208
27.707311175128307	1.8207012	1.3493336
27.725363393053787	1.8507724	1.360431
27.74341631282583	1.9316198	1.3898273
27.7614699349744	1.9649264	1.4017583
27.77952426002968	2.0847666	1.4438721
27.797579288521973	2.1129017	1.4535824
27.815635020981784	2.4746628	1.573106
27.83369145793979	2.5431287	1.594719
27.85174859992682	2.4323359	1.5595948
27.869806447473923	2.3697674	1.5394049
27.887865001112267	2.0860114	1.444303
27.905924261373233	1.9219733	1.3863525
27.92398422878836	1.8536348	1.3614826
27.94204490388936	1.863591	1.365134
27.96010628720813	1.8774402	1.3701972
27.978168379276728	1.925607	1.3876624
27.9962311806274	1.9310911	1.389637
28.014294691792568	1.8732195	1.368656
28.0323589133048	1.7961774	1.3402154
28.050423845696887	1.7999077	1.3416064
28.068489489501758	1.8448266	1.358244
28.086555845252523	1.885543	1.3731507
28.104622913482487	1.8960669	1.3769774
28.122690694725115	1.8693595	1.3672452
28.14075918951405	1.8939067	1.3761928
28.15882839838312	1.9300666	1.3892684
28.176898321866304	1.9222152	1.3864398
28.1949689604978	1.9013374	1.3788899
28.213040314811945	1.8835846	1.3724375
28.23111238534327	1.9076599	1.3811806
28.249185172626493	1.9003749	1.3785409
28.267258677196473	1.9315625	1.3898066
28.285332899588294	1.9721698	1.4043397
28.303407840337172	1.9646099	1.4016454
28.321483499978545	1.9304614	1.3894105
28.33955987904799	1.929087	1.3889158
28.357636978081285	1.9271607	1.3882221
28.37571479761439	1.9035361	1.379687
28.393793338183425	1.9300258	1.3892537
28.41187260032469	1.9773457	1.4061812
28.429952584574686	1.9492536	1.3961567
28.448033291470065	1.9152744	1.3839344
28.46611472154769	1.8840517	1.3726076
28.484196875344566	1.9120677	1.3827753
28.502279753397914	1.9486041	1.3959241
28.52036335624511	1.9250809	1.3874729
28.538447684423716	1.9086397	1.3815353
28.556532738471482	1.9453722	1.394766
28.574618518926325	1.9836168	1.4084094
28.59270502632635	2.0014114	1.4147125
28.61079226120985	1.995682	1.4126861
28.628880224115274	2.0126498	1.4186789
28.646968915581287	2.025612	1.4232401
28.66505833614671	2.0602393	1.4353534
28.68314848635055	2.0937898	1.4469934
28.701239366732004	2.126794	1.4583532
28.71933097783044	2.1164312	1.454796
28.737423320185403	2.103977	1.4505092
28.75551639433665	2.0801837	1.4422842
28.773610200824074	2.0874512	1.4448014
28.791704740187793	2.111151	1.45298
28.80980001296809	2.1255472	1.4579257
28.827896019705413	2.1627097	1.4706154
28.845992760940433	2.183331	1.4776099
28.86409023721397	2.2194874	1.4897944
28.88218844906704	2.2572849	1.5024264
28.900287397040845	2.2512176	1.5004058
28.918387081676755	2.2448003	1.4982657
28.936487503516343	2.255357	1.5017846
28.954588663101365	2.2747371	1.5082232
28.97269056097374	2.331741	1.527004
28.990793197675597	2.343917	1.5309856
29.00889657374923	2.2953978	1.515057
29.027000689737125	2.3414693	1.530186
29.04510554618196	2.4097373	1.5523329
29.06321114362659	2.4574306	1.5676194
29.08131748261405	2.4686942	1.5712079
29.099424563687567	2.4926748	1.5788207
29.11753238739057	2.5397496	1.5936592
29.13564095426663	2.5278447	1.5899197
29.15375026485954	2.5524132	1.5976274
29.171860319713275	2.640126	1.6248465
29.18997111937199	2.6893284	1.6399173
29.20808266438002	2.767427	1.6635585
29.226194955281898	2.8310304	1.6825666
29.244307992622335	2.8423533	1.685928
29.26242177694624	2.8212245	1.6796501
29.2805363087987	2.8335185	1.6833059
29.29865158872498	2.9043155	1.7042053
29.316767617270557	2.929846	1.7116793
29.334884394981064	2.97064	1.7235545
29.353001922402367	3.0042362	1.7332733
29.37112020008047	3.0260715	1.7395607
29.389239228561596	3.099141	1.7604377
29.407359008392152	3.350568	1.8304557
29.42547954011872	3.725716	1.9302114
29.44360082428809	4.37204	2.0909424
29.46172286144722	5.454223	2.3354278
29.479845652143283	7.090149	2.6627333
29.497969196923606	9.10223	3.0169902
29.516093496335728	11.709293	3.4218845
29.5342185509274	14.6959095	3.8335245
29.55234436124651	17.002245	4.123378
29.570470927841175	18.271257	4.274489
29.588598251259686	17.984236	4.2407823
29.60672633205055	16.674677	4.0834637
29.624855170762405	14.466831	3.8035288
29.642984767944146	11.640672	3.4118428
29.66111512414481	8.815359	2.969067
29.67924623991366	6.5922885	2.5675452
29.697378115800138	5.0854783	2.2551005
29.71551075235387	4.2553496	2.06285
29.733644150124675	3.8203595	1.954574
29.751778309662576	3.5461502	1.8831224
29.769913231517766	3.3796947	1.8383946
29.78804891624066	3.3520439	1.8308588
29.806185364381818	3.3027697	1.8173524
29.82432257649206	3.272285	1.8089458
29.842460553122333	3.3587656	1.8326936
29.86059929482382	3.476016	1.8644077
29.878738802147872	3.4330516	1.8528496
29.896879075646048	3.3585608	1.8326377
29.915020115870114	3.2946708	1.8151228
29.933161923371976	3.2153513	1.79314
29.951304498703777	3.2197347	1.794362
29.969447842417857	3.3143039	1.820523
29.987591955066733	3.3231096	1.8229399
30.005736837203123	3.2734585	1.8092701
30.023882489379943	3.3160603	1.8210053
30.04202891215028	3.3344963	1.8260603
30.060176106067455	3.2290127	1.7969453
30.078324071684946	3.1792917	1.7830569
30.09647280955646	3.1960616	1.7877532
30.114622320235863	3.169941	1.7804328
30.132772604277257	3.1374376	1.7712814
30.1509236622349	3.1189618	1.7660583
30.16907549466328	3.0947177	1.759181
30.18722810211705	3.1379366	1.7714221
30.205381485151097	3.1536252	1.7758449
30.22353564432045	3.041437	1.7439716
30.241690580180403	2.9782631	1.7257645
30.25984629328638	2.9795191	1.7261283
30.278002784194037	2.9767075	1.7253138
30.296160053459246	2.9662957	1.7222937
30.314318101638033	2.9565144	1.7194518
30.332476929286646	2.9756112	1.724996
30.35063653696153	2.9925673	1.7299038
30.368796925219307	2.9672685	1.7225761
30.386958094616844	2.9080985	1.7053148
30.40512004571115	2.8499818	1.6881889
30.423282779059463	2.831823	1.6828022
30.441446295219233	2.823416	1.6803024
30.459610594748067	2.7836092	1.6684152
30.47777567820382	2.798433	1.6728518
30.495941546144504	2.9119074	1.7064312
30.51410819912835	2.893905	1.7011482
30.532275637713795	2.8362765	1.6841248
30.55044386245946	2.7534277	1.6593456
30.56861287392416	2.7412257	1.6556647
30.586782672666956	2.7603111	1.6614184
30.604953259247047	2.7951443	1.6718686
30.623124634223885	2.8070874	1.6754365
30.641296798157075	2.795452	1.6719606
30.659469751606462	2.7632241	1.6622949
30.677643495132074	2.7320747	1.6528989
30.695818029294152	2.699999	1.6431674
30.713993354653116	2.7246032	1.6506371
30.73216947176962	2.6964605	1.6420903
30.75034638120448	2.7378452	1.6546435
30.768524083518756	2.8492782	1.6879805
30.786702579273673	2.8764207	1.6960014
30.80488186903069	2.9022627	1.7036029
30.82306195335144	2.9681814	1.722841
30.841242832797782	3.1669748	1.7795997
30.85942450793176	3.4174933	1.8486464
30.877606979315637	3.7746737	1.9428519
30.895790247511883	4.121064	2.0300405
30.913974313083134	4.556403	2.1345732
30.932159176592283	4.888225	2.210933
30.95034483860237	5.002857	2.2367067
30.968531299676698	4.7732964	2.1847875
30.98671856037873	4.3070884	2.0753527
31.00490662127215	3.9223247	1.9804859
31.023095482920848	3.5244403	1.8773493
31.04128514588892	3.09106	1.758141
31.059475610740662	2.7619452	1.6619102
31.07766687804056	2.614423	1.6169177
31.09585894835335	2.565933	1.601853
31.11405182224393	2.5235548	1.58857
31.132245500277417	2.5288322	1.5902302
31.15043998301914	2.4631913	1.5694557
31.168635271034628	2.4123344	1.5531691
31.18683136488964	2.4018242	1.549782
31.20502826515008	2.4123201	1.5531646
31.223225972382135	2.443187	1.5630697
31.241424487152155	2.4427693	1.5629361
31.259623810026692	2.4604456	1.5685807
31.27782394157253	2.4822347	1.575511
31.296024882356644	2.3764026	1.5415585
31.314226632946237	2.355032	1.5346113
31.332429193908684	2.4125264	1.553231
31.350632565811598	2.4423182	1.5627918
31.368836749222787	2.4340966	1.5601592
31.387041744710295	2.5090938	1.5840119
31.40524755284232	2.5884352	1.6088614
31.423454174187317	2.616142	1.6174493
31.441661609313922	2.5865405	1.6082726
31.459869858791002	2.5062854	1.5831252
31.478078923187628	2.4363098	1.5608683
31.496288803073064	2.428291	1.5582975
31.514499499016807	2.4643116	1.5698127
31.532711011588546	2.4016843	1.5497369
31.550923341358178	2.3502672	1.5330582
31.56913648889584	2.3005497	1.5167563
31.587350454771844	2.2521653	1.5007216
31.605565239556732	2.2996433	1.5164574
31.62378084382127	2.3784626	1.5422264
31.641997268136382	2.4030359	1.5501728
31.660214513073274	2.3340335	1.5277544
31.67843257920331	2.3060267	1.5185608
31.6966514670981	2.3328803	1.5273769
31.71487117732944	2.3344593	1.5278938
31.733091710469346	2.3703275	1.5395868
31.751313067090052	2.3651862	1.5379162
31.769535247764008	2.3162282	1.5219159
31.787758253063878	2.2575853	1.5025263
31.805982083562526	2.3200734	1.5231787
31.824206739833024	2.360048	1.5362448
31.84243222244869	2.3131127	1.5208921
31.860658531983013	2.2168682	1.4889151
31.878885669009737	2.2327886	1.4942518
31.897113634102784	2.2687647	1.5062419
31.91534242783632	2.275664	1.5085305
31.933572050784694	2.2151546	1.4883395
31.951802503522508	2.185269	1.4782655
31.970033786624548	2.2150652	1.4883095
31.988265900665834	2.1767237	1.4753724
32.006498846221575	2.1121988	1.4533405
32.02473262386724	2.1734364	1.474258
32.04296723417845	2.23381	1.4945936
32.0612026777311	2.2249813	1.4916371
32.07943895510129	2.1793344	1.4762568
32.097676066865304	2.1636276	1.4709275
32.115914013599685	2.1893537	1.4796464
32.13415279588115	2.16741	1.4722126
32.152392414286666	2.0941184	1.4471068
32.1706328693934	2.0760381	1.4408463
32.18887416177875	2.0704505	1.4389061
32.20711629202032	2.152745	1.4672235
32.225359260695924	2.2057557	1.4851787
32.243603068383614	2.1466436	1.4651428
32.26184771566166	2.080527	1.4424032
32.28009320310852	2.1103013	1.4526876
32.2983395313029	2.177104	1.4755013
32.31658670082372	2.1463678	1.4650488
32.33483471225012	2.1552522	1.4680778
32.35308356616143	2.1814475	1.4769725
32.371333263137245	2.1933293	1.4809893
32.38958380375734	2.1302032	1.4595215
32.407835188601744	2.1161833	1.4547107
32.42608741825067	2.1250265	1.4577471
32.444340493284585	2.0472422	1.4308187
32.46259441428416	2.0046117	1.4158431
32.48084918183028	2.058075	1.4345993
32.49910479650405	2.1376638	1.4620752
32.51736125888683	2.1589248	1.469328
32.53561856956014	2.0953913	1.4475466
32.5538767291058	2.091554	1.4462205
32.572135738105764	2.1616666	1.4702607
32.59039559714228	2.1975017	1.4823973
32.608656306797776	2.1569793	1.4686658
32.62691786765491	2.0993254	1.4489049
32.645180280296586	2.0764647	1.4409944
32.663443545305896	1.9966177	1.4130173
32.68170766326619	1.9619389	1.4006922
32.69997263476099	2.0413928	1.4287732
32.7182384603741	2.1180375	1.4553479
32.7365051406895	2.1059592	1.4511924
32.75477267629144	1.998925	1.4138334
32.77304106776434	1.9180557	1.3849388
32.79131031569289	1.8515071	1.360701
32.809580420661966	1.8243427	1.3506824
32.827851383256714	1.8757882	1.3695942
32.84612320406245	1.9467685	1.3952664
32.86439588366476	1.9822135	1.4079111
32.88266942264945	2.0658145	1.4372941
32.9009438216025	2.12462	1.4576076
32.9192190811102	2.0483847	1.4312179
32.937495201758985	1.9813057	1.4075886
32.95577218413556	1.9643881	1.4015663
32.974050028826866	1.9390619	1.3925021
32.992328736420035	1.9616582	1.4005921
33.010608307502444	1.9737308	1.4048953
33.02888874266169	1.9625599	1.400914
33.047170042485604	1.937796	1.3920474
33.06545220756225	1.9477744	1.3956269
33.083735238479896	1.9906204	1.4108934
33.10201913582707	2.0399117	1.4282548
33.12030390019248	1.9358197	1.3913374
33.138589532165135	1.9803284	1.4072415
33.15687603233419	1.9839801	1.4085382
33.17516340128909	1.9667826	1.4024203
33.19345163961947	1.9893106	1.4104292
33.211740747915215	1.9856113	1.4091172
33.23003072676643	1.9258686	1.3877567
33.248321576763466	1.8741002	1.3689778
33.266613298496885	1.8666791	1.3662647
33.28490589255747	1.9334943	1.3905015
33.30319935953626	1.9972024	1.4132241
33.32149370002451	1.9569911	1.398925
33.339788914613706	1.9048316	1.3801564
33.358085003895575	1.913828	1.3834118
33.376381968462034	2.0153213	1.4196202
33.39467980890529	2.0698202	1.438687
33.41297852581774	1.991394	1.4111676
33.43127811979204	1.9533497	1.3976228
33.44957859142105	1.9315863	1.3898152
33.467879941297866	1.9597678	1.3999171
33.486182170015844	1.9626917	1.4009609
33.50448527816853	1.9371297	1.391808
33.522789266349754	1.9225067	1.3865448
33.541094135153514	1.9713428	1.4040451
33.55939988517411	2.0471628	1.4307909
33.57770651700602	1.9956204	1.4126643
33.59601403124398	1.958824	1.39958
33.61432242848296	2.0040715	1.4156523
33.632631709318154	2.091857	1.4463253
33.650941874344994	2.148299	1.4657077
33.66925292415916	2.012936	1.4187799
33.68756485935654	1.90577	1.3804963
33.70587768053328	1.8850484	1.3729707
33.724191388285746	1.9368384	1.3917034
33.74250598321054	2.002674	1.4151586
33.760821465904506	1.9805193	1.4073093
33.77913783696474	1.8934556	1.3760289
33.79745509698852	1.8658322	1.3659546
33.815773246573414	1.8707485	1.3677531
33.8340922863172	1.9946977	1.4123377
33.852412216817896	2.1539156	1.4676224
33.87073303867377	2.140904	1.4631828
33.889054752483304	2.015069	1.4195312
33.907377358845245	1.8881817	1.3741112
33.92570085835853	1.763657	1.3280275
33.94402525162239	1.8648785	1.3656056
33.96235053923627	1.9442025	1.3943466
33.980676721799824	1.9733421	1.4047569
33.999003799912984	2.0477073	1.4309813
34.01733177417592	2.1142647	1.4540511
34.03566064518901	1.9812347	1.4075633
34.0539904135529	1.9406414	1.393069
34.07232107986846	2.038208	1.4276582
34.090652644736785	2.0902405	1.4457664
34.108985108759235	1.9755906	1.405557
34.12731847253742	1.8366405	1.3552271
34.14565273667313	1.8431885	1.3576407
34.16398790176847	1.9415263	1.3933866
34.18232396842574	2.0702183	1.4388254
34.20066093724749	2.0559623	1.4338627
34.21899880883651	2.0077374	1.4169465
34.23733758379583	2.1376972	1.4620866
34.25567726272874	2.1402364	1.4629546
34.27401784623872	2.0438015	1.4296159
34.29235933492957	1.9373277	1.3918792
34.31070172940526	1.8871553	1.3737377
34.32904503027003	1.828198	1.3521087
34.347389238128386	1.8709203	1.3678159
34.36573435358502	1.9219439	1.3863419
34.38408037724492	1.9210099	1.386005
34.402427309713296	1.9467661	1.3952656
34.42077515159559	1.920581	1.3858503
34.43912390349752	1.9683765	1.4029884
34.45747356602499	2.0187116	1.4208137
34.47582413978423	2.1715093	1.4736042
34.49417562538163	2.2479088	1.4993027
34.51252802342388	2.1702344	1.4731716
34.53088133451789	2.1517665	1.4668901
34.54923555927084	2.2265494	1.4921627
34.567590698290104	2.1039002	1.4504827
34.58594675218336	1.9821678	1.4078948
34.6043037215585	2.0290956	1.4244633
34.62266160702365	1.9510878	1.3968135
34.641020409187234	1.9558748	1.398526
34.65938012865785	2.0022495	1.4150087
34.677740766044394	2.011253	1.4181865
34.69610232195598	2.009288	1.4174936
34.714464797002016	1.9331989	1.3903953
34.73282819179208	1.8454117	1.3584594
34.751192506936064	1.7622732	1.3275064
34.76955774304408	1.7711442	1.3308434
34.7879239007265	1.6665967	1.2909673
34.80629098059391	1.7865177	1.3366069
34.824658983257194	1.9389997	1.3924797
34.843027909327446	1.8814406	1.3716562
34.86139775941603	1.8210108	1.3494483
34.879768534134534	1.938734	1.3923843
34.89814023409483	1.8062783	1.3439785
34.91651285990901	1.7011055	1.3042643
34.93488641218944	1.8039126	1.3430982
34.95326089154871	1.9043261	1.3799732
34.97163629859967	2.0227196	1.4222234
34.99001263395542	2.1223624	1.456833
35.00838989822934	2.063514	1.4364936
35.02676809203499	1.705395	1.3059077
35.04514721598624	1.5319754	1.2377299
35.063527270697215	1.7555894	1.3249866
35.081908256782256	1.8112183	1.3458151
35.10029017485597	1.7834866	1.3354725
35.11867302553321	1.9807187	1.4073801
35.137056809429104	2.0969083	1.4480705
35.155441527159006	2.0988834	1.4487524
35.173827179338524	2.0779784	1.4415195
35.19221376658354	1.7932537	1.3391242
35.21060128951017	1.6749027	1.2941803
35.2289897487348	1.8512145	1.3605934
35.24737914487405	2.0646017	1.4368721
35.26576947854479	2.21004	1.4866203
35.28416075036418	2.210173	1.486665
35.30255296094958	2.1571481	1.4687233
35.32094611091867	2.2247622	1.4915637
35.33934020088932	2.2910585	1.5136243
35.35773523147969	1.7459744	1.3213532
35.3761312033082	1.6853998	1.2982295
35.394528116993506	1.9519532	1.3971232
35.41292597315452	1.95501	1.3982167
35.431324772410434	1.928313	1.3886371
35.449724515380666	1.827644	1.3519038
35.46812520268491	1.8918082	1.3754302
35.486526834943106	2.0560298	1.4338863
35.504929412775454	1.8152755	1.3473216
35.52333293680242	1.947042	1.3953645
35.54173740764471	1.9741789	1.4050548
35.560142825923286	1.8667417	1.3662876
35.5785491922594	2.0323381	1.425601
35.59695650727454	2.3814044	1.54318
35.61536477159042	1.6131138	1.2700841
