0.008763373481513119	0.0	0.0
0.026290120649546365	0.0	0.0
0.043816868432600686	0.060138714	0.24523196
0.06134361724069026	0.12766638	0.35730433
0.07887036748382949	0.14318037	0.37839183
0.0963971195720331	0.19679499	0.44361582
0.11392387391531617	0.1327448	0.36434162
0.1314506309236943	0.15122186	0.38887253
0.1489773910071836	0.17931026	0.4234504
0.16650415457580078	0.1945011	0.44102278
0.18403092203956356	0.13441926	0.3666323
0.20155769380849	0.10160981	0.31876293
0.2190844702925996	0.070853375	0.26618296
0.2366112519019124	0.13504703	0.36748746
0.2541380390464497	0.17396815	0.4170949
0.27166483213623416	0.16058311	0.40072823
0.28919163158128947	0.13046792	0.36120343
0.3067184377916406	0.111945696	0.33458287
0.324245251177314	0.09723803	0.31183013
0.34177207214833777	0.15465344	0.39326003
0.3592989011147415	0.18440756	0.42942703
0.37682573848655654	0.2244385	0.4737494
0.39435258467381573	0.2019587	0.44939816
0.41187944008655414	0.13279806	0.3644147
0.42940630513480854	0.101813845	0.31908283
0.446933180228618	0.0808077	0.28426695
0.4644600657780234	0.09953186	0.3154867
0.48198696219306775	0.10796918	0.32858664
0.49951386988379676	0.1266109	0.35582426
0.5170407892602581	0.15218306	0.39010647
0.5345677207325025	0.17963597	0.42383483
0.5520946647105822	0.17854112	0.42254126
0.5696216216045534	0.1587659	0.3984544
0.5871485918244737	0.17391679	0.4170333
0.6046755757804043	0.18422385	0.42921305
0.6222025738824094	0.18563393	0.43085256
0.6397295865405557	0.194445	0.4409592
0.6572566141649129	0.23537964	0.4851594
0.6747836571655547	0.2446882	0.4946597
0.6923107159525568	0.21178074	0.4601964
0.7098377909359992	0.14647244	0.3827172
0.7273648825259653	0.12322783	0.35103822
0.7448919911325411	0.111429624	0.33381075
0.762419117165817	0.15841854	0.39801827
0.7799462610358868	0.16747639	0.4092388
0.7974734231528482	0.16121927	0.4015212
0.8150006039268024	0.15476465	0.39340138
0.8325278037678551	0.18697532	0.43240643
0.8500550230861152	0.21739142	0.46625254
0.8675822622916969	0.22077909	0.46987134
0.8851095217947171	0.25132877	0.501327
0.9026368020052984	0.28917623	0.5377511
0.9201641033335665	0.32086492	0.5664494
0.9376914261896523	0.29971242	0.54745996
0.9552187709836915	0.25524318	0.505216
0.9727461381258234	0.20972064	0.45795265
0.990273528026193	0.19163576	0.43776223
1.0078009410949496	0.23139289	0.48103315
1.0253283777422473	0.27876765	0.5279845
1.0428558383782454	0.3157846	0.56194717
1.0603833234131086	0.30819124	0.55514973
1.0779108332570058	0.29363927	0.5418849
1.0954383683201119	0.2509248	0.50092393
1.112965929012607	0.30458248	0.5518899
1.1304935157446763	0.49349555	0.7024924
1.1480211289265108	0.55075246	0.742127
1.1655487689683062	1.3245867	1.1509069
1.1830764362802655	1.5458418	1.2433189
1.200604131272596	2.0279155	1.424049
1.2181318543555117	2.4249904	1.5572381
1.235659605939232	2.4341419	1.5601736
1.253187386433982	3.8380673	1.9590986
1.270715196249994	5.8734393	2.423518
1.2882430357975057	10.834681	3.2916076
1.3057709054867608	15.509753	3.9382424
1.3232988057280106	21.228136	4.6074
1.3408267369315112	26.213045	5.119868
1.358354699507526	29.827925	5.461495
1.3758826938663256	34.080467	5.8378477
1.3934107204181858	36.31255	6.0259895
1.410938779573391	36.94117	6.0779247
1.4284668717422309	37.316467	6.108721
1.4459949973350033	37.27856	6.105617
1.4635231567620117	37.25077	6.103341
1.4810513504335687	36.811928	6.0672836
1.4985795787599925	35.802704	5.9835362
1.5161078421516088	34.67286	5.888366
1.5336361410187505	33.879448	5.8206053
1.5511644757717598	34.194576	5.847613
1.5686928468209842	34.981445	5.914511
1.58622125457678	35.509407	5.958977
1.6037496994495108	36.659184	6.0546827
1.621278181849548	36.82714	6.0685368
1.6388067021872719	37.766476	6.1454434
1.6563352608730693	37.05296	6.0871143
1.673863858317336	35.654552	5.9711432
1.6913924949304753	34.587845	5.881143
1.7089211711228998	33.45295	5.7838526
1.7264498873050296	32.748936	5.7226686
1.7439786438872935	32.34219	5.6870193
1.7615074412801288	31.31498	5.5959787
1.779036279893981	30.656042	5.53679
1.796565160139305	29.64587	5.4448023
1.814094082426564	29.162632	5.4002438
1.8316230471662298	28.53895	5.342186
1.849152054768784	27.810446	5.273561
1.8666811056447168	27.420647	5.2364726
1.8842102002045273	26.707785	5.1679573
1.901739338858724	26.159468	5.1146326
1.9192685220178245	25.373198	5.0371814
1.9367977500923557	24.404078	4.940048
1.9543270234928547	24.296309	4.9291286
1.971856342629867	23.593876	4.8573527
1.9893857079139496	23.312408	4.8282924
2.006915119755667	22.6685	4.761145
2.0244445785655945	22.08633	4.6996098
2.0419740847543175	21.762087	4.664985
2.0595036387324317	21.316175	4.6169443
2.0770332409105414	20.591639	4.5378013
2.094562891699263	20.082293	4.481327
2.1120925915092217	19.586885	4.4257073
2.129622340751053	19.147749	4.375814
2.1471521398354043	187.34084	13.687251
2.1646819891729323	443.94238	21.06994
2.182211889174303	440.47693	20.987543
2.1997418402501974	452.78427	21.278728
2.2172718428113023	432.5262	20.797264
2.234801897268317	320.20233	17.894197
2.2523320040319548	16.772038	4.095368
2.269862163512935	16.55367	4.06862
2.287392376121992	16.47146	4.0585046
2.304922642269869	16.232311	4.0289345
2.322452962367322	15.837567	3.979644
2.3399833368251164	15.448489	3.9304566
2.357513766054032	15.094202	3.8851256
2.3750442504648586	14.894392	3.8593254
2.3925747904683963	14.653858	3.8280358
2.410105386475459	14.384715	3.7927186
2.4276360388968707	14.121874	3.757908
2.445166748143469	13.915414	3.730337
2.4626975146261025	13.628378	3.6916633
2.4802283387556323	13.36288	3.6555274
2.4977592209429305	13.021165	3.6084852
2.5152901615988825	12.5837345	3.547356
2.5328211611343865	12.432544	3.5259812
2.5503522199603523	12.476224	3.5321698
2.5678833384877024	12.425812	3.5250266
2.5854145171273712	12.182087	3.4902847
2.6029457562903064	11.822215	3.4383447
2.620477056387469	11.504003	3.391755
2.6380084178298326	11.391895	3.375188
2.655539841028383	11.3401	3.3675065
2.673071326394119	11.216638	3.349125
2.6906028743380523	10.955365	3.309889
2.708134485271211	10.8235035	3.2899094
2.7256661596046325	10.633237	3.2608645
2.743197897749369	10.543294	3.2470438
2.760729700116486	10.535653	3.245867
2.778261567117063	10.278985	3.2060857
2.795793499162193	10.133748	3.1833549
2.8133254966629817	9.981555	3.15936
2.830857560030551	9.825983	3.1346424
2.8483896896760337	9.807681	3.1317217
2.865921886010578	9.611041	3.100168
2.883454149445347	9.477098	3.0784895
2.9009864803915177	9.271482	3.044911
2.91851887926028	9.161877	3.0268593
2.9360513464628384	8.974049	2.9956717
2.953583882410413	8.944468	2.9907303
2.9711164875142373	8.774126	2.962115
2.9886491621855606	8.614543	2.935054
3.0061819068356455	8.501692	2.915766
3.023714721875769	8.320843	2.884587
3.041247607717225	8.172539	2.8587654
3.0587805647713213	8.103172	2.8466072
3.0763135934493806	8.065092	2.8399105
3.0938466941627407	7.996339	2.8277798
3.1113798673227544	7.809939	2.7946267
3.1289131133407904	7.671171	2.769688
3.1464464326282315	7.632054	2.762617
3.1639798255964786	7.702323	2.775306
3.1815132926569443	7.638569	2.763796
3.1990468342210603	7.63626	2.7633784
3.216580450700272	7.427151	2.72528
3.2341141425060416	7.2913985	2.700259
3.251647910049847	7.160664	2.6759417
3.2691817537431813	7.0988336	2.6643636
3.286715673997555	7.0157	2.6487167
3.3042496712244938	6.92415	2.631378
3.32178374583554	6.8401027	2.615359
3.339317898242251	6.808722	2.6093528
3.3568521288562034	6.7626324	2.600506
3.3743864380889876	6.79401	2.606532
3.3919208263522127	6.8101325	2.609623
3.4094552940575023	6.7041564	2.5892386
3.4269898416164972	6.6175737	2.5724645
3.444524469440858	6.4966526	2.5488532
3.4620591779422587	6.470105	2.5436401
3.479593967532391	6.400017	2.5298254
3.4971288386229658	6.394281	2.5286915
3.5146637916257086	6.3518133	2.5202804
3.5321988269523628	6.3043957	2.5108557
3.5497339450146903	6.228998	2.4957962
3.5672691462244708	6.224375	2.4948697
3.5848044309934988	6.190121	2.4879954
3.60233979973359	6.1980495	2.4895883
3.619875252856575	6.2929993	2.5085852
3.6374107907743034	6.314026	2.5127726
3.6549464138986427	6.3216596	2.514291
3.6724821226414788	6.269288	2.5038548
3.690017917414714	6.293765	2.5087378
3.7075537986302702	6.2868276	2.5073547
3.7250897667000857	6.3400726	2.51795
3.7426258220361235	6.546097	2.5585341
3.7601619650503553	6.794174	2.6065636
3.777698196154779	7.349855	2.7110615
3.7952345157614067	8.326709	2.8856037
3.8127709242822716	9.1293745	3.0214856
3.830307422129425	11.254362	3.354752
3.847844009714936	30.103685	5.4866824
3.8653806874508954	97.54329	9.876401
3.882917455749409	96.74738	9.836025
3.900454315022606	96.46359	9.8215885
3.917991265682631	41.03113	6.405555
3.9355283081416506	10.805057	3.2871046
3.9530654428118495	8.656058	2.942118
3.970602670105433	7.384854	2.7175088
3.9881399904346244	6.4170356	2.533187
4.005677404211669	6.291816	2.5083494
4.023214911848827	6.319609	2.5138834
4.0407525137583855	6.41179	2.5321512
4.058290210352644	6.47023	2.5436647
4.075828002043927	6.415985	2.5329795
4.0933658892445814	6.275022	2.5049994
4.110903872366966	6.1100564	2.4718528
4.128441951823468	5.9811945	2.445648
4.145980128026488	6.0584435	2.4613905
4.163518401388452	6.0073237	2.4509842
4.181056772321807	6.0491595	2.459504
4.1985952412390155	6.1437364	2.478656
4.216133808552567	6.1649528	2.4829323
4.233672474674966	6.2095633	2.4918995
4.251211240018741	6.3515096	2.52022
4.268750104996445	6.5767517	2.5645177
4.286289070020643	7.5368357	2.7453299
4.303828135503928	9.167276	3.027751
4.3213673018589125	29.337803	5.416438
4.3389065694982305	90.58333	9.517528
4.356445938834537	165.67598	12.871518
4.3739854102805085	171.11778	13.0812
4.391524984248844	171.96806	13.11366
4.409064661152262	136.17686	11.669484
4.426604441403504	96.69822	9.833526
4.444144325415337	75.7664	8.70439
4.461684313600543	21.565012	4.6438146
4.47922440637193	21.682547	4.656452
4.496764604142329	19.914827	4.462603
4.5143049073245916	18.185308	4.2644234
4.531845316331589	16.199316	4.0248375
4.5493858315762195	13.345237	3.6531134
4.566926453471405	10.981672	3.3138607
4.584467182430081	9.0030365	3.000506
4.602008018865218	7.9011755	2.810903
4.619548963189798	7.203899	2.684008
4.637090015816834	6.759089	2.599825
4.654631177159353	6.5753202	2.5642388
4.672172447630417	6.334203	2.5167842
4.689713827643102	6.1359344	2.4770818
4.7072553176105085	5.8822455	2.4253342
4.724796917945764	5.8238797	2.4132717
4.742338629062015	5.766205	2.4012923
4.759880451372434	5.7522006	2.3983746
4.777422385290215	5.6524925	2.3774972
4.794964431228581	5.5473523	2.3552818
4.812506589600768	5.5212226	2.349728
4.830048860820047	5.478845	2.3406932
4.847591245299709	5.515825	2.3485794
4.8651337434530655	5.44742	2.3339708
4.882676355693457	5.38422	2.3203921
4.900219082434242	5.4118767	2.326344
4.917761924088813	5.47104	2.3390255
4.935304881070575	5.51532	2.3484719
4.952847953792969	5.4743953	2.3397427
4.970391142669449	5.503869	2.3460326
4.9879344481135055	5.5308847	2.3517833
5.005477870538642	5.5949125	2.3653567
5.023021410358394	5.501243	2.3454728
5.040565067986324	5.4262586	2.3294332
5.05810884383601	5.2646675	2.2944863
5.075652738321066	5.253721	2.2920997
5.09319675185512	5.28772	2.2995043
5.110740884851836	5.315573	2.3055527
5.128285137724894	5.3124313	2.3048713
5.145829510888007	5.2839665	2.298688
5.163374004754908	5.259225	2.2933
5.1809186197393595	5.2391953	2.2889287
5.198463356255145	5.1578774	2.271096
5.216008214716077	5.181298	2.2762463
5.233553195535998	5.2031703	2.281046
5.251098299128764	5.2295237	2.2868152
5.268643525908272	5.2248034	2.2857828
5.286188876288432	5.232248	2.2874107
5.3037343506831895	5.2369914	2.2884474
5.32127994950651	5.22691	2.2862437
5.3388256731723915	5.137174	2.2665336
5.356371522094851	5.1193733	2.2626033
5.373917496687938	5.1625056	2.2721148
5.391463597365729	5.2498302	2.2912507
5.40900982454232	5.259799	2.293425
5.426556178631843	5.2407985	2.289279
5.444102660048449	5.214565	2.2835422
5.4616492692063225	5.17167	2.2741306
5.479196006519669	5.2228365	2.2853527
5.496742872402727	5.184598	2.2769713
5.514289867269756	5.1041102	2.2592278
5.531836991535049	5.035137	2.243911
5.549384245612924	5.0438566	2.2458532
5.566931629917724	5.0727706	2.2522812
5.584479144863822	5.1117435	2.2609165
5.6020267908656205	5.121672	2.263111
5.619574568337545	5.076231	2.2530494
5.637122477694054	5.0276966	2.2422526
5.654670519349629	5.0186014	2.2402234
5.672218693718784	5.015126	2.2394478
5.689767001216059	5.0237274	2.2413673
5.707315442256021	5.089665	2.2560287
5.724864017253266	5.089382	2.255966
5.7424127266224225	5.14312	2.2678447
5.75996157077814	5.099343	2.2581725
5.777510550135105	5.0946207	2.2571266
5.795059665108022	5.126901	2.2642663
5.812608916111639	5.1657896	2.2728374
5.830158303560715	5.2385674	2.2887917
5.847707827870055	5.2344503	2.287892
5.86525748945448	5.2590494	2.2932618
5.8828072887288485	5.4124627	2.32647
5.900357226108044	5.476033	2.3400927
5.917907302006979	5.5800104	2.3622046
5.9354575168406	6.161983	2.4823341
5.9530078710238765	6.779508	2.6037488
5.970558364971812	7.3009777	2.702032
5.988108999099438	7.621518	2.7607098
6.005659773821818	8.149518	2.854736
6.023210689554039	7.9402947	2.817853
6.040761746711227	8.320877	2.884593
6.058312945708531	7.623213	2.7610166
6.075864286961132	7.079753	2.6607804
6.093415770884244	6.4261923	2.5349936
6.1109673978931065	5.9568686	2.4406698
6.128519168402993	5.442669	2.3329527
6.146071082829204	5.358089	2.3147547
6.163623141587075	5.2120805	2.282998
6.181175345091969	5.114646	2.2615583
6.198727693759281	5.0547357	2.2482738
6.216280188004435	5.1011844	2.2585802
6.233832828242885	5.083408	2.2546413
6.251385614890126	5.0820584	2.254342
6.268938548361669	5.011705	2.2386837
6.286491629073067	4.9496403	2.2247787
6.304044857439898	4.9484563	2.2245126
6.321598233877777	4.923473	2.21889
6.339151758802344	4.921623	2.2184732
6.356705432629277	4.9931884	2.2345443
6.37425925577428	4.973412	2.2301147
6.391813228653095	4.9436216	2.2234256
6.409367351681486	4.8769155	2.208374
6.426921625275259	4.929546	2.220258
6.44447604985025	5.011213	2.2385738
6.46203062582232	5.0035586	2.2368636
6.47958535360737	5.0340476	2.2436683
6.497140233621328	5.0251956	2.2416947
6.514695266280161	5.019624	2.2404518
6.532250451999859	4.9797773	2.2315414
6.549805791196454	5.003961	2.2369535
6.567361284286002	5.035778	2.2440538
6.584916931684597	5.003129	2.2367675
6.602472733808367	4.961968	2.2275474
6.6200286910734665	4.987864	2.2333527
6.637584803896092	5.034815	2.2438393
6.655141072692462	5.0520325	2.2476728
6.672697497878842	4.98359	2.2323956
6.690254079871514	4.8769646	2.208385
6.707810819086808	4.8659325	2.205886
6.725367715941078	4.897038	2.2129252
6.742924770850719	4.91957	2.2180104
6.760481984232151	4.8850503	2.210215
6.778039356501836	4.8264537	2.1969192
6.795596888076266	4.8747644	2.207887
6.813154579371963	4.8953047	2.2125335
6.830712430805492	4.946281	2.2240236
6.84827044279344	4.9882307	2.2334347
6.865828615752445	4.966503	2.2285652
6.883386950099159	4.9280005	2.21991
6.900945446250287	4.9074707	2.2152812
6.918504104622553	4.960223	2.227156
6.936062925632727	5.014779	2.2393703
6.953621909697607	4.989186	2.2336485
6.971181057234028	5.032588	2.243343
6.988740368658859	5.0641146	2.2503588
7.006299844389007	5.131466	2.2652738
7.023859484841407	5.2005105	2.2804627
7.041419290433036	5.274522	2.2966328
7.058979261580902	5.395794	2.3228848
7.0765393987020495	5.5972395	2.3658485
7.094099702213559	5.9647794	2.4422898
7.111660172532549	6.316728	2.5133102
7.129220810076164	6.7037716	2.5891643
7.146781615261595	7.2540298	2.6933305
7.16434258850606	7.483182	2.7355406
7.181903730226821	7.9046016	2.8115122
7.1994650408411704	8.028248	2.8334162
7.217026520766437	8.138512	2.8528078
7.234588170419983	8.375536	2.8940518
7.252149990219215	8.365575	2.8923304
7.269711980581568	8.398301	2.8979824
7.2872741419245175	8.172954	2.8588378
7.304836474665574	7.6956215	2.7740984
7.322398979222286	7.3001437	2.7018778
7.339961656012233	7.0576844	2.6566303
7.357524505453039	6.674843	2.5835717
7.375087527962357	6.4241447	2.5345898
7.392650723957886	6.116559	2.473168
7.410214093857353	5.8651743	2.4218123
7.427777638078528	5.6676245	2.3806772
7.445341357039213	5.49971	2.3451462
7.4629052511572525	5.2977285	2.3016796
7.480469320850524	5.2757454	2.296899
7.498033566536948	5.2301245	2.2869465
7.5155979886344735	5.1922464	2.27865
7.5331625875610975	5.098845	2.2580621
7.550727363734844	5.094085	2.257008
7.568292317573788	5.07558	2.252905
7.585857449496025	5.0669966	2.250999
7.603422759919705	5.013122	2.2390003
7.620988249263007	5.017877	2.2400618
7.638553917944147	5.10109	2.2585592
7.656119766381391	5.147562	2.2688239
7.673685794993023	5.140741	2.2673202
7.691252004197388	5.0730886	2.2523518
7.70881839441285	5.048875	2.2469702
7.726384966057826	5.085595	2.2551265
7.743951719550762	5.1183505	2.2623773
7.761518655310149	5.2024994	2.2808988
7.779085773754511	5.164974	2.2726579
7.796653075302419	5.1864667	2.2773817
7.814220560372475	5.1576724	2.271051
7.831788229383323	5.127242	2.2643414
7.8493560827536495	5.1400695	2.267172
7.866924120902174	5.1723514	2.2742803
7.884492344247663	5.2488337	2.2910333
7.9020607532089135	5.287371	2.2994285
7.919629348204771	5.2906976	2.3001516
7.937198129654115	5.2906775	2.3001473
7.954767097975865	5.341906	2.3112564
7.972336253588986	5.3681226	2.316921
7.989905596912472	5.3427925	2.311448
8.007475128365371	5.2914734	2.3003204
8.025044848366756	5.257934	2.2930186
8.042614757335754	5.4093933	2.3258102
8.060184855691523	5.4942675	2.3439853
8.07775514385327	5.63607	2.3740408
8.095325622240228	5.6524086	2.3774796
8.112896291271687	5.7170806	2.3910418
8.130467151366968	5.797781	2.4078581
8.148038202945436	5.8553762	2.4197884
8.165609446426497	5.884645	2.4258287
8.183180882229594	5.8740573	2.4236455
8.200752510774217	5.891125	2.427164
8.218324332479893	5.9007916	2.4291544
8.235896347766193	5.9004793	2.4290903
8.253468557052724	5.9373813	2.436674
8.27104096075914	5.969486	2.4432533
8.288613559305137	5.991197	2.4476922
8.306186353110448	6.067899	2.4633107
8.32375934259485	6.134157	2.476723
8.341332528178162	6.2057557	2.4911354
8.358905910280246	6.215189	2.4930282
8.376479489321003	6.185332	2.4870327
8.394053265720377	6.166288	2.483201
8.411627239898356	6.193903	2.4887552
8.42920141227497	6.2707405	2.5041447
8.44677578327029	6.3009515	2.5101695
8.464350353304427	6.2438602	2.4987717
8.48192512279754	6.190833	2.4881384
8.499500092169827	6.0965824	2.4691257
8.51707526184153	6.02079	2.4537299
8.534650632232934	6.065205	2.4627638
8.552226203764365	6.097579	2.4693277
8.569801976856192	6.2133665	2.4926624
8.587377951928834	6.1852207	2.4870105
8.60495412940274	6.1841516	2.4867954
8.622530509698416	6.20091	2.4901626
8.6401070932364	6.344519	2.518833
8.657683880437283	6.419706	2.5337138
8.675260871721695	6.58992	2.567084
8.692838067510303	6.7654243	2.601043
8.710415468223834	6.9168673	2.6299937
8.727993074283043	7.037781	2.6528816
8.745570886108737	6.952549	2.6367686
8.763148904121765	7.038249	2.6529698
8.78072712874302	7.1123366	2.6668963
8.798305560393441	7.4152613	2.7230978
8.815884199494006	7.5294933	2.7439923
8.833463046465745	7.650101	2.7658815
8.851042101729728	7.729095	2.780125
8.86862136570707	8.046853	2.8366976
8.886200838818924	8.170849	2.8584697
8.903780521486505	8.215127	2.8662043
8.921360414131055	8.332714	2.8866441
8.938940517173874	8.584356	2.9299073
8.956520831036297	8.76815	2.9611063
8.97410135613971	8.996036	2.999339
8.99168209290554	9.162375	3.0269415
9.009263041755265	9.479215	3.0788333
9.026844203110405	9.692827	3.1133306
9.044425577392525	9.825338	3.1345396
9.062007165023239	9.860453	3.1401358
9.079588966424197	10.167765	3.1886933
9.097170982017108	10.225248	3.1976943
9.11475321222372	11.107414	3.3327787
9.132335657465825	11.962182	3.4586387
9.149918318165264	12.108848	3.4797769
9.167501194743924	12.662742	3.5584745
9.18508428762374	12.314652	3.509224
9.202667597226693	12.310614	3.5086484
9.220251123974803	12.091653	3.4773054
9.237834868290143	11.873933	3.4458573
9.255418830594836	11.693261	3.4195411
9.273003011311046	11.04714	3.3237238
9.290587410860985	10.7708235	3.2818933
9.308172029666911	10.131788	3.183047
9.32575686815113	9.911709	3.1482866
9.343341926735997	8.657997	2.9424474
9.360927205843916	8.45703	2.9080973
9.378512705897327	8.292571	2.8796825
9.396098427318728	8.058232	2.8387027
9.413684370530664	7.938318	2.817502
9.431270535955722	7.7862086	2.7903779
9.448856924016539	7.6764903	2.770648
9.466443535135806	7.6196766	2.7603762
9.484030369736251	7.6158895	2.75969
9.501617428240658	7.6146064	2.7594576
9.519204711071852	7.6145496	2.7594473
9.536792218652714	7.6220484	2.7608058
9.55437995140617	7.6388955	2.7638552
9.571967909755191	7.695184	2.7740195
9.589556094122802	7.741702	2.7823915
9.60714450493207	7.8137727	2.7953126
9.624733142606116	7.921634	2.8145397
9.642322007568108	7.925895	2.8152966
9.659911100241267	7.926987	2.8154905
9.677500421048851	7.9140215	2.8131871
9.695089970414175	7.925661	2.8152552
9.712679748760609	7.959017	2.821173
9.730269756511557	8.014289	2.830952
9.747859994090492	8.081636	2.8428218
9.765450461920915	8.139972	2.8530636
9.78304116042639	8.206355	2.8646736
9.800632090030527	8.234071	2.869507
9.81822325115699	8.2743635	2.8765194
9.835814644229481	8.2482605	2.8719785
9.853406269671762	8.209375	2.8652008
9.870998127907646	8.260002	2.874022
9.888590219360985	8.326908	2.8856382
9.906182544455698	8.352655	2.8900962
9.923775103615734	8.282652	2.8779597
9.941367897265108	8.270611	2.875867
9.958960925827878	8.20313	2.8641107
9.97655418972816	8.149756	2.8547778
9.994147689390106	8.11017	2.847836
10.011741425237934	8.051682	2.8375487
10.029335397695904	8.12438	2.8503299
10.04692960718833	8.143703	2.8537176
10.06452405413958	8.158939	2.8563857
10.082118738974064	8.175892	2.8593516
10.099713662116246	8.121466	2.8498185
10.117308823990651	8.103908	2.8467362
10.134904225021844	8.099554	2.8459716
10.152499865634445	8.140204	2.8531044
10.170095746253125	8.163142	2.8571212
10.18769186730261	8.138428	2.852793
10.205288229207675	8.0636015	2.8396482
10.222884832393145	8.036054	2.8347933
10.2404816772839	8.087161	2.8437934
10.258078764304868	8.095018	2.8451746
10.275676093881035	8.106036	2.84711
10.293273666437438	8.001191	2.8286376
10.310871482399158	8.020406	2.8320322
10.32846954219134	8.077457	2.8420868
10.346067846239173	8.101628	2.846336
10.363666394967908	8.059919	2.8389997
10.38126518880283	7.9658422	2.8223825
10.398864228169298	8.0600195	2.8390174
10.416463513492713	8.178734	2.8598485
10.434063045198531	8.159739	2.8565257
10.451662823712262	8.131718	2.8516166
10.469262849459467	8.132571	2.8517663
10.486863122865758	8.116157	2.848887
10.504463644356806	8.09833	2.8457563
10.522064414358338	7.992905	2.8271728
10.539665433296118	7.8719335	2.8056967
10.557266701595987	7.7500033	2.7838829
10.574868219683818	7.733432	2.7809048
10.592469987985552	7.683709	2.7719505
10.610072006927185	7.6170635	2.7599027
10.627674276934751	7.497366	2.7381318
10.64527679843435	7.3765593	2.7159822
10.662879571852143	7.2661924	2.6955876
10.680482597614331	7.1486583	2.6736975
10.698085876147173	7.0632834	2.6576838
10.715689407876988	7.002008	2.6461308
10.733293193230146	6.8669167	2.6204803
10.750897232633072	6.7379885	2.5957634
10.76850152651225	6.5289845	2.5551877
10.786106075294207	6.4582496	2.5413086
10.803710879405534	6.3191705	2.513796
10.821315939272877	6.3259745	2.5151489
10.83892125532294	6.2490716	2.4998143
10.856526827982472	6.2289333	2.495783
10.874132657678285	6.158116	2.4815552
10.891738744837243	6.1770864	2.4853745
10.909345089886271	6.133662	2.476623
10.926951693252343	6.103573	2.470541
10.944558555362494	6.042718	2.458194
10.96216567664381	5.98761	2.4469593
10.979773057523436	5.956506	2.4405954
10.997380698428573	5.927191	2.4345822
11.014988599786477	5.8380637	2.4162085
11.032596762024461	5.7710276	2.4022963
11.050205185569892	5.687495	2.384847
11.067813870850198	5.5815086	2.3625216
11.085422818292859	5.480847	2.341121
11.10303202832541	5.3575964	2.3146482
11.120641501375454	5.326502	2.3079216
11.138251237870636	5.2693553	2.2955077
11.155861238238671	5.2289333	2.2866862
11.173471502907317	5.093302	2.2568345
11.191082032304402	5.0203695	2.2406182
11.208692826857805	5.043323	2.2457345
11.226303886995465	5.045602	2.2462418
11.243915213145371	4.9507346	2.2250247
11.261526805735578	4.862939	2.205207
11.279138665194196	4.798858	2.1906297
11.296750791949393	4.7556567	2.1807468
11.314363186429393	4.7083693	2.1698778
11.331975849062479	4.694718	2.1667297
11.34958878027699	4.659261	2.1585321
11.36720198050133	4.595639	2.1437442
11.384815450163948	4.5536275	2.133923
11.402429189693366	4.478587	2.1162672
11.420043199518153	4.4597626	2.111815
11.437657480066942	63.44784	7.9654155
11.455272031768422	85.13921	9.227091
11.472886855051353	107.520424	10.369205
11.490501950344528	99.10819	9.95531
11.508117318076819	84.4419	9.189227
11.52573295867715	45.80819	6.7681746
11.543348872574514	4.1363754	2.033808
11.560965060197946	4.101205	2.0251431
11.57858152197655	4.055954	2.0139399
11.59619825833949	3.997857	1.9994642
11.613815269715985	3.989916	1.9974774
11.631432556535323	38.55137	6.208975
11.649050119226837	83.08357	9.115019
11.666667958219929	93.45334	9.667127
11.68428607394406	107.66662	10.376252
11.701904466828756	82.468025	9.081191
11.719523137303586	65.343445	8.083529
11.737142085798196	4.598463	2.1444027
11.754761312742286	3.7264645	1.9304053
11.772380818565619	3.700611	1.9236972
11.790000603698015	3.6823082	1.9189341
11.80762066856935	3.6824565	1.9189727
11.825241013609572	3.6281495	1.9047703
11.842861639248683	3.5711365	1.8897451
11.860482545916748	3.5495	1.8840116
11.878103734043883	3.5523458	1.8847668
11.895725204060282	3.5545964	1.8853637
11.91334695639619	3.4931338	1.8689927
11.930968991481919	3.410381	1.8467218
11.948591309747824	3.3468487	1.8294394
11.966213911624347	3.3474169	1.8295947
11.98383679754198	3.325283	1.8235359
12.001459967931268	3.2829752	1.8118982
12.019083423222835	3.2632964	1.8064597
12.036707163847352	3.2214284	1.7948338
12.05433119023556	3.1596415	1.7775381
12.071955502818259	3.1583188	1.7771659
12.089580102026313	3.1541424	1.7759905
12.107204988290643	3.1447942	1.7733568
12.12483016204224	3.13963	1.7719002
12.142455623712152	3.0918963	1.7583789
12.16008137373149	3.0549395	1.7478385
12.177707412531431	3.0353916	1.7422376
12.19533374054321	3.0473745	1.7456731
12.212960358198126	3.0281441	1.7401563
12.230587265927545	2.996894	1.731154
12.248214464162889	2.9704185	1.7234902
12.265841953335649	2.9919126	1.7297146
12.283469733877375	3.0156167	1.7365531
12.301097806219685	2.9894156	1.7289927
12.31872617079425	2.9429884	1.7155141
12.336354828032825	2.9211228	1.7091292
12.353983778367205	2.9137049	1.7069578
12.371613022229262	2.9159844	1.7076254
12.389242560050928	2.904779	1.7043412
12.406872392264201	2.8876545	1.6993101
12.424502519301143	2.9291983	1.71149
12.442132941593874	2.9035044	1.7039672
12.459763659574586	2.8974826	1.7021993
12.477394673675532	2.8425481	1.6859858
12.49502598432903	2.815021	1.6778024
12.51265759196746	2.8029108	1.6741896
12.530289497023267	2.8056402	1.6750046
12.547921699928967	2.8148937	1.6777645
12.565554201117134	2.8220766	1.6799037
12.583187001020404	2.803933	1.6744949
12.600820100071486	2.7943063	1.6716179
12.618453498703152	2.786995	1.6694295
12.636087197348235	2.7427444	1.6561233
12.65372119643964	2.7105036	1.6463608
12.671355496410326	2.6948853	1.6416106
12.68899009769333	2.7269213	1.6513393
12.706625000721749	2.742102	1.6559293
12.724260205928752	2.8225284	1.6800382
12.741895713747551	2.8642657	1.6924142
12.759531524611454	2.9217854	1.709323
12.777167638953818	2.9088588	1.7055377
12.794804057208072	2.9120924	1.7064854
12.812440779807702	2.9578807	1.719849
12.830077807186271	3.159259	1.7774304
12.847715139777405	3.198382	1.7884021
12.865352778014795	3.3976388	1.8432685
12.882990722332197	3.5003207	1.8709143
12.90062897316344	3.6009283	1.8976113
12.918267530942412	3.701029	1.9238058
12.935906396103071	3.603585	1.8983111
12.953545569079449	3.7311192	1.9316105
12.971185050305628	3.542751	1.8822197
12.988824840215775	3.525456	1.8776197
13.006464939244115	3.5770235	1.8913021
13.024105347824943	3.4548607	1.8587255
13.041746066392617	3.548007	1.8836154
13.05938709538157	3.332898	1.8256226
13.077028435226296	3.3306806	1.8250152
13.094670086361363	3.2142284	1.7928269
13.112312049221401	3.1353436	1.7706901
13.129954324241112	3.0548816	1.7478219
13.147596911855258	2.8443646	1.6865244
13.165239812498685	2.8047338	1.6747339
13.182883026606293	2.751144	1.6586573
13.200526554613058	2.7198846	1.6492072
13.218170396954017	2.6880646	1.6395319
13.235814554064284	2.6794991	1.6369176
13.253459026379034	2.6869261	1.6391846
13.271103814333523	2.6892662	1.6398982
13.288748918363058	2.6466181	1.626843
13.306394338903031	2.6363242	1.6236762
13.32404007638889	2.6281495	1.6211568
13.341686131256164	2.691117	1.6404624
13.359332503940449	2.6786706	1.6366645
13.376979194877402	2.6725228	1.6347853
13.394626204502751	2.6898942	1.6400898
13.412273533252307	2.70065	1.6433654
13.429921181561937	2.6850586	1.6386149
13.447569149867581	2.7415624	1.6557664
13.465217438605247	2.7709532	1.664618
13.482866048211022	2.7544823	1.6596633
13.500514979121052	2.7201347	1.649283
13.518164231771568	2.6804843	1.6372185
13.535813806598844	2.6633463	1.6319762
13.553463704039254	2.6405964	1.6249912
13.571113924529229	2.6564982	1.6298767
13.588764468505275	2.6808357	1.6373258
13.606415336403956	2.70412	1.6444209
13.624066528661917	2.7278688	1.6516261
13.641718045715882	2.7860885	1.669158
13.659369888002635	2.8473718	1.6874157
13.67702205595903	2.904386	1.7042259
13.694674550021993	2.9354136	1.7133049
13.712327370628532	2.9097826	1.7058085
13.729980518215713	2.9643943	1.7217417
13.747633993220681	3.0550115	1.7478591
13.765287796080647	3.1325593	1.7699038
13.7829419272329	3.1665063	1.7794679
13.800596387114801	3.1822057	1.7838738
13.818251176163775	3.230893	1.7974684
13.835906294817324	3.3119905	1.8198875
13.853561743513023	3.3411329	1.8278766
13.871217522688525	3.3946657	1.8424618
13.888873632781538	3.4057214	1.8454597
13.906530074229858	3.4449582	1.8560599
13.92418684747135	3.4990895	1.8705853
13.941843952943948	3.5137415	1.8744977
13.959501391085665	3.4498749	1.8573838
13.977159162334578	3.3419297	1.8280946
13.994817267128846	3.269308	1.8081228
14.012475705906693	3.2180514	1.7938929
14.030134479106424	3.163587	1.7786475
14.047793587166414	3.0867016	1.7569011
14.065453030525108	3.0473914	1.745678
14.083112809621026	2.9942482	1.7303896
14.100772924892766	2.9478385	1.716927
14.118433376778997	2.8727698	1.6949247
14.136094165718458	2.8288057	1.6819054
14.153755292149969	2.7602096	1.6613878
14.171416756512416	2.702138	1.6438181
14.189078559244768	2.607039	1.6146327
14.20674070078606	2.5679638	1.6024867
14.224403181575408	2.5104978	1.584455
14.242066002051999	2.515907	1.5861611
14.259729162655093	2.4712572	1.5720233
14.277392663824022	2.4548302	1.5667897
14.295056505998208	2.4372783	1.5611784
14.312720689617128	2.4076335	1.551655
14.330385215120348	2.3810322	1.5430593
14.348050082947497	2.3775046	1.5419159
14.3657152935383	2.3535154	1.5341171
14.383380847332528	2.368331	1.5389383
14.401046744770051	2.359101	1.5359366
14.418712986290798	2.3870397	1.5450047
14.436379572334793	2.4083664	1.5518912
14.454046503342123	2.4163084	1.5544479
14.471713779752946	2.391447	1.5464305
14.489381402007504	2.3934295	1.5470712
14.507049370546113	2.4328122	1.5597475
14.524717685809168	2.47288	1.5725393
14.542386348237134	2.459291	1.5682126
14.560055358270553	2.4688642	1.571262
14.577724716350051	2.465965	1.5703392
14.595394422916325	2.4264088	1.5576934
14.61306447841015	2.432828	1.5597526
14.63073488327237	2.4271712	1.5579381
14.648405637943917	2.4584792	1.5679538
14.6660767428658	2.463236	1.56947
14.683748198479094	2.461143	1.5688031
14.701420005224954	2.503855	1.5823574
14.719092163544628	2.5499225	1.5968477
14.73676467387942	2.6360157	1.6235812
14.754437536670727	2.6583607	1.630448
14.772110752360014	2.6656847	1.6326925
14.78978432138882	2.6290112	1.6214225
14.807458244198777	2.6649318	1.6324619
14.82513252123159	2.6605005	1.6311041
14.842807152929028	2.7000372	1.643179
14.860482139732962	2.6882749	1.639596
14.87815748208531	2.6964989	1.642102
14.8958331804281	2.6770308	1.6361635
14.91350923520342	2.6074069	1.6147467
14.931185646853438	2.6439137	1.6260116
14.948862415820408	2.65793	1.6303159
14.966539542546656	2.6922314	1.640802
14.98421702747459	2.6464689	1.6267971
15.001894871046696	2.641878	1.6253854
15.019573073705542	2.6751711	1.6355951
15.037251635893766	2.649002	1.6275755
15.054930558054092	2.654571	1.6292855
15.072609840629323	2.6891396	1.6398597
15.090289484062351	2.8210037	1.6795844
15.107969488796124	2.9983063	1.7315618
15.125649855273691	3.203797	1.7899154
15.14333058393817	3.521505	1.8765674
15.161011675232768	4.0177584	2.0044346
15.17869312960076	4.658687	2.158399
15.196374947485506	5.405428	2.3249576
15.214057129330447	6.779307	2.6037102
15.231739675579114	8.884105	2.9806216
15.249422586675102	13.445259	3.6667778
15.267105863062092	17.914585	4.2325625
15.284789505183847	25.086609	5.008653
15.302473513484218	29.90641	5.468675
15.320157888407127	34.072357	5.837153
15.337842630396578	33.01674	5.7460194
15.355527739896656	30.16586	5.4923453
15.37321321735153	23.442429	4.841738
15.39089906320545	15.965544	3.9956906
15.408585277902748	10.238714	3.199799
15.42627186188783	6.38364	2.5265865
15.443958815605198	4.6255164	2.1507013
15.461646139499424	3.8388999	1.959311
15.479333834015168	3.415399	1.8480798
15.497021899597165	3.095908	1.7595192
15.514710336690234	2.8451118	1.6867459
15.53239914573928	2.7226157	1.650035
15.550088327189297	2.5934331	1.6104139
15.567777881485336	2.564292	1.6013407
15.58546780907256	2.565341	1.6016682
15.6031581103962	2.577786	1.6055485
15.620848785901568	2.532658	1.5914327
15.638539836034063	2.4837482	1.5759912
15.656231261239173	2.423711	1.5568272
15.673923061962451	2.399572	1.5490552
15.691615238649552	2.407122	1.5514902
15.709307791746202	2.4265683	1.5577446
15.727000721698221	2.4730473	1.5725925
15.744694028951498	2.5123732	1.5850468
15.76238771395202	2.4920106	1.5786103
15.780081777145844	2.449827	1.5651923
15.797776218979125	2.3987796	1.5487994
15.815471039898094	2.3926175	1.5468088
15.833166240349064	2.3971734	1.5482808
15.850861820778437	2.4194324	1.5554525
15.868557781632699	2.4032414	1.5502391
15.886254123358412	2.4052405	1.5508838
15.903950846402232	2.447521	1.5644555
15.921647951210897	2.496442	1.5800133
15.939345438231225	2.513489	1.5853987
15.957043307910133	2.5172224	1.5865756
15.974741560694602	2.4908442	1.5782409
15.992440197031714	2.5065534	1.5832099
16.01013921736862	2.4987571	1.5807457
16.02783862215259	2.4876294	1.5772221
16.045538411830933	2.4830062	1.5757557
16.06323858685107	2.4364057	1.560899
16.080939147660512	2.4135923	1.5535741
16.09864009470684	2.3926744	1.5468272
16.11634142843774	2.4382663	1.5614948
16.134043149300954	2.4537704	1.5664515
16.15174525774433	2.4246566	1.5571309
16.169447754215817	2.4287674	1.5584503
16.18715063916342	2.4422948	1.5627843
16.204853913035244	2.5167894	1.5864393
16.222557576279478	2.5358694	1.5924413
16.240261629344403	22.494307	4.7428164
16.257966072678386	43.01398	6.5585046
16.275670906729868	38.113136	6.173584
16.293376131947387	2.5349538	1.5921538
16.31108174877957	2.5222235	1.588151
16.328787757675133	2.5564692	1.5988963
16.34649415908287	2.5806653	1.606445
16.364200953451657	2.6234832	1.619717
16.38190814123048	2.6525671	1.6286703
16.39961572286839	2.6726184	1.6348145
16.41732369881455	2.6357245	1.6234915
16.43503206951817	2.6471121	1.6269948
16.45274083542859	2.6792212	1.6368327
16.47044999699522	2.7545462	1.6596825
16.488159554667558	2.8014934	1.6737663
16.505869508895184	2.8735986	1.6951692
16.523579860127786	2.8988526	1.7026017
16.541290608815117	2.957742	1.7198087
16.559001755407035	3.008322	1.7344515
16.57671330035348	3.1134655	1.7645015
16.59442524410448	3.2277937	1.7966062
16.61213758711015	3.393152	1.842051
16.629850329820705	3.479438	1.8653252
16.647563472686436	3.484562	1.8666981
16.665277016157724	3.4763937	1.864509
16.682990960685053	3.502627	1.8715307
16.70070530671898	3.494565	1.8693756
16.718420054710155	3.4962192	1.869818
16.736135205109335	3.5271106	1.8780603
16.753850758367335	3.5968573	1.8965383
16.771566714935087	3.670956	1.9159739
16.789283075263597	3.7204773	1.9288539
16.80699983980398	3.7556174	1.9379416
16.82471700900741	3.8265347	1.956153
16.84243458332518	3.9156208	1.9787928
16.860152563208665	3.9891856	1.9972945
16.87787094910932	4.016143	2.0040317
16.89558974147871	4.0820856	2.0204172
16.913308940768466	4.17688	2.0437417
16.931028547430333	4.228798	2.056404
16.94874856191613	4.248818	2.0612662
16.966468984677785	4.2953105	2.072513
16.98418981616729	4.3801684	2.0928853
17.00191105683676	4.4540553	2.1104634
17.019632707138374	4.4658346	2.1132522
17.03735476752442	4.4817543	2.1170154
17.05507723844728	4.480648	2.116754
17.072800120359403	4.487642	2.1184056
17.090523413713353	4.515949	2.1250763
17.108247118961785	4.534656	2.1294732
17.125971236557437	4.574185	2.1387343
17.143695766953133	4.5916286	2.1428087
17.161420710601806	4.645925	2.1554408
17.179146067956477	4.658139	2.1582723
17.19687183947025	4.638166	2.1536403
17.21459802559634	4.5962486	2.1438863
17.232324626788028	4.53498	2.1295493
17.25005164349871	4.532576	2.1289847
17.267779076181863	4.570319	2.1378305
17.285506925291074	4.5728326	2.1384182
17.30323519127999	4.545988	2.1321323
17.320963874602384	4.5410357	2.1309705
17.33869297571211	4.548557	2.1327345
17.356422495063114	4.5772176	2.1394434
17.37415243310944	4.5102205	2.123728
17.391882790305218	4.4703207	2.1143134
17.40961356710468	4.4332833	2.1055365
17.42734476396215	4.51766	2.1254787
17.445076381332044	4.6674614	2.160431
17.462808419668868	4.7263947	2.1740272
17.48054087942723	4.796608	2.190116
17.498273761061835	4.8644156	2.205542
17.51600706502747	5.1678567	2.273292
17.533740791779024	5.7573915	2.3994565
17.551474941771485	6.658167	2.5803423
17.56920951545993	8.571691	2.9277449
17.586944513299528	9.804882	3.131275
17.60467993574556	12.806055	3.5785549
17.622415783253373	15.450867	3.930759
17.64015205627843	18.185268	4.264419
17.657888755276293	20.401344	4.5167847
17.675625880702604	21.932549	4.68322
17.69336343301311	20.48591	4.5261364
17.71110141266366	18.342258	4.2827864
17.728839820110178	15.639784	3.9547167
17.746578655808705	12.4606085	3.5299587
17.764317920215372	10.376294	3.2212255
17.7820576137864	8.619217	2.9358504
17.79979773697811	7.2820544	2.6985283
17.81753829024692	5.9523463	2.439743
17.835279274049356	5.1947985	2.27921
17.85302068884201	4.5120716	2.1241636
17.870762535081607	4.0967593	2.0240452
17.888504813224934	3.8400404	1.9596021
17.90624752372891	3.6756165	1.9171897
17.923990667050536	3.5651	1.8881472
17.941734243646895	3.4784458	1.8650591
17.959478253975185	3.427487	1.8513473
17.9772226984927	3.408133	1.846113
17.994967577656833	3.416455	1.8483655
18.01271289192506	3.418427	1.8488989
18.030458641754965	3.399452	1.8437603
18.04820482760425	3.3493953	1.8301353
18.06595144993067	3.3102453	1.8194079
18.083698509192125	3.2464905	1.801802
18.101446005846576	3.2314274	1.7976172
18.119193940352105	3.222376	1.7950978
18.136942313166887	3.2398365	1.7999545
18.1546911247492	3.2225587	1.7951486
18.1724403755574	3.1641977	1.7788192
18.19019006604997	3.1011956	1.7610211
18.207940196685467	3.0881882	1.7573241
18.225690767922575	3.0846229	1.7563094
18.243441780220046	3.0723681	1.7528172
18.261193234036764	3.0589452	1.7489841
18.278945129831676	3.0539742	1.7475623
18.29669746806386	3.025161	1.739299
18.314450249192483	2.968586	1.7229584
18.3322034736768	2.9438727	1.7157718
18.349957141976184	2.9900937	1.7291888
18.3677112545501	3.0518928	1.7469667
18.385465811858108	3.1097205	1.7634399
18.403220814359884	3.1276727	1.7685227
18.420976262515172	3.160868	1.7778829
18.43873215678387	3.1580799	1.7770988
18.456488497625923	3.171494	1.7808689
18.474245285501407	3.2017143	1.7893335
18.492002520870486	3.269743	1.808243
18.50976020419343	3.341397	1.8279488
18.527518335930615	3.6149528	1.9013029
18.545276916542516	4.1345143	2.0333505
18.563035946489688	4.2774005	2.0681877
18.580795426232832	4.6820927	2.1638143
18.598555356232698	4.6616225	2.159079
18.616315736950185	4.9813213	2.2318873
18.63407656884626	4.6529384	2.157067
18.65183785238201	4.803808	2.191759
18.669599588018617	4.611216	2.1473742
18.68736177621737	4.564752	2.136528
18.705124417439652	4.5764313	2.1392596
18.72288751214696	4.426316	2.1038811
18.740651060800886	4.6055093	2.146045
18.758415063863115	4.318179	2.078023
18.77617952179546	4.480273	2.1166656
18.793944435059814	4.252073	2.0620556
18.811709804118184	4.2220364	2.0547595
18.829475629432675	4.167076	2.0413418
18.8472419114655	3.9781272	1.9945244
18.86500865067897	4.0667567	2.0166202
18.88277584753551	3.7261605	1.9303266
18.90054350249763	3.7357423	1.9328068
18.918311616027957	3.4352198	1.8534346
18.936080188589226	3.3184645	1.8216653
18.953849220644265	2.9831622	1.7271833
18.971618712656007	2.809899	1.6762754
18.9893886650875	2.767978	1.6637241
19.007159078401887	7.982558	2.8253422
19.024929953062408	32.870125	5.7332473
19.042701289532435	32.823856	5.729211
19.060473088275405	25.395723	5.039417
19.07824534975489	2.6545563	1.6292809
19.096018074434568	2.6132996	1.6165704
19.113791262778197	2.576419	1.6051228
19.13156491524966	2.564193	1.6013098
19.149339032312945	2.5640705	1.6012715
19.167113614432136	2.5931432	1.6103239
19.184888662071433	2.628207	1.6211746
19.202664175695123	2.5718877	1.6037107
19.220440155767623	2.502044	1.5817851
19.238216602753447	2.4529595	1.5661927
19.2559935171172	2.4624984	1.569235
19.27377089932361	2.503894	1.5823698
19.291548749837514	2.5503607	1.5969849
19.309327069123835	2.5535464	1.5979819
19.32710585764763	2.5354555	1.5923114
19.344885115874032	2.5028672	1.5820453
19.362664844268313	2.478023	1.5741738
19.380445043295822	2.4790993	1.5745156
19.39822571342203	2.516559	1.5863665
19.41600685511252	2.5054793	1.5828706
19.43378846883297	2.4879398	1.5773205
19.451570555049173	2.5059593	1.5830222
19.469353114227037	2.4948423	1.579507
19.48713614683254	2.4756784	1.5734289
19.50491965333182	2.4650142	1.5700364
19.52270363419109	2.4867198	1.5769337
19.540488089876686	2.4935763	1.5791062
19.55827302085503	2.4630423	1.5694083
19.576058427592674	2.4514236	1.5657023
19.593844310556282	2.4639301	1.5696911
19.611630670212598	2.4941964	1.5793025
19.629417507028506	2.4693327	1.571411
19.64720482147098	2.4933832	1.579045
19.6649926140071	2.4743695	1.5730128
19.682780885104084	2.4746451	1.5731004
19.70056963522921	2.4523034	1.5659832
19.718358864849908	2.4988186	1.5807652
19.7361485744337	2.52891	1.5902547
19.753938764448215	2.5392766	1.5935107
19.771729435361202	2.5418782	1.5943269
19.789520587640506	2.5499938	1.59687
19.807312221754092	2.5271184	1.5896913
19.825104338170043	2.5037372	1.5823202
19.842896937356517	2.49364	1.5791264
19.860690019781824	2.5151362	1.5859181
19.87848358591436	2.508587	1.5838519
19.896277636222635	2.503694	1.5823065
19.914072171175278	2.4947593	1.5794808
19.931867191241015	2.487804	1.5772774
19.94966269688869	2.4917328	1.5785223
19.967458688587264	2.4855943	1.5765767
19.985255166805807	2.466189	1.5704104
20.00305213201348	2.4681969	1.5710496
20.020849584679578	2.468918	1.5712792
20.038647525273507	2.4456286	1.5638506
20.05644595426477	2.4277341	1.5581188
20.07424487212299	2.443774	1.5632575
20.092044279317903	2.4787116	1.5743924
20.109844176319353	2.5117905	1.584863
20.127644563597304	2.4761078	1.5735654
20.145445441621817	2.417533	1.5548418
20.16324681086307	2.3812983	1.5431455
20.181048671791373	2.3903868	1.5460876
20.198851024877122	2.3997803	1.5491225
20.216653870590836	2.407481	1.5516059
20.234457209403146	2.3976405	1.5484316
20.252261041784802	2.3772755	1.5418416
20.270065368206662	2.3633797	1.5373287
20.287870189139685	2.363513	1.5373721
20.305675505054968	2.3731582	1.5405059
20.323481316423702	2.3621473	1.5369279
20.341287623717207	2.3649108	1.5378267
20.359094427406884	2.3529654	1.5339378
20.376901727964288	2.3732946	1.5405501
20.39470952586107	2.3616948	1.5367807
20.41251782156899	2.353922	1.5342497
20.430326615559935	2.3482273	1.5323926
20.448135908305886	2.3416011	1.5302291
20.465945700278965	2.338999	1.5293787
20.483755991951384	2.3402996	1.5298038
20.50156678379548	2.3368185	1.5286655
20.519378076283708	2.356997	1.5352515
20.537189869888635	2.330706	1.526665
20.55500216508294	2.347934	1.532297
20.572814962339415	2.3250754	1.5248197
20.59062826213098	2.316065	1.5218624
20.60844206493066	2.2802548	1.5100513
20.626256371211593	2.2849047	1.5115901
20.644071181447032	2.288416	1.5127511
20.66188649611036	2.3051744	1.51828
20.67970231567506	2.2990553	1.5162636
20.697518640614742	2.3044188	1.5180312
20.715335471403122	2.304553	1.5180755
20.73315280851404	2.2795038	1.5098026
20.750970652421447	2.2850716	1.5116453
20.768789003599412	2.2836192	1.5111648
20.786607862522136	2.3003569	1.5166928
20.8044272296639	2.2573714	1.5024551
20.82224710549913	2.27207	1.5073386
20.84006749050237	2.2684782	1.5061468
20.857888385148268	3.804795	1.9505883
20.8757097899116	45.89441	6.7745414
20.893531705267254	64.799484	8.049812
20.911354131690224	83.85851	9.15743
20.92917706965566	69.137405	8.314891
20.94700051963877	50.15725	7.082178
20.96482448211493	29.413897	5.423458
20.982648957559622	4.1696076	2.0419617
21.00047394644843	2.2728624	1.5076015
21.01829944925707	2.2830389	1.5109729
21.036125466461375	2.2613983	1.5037947
21.053951998537297	2.2578635	1.5026189
21.071779045960906	2.2329054	1.494291
21.089606609208378	2.2224765	1.4907973
21.10743468875603	2.1979945	1.4825635
21.12526328508028	2.178421	1.4759475
21.143092398657675	2.148696	1.4658431
21.16092202996488	2.165759	1.4716518
21.17875217947867	2.2116706	1.4871687
21.19658284767596	2.2108057	1.4868778
21.21441403503377	2.185534	1.4783552
21.232245742029225	2.190426	1.4800088
21.2500779691396	2.1946514	1.4814355
21.26791071684227	2.170641	1.4733095
21.28574398561475	2.1512425	1.4667114
21.30357777593465	2.1581917	1.4690785
21.321412088279704	2.1584551	1.4691682
21.339246923127792	2.1266606	1.4583074
21.357082280956888	2.1331325	1.4605247
21.3749181622451	2.1294084	1.4592493
21.392754567470647	2.1396766	1.4627633
21.41059149711187	2.092609	1.4465853
21.42842895164726	2.1196103	1.4558882
21.446266931555378	2.1373622	1.461972
21.464105437314945	2.1534975	1.46748
21.481944469404798	2.1234019	1.4571897
21.49978402830388	2.1143863	1.454093
21.51762411449127	2.1387026	1.4624304
21.53546472844617	2.146121	1.4649645
21.553305870647876	2.109941	1.4525636
21.571147541575865	2.1068377	1.451495
21.58898974170967	2.0704503	1.438906
21.60683247152899	2.0956287	1.4476286
21.62467573151363	2.0856426	1.4441754
21.642519522143523	2.073735	1.4400469
21.660363843898722	2.0375443	1.4274257
21.6782086972594	2.0323606	1.4256089
21.696054082705864	2.0153608	1.4196341
21.713900000718535	1.9896208	1.4105392
21.73174645177795	1.9889134	1.4102885
21.749593436364794	1.9855012	1.4090781
21.767440954959845	1.9832358	1.408274
21.785289008044032	2.0058837	1.4162922
21.803137596098388	1.9904429	1.4108306
21.820986719604086	1.9912069	1.4111013
21.838836379042412	1.9930632	1.4117589
21.85668657489478	2.0283465	1.4242003
21.87453730764273	2.0396855	1.4281756
21.892388577767914	2.0476625	1.4309655
21.91024038575213	2.0193768	1.4210478
21.928092732077285	1.9921468	1.4114343
21.945945617225426	1.9847337	1.4088057
21.963799041678694	1.9959837	1.4127929
21.981653005919398	31.318792	5.5963197
21.999507510429943	78.09559	8.837171
22.01736255569286	73.07127	8.548174
22.035218142190818	4.1990123	2.0491493
22.05307427040661	2.011855	1.4183987
22.07093094082315	2.001024	1.4145756
22.088788153923474	1.9914212	1.4111773
22.106645910190746	1.9745281	1.405179
22.12450421010827	1.9975681	1.4133536
22.142363054159464	1.9857292	1.4091591
22.16022244282787	1.9613265	1.4004737
22.178082376597164	1.9772421	1.4061444
22.195942855951145	1.9738901	1.4049519
22.213803881373742	1.9950049	1.4124464
22.231665453349002	2.0231159	1.4223628
22.24952757236111	2.036438	1.4270382
22.26739023889438	2.0163186	1.4199713
22.28525345343323	1.949899	1.3963878
22.30311721646225	1.9018468	1.3790746
22.320981528466113	1.8933752	1.3759997
22.33884638992964	1.917561	1.3847603
22.356711801337788	1.949438	1.3962227
22.37457776317561	1.9605079	1.4001814
22.392444275928337	1.951969	1.3971288
22.410311340081282	1.9488333	1.3960062
22.428178956119904	1.9579225	1.3992578
22.446047124529805	1.9484205	1.3958583
22.46391584579669	1.943848	1.3942195
22.481785120406414	1.981652	1.4077116
22.49965494884496	2.0028977	1.4152377
22.51752533159841	2.0136585	1.4190344
22.53539626915302	1.9707904	1.4038484
22.553267761995137	1.9479394	1.395686
22.571139810611264	1.959954	1.3999835
22.589012415488025	1.9643242	1.4015435
22.60688557711216	1.9694121	1.4033574
22.624759295970566	1.9777036	1.4063085
22.642633572550263	1.9520236	1.3971484
22.660508407338362	1.9284667	1.3886924
22.67838380082217	1.9223619	1.3864926
22.696259753489077	1.9157518	1.3841069
22.714136265826614	1.8773398	1.3701605
22.73201333832246	1.878427	1.3705572
22.74989097146439	1.8880297	1.374056
22.76776916574035	1.9129572	1.3830969
22.785647921638393	1.9100543	1.3820472
22.803527239646712	1.9063145	1.3806934
22.82140712025363	1.8641348	1.3653332
22.839287563947593	1.8432692	1.3576705
22.85716857121719	1.8944556	1.3763922
22.875050142551135	1.9255486	1.3876413
22.892932278438277	1.9438441	1.3942181
22.910814979367604	1.9279569	1.3885089
22.928698245828222	1.9460009	1.3949914
22.946582078309387	1.9003763	1.3785414
22.96446647730047	1.889838	1.3747138
22.98235144329098	1.9149778	1.3838272
23.000236976770562	1.9439718	1.3942639
23.018123078229	1.9453881	1.3947717
23.03600974815619	1.9294701	1.3890537
23.053896987042194	1.8966275	1.377181
23.071784795377173	1.9277018	1.388417
23.08967317365145	1.9336244	1.3905482
23.10756212235546	1.9206139	1.3858621
23.125451641979787	1.8998439	1.3783482
23.143341733015134	1.9052228	1.380298
23.161232395952357	1.9376911	1.3920097
23.179123631282426	1.9541508	1.3979094
23.197015439496468	1.9261657	1.3878638
23.214907821085717	1.9068756	1.3808967
23.23280077654157	1.9064919	1.3807577
23.250694306355538	1.9110187	1.382396
23.268588411019277	1.9565165	1.3987553
23.28648309102458	1.9759197	1.4056741
23.304378346863356	1.9938724	1.4120455
23.322274179027676	1.9607606	1.4002717
23.340170588009723	1.9688581	1.4031601
23.358067574301852	1.9651046	1.4018219
23.37596513839651	1.9518038	1.3970697
23.39386328078629	1.9469332	1.3953254
23.411762001963947	1.9462638	1.3950856
23.429661302422353	1.9143437	1.3835981
23.4475611826545	1.929363	1.3890151
23.46546164315356	1.9517155	1.3970381
23.48336268441279	1.9518548	1.3970879
23.501264306925638	1.928595	1.3887386
23.51916651118564	1.9299254	1.3892176
23.537069297686497	1.929996	1.389243
23.554972666922037	1.8948076	1.37652
23.57287661938623	1.9009155	1.378737
23.59078115557318	1.9004941	1.3785841
23.608686275977128	1.9061822	1.3806455
23.62659198109246	1.9186097	1.3851389
23.6444982714137	1.8926117	1.3757223
23.66240514743549	1.8600843	1.363849
23.68031260965263	1.8440951	1.3579746
23.698220658560068	1.8447173	1.3582036
23.716129294652845	1.8410339	1.356847
23.7340385184262	1.8525392	1.3610802
23.75194833037546	1.8964151	1.3771039
23.769858730996123	1.9215374	1.3861953
23.78776972078382	1.9600074	1.4000026
23.80568130023431	1.9058087	1.3805103
23.823593469843495	1.8920485	1.3755175
23.841506230107424	1.8647599	1.3655621
23.859419581522275	1.8639389	1.3652614
23.87733352458438	1.8535482	1.3614508
23.89524805979019	1.8823681	1.3719943
23.913163187636318	1.917196	1.3846285
23.931078908619508	1.9902338	1.4107565
23.948995223236633	2.0082183	1.4171162
23.966912131984735	1.998541	1.4136976
23.98482963536096	1.9914196	1.4111767
24.002747733862616	2.0170934	1.4202441
24.020666427987155	2.0147123	1.4194056
24.038585718232156	1.9901581	1.4107296
24.056505605095353	1.9984218	1.4136555
24.074426089074617	2.0777657	1.4414457
24.092347170667946	2.0850778	1.4439799
24.110268850373515	2.0576334	1.4344454
24.128191128689586	2.0468414	1.4306786
24.146114006114626	2.0050442	1.4159958
24.164037483147187	2.0471687	1.430793
24.181961560286005	2.0584548	1.4347316
24.199886238029926	2.0553725	1.433657
24.21781151687797	2.0188215	1.4208524
24.235737397329274	2.0579255	1.4345472
24.253663879883135	2.0698378	1.438693
24.271590965038975	2.0990975	1.4488262
24.289518653296376	2.075866	1.4407866
24.30744694515505	2.0635939	1.4365214
24.32537584111486	2.0251122	1.4230644
24.34330534167581	2.0576377	1.4344468
24.361235447338046	2.0583875	1.4347081
24.379166158601876	2.0152047	1.419579
24.39709747596772	1.9958308	1.4127388
24.41502939993615	2.0031607	1.4153306
24.432961931007917	2.0000367	1.4142265
24.450895069683856	1.9568249	1.3988656
24.468828816465	1.9211801	1.3860664
24.4867631718525	1.9874209	1.4097592
24.504698136347656	2.0459924	1.4303819
24.52263371045192	2.0424182	1.429132
24.540569894666874	1.9689851	1.4032053
24.558506689494266	1.9411407	1.3932482
24.57644409543597	1.9524646	1.3973062
24.594382112994012	1.972969	1.4046242
24.61232074267057	1.9678442	1.4027988
24.630259984967953	1.9694512	1.4033713
24.64819984038863	1.9790658	1.4067928
24.66614030943522	1.9844483	1.4087045
24.684081392610462	1.9741626	1.405049
24.702023090417274	1.9804482	1.407284
24.7199654033587	1.9821862	1.4079013
24.737908331937927	2.038657	1.4278154
24.755851876658305	2.0753205	1.4405973
24.773796038023324	2.1044333	1.4506665
24.79174081653661	2.1136742	1.453848
24.809686212701962	2.134632	1.461038
24.827632227023294	2.1129162	1.4535874
24.8455788600047	2.1155937	1.4545081
24.8635261121504	2.1255622	1.4579308
24.88147398396475	2.1337876	1.460749
24.899422475952303	2.1255555	1.4579285
24.917371588617698	2.1193004	1.4557817
24.935321322465768	2.1733294	1.4742216
24.953271678001478	2.2737937	1.5079104
24.97122265572994	2.4584835	1.5679551
24.989174256156414	2.7733898	1.6653497
25.00712647978632	3.4110851	1.8469123
25.02507932712521	4.473018	2.1149511
25.043032798678798	5.9888544	2.4472136
25.060986894952933	7.5151134	2.7413707
25.078941616453637	8.986067	2.9976768
25.096896963687055	9.859856	3.1400406
25.114852937159508	10.627455	3.2599778
25.132809537377444	10.475016	3.236513
25.150766764847468	9.871446	3.1418858
25.168724620076347	8.518557	2.9186566
25.186683103570985	7.2269454	2.6882977
25.204642215838426	5.788364	2.405902
25.222601957385894	4.655851	2.157742
25.24056232872074	3.5679524	1.8889024
25.25852333035048	2.8874488	1.6992495
25.276484962782778	2.4233713	1.5567181
25.294447226525435	2.2092195	1.4863443
25.312410122086423	2.1008406	1.4494277
25.330373649973843	2.0696611	1.4386317
25.348337810695988	1.9882307	1.4100463
25.366302604761245	1.9483492	1.3958328
25.384268032678207	1.9210378	1.386015
25.40223409495558	1.9518362	1.3970814
25.420200792102257	1.9323463	1.3900886
25.438168124627246	1.8832074	1.3723
25.45613609303974	1.84138	1.3569746
25.474104697849057	1.8571881	1.3627869
25.492073939564698	1.8713449	1.3679711
25.510043818696285	1.867381	1.3665215
25.528014335753614	1.8783163	1.3705168
25.54598549124664	1.880599	1.3713493
25.56395728568544	1.8786266	1.37063
25.58192971958028	1.8653868	1.3657917
25.59990279344156	1.8839896	1.3725849
25.617876507779833	1.8365304	1.3551865
25.635850863105826	1.8551259	1.36203
25.653825859930386	1.879314	1.3708807
25.671801498764548	1.8583628	1.3632178
25.68977778011949	1.861882	1.3645079
25.707754704506524	1.8664548	1.3661826
25.725732272437153	1.9156618	1.3840743
25.743710484423012	1.8985301	1.3778716
25.761689340975888	1.8354707	1.3547955
25.77966884260774	1.8162674	1.3476896
25.797648989830662	1.8609184	1.3641548
25.815629783156922	1.8562502	1.3624427
25.83361122309895	1.7882504	1.3372548
25.85159331016929	1.755387	1.3249102
25.869576044880695	1.7676387	1.3295257
25.887559427746034	1.7851932	1.3361112
25.90554345927836	1.8025165	1.3425783
25.92352813999086	1.8093926	1.3451366
25.94151347039689	1.8074836	1.3444269
25.959499451009965	1.7862836	1.3365192
25.97748608234374	1.7732284	1.3316262
25.995473364912062	1.8037423	1.3430347
26.013461299228904	1.8635256	1.3651102
26.03144988580839	1.8875113	1.3738673
26.04943912516483	1.8803166	1.3712463
26.067429017812675	1.8605996	1.364038
26.085419564266537	1.854674	1.3618642
26.103410765041186	1.8449523	1.3582902
26.12140262065155	1.8570565	1.3627386
26.139395131612723	1.8559172	1.3623205
26.157388298439948	1.8487576	1.3596903
26.17538212164861	1.8029865	1.3427533
26.193376601754295	1.8207052	1.3493351
26.211371739272714	1.8152711	1.34732
26.229367534719746	1.8748913	1.3692667
26.247363988611433	1.8824561	1.3720262
26.26536110146397	1.9200957	1.3856752
26.283358873793727	1.8984925	1.3778579
26.301357306117204	1.8681095	1.366788
26.319356398951104	1.7997022	1.3415297
26.33735615281224	1.8095958	1.3452122
26.35535656821762	1.853384	1.3613905
26.373357645684404	1.8208567	1.3493912
26.39135938572991	1.7537383	1.3242879
26.409361788871614	1.7864916	1.3365971
26.427364855627165	1.8276597	1.3519096
26.445368586514352	1.8187993	1.3486286
26.46337298205115	1.8124617	1.346277
26.48137804275568	1.789748	1.3378146
26.499383769146217	1.7795491	1.3339974
26.517390161741215	1.7812631	1.3346397
26.53539722105928	1.7684027	1.329813
26.553404947619182	1.7717415	1.3310678
26.571413341939856	1.8047292	1.3434021
26.589422404540397	1.8295046	1.3525918
26.60743213594006	1.8776908	1.3702886
26.62544253665827	1.8753161	1.3694218
26.64345360721459	1.8544596	1.3617854
26.66146534812879	1.8167439	1.3478664
26.679477759920758	1.8148997	1.3471822
26.69749084311057	1.8025333	1.3425845
26.71550459821847	1.8033146	1.3428755
26.733519025764842	1.812072	1.3461323
26.751534126270258	1.8322489	1.3536059
26.769549900255434	1.7914765	1.3384604
26.787566348241267	1.7139918	1.309195
26.80558347074881	1.7067337	1.3064202
26.823601268299267	1.732348	1.3161869
26.841619741414036	1.7507308	1.3231518
26.85963889061465	1.7655749	1.3287494
26.877658716422832	1.807217	1.3443277
26.89567921936045	1.8348075	1.3545507
26.913700399949544	1.8109734	1.3457241
26.93172225871233	1.8065569	1.3440822
26.949744796171174	1.8276778	1.3519163
26.967768012848605	1.820197	1.3491467
26.98579190926733	1.8126173	1.3463348
27.003816485950225	1.817027	1.3479714
27.021841743420318	1.8070891	1.3442801
27.039867682200814	1.7852316	1.3361256
27.057894302815072	1.8082464	1.3447105
27.07592160578664	1.8206794	1.3493255
27.0939495916392	1.801094	1.3420484
27.111978260896635	1.7750587	1.3323133
27.13000761408296	1.813093	1.3465114
27.148037651722397	1.8166316	1.3478247
27.166068374339304	1.8004352	1.341803
27.184099782458215	1.7833475	1.3354204
27.20213187660384	1.7780375	1.3334308
27.22016465730105	1.7844692	1.3358402
27.23819812507487	1.7879056	1.3371259
27.256232280450533	1.7826113	1.3351446
27.274267123953383	1.7670299	1.3292967
27.292302656108987	1.7699528	1.3303957
27.31033887744306	1.8148471	1.3471626
27.32837578848146	1.7730798	1.3315704
27.34641338975026	1.7472999	1.3218547
27.364451681775673	1.7145126	1.309394
27.382490665084074	1.7404938	1.3192778
27.400530340202046	1.7900655	1.3379333
27.41857070765629	1.8634305	1.3650752
27.436611767973726	1.8583131	1.3631996
27.454653521681404	1.8495915	1.3599969
27.472695969306564	1.8413374	1.3569589
27.490739111376627	1.8204867	1.3492541
27.508782948419153	1.8504022	1.3602949
27.526827480961902	1.8468392	1.3589846
27.54487270953279	1.8125873	1.3463236
27.562918634659898	1.8169292	1.3479352
27.580965256871508	1.8718855	1.3681687
27.599012576696026	1.8573816	1.3628578
27.617060594662068	1.7944021	1.339553
27.63510931129842	1.7839	1.3356272
27.65315872713401	1.7977103	1.3407872
27.67120884269797	1.8130349	1.3464898
27.68925965851958	1.881807	1.3717897
27.707311175128307	1.9156517	1.3840706
27.725363393053787	1.9123765	1.382887
27.74341631282583	1.8965584	1.3771559
27.7614699349744	1.8979053	1.3776449
27.77952426002968	2.1071653	1.4516078
27.797579288521973	2.1715624	1.4736222
27.815635020981784	2.564392	1.6013719
27.83369145793979	2.6677208	1.6333159
27.85174859992682	2.5471754	1.5959873
27.869806447473923	2.4354239	1.5605844
27.887865001112267	2.1143737	1.4540886
27.905924261373233	1.948452	1.3958696
27.92398422878836	1.8885735	1.3742537
27.94204490388936	1.8616923	1.3644384
27.96010628720813	1.8950647	1.3766135
27.978168379276728	1.8796228	1.3709934
27.9962311806274	1.8381042	1.355767
28.014294691792568	1.8441832	1.3580071
28.0323589133048	1.8547084	1.3618768
28.050423845696887	1.8833512	1.3723525
28.068489489501758	1.8408003	1.356761
28.086555845252523	1.8237857	1.3504761
28.104622913482487	1.8290495	1.3524235
28.122690694725115	1.876815	1.369969
28.14075918951405	1.8938693	1.3761792
28.15882839838312	1.9243258	1.3872007
28.176898321866304	1.9021922	1.3791999
28.1949689604978	1.8453981	1.3584543
28.213040314811945	1.8648492	1.3655949
28.23111238534327	1.8977951	1.3776048
28.249185172626493	1.9340849	1.3907138
28.267258677196473	1.9702449	1.4036541
28.285332899588294	1.9995323	1.4140482
28.303407840337172	1.990855	1.4109766
28.321483499978545	1.9470983	1.3953847
28.33955987904799	1.891254	1.3752286
28.357636978081285	1.9105422	1.3822236
28.37571479761439	1.9552072	1.3982873
28.393793338183425	1.9698442	1.4035114
28.41187260032469	1.9971281	1.4131979
28.429952584574686	2.0173526	1.4203354
28.448033291470065	2.0221288	1.4220158
28.46611472154769	2.0503714	1.4319118
28.484196875344566	2.0725362	1.4396306
28.502279753397914	2.054127	1.4332225
28.52036335624511	2.0228677	1.4222755
28.538447684423716	2.0169559	1.4201957
28.556532738471482	2.0636153	1.4365289
28.574618518926325	2.037884	1.4275447
28.59270502632635	1.9966302	1.4130217
28.61079226120985	2.0071864	1.4167521
28.628880224115274	2.0372987	1.4273397
28.646968915581287	2.0062184	1.4164104
28.66505833614671	2.0356297	1.426755
28.68314848635055	2.0532858	1.4329292
28.701239366732004	2.008717	1.4172921
28.71933097783044	2.0114818	1.4182671
28.737423320185403	2.1147978	1.4542345
28.75551639433665	2.1732402	1.4741913
28.773610200824074	2.1181974	1.4554029
28.791704740187793	2.070388	1.4388843
28.80980001296809	2.092561	1.4465687
28.827896019705413	2.213285	1.4877113
28.845992760940433	2.2267222	1.4922205
28.86409023721397	2.2339587	1.4946433
28.88218844906704	2.162361	1.4704968
28.900287397040845	2.140076	1.4628998
28.918387081676755	2.1805973	1.4766846
28.936487503516343	2.2343311	1.4947679
28.954588663101365	2.2490363	1.4996787
28.97269056097374	2.2623477	1.5041102
28.990793197675597	2.3242486	1.5245486
29.00889657374923	2.3149095	1.5214827
29.027000689737125	2.326258	1.5252075
29.04510554618196	2.386942	1.5449731
29.06321114362659	2.4135246	1.5535523
29.08131748261405	2.3788311	1.542346
29.099424563687567	2.3704624	1.5396307
29.11753238739057	2.462208	1.5691425
29.13564095426663	2.4953723	1.5796747
29.15375026485954	2.5590029	1.5996884
29.171860319713275	2.6144857	1.6169372
29.18997111937199	2.6836476	1.6381842
29.20808266438002	2.726691	1.6512696
29.226194955281898	2.8048522	1.6747693
29.244307992622335	2.851372	1.6886007
29.26242177694624	2.9015524	1.7033944
29.2805363087987	2.932613	1.7124873
29.29865158872498	2.9353359	1.7132822
29.316767617270557	2.9106784	1.706071
29.334884394981064	2.9156442	1.7075257
29.353001922402367	2.958199	1.7199416
29.37112020008047	3.0688431	1.7518114
29.389239228561596	3.1564636	1.7766439
29.407359008392152	3.291303	1.8141948
29.42547954011872	3.6060688	1.8989652
29.44360082428809	4.1804748	2.044621
29.46172286144722	5.038975	2.244766
29.479845652143283	6.5530925	2.5599008
29.497969196923606	9.265107	3.0438638
29.516093496335728	13.225698	3.6367154
29.5342185509274	16.880468	4.108585
29.55234436124651	19.86223	4.456706
29.570470927841175	21.13631	4.5974245
29.588598251259686	20.831882	4.5641956
29.60672633205055	19.10405	4.370818
29.624855170762405	16.147104	4.018346
29.642984767944146	12.720643	3.566601
29.66111512414481	9.428813	3.0706372
29.67924623991366	7.0217614	2.6498606
29.697378115800138	5.3314095	2.3089845
29.71551075235387	4.417509	2.101787
29.733644150124675	3.9164207	1.9789948
29.751778309662576	3.5842564	1.8932133
29.769913231517766	3.431682	1.8524799
29.78804891624066	3.475935	1.864386
29.806185364381818	3.4262176	1.8510045
29.82432257649206	3.3813822	1.8388535
29.842460553122333	3.4221458	1.8499043
29.86059929482382	3.3845654	1.8397188
29.878738802147872	3.3182132	1.8215964
29.896879075646048	3.297631	1.8159381
29.915020115870114	3.2373366	1.79926
29.933161923371976	3.2333536	1.7981528
29.951304498703777	3.284881	1.8124241
29.969447842417857	3.2994907	1.81645
29.987591955066733	3.2462757	1.8017424
30.005736837203123	3.2318869	1.797745
30.023882489379943	3.279036	1.8108109
30.04202891215028	3.2945478	1.8150889
30.060176106067455	3.1869082	1.7851914
30.078324071684946	3.132935	1.7700099
30.09647280955646	3.1772344	1.7824799
30.114622320235863	3.213149	1.7925259
30.132772604277257	3.208428	1.7912085
30.1509236622349	3.134964	1.7705829
30.16907549466328	3.0815668	1.7554392
30.18722810211705	3.1031265	1.7615694
30.205381485151097	3.1195576	1.7662269
30.22353564432045	3.0690963	1.7518836
30.241690580180403	3.0962207	1.7596081
30.25984629328638	3.0897193	1.7577597
30.278002784194037	3.0675337	1.7514377
30.296160053459246	2.9526572	1.7183298
30.314318101638033	2.9320056	1.7123101
30.332476929286646	2.9519083	1.7181119
30.35063653696153	2.904577	1.7042819
30.368796925219307	2.8712	1.6944616
30.386958094616844	2.859336	1.6909571
30.40512004571115	2.8854785	1.6986697
30.423282779059463	2.8747468	1.6955079
30.441446295219233	2.8890607	1.6997237
30.459610594748067	2.8970368	1.7020683
30.47777567820382	2.871927	1.694676
30.495941546144504	2.826736	1.68129
30.51410819912835	2.8060396	1.6751237
30.532275637713795	2.8015811	1.6737925
30.55044386245946	2.8287497	1.6818887
30.56861287392416	2.8292096	1.6820254
30.586782672666956	2.810364	1.676414
30.604953259247047	2.7099216	1.646184
30.623124634223885	2.6966527	1.6421487
30.641296798157075	2.7588809	1.660988
30.659469751606462	2.7856052	1.6690133
30.677643495132074	2.7288654	1.6519278
30.695818029294152	2.7350287	1.6537923
30.713993354653116	2.7485359	1.6578709
30.73216947176962	2.8079872	1.675705
30.75034638120448	2.8448384	1.6866648
30.768524083518756	2.805394	1.674931
30.786702579273673	2.7908645	1.670588
30.80488186903069	2.8823106	1.6977369
30.82306195335144	3.0128827	1.7357657
30.841242832797782	3.2726102	1.8090357
30.85942450793176	3.6295984	1.9051505
30.877606979315637	4.034379	2.0085764
30.895790247511883	4.395776	2.0966105
30.913974313083134	4.9225297	2.2186775
30.932159176592283	5.3282614	2.3083026
30.95034483860237	5.568427	2.3597515
30.968531299676698	5.590057	2.36433
30.98671856037873	5.296985	2.301518
31.00490662127215	4.9523025	2.2253768
31.023095482920848	4.4248157	2.1035247
31.04128514588892	3.8039286	1.9503663
31.059475610740662	3.2464643	1.8017948
31.07766687804056	2.8452537	1.686788
31.09585894835335	2.5878057	1.6086658
31.11405182224393	2.5222385	1.5881557
31.132245500277417	2.5280428	1.589982
31.15043998301914	2.5245945	1.5888972
31.168635271034628	2.486756	1.5769452
31.18683136488964	2.4844794	1.5762231
31.20502826515008	2.484573	1.5762528
31.223225972382135	2.5784657	1.6057602
31.241424487152155	2.6477125	1.6271793
31.259623810026692	2.5821326	1.6069015
31.27782394157253	2.406014	1.5511332
31.296024882356644	2.4332933	1.5599017
31.314226632946237	2.438737	1.5616456
31.332429193908684	2.3949935	1.5475767
31.350632565811598	2.4468212	1.5642319
31.368836749222787	2.5779488	1.6055992
31.387041744710295	2.6865873	1.6390812
31.40524755284232	2.6591358	1.6306857
31.423454174187317	2.5579374	1.5993553
31.441661609313922	2.5349023	1.5921377
31.459869858791002	2.556071	1.5987717
31.478078923187628	2.4961004	1.5799052
31.496288803073064	2.4229984	1.5565983
31.514499499016807	2.4201453	1.5556816
31.532711011588546	2.4764159	1.5736632
31.550923341358178	2.4761572	1.573581
31.56913648889584	2.425201	1.5573057
31.587350454771844	2.3254957	1.5249577
31.605565239556732	2.3376074	1.5289236
31.62378084382127	2.3596153	1.536104
31.641997268136382	2.26025	1.5034128
31.660214513073274	2.1557903	1.468261
31.67843257920331	2.1860516	1.4785302
31.6966514670981	2.3042774	1.5179846
31.71487117732944	2.384146	1.544068
31.733091710469346	2.4059014	1.5510968
31.751313067090052	2.347228	1.5320666
31.769535247764008	2.3819554	1.5433584
31.787758253063878	2.4290977	1.5585563
31.805982083562526	2.4226785	1.5564955
31.824206739833024	2.345069	1.5313618
31.84243222244869	2.2928312	1.5142097
31.860658531983013	2.2685072	1.5061564
31.878885669009737	2.248104	1.499368
31.897113634102784	2.2823849	1.5107564
31.91534242783632	2.3669944	1.5385039
31.933572050784694	2.3760157	1.541433
31.951802503522508	2.2745388	1.5081574
31.970033786624548	2.2390766	1.4963545
31.988265900665834	2.2301245	1.4933602
32.006498846221575	2.1872525	1.4789363
32.02473262386724	2.213229	1.4876925
32.04296723417845	2.221136	1.4903476
32.0612026777311	2.195429	1.481698
32.07943895510129	2.1876104	1.4790573
32.097676066865304	2.1653638	1.4715176
32.115914013599685	2.1704247	1.4732361
32.13415279588115	2.2048836	1.4848851
32.152392414286666	2.2021394	1.4839607
32.1706328693934	2.1595137	1.4695284
32.18887416177875	2.1673803	1.4722025
32.20711629202032	2.1369245	1.4618223
32.225359260695924	2.0440865	1.4297155
32.243603068383614	2.0169063	1.4201783
32.26184771566166	2.0213544	1.4217434
32.28009320310852	2.0219586	1.421956
32.2983395313029	2.102437	1.4499782
32.31658670082372	2.2017891	1.4838427
32.33483471225012	2.200634	1.4834534
32.35308356616143	2.1101842	1.4526473
32.371333263137245	2.0833964	1.4433975
32.38958380375734	2.0812683	1.4426601
32.407835188601744	2.043131	1.4293814
32.42608741825067	2.0628817	1.4362736
32.444340493284585	2.054436	1.4333304
32.46259441428416	2.0327237	1.4257362
32.48084918183028	2.0387964	1.4278643
32.49910479650405	2.0771062	1.441217
32.51736125888683	2.0256464	1.4232521
32.53561856956014	1.9798146	1.4070588
32.5538767291058	2.0771194	1.4412215
32.572135738105764	2.1455545	1.4647712
32.59039559714228	2.0579865	1.4345684
32.608656306797776	2.0008895	1.414528
32.62691786765491	2.036391	1.4270217
32.645180280296586	2.032904	1.4257994
32.663443545305896	2.0654473	1.4371665
32.68170766326619	2.1047535	1.4507768
32.69997263476099	2.0885234	1.4451724
32.7182384603741	2.0947523	1.447326
32.7365051406895	2.0020165	1.4149263
32.75477267629144	1.930029	1.3892548
32.77304106776434	1.9398745	1.3927938
32.79131031569289	1.9129324	1.383088
32.809580420661966	1.9224405	1.386521
32.827851383256714	2.0233629	1.4224496
32.84612320406245	2.0913422	1.4461473
32.86439588366476	2.0038228	1.4155645
32.88266942264945	1.9644465	1.4015871
32.9009438216025	1.962483	1.4008865
32.9192190811102	2.0274239	1.4238764
32.937495201758985	1.9721345	1.404327
32.95577218413556	1.8904793	1.3749471
32.974050028826866	1.9311217	1.3896481
32.992328736420035	1.9554954	1.3983903
33.010608307502444	1.9265949	1.3880184
33.02888874266169	1.9345535	1.3908823
33.047170042485604	1.9547479	1.398123
33.06545220756225	2.0024705	1.4150867
33.083735238479896	2.1082945	1.4519967
33.10201913582707	2.0786314	1.441746
33.12030390019248	1.998046	1.4135226
33.138589532165135	2.025983	1.4233704
33.15687603233419	2.0635293	1.436499
33.17516340128909	1.9897497	1.4105849
33.19345163961947	1.9094449	1.3818266
33.211740747915215	1.9449483	1.394614
33.23003072676643	2.00409	1.4156588
33.248321576763466	2.0326545	1.425712
33.266613298496885	2.0571804	1.4342874
33.28490589255747	2.0104568	1.4179058
33.30319935953626	1.9986227	1.4137266
33.32149370002451	1.9630433	1.4010864
33.339788914613706	1.9889517	1.4103019
33.358085003895575	2.091826	1.4463146
33.376381968462034	2.0989897	1.448789
33.39467980890529	2.0073974	1.4168265
33.41297852581774	1.9690188	1.4032173
33.43127811979204	1.962533	1.4009043
33.44957859142105	1.9476944	1.3955982
33.467879941297866	2.0034142	1.4154202
33.486182170015844	2.0604002	1.4354094
33.50448527816853	1.9768507	1.4060053
33.522789266349754	1.8940679	1.3762513
33.541094135153514	1.9582554	1.3993767
33.55939988517411	2.0211427	1.421669
33.57770651700602	1.9535385	1.3976904
33.59601403124398	1.9455378	1.3948253
33.61432242848296	1.9254496	1.3876057
33.632631709318154	1.9139019	1.3834385
33.650941874344994	1.8950233	1.3765985
33.66925292415916	1.9177701	1.3848358
33.68756485935654	1.9147203	1.3837342
33.70587768053328	1.8723437	1.3683361
33.724191388285746	1.8835167	1.3724127
33.74250598321054	1.9302183	1.389323
33.760821465904506	1.9609394	1.4003354
33.77913783696474	1.8941691	1.3762882
33.79745509698852	1.7318501	1.3159977
33.815773246573414	1.7720543	1.3311853
33.8340922863172	1.9053017	1.3803266
33.852412216817896	2.009278	1.41749
33.87073303867377	2.1002524	1.4492247
33.889054752483304	2.094559	1.4472591
33.907377358845245	1.995833	1.4127395
33.92570085835853	1.9919115	1.411351
33.94402525162239	2.0053928	1.4161189
33.96235053923627	1.9318986	1.3899275
33.980676721799824	1.803741	1.3430343
33.999003799912984	1.8326459	1.3537525
34.01733177417592	1.777831	1.3333533
34.03566064518901	1.7981293	1.3409435
34.0539904135529	1.9517187	1.3970393
34.07232107986846	1.9775563	1.4062562
34.090652644736785	1.919316	1.3853939
34.108985108759235	2.0316958	1.4253757
34.12731847253742	2.0610929	1.4356507
34.14565273667313	2.1142461	1.4540447
34.16398790176847	2.119803	1.4559543
34.18232396842574	2.0439317	1.4296614
34.20066093724749	2.0238845	1.4226329
34.21899880883651	2.0547462	1.4334385
34.23733758379583	2.0237942	1.4226012
34.25567726272874	2.012666	1.4186846
34.27401784623872	1.9931895	1.4118036
34.29235933492957	1.9639689	1.4014168
34.31070172940526	1.9463115	1.3951026
34.32904503027003	1.8733158	1.3686913
34.347389238128386	1.8546667	1.3618615
34.36573435358502	1.8144109	1.3470007
34.38408037724492	1.9179006	1.3848829
34.402427309713296	2.0855815	1.4441543
34.42077515159559	2.1675105	1.4722468
34.43912390349752	2.1447597	1.4644998
34.45747356602499	2.1806703	1.4767092
34.47582413978423	2.253591	1.5011965
34.49417562538163	2.163873	1.4710108
34.51252802342388	2.0073802	1.4168205
34.53088133451789	1.8284583	1.352205
34.54923555927084	1.8960018	1.3769538
34.567590698290104	1.8597864	1.3637398
34.58594675218336	2.0323646	1.4256103
34.6043037215585	2.0854948	1.4441242
34.62266160702365	1.9425069	1.3937385
34.641020409187234	1.8484153	1.3595643
34.65938012865785	1.8926624	1.3757406
34.677740766044394	1.9037104	1.3797501
34.69610232195598	1.9999765	1.4142053
34.714464797002016	2.071199	1.4391661
34.73282819179208	2.0698185	1.4386864
34.751192506936064	2.1802578	1.4765697
34.76955774304408	2.4138744	1.5536648
34.7879239007265	2.3188655	1.5227822
34.80629098059391	2.0205593	1.4214638
34.824658983257194	1.8280761	1.3520637
34.843027909327446	1.8369164	1.3553289
34.86139775941603	1.9652456	1.4018722
34.879768534134534	1.8511853	1.3605827
34.89814023409483	1.7960765	1.3401778
34.91651285990901	1.8817172	1.371757
34.93488641218944	1.9911598	1.4110847
34.95326089154871	1.9551469	1.3982657
34.97163629859967	1.9855157	1.4090832
34.99001263395542	2.200307	1.4833431
35.00838989822934	2.382738	1.543612
35.02676809203499	2.3644927	1.5376906
35.04514721598624	2.4093301	1.5522017
35.063527270697215	2.3732502	1.5405357
35.081908256782256	2.2686968	1.5062194
35.10029017485597	2.1532457	1.4673942
35.11867302553321	2.1380453	1.4622056
35.137056809429104	1.9770697	1.4060831
35.155441527159006	1.7949449	1.3397555
35.173827179338524	1.6165929	1.271453
35.19221376658354	1.8336258	1.3541144
35.21060128951017	2.219539	1.4898117
35.2289897487348	2.3751442	1.5411503
35.24737914487405	2.262592	1.5041915
35.26576947854479	2.2035925	1.4844502
35.28416075036418	1.9075812	1.3811522
35.30255296094958	1.7452842	1.321092
35.32094611091867	1.6197186	1.2726816
35.33934020088932	1.699436	1.3036242
35.35773523147969	1.674553	1.2940452
35.3761312033082	1.7077813	1.3068211
35.394528116993506	2.0427744	1.4292566
35.41292597315452	2.0740788	1.4401662
35.431324772410434	1.8388772	1.356052
35.449724515380666	1.8663847	1.3661569
35.46812520268491	1.8580205	1.3630923
35.486526834943106	1.983293	1.4082943
35.504929412775454	2.130247	1.4595366
35.52333293680242	2.024423	1.4228221
35.54173740764471	1.9367107	1.3916576
35.560142825923286	2.150775	1.466552
35.5785491922594	2.3687704	1.539081
35.59695650727454	2.2507915	1.5002638
35.61536477159042	2.1756063	1.4749936
