0.008763373481513119	0.43391317	0.65872085
0.026290120649546365	0.5268964	0.72587633
0.043816868432600686	0.4357787	0.6601354
0.06134361724069026	0.28792393	0.53658545
0.07887036748382949	0.21327142	0.46181318
0.0963971195720331	0.19818069	0.4451749
0.11392387391531617	0.26243746	0.5122865
0.1314506309236943	0.3230183	0.568347
0.1489773910071836	0.25179493	0.5017917
0.16650415457580078	0.17048778	0.41290164
0.18403092203956356	0.11737785	0.34260452
0.20155769380849	0.127947	0.3576968
0.2190844702925996	0.117087826	0.342181
0.2366112519019124	0.13880947	0.37257144
0.2541380390464497	0.16223614	0.40278548
0.27166483213623416	0.16783865	0.40968114
0.28919163158128947	0.18204126	0.42666292
0.3067184377916406	0.18200703	0.4266228
0.324245251177314	0.20586474	0.4537232
0.34177207214833777	0.18801749	0.43360984
0.3592989011147415	0.18270887	0.42744458
0.37682573848655654	0.14018528	0.37441325
0.39435258467381573	0.13794222	0.37140575
0.41187944008655414	0.13458766	0.3668619
0.42940630513480854	0.14660266	0.38288727
0.446933180228618	0.13839196	0.3720107
0.4644600657780234	0.11920823	0.34526545
0.48198696219306775	0.1079765	0.32859778
0.49951386988379676	0.13271973	0.3643072
0.5170407892602581	0.1399888	0.37415075
0.5345677207325025	0.12602587	0.3550012
0.5520946647105822	0.14927049	0.3863554
0.5696216216045534	0.16826089	0.41019616
0.5871485918244737	0.19107014	0.4371157
0.6046755757804043	0.17575549	0.419232
0.6222025738824094	0.19988005	0.44707948
0.6397295865405557	0.18723823	0.43271032
0.6572566141649129	0.1696573	0.41189477
0.6747836571655547	0.1502526	0.3876243
0.6923107159525568	0.18417127	0.4291518
0.7098377909359992	0.187899	0.43347317
0.7273648825259653	0.20675856	0.45470712
0.7448919911325411	0.19388285	0.4403213
0.762419117165817	0.14322427	0.37844983
0.7799462610358868	0.1497868	0.387023
0.7974734231528482	0.16673271	0.40832916
0.8150006039268024	0.21233922	0.4608028
0.8325278037678551	0.24475624	0.49472845
0.8500550230861152	0.2233834	0.47263452
0.8675822622916969	0.18728349	0.43276262
0.8851095217947171	0.17259365	0.41544393
0.9026368020052984	0.16159731	0.4019917
0.9201641033335665	0.18457212	0.42961857
0.9376914261896523	0.23994857	0.48984545
0.9552187709836915	0.25366166	0.50364834
0.9727461381258234	0.23280026	0.4824938
0.990273528026193	0.18090901	0.425334
1.0078009410949496	0.15982564	0.399782
1.0253283777422473	0.17820625	0.42214483
1.0428558383782454	0.21460909	0.4632592
1.0603833234131086	0.22211681	0.4712927
1.0779108332570058	0.25983772	0.5097428
1.0954383683201119	0.24825758	0.49825454
1.112965929012607	0.32147712	0.56698954
1.1304935157446763	0.47378463	0.68832016
1.1480211289265108	0.5585878	0.7473873
1.1655487689683062	1.4777536	1.2156289
1.1830764362802655	1.8500155	1.3601527
1.200604131272596	2.2594278	1.5031393
1.2181318543555117	2.4712262	1.5720134
1.235659605939232	2.4283664	1.5583217
1.253187386433982	3.9704537	1.9925997
1.270715196249994	6.286766	2.5073423
1.2882430357975057	11.738815	3.4261954
1.3057709054867608	16.613033	4.0759087
1.3232988057280106	22.515942	4.7450967
1.3408267369315112	27.650127	5.258339
1.358354699507526	31.076712	5.574649
1.3758826938663256	35.40356	5.950089
1.3934107204181858	37.343292	6.1109157
1.410938779573391	37.898518	6.156177
1.4284668717422309	38.344563	6.1922984
1.4459949973350033	37.53851	6.126868
1.4635231567620117	37.427246	6.117781
1.4810513504335687	36.83654	6.069311
1.4985795787599925	36.21445	6.017844
1.5161078421516088	35.777725	5.9814487
1.5336361410187505	34.79726	5.89892
1.5511644757717598	34.828274	5.9015484
1.5686928468209842	35.853542	5.987783
1.58622125457678	36.290478	6.024158
1.6037496994495108	37.268307	6.1047773
1.621278181849548	36.817116	6.067711
1.6388067021872719	37.284885	6.106135
1.6563352608730693	36.523758	6.043489
1.673863858317336	35.981514	5.9984593
1.6913924949304753	35.870693	5.989215
1.7089211711228998	35.090042	5.923685
1.7264498873050296	34.13195	5.8422556
1.7439786438872935	33.15259	5.7578287
1.7615074412801288	32.438698	5.695498
1.779036279893981	32.131897	5.6685004
1.796565160139305	31.434937	5.6066866
1.814094082426564	30.560406	5.5281467
1.8316230471662298	29.483429	5.4298644
1.849152054768784	28.300526	5.3198237
1.8666811056447168	27.736132	5.2665105
1.8842102002045273	26.936508	5.190039
1.901739338858724	26.381191	5.1362624
1.9192685220178245	25.491207	5.048882
1.9367977500923557	24.716871	4.9716067
1.9543270234928547	24.190212	4.9183545
1.971856342629867	23.36887	4.834136
1.9893857079139496	22.868597	4.782112
2.006915119755667	22.669424	4.761242
2.0244445785655945	22.468172	4.7400603
2.0419740847543175	22.341303	4.726659
2.0595036387324317	21.719992	4.660471
2.0770332409105414	20.959496	4.578154
2.094562891699263	20.363968	4.5126452
2.1120925915092217	19.582628	4.425226
2.129622340751053	19.380838	4.4023676
2.1471521398354043	187.60945	13.69706
2.1646819891729323	444.1613	21.075134
2.182211889174303	440.52063	20.988583
2.1997418402501974	452.98932	21.283546
2.2172718428113023	432.84637	20.80496
2.234801897268317	320.79883	17.910858
2.2523320040319548	17.120228	4.1376595
2.269862163512935	17.139004	4.139928
2.287392376121992	16.84963	4.1048303
2.304922642269869	16.764149	4.0944047
2.322452962367322	16.423424	4.0525823
2.3399833368251164	16.117884	4.0147085
2.357513766054032	15.578272	3.9469318
2.3750442504648586	15.052156	3.879711
2.3925747904683963	14.60015	3.8210142
2.410105386475459	14.313548	3.783325
2.4276360388968707	14.148377	3.761433
2.445166748143469	14.175295	3.7650092
2.4626975146261025	14.06311	3.7500813
2.4802283387556323	13.863642	3.723391
2.4977592209429305	13.530679	3.6784072
2.5152901615988825	13.266204	3.64228
2.5328211611343865	13.040228	3.6111255
2.5503522199603523	12.819182	3.5803885
2.5678833384877024	12.605808	3.5504658
2.5854145171273712	12.421528	3.5244188
2.6029457562903064	12.162827	3.4875245
2.620477056387469	11.871128	3.4454503
2.6380084178298326	11.580933	3.403077
2.655539841028383	11.455753	3.384635
2.673071326394119	11.343116	3.3679543
2.6906028743380523	11.229181	3.350997
2.708134485271211	11.067786	3.3268282
2.7256661596046325	10.961807	3.310862
2.743197897749369	10.737082	3.2767487
2.760729700116486	10.64917	3.2633066
2.778261567117063	10.522902	3.2439022
2.795793499162193	10.460979	3.2343438
2.8133254966629817	10.289433	3.2077146
2.830857560030551	10.024622	3.1661685
2.8483896896760337	9.877638	3.142871
2.865921886010578	9.662546	3.1084635
2.883454149445347	9.733747	3.1198952
2.9009864803915177	9.693678	3.1134672
2.91851887926028	9.520912	3.0855975
2.9360513464628384	9.181799	3.0301483
2.953583882410413	8.805608	2.9674244
2.9711164875142373	8.792195	2.9651637
2.9886491621855606	8.701891	2.9498968
3.0061819068356455	8.675851	2.9454796
3.023714721875769	8.481657	2.9123285
3.041247607717225	8.341727	2.8882048
3.0587805647713213	8.300583	2.8810732
3.0763135934493806	8.278963	2.8773186
3.0938466941627407	8.16996	2.8583143
3.1113798673227544	7.9358454	2.8170633
3.1289131133407904	7.7762036	2.7885845
3.1464464326282315	7.697922	2.774513
3.1639798255964786	7.7930393	2.7916017
3.1815132926569443	7.808535	2.7943757
3.1990468342210603	7.81961	2.7963567
3.216580450700272	7.636344	2.7633936
3.2341141425060416	7.3574185	2.7124562
3.251647910049847	7.1928005	2.6819396
3.2691817537431813	7.172089	2.6780756
3.286715673997555	7.331793	2.7077284
3.3042496712244938	7.2552795	2.6935625
3.32178374583554	7.141197	2.6723018
3.339317898242251	6.9860425	2.6431122
3.3568521288562034	6.9031873	2.6273918
3.3743864380889876	6.8391	2.6151674
3.3919208263522127	6.8208995	2.6116853
3.4094552940575023	6.6577053	2.580253
3.4269898416164972	6.6253095	2.5739677
3.444524469440858	6.592823	2.5676494
3.4620591779422587	6.6163187	2.5722206
3.479593967532391	6.663412	2.5813587
3.4971288386229658	6.5848155	2.5660896
3.5146637916257086	6.4540243	2.5404773
3.5321988269523628	6.4232645	2.534416
3.5497339450146903	6.3648105	2.5228577
3.5672691462244708	6.3798513	2.5258367
3.5848044309934988	6.292473	2.50848
3.60233979973359	6.2230935	2.494613
3.619875252856575	6.2625656	2.502512
3.6374107907743034	6.2718906	2.5043743
3.6549464138986427	6.340148	2.517965
3.6724821226414788	6.2671146	2.5034206
3.690017917414714	6.230602	2.4961174
3.7075537986302702	6.22926	2.4958487
3.7250897667000857	6.2296925	2.4959352
3.7426258220361235	6.431817	2.5361028
3.7601619650503553	6.7206807	2.5924275
3.777698196154779	7.355587	2.7121186
3.7952345157614067	8.394222	2.8972783
3.8127709242822716	9.138203	3.0229461
3.830307422129425	11.2705145	3.3571587
3.847844009714936	30.115665	5.4877744
3.8653806874508954	97.668755	9.8827505
3.882917455749409	96.97342	9.847508
3.900454315022606	96.65623	9.831389
3.917991265682631	41.148922	6.4147425
3.9355283081416506	10.754639	3.2794266
3.9530654428118495	8.677377	2.9457388
3.970602670105433	7.603452	2.7574358
3.9881399904346244	6.687777	2.5860736
4.005677404211669	6.6008005	2.5692024
4.023214911848827	6.5153203	2.5525126
4.0407525137583855	6.558181	2.5608945
4.058290210352644	6.521359	2.5536952
4.075828002043927	6.451102	2.539902
4.0933658892445814	6.413772	2.5325427
4.110903872366966	6.324817	2.5149188
4.128441951823468	6.195297	2.4890354
4.145980128026488	6.114139	2.4726784
4.163518401388452	6.0918307	2.4681635
4.181056772321807	6.026548	2.454903
4.1985952412390155	6.0435133	2.458356
4.216133808552567	6.0697083	2.463678
4.233672474674966	6.266586	2.503315
4.251211240018741	6.5678015	2.5627723
4.268750104996445	6.816731	2.610887
4.286289070020643	7.6622877	2.7680838
4.303828135503928	9.197818	3.0327904
4.3213673018589125	29.565353	5.437403
4.3389065694982305	90.76521	9.527078
4.356445938834537	166.15608	12.890155
4.3739854102805085	171.73885	13.104917
4.391524984248844	172.60806	13.138039
4.409064661152262	136.5072	11.68363
4.426604441403504	96.66957	9.832068
4.444144325415337	75.465706	8.6871
4.461684313600543	21.541176	4.6412473
4.47922440637193	21.828941	4.6721454
4.496764604142329	20.295994	4.5051074
4.5143049073245916	18.54209	4.3060527
4.531845316331589	16.552471	4.068473
4.5493858315762195	13.832321	3.719183
4.566926453471405	11.560002	3.4000003
4.584467182430081	9.451126	3.0742683
4.602008018865218	8.250995	2.8724544
4.619548963189798	7.488747	2.7365575
4.637090015816834	7.032725	2.6519284
4.654631177159353	6.7439766	2.5969167
4.672172447630417	6.511854	2.5518334
4.689713827643102	6.2705765	2.504112
4.7072553176105085	6.0376077	2.4571543
4.724796917945764	5.861435	2.42104
4.742338629062015	5.750218	2.3979611
4.759880451372434	5.771992	2.402497
4.777422385290215	5.7874928	2.405721
4.794964431228581	5.726418	2.3929935
4.812506589600768	5.688595	2.3850775
4.830048860820047	5.641314	2.375145
4.847591245299709	5.5921335	2.3647692
4.8651337434530655	5.621772	2.3710275
4.882676355693457	5.7032585	2.3881495
4.900219082434242	5.7791467	2.4039855
4.917761924088813	5.7715106	2.402397
4.935304881070575	5.740909	2.3960195
4.952847953792969	5.6416693	2.3752198
4.970391142669449	5.5964403	2.3656797
4.9879344481135055	5.556503	2.3572235
5.005477870538642	5.456487	2.3359125
5.023021410358394	5.4449286	2.3334372
5.040565067986324	5.3808618	2.3196685
5.05810884383601	5.4499516	2.3345132
5.075652738321066	5.5221887	2.3499339
5.09319675185512	5.496438	2.3444483
5.110740884851836	5.534853	2.3526268
5.128285137724894	5.4902945	2.3431377
5.145829510888007	5.444911	2.3334334
5.163374004754908	5.3747334	2.3183472
5.1809186197393595	5.2888393	2.2997477
5.198463356255145	5.25725	2.2928693
5.216008214716077	5.314606	2.305343
5.233553195535998	5.3081985	2.3039527
5.251098299128764	5.2438517	2.2899458
5.268643525908272	5.236375	2.2883127
5.286188876288432	5.2101135	2.2825673
5.3037343506831895	5.3092847	2.3041885
5.32127994950651	5.310746	2.3045056
5.3388256731723915	5.314307	2.305278
5.356371522094851	5.2996607	2.3020992
5.373917496687938	5.215696	2.2837899
5.391463597365729	5.1515713	2.2697072
5.40900982454232	5.0719414	2.2520971
5.426556178631843	5.143197	2.2678618
5.444102660048449	5.151645	2.2697237
5.4616492692063225	5.2110724	2.2827773
5.479196006519669	5.2285824	2.2866094
5.496742872402727	5.225832	2.286008
5.514289867269756	5.24088	2.2892969
5.531836991535049	5.223071	2.285404
5.549384245612924	5.2651634	2.2945943
5.566931629917724	5.2491064	2.2910929
5.584479144863822	5.1949058	2.2792337
5.6020267908656205	5.0960226	2.2574372
5.619574568337545	5.074173	2.2525926
5.637122477694054	5.0613875	2.2497528
5.654670519349629	5.096176	2.257471
5.672218693718784	5.064134	2.250363
5.689767001216059	5.042728	2.245602
5.707315442256021	5.0811934	2.2541504
5.724864017253266	5.171376	2.274066
5.7424127266224225	5.2132807	2.283261
5.75996157077814	5.188543	2.2778373
5.777510550135105	5.1863327	2.277352
5.795059665108022	5.2010465	2.2805803
5.812608916111639	5.265816	2.2947366
5.830158303560715	5.3763075	2.3186865
5.847707827870055	5.414659	2.326942
5.86525748945448	5.3931003	2.322305
5.8828072887288485	5.46636	2.3380249
5.900357226108044	5.5380783	2.3533123
5.917907302006979	5.692383	2.3858714
5.9354575168406	6.2745404	2.5049033
5.9530078710238765	6.8898168	2.624846
5.970558364971812	7.4095488	2.7220485
5.988108999099438	7.749832	2.783852
6.005659773821818	8.245715	2.8715353
6.023210689554039	7.9472756	2.8190913
6.040761746711227	8.459477	2.908518
6.058312945708531	7.865488	2.8045478
6.075864286961132	7.403348	2.7209094
6.093415770884244	6.704654	2.5893347
6.1109673978931065	6.110276	2.4718974
6.128519168402993	5.5415826	2.3540566
6.146071082829204	5.3701105	2.31735
6.163623141587075	5.2446275	2.290115
6.181175345091969	5.205401	2.2815347
6.198727693759281	5.14089	2.267353
6.216280188004435	5.1355333	2.2661715
6.233832828242885	5.108273	2.260149
6.251385614890126	5.1083384	2.2601633
6.268938548361669	5.1022444	2.2588148
6.286491629073067	5.0825977	2.2544618
6.304044857439898	5.040641	2.2451372
6.321598233877777	4.984825	2.2326722
6.339151758802344	4.966167	2.2284899
6.356705432629277	4.9548755	2.225955
6.37425925577428	5.0192566	2.2403698
6.391813228653095	4.985927	2.232919
6.409367351681486	5.023204	2.2412505
6.426921625275259	5.0553136	2.2484024
6.44447604985025	5.0272665	2.2421567
6.46203062582232	4.979377	2.2314517
6.47958535360737	4.9238534	2.2189758
6.497140233621328	4.952247	2.2253644
6.514695266280161	4.9821453	2.2320719
6.532250451999859	5.0526586	2.247812
6.549805791196454	5.0306163	2.2429035
6.567361284286002	5.038456	2.2446506
6.584916931684597	4.9572735	2.2264936
6.602472733808367	4.9594164	2.2269747
6.6200286910734665	5.002906	2.2367177
6.637584803896092	5.012181	2.23879
6.655141072692462	5.034054	2.2436697
6.672697497878842	4.983481	2.232371
6.690254079871514	5.0145106	2.2393103
6.707810819086808	5.0322065	2.243258
6.725367715941078	5.066823	2.2509604
6.742924770850719	5.0006466	2.2362125
6.760481984232151	4.959539	2.2270021
6.778039356501836	4.9551635	2.2260196
6.795596888076266	4.9915895	2.2341866
6.813154579371963	5.045141	2.2461393
6.830712430805492	5.088036	2.2556674
6.84827044279344	5.0608573	2.249635
6.865828615752445	4.9759226	2.2306776
6.883386950099159	4.9252505	2.2192905
6.900945446250287	4.951227	2.2251353
6.918504104622553	5.042727	2.2456017
6.936062925632727	5.1091647	2.2603462
6.953621909697607	5.144846	2.2682252
6.971181057234028	5.1816454	2.2763228
6.988740368658859	5.202105	2.2808123
7.006299844389007	5.3066964	2.3036268
7.023859484841407	5.338065	2.3104253
7.041419290433036	5.4061155	2.3251054
7.058979261580902	5.4957533	2.3443024
7.0765393987020495	5.650704	2.377121
7.094099702213559	6.002018	2.4499016
7.111660172532549	6.2878075	2.50755
7.129220810076164	6.7072916	2.589844
7.146781615261595	7.335737	2.7084565
7.16434258850606	7.6256685	2.7614613
7.181903730226821	8.10838	2.8475218
7.1994650408411704	8.136453	2.8524468
7.217026520766437	8.305213	2.8818767
7.234588170419983	8.561996	2.926089
7.252149990219215	8.608275	2.9339862
7.269711980581568	8.457654	2.9082046
7.2872741419245175	8.23598	2.8698397
7.304836474665574	7.894767	2.8097627
7.322398979222286	7.5938954	2.7557023
7.339961656012233	7.2830124	2.6987057
7.357524505453039	6.912094	2.6290863
7.375087527962357	6.554735	2.5602217
7.392650723957886	6.2084703	2.4916801
7.410214093857353	5.891345	2.4272094
7.427777638078528	5.7541237	2.3987753
7.445341357039213	5.6335278	2.3735054
7.4629052511572525	5.499584	2.3451192
7.480469320850524	5.402518	2.3243318
7.498033566536948	5.351818	2.3133998
7.5155979886344735	5.325262	2.307653
7.5331625875610975	5.284761	2.2988608
7.550727363734844	5.2117944	2.2829354
7.568292317573788	5.235318	2.288082
7.585857449496025	5.2188616	2.2844827
7.603422759919705	5.269927	2.2956321
7.620988249263007	5.2584276	2.293126
7.638553917944147	5.2985797	2.3018644
7.656119766381391	5.278397	2.2974763
7.673685794993023	5.300016	2.3021762
7.691252004197388	5.3079243	2.3038933
7.70881839441285	5.2801175	2.2978506
7.726384966057826	5.2612495	2.2937415
7.743951719550762	5.216229	2.2839065
7.761518655310149	5.268224	2.2952611
7.779085773754511	5.316306	2.3057117
7.796653075302419	5.3888807	2.3213964
7.814220560372475	5.412782	2.3265386
7.831788229383323	5.4005833	2.3239155
7.8493560827536495	5.3704515	2.3174233
7.866924120902174	5.3282466	2.3082995
7.884492344247663	5.357734	2.314678
7.9020607532089135	5.3794007	2.3193536
7.919629348204771	5.388626	2.3213415
7.937198129654115	5.3872833	2.3210523
7.954767097975865	5.3674855	2.3167834
7.972336253588986	5.383972	2.3203387
7.989905596912472	5.4208117	2.3282638
8.007475128365371	5.4699187	2.3387856
8.025044848366756	5.5161624	2.3486512
8.042614757335754	5.6060295	2.3677056
8.060184855691523	5.686251	2.384586
8.07775514385327	5.771726	2.4024417
8.095325622240228	5.788776	2.4059875
8.112896291271687	5.849257	2.4185238
8.130467151366968	5.893014	2.4275532
8.148038202945436	5.9265695	2.4344547
8.165609446426497	5.919746	2.4330528
8.183180882229594	5.9921446	2.4478858
8.200752510774217	5.938472	2.436898
8.218324332479893	5.9417567	2.437572
8.235896347766193	5.9020042	2.429404
8.253468557052724	5.9340453	2.4359896
8.27104096075914	5.978566	2.4451106
8.288613559305137	6.073364	2.4644196
8.306186353110448	6.1718645	2.4843237
8.32375934259485	6.188977	2.4877653
8.341332528178162	6.173739	2.484701
8.358905910280246	6.235591	2.4971166
8.376479489321003	6.2522216	2.5004442
8.394053265720377	6.3318253	2.516312
8.411627239898356	6.332464	2.5164387
8.42920141227497	6.316136	2.5131924
8.44677578327029	6.210151	2.4920175
8.464350353304427	6.163056	2.4825504
8.48192512279754	6.166944	2.4833333
8.499500092169827	6.224285	2.4948518
8.51707526184153	6.2018676	2.490355
8.534650632232934	6.218024	2.4935966
8.552226203764365	6.209194	2.4918256
8.569801976856192	6.24512	2.499024
8.587377951928834	6.25586	2.5011716
8.60495412940274	6.2723813	2.5044723
8.622530509698416	6.2374907	2.4974968
8.6401070932364	6.3756304	2.525001
8.657683880437283	6.495456	2.5486186
8.675260871721695	6.6942215	2.5873194
8.692838067510303	6.8630047	2.6197338
8.710415468223834	7.0492377	2.65504
8.727993074283043	7.087042	2.66215
8.745570886108737	7.1045055	2.665428
8.763148904121765	7.0984745	2.6642962
8.78072712874302	7.1977077	2.6828544
8.798305560393441	7.409188	2.7219822
8.815884199494006	7.538884	2.7457027
8.833463046465745	7.655781	2.7669082
8.851042101729728	7.7858233	2.7903087
8.86862136570707	8.145191	2.8539782
8.886200838818924	8.342196	2.888286
8.903780521486505	8.335334	2.8870978
8.921360414131055	8.451363	2.9071229
8.938940517173874	8.633707	2.938317
8.956520831036297	8.914717	2.9857523
8.97410135613971	9.191921	3.0318182
8.99168209290554	9.362205	3.059772
9.009263041755265	9.6057005	3.0993063
9.026844203110405	9.870937	3.1418047
9.044425577392525	10.045612	3.1694815
9.062007165023239	10.162677	3.1878953
9.079588966424197	10.387003	3.2228873
9.097170982017108	10.405561	3.2257652
9.11475321222372	11.383334	3.3739197
9.132335657465825	12.230406	3.4971998
9.149918318165264	12.328021	3.5111282
9.167501194743924	12.914485	3.593673
9.18508428762374	12.603974	3.5502076
9.202667597226693	12.642347	3.5556078
9.220251123974803	12.274396	3.5034833
9.237834868290143	11.989606	3.462601
9.255418830594836	11.714021	3.4225752
9.273003011311046	11.187498	3.3447719
9.290587410860985	10.998407	3.3163848
9.308172029666911	10.326327	3.2134604
9.32575686815113	10.023623	3.1660106
9.343341926735997	8.738825	2.9561503
9.360927205843916	8.564471	2.9265118
9.378512705897327	8.4825325	2.9124787
9.396098427318728	8.273113	2.876302
9.413684370530664	8.174146	2.8590462
9.431270535955722	8.047665	2.8368406
9.448856924016539	7.9841514	2.825624
9.466443535135806	7.846541	2.8011677
9.484030369736251	7.827793	2.7978194
9.501617428240658	7.8291955	2.79807
9.519204711071852	7.824872	2.7972972
9.536792218652714	7.830931	2.7983801
9.55437995140617	7.832137	2.7985957
9.571967909755191	7.8117166	2.7949448
9.589556094122802	7.8075185	2.7941937
9.60714450493207	7.9351897	2.816947
9.624733142606116	7.9815316	2.8251605
9.642322007568108	8.011103	2.830389
9.659911100241267	8.044416	2.836268
9.677500421048851	8.089228	2.8441567
9.695089970414175	8.168237	2.8580127
9.712679748760609	8.178312	2.8597748
9.730269756511557	8.223333	2.8676355
9.747859994090492	8.275085	2.8766448
9.765450461920915	8.282298	2.8778982
9.78304116042639	8.23645	2.8699217
9.800632090030527	8.253395	2.8728724
9.81822325115699	8.3191805	2.884299
9.835814644229481	8.347106	2.8891358
9.853406269671762	8.318685	2.884213
9.870998127907646	8.284503	2.8782814
9.888590219360985	8.23591	2.8698275
9.906182544455698	8.193926	2.8625035
9.923775103615734	8.168689	2.8580918
9.941367897265108	8.20924	2.8651772
9.958960925827878	8.278912	2.8773098
9.97655418972816	8.315373	2.8836389
9.994147689390106	8.384768	2.8956463
10.011741425237934	8.402372	2.8986845
10.029335397695904	8.366716	2.8925276
10.04692960718833	8.243727	2.871189
10.06452405413958	8.170608	2.8584275
10.082118738974064	8.162052	2.8569305
10.099713662116246	8.219746	2.8670099
10.117308823990651	8.257233	2.8735402
10.134904225021844	8.302489	2.8814042
10.152499865634445	8.239644	2.870478
10.170095746253125	8.232043	2.8691537
10.18769186730261	8.154079	2.8555348
10.205288229207675	8.205806	2.8645778
10.222884832393145	8.227444	2.8683522
10.2404816772839	8.2591505	2.8738737
10.258078764304868	8.21387	2.865985
10.275676093881035	8.169235	2.8581874
10.293273666437438	8.132795	2.8518057
10.310871482399158	8.223006	2.8675785
10.32846954219134	8.200426	2.8636386
10.346067846239173	8.173228	2.8588858
10.363666394967908	8.173901	2.8590035
10.38126518880283	8.176095	2.8593872
10.398864228169298	8.267836	2.8753843
10.416463513492713	8.2821865	2.877879
10.434063045198531	8.32256	2.8848848
10.451662823712262	8.3189535	2.8842597
10.469262849459467	8.300769	2.8811054
10.486863122865758	8.235365	2.8697326
10.504463644356806	8.126972	2.8507845
10.522064414358338	8.044297	2.836247
10.539665433296118	8.0040865	2.8291495
10.557266701595987	7.9356723	2.8170326
10.574868219683818	7.832903	2.7987323
10.592469987985552	7.728582	2.7800326
10.610072006927185	7.6352262	2.7631912
10.627674276934751	7.5859838	2.7542665
10.64527679843435	7.4485025	2.7291944
10.662879571852143	7.299113	2.701687
10.680482597614331	7.217567	2.686553
10.698085876147173	7.1565657	2.675176
10.715689407876988	7.084362	2.6616466
10.733293193230146	6.9317436	2.6328204
10.750897232633072	6.832216	2.6138508
10.76850152651225	6.7588234	2.5997736
10.786106075294207	6.6733932	2.583291
10.803710879405534	6.6119146	2.5713644
10.821315939272877	6.5743713	2.5640538
10.83892125532294	6.499494	2.5494106
10.856526827982472	6.3475986	2.519444
10.874132657678285	6.2688084	2.503759
10.891738744837243	6.164689	2.4828792
10.909345089886271	6.0699635	2.4637296
10.926951693252343	6.0049405	2.450498
10.944558555362494	5.978383	2.4450731
10.96216567664381	5.9340796	2.4359965
10.979773057523436	5.8799806	2.4248672
10.997380698428573	5.8828225	2.425453
11.014988599786477	5.881531	2.4251866
11.032596762024461	5.8165607	2.4117546
11.050205185569892	5.6900034	2.3853729
11.067813870850198	5.639373	2.3747363
11.085422818292859	5.580411	2.3622894
11.10303202832541	5.51782	2.349004
11.120641501375454	5.3547306	2.314029
11.138251237870636	5.3373756	2.310276
11.155861238238671	5.287922	2.2995481
11.173471502907317	5.278685	2.297539
11.191082032304402	5.227449	2.2863615
11.208692826857805	5.1372075	2.2665408
11.226303886995465	5.0718374	2.252074
11.243915213145371	5.014381	2.2392814
11.261526805735578	4.96178	2.2275054
11.279138665194196	4.9263105	2.2195294
11.296750791949393	4.8510046	2.2024996
11.314363186429393	4.7856426	2.187611
11.331975849062479	4.7410603	2.1773975
11.34958878027699	4.714423	2.1712723
11.36720198050133	4.678202	2.1629152
11.384815450163948	4.6124997	2.1476731
11.402429189693366	4.551632	2.1334555
11.420043199518153	4.456269	2.1109877
11.437657480066942	63.384907	7.961464
11.455272031768422	85.12783	9.226475
11.472886855051353	107.55794	10.371015
11.490501950344528	99.144485	9.957132
11.508117318076819	84.4543	9.189902
11.52573295867715	45.835293	6.770177
11.543348872574514	4.156953	2.0388606
11.560965060197946	4.132789	2.0329263
11.57858152197655	4.0829954	2.0206423
11.59619825833949	4.021997	2.0054917
11.613815269715985	3.9859023	1.9964725
11.631432556535323	38.551865	6.209015
11.649050119226837	83.08378	9.11503
11.666667958219929	93.51874	9.670508
11.68428607394406	107.79614	10.382492
11.701904466828756	82.62527	9.089844
11.719523137303586	65.40901	8.087584
11.737142085798196	4.6006565	2.1449142
11.754761312742286	3.6685812	1.9153541
11.772380818565619	3.6577883	1.9125345
11.790000603698015	3.6587656	1.91279
11.80762066856935	3.613001	1.9007896
11.825241013609572	3.5579784	1.8862604
11.842861639248683	3.4947646	1.869429
11.860482545916748	3.5045683	1.8720492
11.878103734043883	3.4855492	1.8669626
11.895725204060282	3.4634237	1.8610276
11.91334695639619	3.501614	1.87126
11.930968991481919	3.4503107	1.8575011
11.948591309747824	3.4075267	1.8459487
11.966213911624347	3.3341026	1.8259525
11.98383679754198	3.3002837	1.8166683
12.001459967931268	3.2754629	1.809824
12.019083423222835	3.2795334	1.8109483
12.036707163847352	3.2755444	1.8098465
12.05433119023556	3.2394018	1.7998338
12.071955502818259	3.2136915	1.7926772
12.089580102026313	3.2067056	1.7907276
12.107204988290643	3.1990376	1.7885853
12.12483016204224	3.1688967	1.7801396
12.142455623712152	3.140686	1.7721981
12.16008137373149	3.135451	1.7707205
12.177707412531431	3.1353512	1.7706922
12.19533374054321	3.1253371	1.7678623
12.212960358198126	3.097778	1.7600505
12.230587265927545	3.0388336	1.7432251
12.248214464162889	3.0268908	1.7397962
12.265841953335649	3.0272176	1.7398901
12.283469733877375	3.0134227	1.7359213
12.301097806219685	2.9913375	1.7295483
12.31872617079425	2.9399145	1.7146178
12.336354828032825	2.9199898	1.7087978
12.353983778367205	2.8969717	1.7020493
12.371613022229262	2.8941066	1.7012074
12.389242560050928	2.8551397	1.6897159
12.406872392264201	2.8778865	1.6964334
12.424502519301143	2.8936214	1.7010648
12.442132941593874	2.8931966	1.7009399
12.459763659574586	2.8538113	1.6893227
12.477394673675532	2.8440447	1.6864296
12.49502598432903	2.857767	1.6904931
12.51265759196746	2.8731425	1.6950346
12.530289497023267	2.8184876	1.6788352
12.547921699928967	2.806407	1.6752334
12.565554201117134	2.8092463	1.6760806
12.583187001020404	2.8477526	1.6875285
12.600820100071486	2.883782	1.6981702
12.618453498703152	2.8752134	1.6956455
12.636087197348235	2.851707	1.6886998
12.65372119643964	2.8150773	1.6778193
12.671355496410326	2.8265862	1.6812454
12.68899009769333	2.8448124	1.6866572
12.706625000721749	2.9214127	1.7092141
12.724260205928752	2.9758997	1.7250797
12.741895713747551	3.0035207	1.7330668
12.759531524611454	3.0076	1.7342434
12.777167638953818	2.9647825	1.7218543
12.794804057208072	2.952403	1.7182559
12.812440779807702	2.9944677	1.730453
12.830077807186271	3.1900687	1.7860763
12.847715139777405	3.275334	1.8097883
12.865352778014795	3.47608	1.8644248
12.882990722332197	3.5771332	1.8913311
12.90062897316344	3.6698828	1.9156938
12.918267530942412	3.7575088	1.9384295
12.935906396103071	3.660891	1.9133455
12.953545569079449	3.8094718	1.9517869
12.971185050305628	3.628299	1.9048095
12.988824840215775	3.6313205	1.9056023
13.006464939244115	3.607198	1.8992625
13.024105347824943	3.481064	1.865761
13.041746066392617	3.5789838	1.8918202
13.05938709538157	3.4170017	1.8485134
13.077028435226296	3.408657	1.8462548
13.094670086361363	3.3269503	1.823993
13.112312049221401	3.2140753	1.7927842
13.129954324241112	3.1466713	1.773886
13.147596911855258	2.9621823	1.7210991
13.165239812498685	2.9325922	1.7124813
13.182883026606293	2.8241732	1.6805277
13.200526554613058	2.755223	1.6598865
13.218170396954017	2.7141125	1.6474564
13.235814554064284	2.709367	1.6460155
13.253459026379034	2.738026	1.6546981
13.271103814333523	2.7152917	1.6478143
13.288748918363058	2.711147	1.6465561
13.306394338903031	2.7186775	1.6488413
13.32404007638889	2.7108536	1.646467
13.341686131256164	2.720189	1.6492996
13.359332503940449	2.67768	1.6363618
13.376979194877402	2.6553087	1.6295118
13.394626204502751	2.6946359	1.6415346
13.412273533252307	2.7199998	1.6492422
13.429921181561937	2.7304971	1.6524216
13.447569149867581	2.7108443	1.6464642
13.465217438605247	2.6943946	1.6414611
13.482866048211022	2.682132	1.6377215
13.500514979121052	2.7166486	1.6482259
13.518164231771568	2.7230031	1.6501524
13.535813806598844	2.6768148	1.6360974
13.553463704039254	2.6607144	1.6311697
13.571113924529229	2.6625443	1.6317304
13.588764468505275	2.723198	1.6502115
13.606415336403956	2.7640908	1.6625555
13.624066528661917	2.7779868	1.6667293
13.641718045715882	2.8470702	1.6873263
13.659369888002635	2.888707	1.6996197
13.67702205595903	2.9685092	1.7229363
13.694674550021993	3.0323036	1.7413511
13.712327370628532	3.128778	1.7688352
13.729980518215713	3.2048032	1.7901964
13.747633993220681	3.245796	1.8016093
13.765287796080647	3.2570546	1.8047311
13.7829419272329	3.3130794	1.8201866
13.800596387114801	3.3498259	1.830253
13.818251176163775	3.3882728	1.8407261
13.835906294817324	3.4223158	1.8499502
13.853561743513023	3.4348433	1.853333
13.871217522688525	3.500117	1.87086
13.888873632781538	3.4817374	1.8659414
13.906530074229858	3.5246973	1.8774177
13.92418684747135	3.5068939	1.8726703
13.941843952943948	3.5314317	1.8792104
13.959501391085665	3.4776301	1.8648405
13.977159162334578	3.3976812	1.8432801
13.994817267128846	3.314403	1.8205502
14.012475705906693	3.250326	1.802866
14.030134479106424	3.1863594	1.7850376
14.047793587166414	3.109457	1.7633653
14.065453030525108	3.0517492	1.7469256
14.083112809621026	3.008845	1.7346023
14.100772924892766	2.9550595	1.7190287
14.118433376778997	2.8979774	1.7023447
14.136094165718458	2.8322983	1.6829433
14.153755292149969	2.7975304	1.6725819
14.171416756512416	2.7550826	1.6598442
14.189078559244768	2.6676164	1.633284
14.20674070078606	2.5939453	1.6105729
14.224403181575408	2.5471778	1.595988
14.242066002051999	2.5093248	1.5840849
14.259729162655093	2.496631	1.5800731
14.277392663824022	2.4598753	1.568399
14.295056505998208	2.4084237	1.5519097
14.312720689617128	2.3882961	1.5454113
14.330385215120348	2.3795733	1.5425866
14.348050082947497	2.4133809	1.553506
14.3657152935383	2.419783	1.5555652
14.383380847332528	2.4322271	1.55956
14.401046744770051	2.4225862	1.556466
14.418712986290798	2.403758	1.5504057
14.436379572334793	2.4262002	1.5576265
14.454046503342123	2.429234	1.5586001
14.471713779752946	2.4242375	1.5569963
14.489381402007504	2.416668	1.5545636
14.507049370546113	2.4015932	1.5497074
14.524717685809168	2.3772767	1.541842
14.542386348237134	2.3761172	1.5414659
14.560055358270553	2.386078	1.5446935
14.577724716350051	2.4367912	1.5610225
14.595394422916325	2.4467525	1.5642099
14.61306447841015	2.4683137	1.5710868
14.63073488327237	2.492336	1.5787134
14.648405637943917	2.541767	1.5942919
14.6660767428658	2.5373368	1.5929021
14.683748198479094	2.524702	1.5889311
14.701420005224954	2.5651107	1.6015962
14.719092163544628	2.6849406	1.6385788
14.73676467387942	2.7626612	1.6621255
14.754437536670727	2.7547133	1.6597329
14.772110752360014	2.731795	1.6528143
14.78978432138882	2.6923282	1.6408316
14.807458244198777	2.7255394	1.6509207
14.82513252123159	2.686596	1.6390839
14.842807152929028	2.7005625	1.6433388
14.860482139732962	2.6737342	1.6351557
14.87815748208531	2.657652	1.6302307
14.8958331804281	2.6548817	1.6293808
14.91350923520342	2.6614165	1.6313848
14.931185646853438	2.7163866	1.6481464
14.948862415820408	2.7021348	1.6438172
14.966539542546656	2.7391212	1.655029
14.98421702747459	2.696825	1.6422013
15.001894871046696	2.6626003	1.6317476
15.019573073705542	2.6569355	1.6300108
15.037251635893766	2.663922	1.6321526
15.054930558054092	2.7121918	1.6468734
15.072609840629323	2.7535954	1.659396
15.090289484062351	2.8818808	1.6976103
15.107969488796124	3.1180224	1.7657923
15.125649855273691	3.5249193	1.8774768
15.14333058393817	4.003519	2.0008795
15.161011675232768	4.9977155	2.235557
15.17869312960076	6.413349	2.532459
15.196374947485506	8.335002	2.8870404
15.214057129330447	11.54063	3.3971503
15.231739675579114	16.290855	4.0361934
15.249422586675102	21.36096	4.621792
15.267105863062092	24.392523	4.9388785
15.284789505183847	24.544825	4.954273
15.302473513484218	22.466335	4.7398667
15.320157888407127	18.924118	4.350186
15.337842630396578	14.784466	3.8450572
15.355527739896656	11.504236	3.3917894
15.37321321735153	8.942892	2.9904668
15.39089906320545	6.4956155	2.5486498
15.408585277902748	4.889579	2.211239
15.42627186188783	3.7659693	1.9406105
15.443958815605198	3.257299	1.8047988
15.461646139499424	2.9849665	1.7277056
15.479333834015168	2.8788583	1.6967199
15.497021899597165	2.761077	1.6616489
15.514710336690234	2.7278595	1.6516232
15.53239914573928	2.6942506	1.6414173
15.550088327189297	2.6405926	1.62499
15.567777881485336	2.5414395	1.5941893
15.58546780907256	2.5007672	1.5813814
15.6031581103962	2.4853103	1.5764867
15.620848785901568	2.5256128	1.5892177
15.638539836034063	2.5093246	1.5840847
15.656231261239173	2.499654	1.5810294
15.673923061962451	2.4502304	1.5653212
15.691615238649552	2.440099	1.5620816
15.709307791746202	2.4328585	1.5597624
15.727000721698221	2.4305232	1.5590135
15.744694028951498	2.42193	1.5562551
15.76238771395202	2.4004436	1.5493364
15.780081777145844	2.3875995	1.5451859
15.797776218979125	2.3751235	1.5411435
15.815471039898094	2.3811784	1.5431067
15.833166240349064	2.3870919	1.5450217
15.850861820778437	2.4270544	1.5579007
15.868557781632699	2.4281778	1.5582612
15.886254123358412	2.4178205	1.5549343
15.903950846402232	2.4072492	1.5515312
15.921647951210897	2.413389	1.5535086
15.939345438231225	2.4135363	1.553556
15.957043307910133	2.4069917	1.5514482
15.974741560694602	2.4262183	1.5576322
15.992440197031714	2.467751	1.5709077
16.01013921736862	2.4577098	1.5677085
16.02783862215259	2.376012	1.5414318
16.045538411830933	2.323514	1.5243077
16.06323858685107	2.3253732	1.5249175
16.080939147660512	2.3385596	1.529235
16.09864009470684	2.3637269	1.5374416
16.11634142843774	2.383514	1.5438633
16.134043149300954	2.3962798	1.5479922
16.15174525774433	2.4319246	1.5594629
16.169447754215817	2.4391904	1.5617907
16.18715063916342	2.3966522	1.5481125
16.204853913035244	2.3783457	1.5421886
16.222557576279478	2.378966	1.5423898
16.240261629344403	22.42563	4.735571
16.257966072678386	42.98167	6.556041
16.275670906729868	38.10545	6.172961
16.293376131947387	2.5175097	1.5866662
16.31108174877957	2.5045755	1.5825851
16.328787757675133	2.5420613	1.5943843
16.34649415908287	2.578523	1.605778
16.364200953451657	2.657421	1.6301599
16.38190814123048	2.6581323	1.630378
16.39961572286839	2.674586	1.6354162
16.41732369881455	2.695038	1.6416571
16.43503206951817	2.7072701	1.6453785
16.45274083542859	2.7222967	1.6499383
16.47044999699522	2.7241874	1.6505113
16.488159554667558	2.8013456	1.673722
16.505869508895184	2.8752842	1.6956663
16.523579860127786	2.9332643	1.7126775
16.541290608815117	2.965224	1.7219826
16.559001755407035	3.011369	1.7353296
16.57671330035348	3.0360885	1.7424375
16.59442524410448	3.0800352	1.7550029
16.61213758711015	3.1284752	1.7687496
16.629850329820705	3.2503326	1.8028679
16.647563472686436	3.3380897	1.827044
16.665277016157724	3.4104397	1.8467376
16.682990960685053	3.413997	1.8477005
16.70070530671898	3.4266758	1.8511282
16.718420054710155	3.4924612	1.8688128
16.736135205109335	3.5446334	1.8827196
16.753850758367335	3.6067796	1.8991523
16.771566714935087	3.6179142	1.9020815
16.789283075263597	3.7033777	1.9244162
16.80699983980398	3.7760055	1.9431946
16.82471700900741	3.8471131	1.9614059
16.84243458332518	3.898984	1.9745845
16.860152563208665	3.9597454	1.989911
16.87787094910932	4.059017	2.0147002
16.89558974147871	4.1239395	2.0307486
16.913308940768466	4.216126	2.0533206
16.931028547430333	4.3164177	2.077599
16.94874856191613	4.4099536	2.099989
16.966468984677785	4.4419303	2.1075888
16.98418981616729	4.434124	2.105736
17.00191105683676	4.484056	2.117559
17.019632707138374	4.483103	2.117334
17.03735476752442	4.521016	2.1262681
17.05507723844728	4.5897574	2.142372
17.072800120359403	4.6187196	2.1491206
17.090523413713353	4.6789093	2.1630785
17.108247118961785	4.687068	2.1649637
17.125971236557437	4.698309	2.1675582
17.143695766953133	4.7015905	2.1683152
17.161420710601806	4.711107	2.1705084
17.179146067956477	4.711059	2.1704974
17.19687183947025	4.6679544	2.1605449
17.21459802559634	4.692435	2.1662028
17.232324626788028	4.702136	2.1684408
17.25005164349871	4.720443	2.172658
17.267779076181863	4.678949	2.1630878
17.285506925291074	4.626597	2.1509526
17.30323519127999	4.596035	2.1438365
17.320963874602384	4.5918217	2.1428537
17.33869297571211	4.5770044	2.1393936
17.356422495063114	4.572873	2.1384277
17.37415243310944	4.5845513	2.1411564
17.391882790305218	4.5799513	2.1400821
17.40961356710468	4.5194607	2.1259024
17.42734476396215	4.4776053	2.1160352
17.445076381332044	4.4881887	2.1185346
17.462808419668868	4.6194944	2.1493008
17.48054087942723	4.745481	2.1784124
17.498273761061835	5.0087237	2.2380178
17.51600706502747	5.466379	2.338029
17.533740791779024	6.2146673	2.4929235
17.551474941771485	7.7028713	2.7754047
17.56920951545993	8.813857	2.9688141
17.586944513299528	11.040298	3.3226945
17.60467993574556	12.772336	3.5738406
17.622415783253373	14.422716	3.7977252
17.64015205627843	15.769519	3.9710853
17.657888755276293	16.872776	4.1076484
17.675625880702604	17.35667	4.166134
17.69336343301311	17.333124	4.1633067
17.71110141266366	16.671587	4.0830855
17.728839820110178	15.819975	3.9774332
17.746578655808705	14.744612	3.8398714
17.764317920215372	13.14373	3.6254282
17.7820576137864	11.459788	3.385231
17.79979773697811	9.325831	3.0538225
17.81753829024692	7.412725	2.722632
17.835279274049356	5.7998896	2.4082959
17.85302068884201	4.7968197	2.1901643
17.870762535081607	4.134928	2.0334523
17.888504813224934	3.851073	1.9624151
17.90624752372891	3.7132998	1.9269924
17.923990667050536	3.6986992	1.9232002
17.941734243646895	3.627353	1.904561
17.959478253975185	3.5544236	1.8853179
17.9772226984927	3.4462795	1.8564157
17.994967577656833	3.3763149	1.8374752
18.01271289192506	3.371344	1.836122
18.030458641754965	3.3653977	1.834502
18.04820482760425	3.3605332	1.8331758
18.06595144993067	3.3464887	1.829341
18.083698509192125	3.3019369	1.8171233
18.101446005846576	3.2813947	1.811462
18.119193940352105	3.283497	1.8120422
18.136942313166887	3.2743413	1.8095142
18.1546911247492	3.2390568	1.7997379
18.1724403755574	3.1920922	1.7866427
18.19019006604997	3.1466022	1.7738664
18.207940196685467	3.0878088	1.7572162
18.225690767922575	3.0659103	1.750974
18.243441780220046	3.0824645	1.7556949
18.261193234036764	3.0916414	1.7583064
18.278945129831676	3.1358786	1.7708412
18.29669746806386	3.1223261	1.7670105
18.314450249192483	3.1009378	1.760948
18.3322034736768	3.0594022	1.7491148
18.349957141976184	3.0393388	1.7433699
18.3677112545501	3.0360584	1.7424289
18.385465811858108	3.060057	1.7493018
18.403220814359884	3.061302	1.7496576
18.420976262515172	3.100152	1.7607249
18.43873215678387	3.108095	1.762979
18.456488497625923	3.0944657	1.7591094
18.474245285501407	3.1913228	1.7864274
18.492002520870486	3.2989867	1.8163112
18.50976020419343	3.4359384	1.8536284
18.527518335930615	3.746591	1.9356112
18.545276916542516	4.3640566	2.0890324
18.563035946489688	4.546946	2.132357
18.580795426232832	4.938579	2.2222915
18.598555356232698	4.806638	2.1924045
18.616315736950185	5.0864177	2.2553089
18.63407656884626	4.705112	2.169127
18.65183785238201	4.894825	2.2124252
18.669599588018617	4.644465	2.155102
18.68736177621737	4.6496024	2.1562936
18.705124417439652	4.6655893	2.1599975
18.72288751214696	4.5245953	2.1271095
18.740651060800886	4.629474	2.1516213
18.758415063863115	4.3255553	2.079797
18.77617952179546	4.538444	2.1303625
18.793944435059814	4.3009663	2.073877
18.811709804118184	4.285853	2.0702302
18.829475629432675	4.192188	2.0474832
18.8472419114655	3.9746447	1.993651
18.86500865067897	4.125361	2.0310984
18.88277584753551	3.7871728	1.946066
18.90054350249763	3.8322303	1.9576083
18.918311616027957	3.50687	1.8726639
18.936080188589226	3.4364264	1.8537601
18.953849220644265	3.1082833	1.7630324
18.971618712656007	2.9135556	1.7069141
18.9893886650875	2.8570518	1.6902816
19.007159078401887	8.060418	2.8390875
19.024929953062408	32.922264	5.7377925
19.042701289532435	32.803593	5.7274423
19.060473088275405	25.346401	5.034521
19.07824534975489	2.593599	1.6104655
19.096018074434568	2.5928097	1.6102204
19.113791262778197	2.5863667	1.6082184
19.13156491524966	2.5995858	1.612323
19.149339032312945	2.5959249	1.6111875
19.167113614432136	2.5393162	1.5935231
19.184888662071433	2.547321	1.596033
19.202664175695123	2.5839999	1.6074824
19.220440155767623	2.610305	1.6156439
19.238216602753447	2.593732	1.6105068
19.2559935171172	2.5567524	1.5989848
19.27377089932361	2.5255115	1.5891858
19.291548749837514	2.5441163	1.5950286
19.309327069123835	2.5399776	1.5937307
19.32710585764763	2.513885	1.5855236
19.344885115874032	2.4708064	1.5718799
19.362664844268313	2.4925752	1.5787891
19.380445043295822	2.5016353	1.5816559
19.39822571342203	2.5139263	1.5855366
19.41600685511252	2.5115473	1.5847862
19.43378846883297	2.5354779	1.5923184
19.451570555049173	2.5338967	1.5918218
19.469353114227037	2.5089717	1.5839734
19.48713614683254	2.4775538	1.5740247
19.50491965333182	2.4849226	1.5763637
19.52270363419109	2.5057175	1.5829458
19.540488089876686	2.5200412	1.5874637
19.55827302085503	2.4847095	1.5762961
19.576058427592674	2.442263	1.5627741
19.593844310556282	2.4169602	1.5546576
19.611630670212598	2.4424257	1.5628262
19.629417507028506	2.4793048	1.5745808
19.64720482147098	2.5246024	1.5888997
19.6649926140071	2.5642016	1.6013125
19.682780885104084	2.5574875	1.5992147
19.70056963522921	2.547933	1.5962247
19.718358864849908	2.5529594	1.5977983
19.7361485744337	2.549275	1.5966449
19.753938764448215	2.5305173	1.59076
19.771729435361202	2.5041175	1.5824404
19.789520587640506	2.5502284	1.5969435
19.807312221754092	2.5561337	1.5987914
19.825104338170043	2.5929735	1.6102712
19.842896937356517	2.577777	1.6055456
19.860690019781824	2.5841634	1.6075333
19.87848358591436	2.564215	1.6013166
19.896277636222635	2.5288954	1.5902501
19.914072171175278	2.530659	1.5908045
19.931867191241015	2.5143945	1.5856843
19.94966269688869	2.5092435	1.5840592
19.967458688587264	2.4918878	1.5785714
19.985255166805807	2.4624853	1.5692308
20.00305213201348	2.4558868	1.567127
20.020849584679578	2.4364903	1.5609261
20.038647525273507	2.4681826	1.571045
20.05644595426477	2.4761024	1.5735636
20.07424487212299	2.5056329	1.5829191
20.092044279317903	2.5071266	1.5833908
20.109844176319353	2.463983	1.569708
20.127644563597304	2.4267898	1.5578157
20.145445441621817	2.4175782	1.5548563
20.16324681086307	2.3996735	1.549088
20.181048671791373	2.382229	1.5434471
20.198851024877122	2.3767407	1.5416682
20.216653870590836	2.3997512	1.549113
20.234457209403146	2.3805132	1.5428911
20.252261041784802	2.381007	1.5430512
20.270065368206662	2.3837855	1.5439513
20.287870189139685	2.3596022	1.5360997
20.305675505054968	2.3494766	1.5328002
20.323481316423702	2.3653367	1.537965
20.341287623717207	2.3512335	1.5333732
20.359094427406884	2.3401022	1.5297393
20.376901727964288	2.3457468	1.5315831
20.39470952586107	2.39648	1.5480568
20.41251782156899	2.4110475	1.5527548
20.430326615559935	2.3864782	1.544823
20.448135908305886	2.3829632	1.543685
20.465945700278965	2.3617496	1.5367985
20.483755991951384	2.3514678	1.5334496
20.50156678379548	2.3566093	1.5351251
20.519378076283708	2.345862	1.5316207
20.537189869888635	2.3157597	1.521762
20.55500216508294	2.3176205	1.5223733
20.572814962339415	2.343551	1.530866
20.59062826213098	2.3610911	1.5365843
20.60844206493066	2.3465235	1.5318366
20.626256371211593	2.3177743	1.5224239
20.644071181447032	2.3116024	1.5203955
20.66188649611036	2.3349605	1.5280577
20.67970231567506	2.3344352	1.5278859
20.697518640614742	2.333931	1.5277208
20.715335471403122	2.2950053	1.5149275
20.73315280851404	2.2914338	1.5137483
20.750970652421447	2.2965338	1.5154319
20.768789003599412	2.3400605	1.5297257
20.786607862522136	2.3473685	1.5321125
20.8044272296639	2.3177154	1.5224044
20.82224710549913	2.2762313	1.5087184
20.84006749050237	2.254465	1.5014876
20.857888385148268	3.825187	1.9558085
20.8757097899116	45.935726	6.77759
20.893531705267254	64.79802	8.049722
20.911354131690224	83.81888	9.155265
20.92917706965566	69.06882	8.310765
20.94700051963877	50.10917	7.078783
20.96482448211493	29.387506	5.4210243
20.982648957559622	4.164016	2.040592
21.00047394644843	2.291175	1.5136627
21.01829944925707	2.2949457	1.5149078
21.036125466461375	2.2884881	1.512775
21.053951998537297	2.3006582	1.516792
21.071779045960906	2.2868495	1.5122333
21.089606609208378	2.25859	1.5028605
21.10743468875603	2.2127514	1.487532
21.12526328508028	2.186195	1.4785787
21.143092398657675	2.1788592	1.4760959
21.16092202996488	2.1859784	1.4785055
21.17875217947867	2.2163103	1.4887277
21.19658284767596	2.1862946	1.4786124
21.21441403503377	2.1728096	1.4740453
21.232245742029225	2.1439884	1.4642365
21.2500779691396	2.185433	1.478321
21.26791071684227	2.1699066	1.4730603
21.28574398561475	2.1518455	1.466917
21.30357777593465	2.1711454	1.4734807
21.321412088279704	2.1996796	1.4831316
21.339246923127792	2.1944883	1.4813806
21.357082280956888	2.1764004	1.4752629
21.3749181622451	2.162261	1.4704628
21.392754567470647	2.1645613	1.4712448
21.41059149711187	2.1779246	1.4757793
21.42842895164726	2.1839538	1.4778206
21.446266931555378	2.1712983	1.4735326
21.464105437314945	2.127836	1.4587104
21.481944469404798	2.09879	1.4487201
21.49978402830388	2.0971324	1.4481479
21.51762411449127	2.1335244	1.4606589
21.53546472844617	2.1246145	1.4576057
21.553305870647876	2.1377945	1.4621198
21.571147541575865	2.1207967	1.4562955
21.58898974170967	2.093691	1.4469593
21.60683247152899	2.058457	1.4347323
21.62467573151363	2.0524015	1.4326205
21.642519522143523	2.0868268	1.4445853
21.660363843898722	2.0862377	1.4443814
21.6782086972594	2.0981114	1.4484859
21.696054082705864	2.09183	1.446316
21.713900000718535	2.0803602	1.4423454
21.73174645177795	2.056143	1.4339257
21.749593436364794	2.0406723	1.428521
21.767440954959845	2.0464609	1.4305457
21.785289008044032	2.0708466	1.4390436
21.803137596098388	2.070782	1.4390212
21.820986719604086	2.0691347	1.4384487
21.838836379042412	2.0381556	1.4276398
21.85668657489478	2.0215223	1.4218025
21.87453730764273	2.0044274	1.415778
21.892388577767914	1.9997306	1.4141183
21.91024038575213	1.9868028	1.4095399
21.928092732077285	2.0199351	1.4212443
21.945945617225426	2.0523	1.4325851
21.963799041678694	2.0649703	1.4370004
21.981653005919398	31.392694	5.6029186
21.999507510429943	78.167114	8.841217
22.01736255569286	73.10901	8.550381
22.035218142190818	4.2164226	2.053393
22.05307427040661	2.0010667	1.4145906
22.07093094082315	1.9929606	1.4117225
22.088788153923474	1.9750333	1.4053588
22.106645910190746	1.981381	1.4076154
22.12450421010827	1.9868511	1.4095571
22.142363054159464	2.0094585	1.4175537
22.16022244282787	2.00323	1.4153551
22.178082376597164	1.9974391	1.4133079
22.195942855951145	1.9698706	1.4035208
22.213803881373742	1.9747101	1.4052438
22.231665453349002	1.9589003	1.3996072
22.24952757236111	1.9813149	1.4075918
22.26739023889438	1.962603	1.4009293
22.28525345343323	1.9329243	1.3902965
22.30311721646225	1.9418918	1.3935177
22.320981528466113	1.9405706	1.3930436
22.33884638992964	1.9624387	1.4008707
22.356711801337788	1.9561026	1.3986074
22.37457776317561	2.0037925	1.4155538
22.392444275928337	1.9911757	1.4110903
22.410311340081282	1.9751108	1.4053863
22.428178956119904	1.9843589	1.4086727
22.446047124529805	1.9865531	1.4094514
22.46391584579669	1.9829195	1.4081618
22.481785120406414	1.9565296	1.3987601
22.49965494884496	1.9410294	1.3932083
22.51752533159841	1.9288565	1.3888328
22.53539626915302	1.9402517	1.3929292
22.553267761995137	1.9384153	1.3922698
22.571139810611264	1.9354479	1.3912038
22.589012415488025	1.9112577	1.3824824
22.60688557711216	1.9426286	1.3937821
22.624759295970566	1.9806124	1.4073423
22.642633572550263	1.9754292	1.4054996
22.660508407338362	1.989457	1.4104811
22.67838380082217	1.9837362	1.4084517
22.696259753489077	1.9753431	1.405469
22.714136265826614	1.9397401	1.3927455
22.73201333832246	1.9092618	1.3817604
22.74989097146439	1.8731878	1.3686445
22.76776916574035	1.8628644	1.3648679
22.785647921638393	1.8927023	1.3757552
22.803527239646712	1.9340163	1.3906891
22.82140712025363	1.9847645	1.4088167
22.839287563947593	1.9737762	1.4049115
22.85716857121719	1.956111	1.3986104
22.875050142551135	1.9292744	1.3889832
22.892932278438277	1.8749739	1.3692969
22.910814979367604	1.8533111	1.3613636
22.928698245828222	1.8617132	1.3644462
22.946582078309387	1.8781823	1.3704679
22.96446647730047	1.8765836	1.3698845
22.98235144329098	1.8630381	1.3649315
23.000236976770562	1.8328675	1.3538344
23.018123078229	1.856798	1.3626437
23.03600974815619	1.8903311	1.3748932
23.053896987042194	1.939575	1.3926862
23.071784795377173	1.9571667	1.3989878
23.08967317365145	1.9690524	1.4032292
23.10756212235546	1.9416772	1.3934407
23.125451641979787	1.9432621	1.3940094
23.143341733015134	1.9500324	1.3964356
23.161232395952357	1.9549322	1.398189
23.179123631282426	1.9748478	1.4052927
23.197015439496468	1.9742458	1.4050785
23.214907821085717	1.9639378	1.4014057
23.23280077654157	1.9417242	1.3934577
23.250694306355538	1.9302955	1.3893508
23.268588411019277	1.9462692	1.3950875
23.28648309102458	1.9506942	1.3966726
23.304378346863356	1.986828	1.4095489
23.322274179027676	2.022664	1.4222039
23.340170588009723	1.991357	1.4111545
23.358067574301852	1.947616	1.3955702
23.37596513839651	1.9398068	1.3927695
23.39386328078629	1.9573728	1.3990614
23.411762001963947	1.9704479	1.4037265
23.429661302422353	1.9505615	1.396625
23.4475611826545	1.9204162	1.3857908
23.46546164315356	1.9009963	1.3787662
23.48336268441279	1.8840153	1.3725944
23.501264306925638	1.8866568	1.3735563
23.51916651118564	1.9302733	1.3893428
23.537069297686497	1.9722286	1.4043605
23.554972666922037	2.013073	1.418828
23.57287661938623	1.9921281	1.4114277
23.59078115557318	1.9340781	1.3907113
23.608686275977128	1.91805	1.3849368
23.62659198109246	1.8990971	1.3780773
23.6444982714137	1.9448881	1.3945924
23.66240514743549	1.9203979	1.3857843
23.68031260965263	1.8959168	1.376923
23.698220658560068	1.8512316	1.3605998
23.716129294652845	1.8646744	1.3655308
23.7340385184262	1.8982629	1.3777746
23.75194833037546	1.929406	1.3890306
23.769858730996123	1.903874	1.3798094
23.78776972078382	1.8581772	1.3631498
23.80568130023431	1.866469	1.3661878
23.823593469843495	1.9148312	1.3837743
23.841506230107424	1.9216032	1.386219
23.859419581522275	1.9140929	1.3835075
23.87733352458438	1.8940855	1.3762578
23.89524805979019	1.8859304	1.3732919
23.913163187636318	1.8912144	1.3752143
23.931078908619508	1.9085381	1.3814985
23.948995223236633	1.9546815	1.3980993
23.966912131984735	2.002792	1.4152004
23.98482963536096	2.034455	1.4263432
24.002747733862616	2.0336773	1.4260706
24.020666427987155	2.068095	1.4380872
24.038585718232156	2.0518591	1.4324312
24.056505605095353	2.05112	1.4321731
24.074426089074617	2.0490272	1.4314424
24.092347170667946	2.0432959	1.429439
24.110268850373515	2.040131	1.4283316
24.128191128689586	2.046436	1.430537
24.146114006114626	2.0466762	1.4306209
24.164037483147187	2.0480716	1.4311085
24.181961560286005	2.0541823	1.4332418
24.199886238029926	2.0611918	1.4356852
24.21781151687797	2.067175	1.4377674
24.235737397329274	2.042503	1.4291617
24.253663879883135	2.0209644	1.4216063
24.271590965038975	2.0533123	1.4329383
24.289518653296376	2.1081898	1.4519607
24.30744694515505	2.1160502	1.454665
24.32537584111486	2.066222	1.4374359
24.34330534167581	2.0370204	1.4272423
24.361235447338046	2.0159457	1.41984
24.379166158601876	1.9667183	1.4023974
24.39709747596772	2.0182104	1.4206374
24.41502939993615	2.0239573	1.4226586
24.432961931007917	2.0302777	1.4248781
24.450895069683856	2.0303366	1.4248989
24.468828816465	1.9988391	1.4138031
24.4867631718525	1.9661443	1.4021927
24.504698136347656	1.9583288	1.399403
24.52263371045192	1.9673336	1.4026167
24.540569894666874	1.9962986	1.4129043
24.558506689494266	1.978353	1.4065393
24.57644409543597	1.9814279	1.407632
24.594382112994012	1.9508187	1.3967171
24.61232074267057	1.9607117	1.4002541
24.630259984967953	1.9329236	1.3902962
24.64819984038863	1.9199679	1.385629
24.66614030943522	1.9165734	1.3844036
24.684081392610462	1.9618589	1.4006637
24.702023090417274	1.9883442	1.4100866
24.7199654033587	1.9871585	1.4096661
24.737908331937927	2.018036	1.4205759
24.755851876658305	2.0580893	1.4346042
24.773796038023324	2.0700257	1.4387584
24.79174081653661	2.1149757	1.4542956
24.809686212701962	2.1002576	1.4492266
24.827632227023294	2.1058044	1.451139
24.8455788600047	2.1183062	1.4554402
24.8635261121504	2.1378489	1.4621384
24.88147398396475	2.0953193	1.4475218
24.899422475952303	2.0675256	1.4378893
24.917371588617698	2.1087275	1.4521458
24.935321322465768	2.1655447	1.471579
24.953271678001478	2.2872825	1.5123764
24.97122265572994	2.5241196	1.5887479
24.989174256156414	2.8143015	1.677588
25.00712647978632	3.3046534	1.8178706
25.02507932712521	3.8544607	1.963278
25.043032798678798	4.3834734	2.0936747
25.060986894952933	5.0475526	2.246676
25.078941616453637	5.765762	2.4012
25.096896963687055	6.709255	2.590223
25.114852937159508	7.836654	2.7994025
25.132809537377444	8.287111	2.8787344
25.150766764847468	8.267772	2.8753734
25.168724620076347	7.560744	2.7496808
25.186683103570985	6.5827994	2.5656967
25.204642215838426	5.407785	2.3254645
25.222601957385894	4.140599	2.034846
25.24056232872074	3.1469808	1.7739731
25.25852333035048	2.6286216	1.6213025
25.276484962782778	2.2804897	1.510129
25.294447226525435	2.070092	1.4387814
25.312410122086423	1.9676248	1.4027205
25.330373649973843	1.9375328	1.3919529
25.348337810695988	1.9487305	1.3959694
25.366302604761245	1.9306253	1.3894694
25.384268032678207	1.9339398	1.3906616
25.40223409495558	1.9425204	1.3937433
25.420200792102257	1.9371161	1.3918031
25.438168124627246	1.9089367	1.3816428
25.45613609303974	1.9028105	1.379424
25.474104697849057	1.8945012	1.3764088
25.492073939564698	1.8722866	1.3683152
25.510043818696285	1.9024835	1.3793055
25.528014335753614	1.8960979	1.3769886
25.54598549124664	1.9068158	1.380875
25.56395728568544	1.908391	1.3814453
25.58192971958028	1.915629	1.3840625
25.59990279344156	1.8837818	1.3725094
25.617876507779833	1.8446809	1.3581903
25.635850863105826	1.8213848	1.3495868
25.653825859930386	1.7911901	1.3383535
25.671801498764548	1.8327627	1.3537956
25.68977778011949	1.88754	1.3738778
25.707754704506524	1.9291103	1.3889241
25.725732272437153	1.902852	1.379439
25.743710484423012	1.8685744	1.366958
25.761689340975888	1.8442568	1.3580341
25.77966884260774	1.8537503	1.361525
25.797648989830662	1.8728194	1.3685099
25.815629783156922	1.8647791	1.3655691
25.83361122309895	1.8946058	1.3764468
25.85159331016929	1.9160093	1.3841999
25.869576044880695	1.8633944	1.365062
25.887559427746034	1.7837764	1.335581
25.90554345927836	1.7808101	1.33447
25.92352813999086	1.8285486	1.3522383
25.94151347039689	1.8226638	1.3500607
25.959499451009965	1.8183719	1.3484702
25.97748608234374	1.8410817	1.3568647
25.995473364912062	1.8583676	1.3632195
26.013461299228904	1.8223869	1.3499581
26.03144988580839	1.867097	1.3664175
26.04943912516483	1.8672814	1.3664851
26.067429017812675	1.832105	1.3535527
26.085419564266537	1.7718534	1.3311099
26.103410765041186	1.7891352	1.3375856
26.12140262065155	1.8249251	1.3508979
26.139395131612723	1.8483618	1.3595448
26.157388298439948	1.8575137	1.3629063
26.17538212164861	1.8320168	1.3535202
26.193376601754295	1.8074107	1.3443998
26.211371739272714	1.8324906	1.3536952
26.229367534719746	1.8585862	1.3632997
26.247363988611433	1.8377172	1.3556243
26.26536110146397	1.7967203	1.340418
26.283358873793727	1.7857106	1.3363048
26.301357306117204	1.8069953	1.3442452
26.319356398951104	1.8070217	1.3442551
26.33735615281224	1.8199983	1.3490732
26.35535656821762	1.777256	1.3331376
26.373357645684404	1.7627645	1.3276914
26.39135938572991	1.8074344	1.3444086
26.409361788871614	1.8282202	1.352117
26.427364855627165	1.8380283	1.355739
26.445368586514352	1.8313767	1.3532836
26.46337298205115	1.7994853	1.341449
26.48137804275568	1.7772644	1.3331407
26.499383769146217	1.845	1.3583078
26.517390161741215	1.862517	1.3647406
26.53539722105928	1.8177682	1.3482463
26.553404947619182	1.7986058	1.3411211
26.571413341939856	1.805361	1.3436372
26.589422404540397	1.7954	1.3399254
26.60743213594006	1.8073314	1.3443702
26.62544253665827	1.8211968	1.3495172
26.64345360721459	1.7873515	1.3369187
26.66146534812879	1.7580502	1.3259149
26.679477759920758	1.7774776	1.3332207
26.69749084311057	1.7899592	1.3378936
26.71550459821847	1.8108392	1.3456743
26.733519025764842	1.7984339	1.3410571
26.751534126270258	1.8046321	1.3433659
26.769549900255434	1.8367786	1.355278
26.787566348241267	1.8658079	1.3659458
26.80558347074881	1.8334876	1.3540634
26.823601268299267	1.815544	1.3474213
26.841619741414036	1.782512	1.3351074
26.85963889061465	1.7747977	1.3322153
26.877658716422832	1.7608472	1.3269691
26.89567921936045	1.758636	1.3261358
26.913700399949544	1.7982293	1.3409808
26.93172225871233	1.7980555	1.3409159
26.949744796171174	1.7582394	1.3259861
26.967768012848605	1.7969935	1.3405199
26.98579190926733	1.8471864	1.3591124
27.003816485950225	1.855004	1.3619853
27.021841743420318	1.8727295	1.3684771
27.039867682200814	1.8592874	1.3635569
27.057894302815072	1.8675877	1.3665972
27.07592160578664	1.8537745	1.3615339
27.0939495916392	1.8222463	1.3499061
27.111978260896635	1.755733	1.3250408
27.13000761408296	1.7951691	1.3398392
27.148037651722397	1.8861676	1.3733782
27.166068374339304	1.9434094	1.3940622
27.184099782458215	1.8871969	1.3737528
27.20213187660384	1.8048716	1.3434551
27.22016465730105	1.791811	1.3385855
27.23819812507487	1.8022645	1.3424845
27.256232280450533	1.812086	1.3461374
27.274267123953383	1.8012035	1.3420892
27.292302656108987	1.7870462	1.3368045
27.31033887744306	1.7615826	1.3272463
27.32837578848146	1.7715856	1.3310093
27.34641338975026	1.7720513	1.3311841
27.364451681775673	1.7777206	1.3333119
27.382490665084074	1.7972043	1.3405985
27.400530340202046	1.8223585	1.3499476
27.41857070765629	1.8238053	1.3504834
27.436611767973726	1.8187191	1.348599
27.454653521681404	1.810734	1.3456352
27.472695969306564	1.8383025	1.3558401
27.490739111376627	1.8103884	1.3455068
27.508782948419153	1.7897731	1.337824
27.526827480961902	1.7796998	1.3340539
27.54487270953279	1.7697501	1.3303195
27.562918634659898	1.7881783	1.3372278
27.580965256871508	1.8253126	1.3510413
27.599012576696026	1.8050991	1.3435398
27.617060594662068	1.7840955	1.3357004
27.63510931129842	1.8228502	1.3501297
27.65315872713401	1.8655288	1.3658437
27.67120884269797	1.8692654	1.3672109
27.68925965851958	1.8233912	1.35033
27.707311175128307	1.8246409	1.3507926
27.725363393053787	1.8762077	1.3697473
27.74341631282583	1.8810047	1.3714973
27.7614699349744	1.8996599	1.3782815
27.77952426002968	2.037502	1.427411
27.797579288521973	2.1167898	1.4549192
27.815635020981784	2.5596964	1.5999051
27.83369145793979	2.5948405	1.6108508
27.85174859992682	2.4221776	1.5563346
27.869806447473923	2.2596402	1.50321
27.887865001112267	1.9840683	1.4085696
27.905924261373233	1.8179432	1.3483113
27.92398422878836	1.8107897	1.3456559
27.94204490388936	1.8495554	1.3599836
27.96010628720813	1.8573172	1.3628342
27.978168379276728	1.7888616	1.3374833
27.9962311806274	1.7897809	1.337827
28.014294691792568	1.8301631	1.3528352
28.0323589133048	1.8325382	1.3537128
28.050423845696887	1.8221518	1.349871
28.068489489501758	1.8438509	1.3578846
28.086555845252523	1.8564135	1.3625027
28.104622913482487	1.8388666	1.3560481
28.122690694725115	1.8667487	1.3662901
28.14075918951405	1.8715872	1.3680596
28.15882839838312	1.8966298	1.3771819
28.176898321866304	1.9156175	1.3840584
28.1949689604978	1.9569999	1.3989282
28.213040314811945	1.9165524	1.3843961
28.23111238534327	1.8910614	1.3751587
28.249185172626493	1.9024973	1.3793105
28.267258677196473	1.895788	1.3768761
28.285332899588294	1.896565	1.3771583
28.303407840337172	1.8997167	1.3783021
28.321483499978545	1.8987244	1.3779421
28.33955987904799	1.9333416	1.3904465
28.357636978081285	1.9516664	1.3970206
28.37571479761439	1.9484277	1.3958609
28.393793338183425	1.9457828	1.3949132
28.41187260032469	1.9651891	1.401852
28.429952584574686	1.9937716	1.4120097
28.448033291470065	2.0094795	1.4175612
28.46611472154769	2.047271	1.4308288
28.484196875344566	1.9878296	1.4099041
28.502279753397914	1.9838508	1.4084924
28.52036335624511	2.0040238	1.4156355
28.538447684423716	2.000532	1.4144017
28.556532738471482	2.0327241	1.4257363
28.574618518926325	2.0494084	1.4315755
28.59270502632635	2.0319703	1.4254719
28.61079226120985	1.975247	1.4054348
28.628880224115274	1.9782699	1.4065099
28.646968915581287	1.9979285	1.413481
28.66505833614671	2.0406418	1.4285103
28.68314848635055	2.0873501	1.4447665
28.701239366732004	2.1286292	1.4589822
28.71933097783044	2.0774841	1.4413481
28.737423320185403	2.0639136	1.4366328
28.75551639433665	2.0978272	1.4483877
28.773610200824074	2.138985	1.4625269
28.791704740187793	2.0969987	1.4481018
28.80980001296809	2.101615	1.4496948
28.827896019705413	2.146756	1.4651812
28.845992760940433	2.1705952	1.473294
28.86409023721397	2.1908271	1.4801443
28.88218844906704	2.2308095	1.4935894
28.900287397040845	2.2775648	1.5091603
28.918387081676755	2.3367093	1.5286299
28.936487503516343	2.3178608	1.5224522
28.954588663101365	2.3031986	1.5176293
28.97269056097374	2.30864	1.519421
28.990793197675597	2.3567388	1.5351673
29.00889657374923	2.3795722	1.5425862
29.027000689737125	2.3837342	1.5439347
29.04510554618196	2.4257286	1.5574751
29.06321114362659	2.4526324	1.5660882
29.08131748261405	2.4789965	1.5744829
29.099424563687567	2.4974947	1.5803463
29.11753238739057	2.533744	1.5917739
29.13564095426663	2.5925188	1.6101301
29.15375026485954	2.6364026	1.6237003
29.171860319713275	2.6978562	1.6425152
29.18997111937199	2.722392	1.6499673
29.20808266438002	2.7888734	1.6699921
29.226194955281898	2.809608	1.6761885
29.244307992622335	2.8199937	1.6792837
29.26242177694624	2.7669625	1.6634189
29.2805363087987	2.7797942	1.6672715
29.29865158872498	2.823167	1.6802282
29.316767617270557	2.9259326	1.7105358
29.334884394981064	2.9870427	1.7283063
29.353001922402367	2.9639657	1.7216172
29.37112020008047	3.0068524	1.7340277
29.389239228561596	3.1801062	1.7832853
29.407359008392152	3.361909	1.8335509
29.42547954011872	3.6761124	1.917319
29.44360082428809	4.4161882	2.1014729
29.46172286144722	5.547373	2.3552861
29.479845652143283	7.2274923	2.6883996
29.497969196923606	9.414847	3.0683622
29.516093496335728	11.970258	3.459806
29.5342185509274	14.651063	3.8276708
29.55234436124651	16.816998	4.1008534
29.570470927841175	17.96832	4.2389054
29.588598251259686	17.586115	4.19358
29.60672633205055	16.244453	4.030441
29.624855170762405	14.22546	3.7716653
29.642984767944146	11.56601	3.4008837
29.66111512414481	8.803455	2.9670618
29.67924623991366	6.451988	2.5400765
29.697378115800138	5.0292425	2.2425973
29.71551075235387	4.1489973	2.0369089
29.733644150124675	3.738677	1.9335659
29.751778309662576	3.533887	1.8798635
29.769913231517766	3.4221928	1.8499169
29.78804891624066	3.300127	1.8166251
29.806185364381818	3.228839	1.796897
29.82432257649206	3.281335	1.8114456
29.842460553122333	3.3596823	1.8329437
29.86059929482382	3.4097333	1.8465463
29.878738802147872	3.363565	1.8340025
29.896879075646048	3.2953584	1.8153123
29.915020115870114	3.330612	1.8249965
29.933161923371976	3.3399594	1.8275555
29.951304498703777	3.2999365	1.8165728
29.969447842417857	3.2562566	1.8045101
29.987591955066733	3.1895585	1.7859335
30.005736837203123	3.134976	1.7705864
30.023882489379943	3.148665	1.7744478
30.04202891215028	3.1896718	1.7859652
30.060176106067455	3.1785784	1.7828568
30.078324071684946	3.1379006	1.771412
30.09647280955646	3.1587768	1.7772948
30.114622320235863	3.2035763	1.7898537
30.132772604277257	3.246387	1.8017733
30.1509236622349	3.2602193	1.8056078
30.16907549466328	3.1926236	1.7867914
30.18722810211705	3.0441	1.744735
30.205381485151097	2.9899673	1.7291522
30.22353564432045	3.0497751	1.7463605
30.241690580180403	3.0976937	1.7600266
30.25984629328638	3.0653753	1.7508214
30.278002784194037	3.044851	1.7449502
30.296160053459246	3.0065334	1.7339358
30.314318101638033	3.029204	1.7404609
30.332476929286646	3.0113182	1.735315
30.35063653696153	2.98676	1.7282245
30.368796925219307	2.9737983	1.7244704
30.386958094616844	2.9220479	1.7093998
30.40512004571115	2.8870435	1.6991302
30.423282779059463	2.9596617	1.7203667
30.441446295219233	2.9636447	1.721524
30.459610594748067	2.8833811	1.6980522
30.47777567820382	2.8117275	1.6768206
30.495941546144504	2.895097	1.7014985
30.51410819912835	2.895487	1.7016131
30.532275637713795	2.8896523	1.6998978
30.55044386245946	2.877343	1.6962732
30.56861287392416	2.8347943	1.6836847
30.586782672666956	2.803014	1.6742204
30.604953259247047	2.8205888	1.6794609
30.623124634223885	2.8037367	1.6744362
30.641296798157075	2.7477994	1.6576488
30.659469751606462	2.6891067	1.6398495
30.677643495132074	2.6680722	1.6334234
30.695818029294152	2.710709	1.6464231
30.713993354653116	2.7455254	1.6569626
30.73216947176962	2.7523699	1.6590267
30.75034638120448	2.6815226	1.6375356
30.768524083518756	2.603623	1.6135746
30.786702579273673	2.6306353	1.6219233
30.80488186903069	2.7308903	1.6525406
30.82306195335144	2.8785827	1.6966387
30.841242832797782	3.1549346	1.7762135
30.85942450793176	3.4174228	1.8486272
30.877606979315637	3.7694683	1.9415119
30.895790247511883	4.161851	2.0400615
30.913974313083134	4.5515275	2.133431
30.932159176592283	4.8508925	2.202474
30.95034483860237	4.9166174	2.2173448
30.968531299676698	4.7257533	2.1738799
30.98671856037873	4.3394055	2.083124
31.00490662127215	4.005048	2.0012615
31.023095482920848	3.624857	1.9039057
31.04128514588892	3.2340724	1.7983527
31.059475610740662	2.8291316	1.6820023
31.07766687804056	2.581789	1.6067946
31.09585894835335	2.591525	1.6098214
31.11405182224393	2.5850883	1.607821
31.132245500277417	2.5329475	1.5915236
31.15043998301914	2.4495394	1.5651004
31.168635271034628	2.4531486	1.5662531
31.18683136488964	2.4697773	1.5715525
31.20502826515008	2.4145741	1.55389
31.223225972382135	2.4106164	1.552616
31.241424487152155	2.469872	1.5715827
31.259623810026692	2.5152712	1.5859606
31.27782394157253	2.5734196	1.6041881
31.296024882356644	2.5702708	1.6032064
31.314226632946237	2.4847987	1.5763245
31.332429193908684	2.4294312	1.5586632
31.350632565811598	2.4822278	1.5755087
31.368836749222787	2.4665546	1.5705268
31.387041744710295	2.4313197	1.559269
31.40524755284232	2.4367046	1.5609947
31.423454174187317	2.482299	1.5755314
31.441661609313922	2.5199132	1.5874234
31.459869858791002	2.4932399	1.5789996
31.478078923187628	2.484445	1.5762123
31.496288803073064	2.4089177	1.5520688
31.514499499016807	2.354586	1.534466
31.532711011588546	2.3295932	1.5263004
31.550923341358178	2.3912928	1.5463805
31.56913648889584	2.3755903	1.541295
31.587350454771844	2.3550386	1.5346135
31.605565239556732	2.3515222	1.5334674
31.62378084382127	2.40519	1.5508674
31.641997268136382	2.4529457	1.5661882
31.660214513073274	2.402025	1.5498468
31.67843257920331	2.3394306	1.5295197
31.6966514670981	2.2513034	1.5004344
31.71487117732944	2.306557	1.5187353
31.733091710469346	2.3745143	1.5409459
31.751313067090052	2.342788	1.5306169
31.769535247764008	2.3559048	1.5348957
31.787758253063878	2.3672864	1.5385989
31.805982083562526	2.2748232	1.5082517
31.824206739833024	2.2586584	1.5028833
31.84243222244869	2.2865648	1.5121392
31.860658531983013	2.2608383	1.5036085
31.878885669009737	2.2492366	1.4997455
31.897113634102784	2.2359936	1.4953239
31.91534242783632	2.289933	1.5132525
31.933572050784694	2.3387496	1.5292971
31.951802503522508	2.305398	1.5183537
31.970033786624548	2.2059975	1.48526
31.988265900665834	2.2039213	1.484561
32.006498846221575	2.2389624	1.4963163
32.02473262386724	2.1747153	1.4746916
32.04296723417845	2.1410735	1.4632407
32.0612026777311	2.2098923	1.4865706
32.07943895510129	2.2994583	1.5163965
32.097676066865304	2.2854087	1.5117568
32.115914013599685	2.2079918	1.4859313
32.13415279588115	2.1186674	1.4555643
32.152392414286666	2.0889432	1.4453177
32.1706328693934	2.1008084	1.4494165
32.18887416177875	2.0569553	1.434209
32.20711629202032	2.0300872	1.4248112
32.225359260695924	2.092967	1.446709
32.243603068383614	2.123871	1.4573507
32.26184771566166	2.131192	1.4598602
32.28009320310852	2.1187828	1.455604
32.2983395313029	2.152841	1.4672563
32.31658670082372	2.169294	1.4728523
32.33483471225012	2.0608892	1.4355798
32.35308356616143	1.9927626	1.4116524
32.371333263137245	2.0214956	1.4217931
32.38958380375734	2.0788991	1.4418389
32.407835188601744	2.1573067	1.4687773
32.42608741825067	2.2337084	1.4945596
32.444340493284585	2.225171	1.4917008
32.46259441428416	2.1087222	1.452144
32.48084918183028	2.037441	1.4273896
32.49910479650405	2.0489926	1.4314302
32.51736125888683	2.1040778	1.450544
32.53561856956014	2.0887263	1.4452426
32.5538767291058	2.0264072	1.4235194
32.572135738105764	2.0372984	1.4273397
32.59039559714228	2.0614414	1.4357721
32.608656306797776	2.0173635	1.4203392
32.62691786765491	2.045075	1.4300612
32.645180280296586	2.0956664	1.4476417
32.663443545305896	2.1150217	1.4543114
32.68170766326619	2.1007042	1.4493806
32.69997263476099	2.0524826	1.4326488
32.7182384603741	2.0244508	1.422832
32.7365051406895	1.9523884	1.3972789
32.75477267629144	2.0059114	1.416302
32.77304106776434	2.0546548	1.4334067
32.79131031569289	1.9718959	1.4042422
32.809580420661966	1.9442846	1.394376
32.827851383256714	2.0215209	1.4218019
32.84612320406245	2.0541694	1.4332374
32.86439588366476	2.074105	1.4401753
32.88266942264945	2.0027997	1.4152031
32.9009438216025	1.9223201	1.3864776
32.9192190811102	1.9442542	1.3943652
32.937495201758985	1.9222647	1.3864576
32.95577218413556	1.8966659	1.377195
32.974050028826866	1.8951377	1.37664
32.992328736420035	1.9030612	1.3795148
33.010608307502444	1.8991944	1.3781126
33.02888874266169	1.9394066	1.3926258
33.047170042485604	1.972243	1.4043657
33.06545220756225	1.9840609	1.408567
33.083735238479896	1.983539	1.4083817
33.10201913582707	2.017493	1.4203848
33.12030390019248	2.0337007	1.4260788
33.138589532165135	2.040208	1.4283586
33.15687603233419	2.0017836	1.414844
33.17516340128909	1.9365897	1.3916141
33.19345163961947	2.022993	1.4223197
33.211740747915215	2.0744205	1.4402848
33.23003072676643	1.984998	1.4088995
33.248321576763466	1.9845169	1.4087288
33.266613298496885	2.0424144	1.4291307
33.28490589255747	2.01555	1.4197006
33.30319935953626	1.9369737	1.391752
33.32149370002451	1.8856335	1.3731837
33.339788914613706	1.8722737	1.3683106
33.358085003895575	1.8472079	1.3591202
33.376381968462034	1.8866436	1.3735515
33.39467980890529	1.8732961	1.368684
33.41297852581774	1.8137319	1.3467486
33.43127811979204	1.8397701	1.3563813
33.44957859142105	1.9463159	1.3951043
33.467879941297866	1.9691944	1.4032799
33.486182170015844	1.9435334	1.3941066
33.50448527816853	1.8952994	1.3766987
33.522789266349754	1.9966867	1.4130416
33.541094135153514	1.932881	1.390281
33.55939988517411	1.8328028	1.3538104
33.57770651700602	1.9837822	1.408468
33.59601403124398	1.9769433	1.4060382
33.61432242848296	1.9118794	1.3827072
33.632631709318154	1.8798784	1.3710866
33.650941874344994	1.9026735	1.3793743
33.66925292415916	1.9331537	1.390379
33.68756485935654	2.0134711	1.4189683
33.70587768053328	1.9887588	1.4102336
33.724191388285746	1.8416828	1.3570862
33.74250598321054	1.8718024	1.3681383
33.760821465904506	1.9782224	1.406493
33.77913783696474	2.0275548	1.4239223
33.79745509698852	1.9571937	1.3989974
33.815773246573414	1.9614599	1.4005213
33.8340922863172	2.0041037	1.4156637
33.852412216817896	2.1119208	1.4532449
33.87073303867377	2.103173	1.450232
33.889054752483304	1.9661816	1.402206
33.907377358845245	1.8979721	1.3776691
33.92570085835853	1.911447	1.382551
33.94402525162239	1.957143	1.3989793
33.96235053923627	2.0238981	1.4226377
33.980676721799824	2.0712042	1.4391679
33.999003799912984	1.9933116	1.4118469
34.01733177417592	1.9222753	1.3864614
34.03566064518901	1.9617974	1.4006418
34.0539904135529	1.9315183	1.3897908
34.07232107986846	1.8336996	1.3541416
34.090652644736785	1.8722588	1.3683051
34.108985108759235	1.8427365	1.3574743
34.12731847253742	1.8534364	1.3614097
34.14565273667313	1.8650594	1.3656718
34.16398790176847	1.8673956	1.3665268
34.18232396842574	1.8589858	1.3634462
34.20066093724749	1.7515937	1.3234779
34.21899880883651	1.791436	1.3384453
34.23733758379583	2.0134645	1.4189659
34.25567726272874	2.1157482	1.4545611
34.27401784623872	2.0713866	1.4392313
34.29235933492957	1.9678252	1.402792
34.31070172940526	1.8648393	1.3655912
34.32904503027003	1.8503277	1.3602675
34.347389238128386	1.9623858	1.4008518
34.36573435358502	2.0243847	1.4228088
34.38408037724492	1.9967139	1.4130512
34.402427309713296	2.0376077	1.4274479
34.42077515159559	2.0191867	1.4209809
34.43912390349752	2.068562	1.4382496
34.45747356602499	2.0796146	1.4420869
34.47582413978423	2.087657	1.4448726
34.49417562538163	2.0457065	1.430282
34.51252802342388	1.8931803	1.3759289
34.53088133451789	1.905408	1.3803651
34.54923555927084	1.8536627	1.3614929
34.567590698290104	1.8561244	1.3623966
34.58594675218336	1.831008	1.3531474
34.6043037215585	1.7552791	1.3248694
34.62266160702365	1.7333874	1.3165817
34.641020409187234	1.7671784	1.3293526
34.65938012865785	1.9421462	1.393609
34.677740766044394	2.051684	1.4323701
34.69610232195598	1.9451923	1.3947015
34.714464797002016	2.0080283	1.4170492
34.73282819179208	2.0546353	1.4333999
34.751192506936064	1.926812	1.3880966
34.76955774304408	1.8845437	1.3727869
34.7879239007265	1.8514717	1.360688
34.80629098059391	1.8701473	1.3675333
34.824658983257194	2.0608838	1.4355779
34.843027909327446	1.978687	1.4066582
34.86139775941603	1.8294231	1.3525617
34.879768534134534	1.9217639	1.386277
34.89814023409483	2.130114	1.459491
34.91651285990901	2.1980531	1.4825833
34.93488641218944	2.1049654	1.4508499
34.95326089154871	1.9875125	1.4097916
34.97163629859967	2.03596	1.4268707
34.99001263395542	2.2061749	1.4853197
35.00838989822934	1.9828237	1.4081278
35.02676809203499	1.7476612	1.3219914
35.04514721598624	1.7645836	1.3283763
35.063527270697215	1.824512	1.350745
35.081908256782256	1.8621242	1.3645967
35.10029017485597	1.8661253	1.3660619
35.11867302553321	2.035855	1.4268339
35.137056809429104	2.1403928	1.4630082
35.155441527159006	2.240163	1.4967175
35.173827179338524	2.0753071	1.4405926
35.19221376658354	1.7912179	1.3383639
35.21060128951017	1.8891437	1.3744613
35.2289897487348	2.151621	1.4668405
35.24737914487405	2.2829883	1.510956
35.26576947854479	2.4012897	1.5496095
35.28416075036418	2.4686935	1.5712076
35.30255296094958	2.1390514	1.4625497
35.32094611091867	2.03396	1.4261698
35.33934020088932	2.1961825	1.4819523
35.35773523147969	2.4724197	1.572393
35.3761312033082	2.4027522	1.5500814
35.394528116993506	2.1587708	1.4692756
35.41292597315452	2.2310967	1.4936856
35.431324772410434	2.0755775	1.4406865
35.449724515380666	1.9602116	1.4000756
35.46812520268491	1.9397815	1.3927604
35.486526834943106	1.7754852	1.3324733
35.504929412775454	1.4777976	1.215647
35.52333293680242	1.5860742	1.2593944
35.54173740764471	1.7559406	1.325119
35.560142825923286	1.7255465	1.3136005
35.5785491922594	1.3509861	1.1623193
35.59695650727454	1.2883037	1.1350347
35.61536477159042	1.9727423	1.4045434
