0.008763373481513119	0.56609195	0.7523908
0.026290120649546365	0.36068255	0.60056853
0.043816868432600686	0.27106324	0.52063733
0.06134361724069026	0.16578564	0.40716782
0.07887036748382949	0.14545362	0.3813838
0.0963971195720331	0.28977677	0.53830916
0.11392387391531617	0.26611474	0.5158631
0.1314506309236943	0.2336169	0.48333934
0.1489773910071836	0.10667019	0.32660404
0.16650415457580078	0.07032863	0.26519546
0.18403092203956356	0.120607466	0.34728587
0.20155769380849	0.15739511	0.3967305
0.2190844702925996	0.15466128	0.39327
0.2366112519019124	0.11665293	0.34154493
0.2541380390464497	0.100087956	0.3163668
0.27166483213623416	0.08145053	0.28539538
0.28919163158128947	0.094096854	0.30675212
0.3067184377916406	0.10594588	0.32549328
0.324245251177314	0.16417605	0.40518644
0.34177207214833777	0.1637383	0.4046459
0.3592989011147415	0.15736629	0.3966942
0.37682573848655654	0.15031987	0.38771108
0.39435258467381573	0.21415733	0.46277136
0.41187944008655414	0.24540322	0.4953819
0.42940630513480854	0.19662842	0.44342804
0.446933180228618	0.15358926	0.39190465
0.4644600657780234	0.1424305	0.37739965
0.48198696219306775	0.14287017	0.37798172
0.49951386988379676	0.12704504	0.35643378
0.5170407892602581	0.09738235	0.31206146
0.5345677207325025	0.108687386	0.3296777
0.5520946647105822	0.10937184	0.33071414
0.5696216216045534	0.16910516	0.41122398
0.5871485918244737	0.18810399	0.43370956
0.6046755757804043	0.14913619	0.38618153
0.6222025738824094	0.150333	0.387728
0.6397295865405557	0.16066708	0.40083298
0.6572566141649129	0.19580592	0.44249964
0.6747836571655547	0.17477217	0.41805762
0.6923107159525568	0.1736683	0.4167353
0.7098377909359992	0.15144081	0.389154
0.7273648825259653	0.16763137	0.4094281
0.7448919911325411	0.20019443	0.44743094
0.762419117165817	0.18229795	0.42696363
0.7799462610358868	0.20851558	0.45663506
0.7974734231528482	0.20416173	0.4518426
0.8150006039268024	0.21493943	0.4636156
0.8325278037678551	0.15618655	0.39520445
0.8500550230861152	0.13950606	0.3735051
0.8675822622916969	0.14306013	0.3782329
0.8851095217947171	0.19822003	0.44521907
0.9026368020052984	0.21842188	0.46735626
0.9201641033335665	0.24176057	0.49169153
0.9376914261896523	0.18172024	0.42628658
0.9552187709836915	0.17409843	0.41725105
0.9727461381258234	0.2114657	0.459854
0.990273528026193	0.23891683	0.4887912
1.0078009410949496	0.23784049	0.48768893
1.0253283777422473	0.20580985	0.4536627
1.0428558383782454	0.22892785	0.47846407
1.0603833234131086	0.24865094	0.49864912
1.0779108332570058	0.31776997	0.56371087
1.0954383683201119	0.32519487	0.5702586
1.112965929012607	0.36345133	0.6028693
1.1304935157446763	0.44329727	0.66580576
1.1480211289265108	0.49512845	0.70365363
1.1655487689683062	1.3954774	1.1813033
1.1830764362802655	1.710651	1.3079185
1.200604131272596	2.0395236	1.428119
1.2181318543555117	2.1512742	1.4667222
1.235659605939232	2.1727235	1.4740161
1.253187386433982	3.806628	1.9510581
1.270715196249994	6.1778703	2.4855323
1.2882430357975057	11.401493	3.3766098
1.3057709054867608	15.873812	3.9841952
1.3232988057280106	21.370937	4.622871
1.3408267369315112	26.756256	5.172645
1.358354699507526	30.439041	5.517159
1.3758826938663256	34.68015	5.8889856
1.3934107204181858	36.450775	6.037448
1.410938779573391	36.729816	6.060513
1.4284668717422309	37.12777	6.093256
1.4459949973350033	36.74709	6.061938
1.4635231567620117	36.81736	6.067731
1.4810513504335687	36.13756	6.0114527
1.4985795787599925	35.32729	5.9436765
1.5161078421516088	34.800713	5.899213
1.5336361410187505	34.125366	5.841692
1.5511644757717598	34.149982	5.8437986
1.5686928468209842	34.340252	5.8600554
1.58622125457678	34.759827	5.8957467
1.6037496994495108	36.1933	6.0160866
1.621278181849548	36.61772	6.051258
1.6388067021872719	37.5155	6.1249895
1.6563352608730693	36.925407	6.0766277
1.673863858317336	35.955162	5.9962626
1.6913924949304753	35.168262	5.9302835
1.7089211711228998	33.973984	5.8287206
1.7264498873050296	32.916176	5.7372622
1.7439786438872935	31.949253	5.652367
1.7615074412801288	30.916311	5.5602436
1.779036279893981	30.488092	5.521602
1.796565160139305	29.61276	5.441761
1.814094082426564	29.480011	5.4295497
1.8316230471662298	28.759987	5.362834
1.849152054768784	27.91311	5.283286
1.8666811056447168	26.917822	5.1882386
1.8842102002045273	26.07331	5.106203
1.901739338858724	25.711052	5.0706067
1.9192685220178245	25.381731	5.0380287
1.9367977500923557	24.812674	4.981232
1.9543270234928547	24.169518	4.91625
1.971856342629867	23.595886	4.8575597
1.9893857079139496	23.005539	4.796409
2.006915119755667	22.508966	4.7443614
2.0244445785655945	21.876572	4.67724
2.0419740847543175	21.409975	4.6270914
2.0595036387324317	21.129633	4.5966983
2.0770332409105414	20.658531	4.5451655
2.094562891699263	20.411808	4.517943
2.1120925915092217	19.641518	4.431875
2.129622340751053	19.116688	4.3722634
2.1471521398354043	187.2124	13.682558
2.1646819891729323	443.60287	21.061882
2.182211889174303	439.853	20.972673
2.1997418402501974	452.27554	21.266771
2.2172718428113023	432.34775	20.792974
2.234801897268317	320.4221	17.900337
2.2523320040319548	16.882868	4.1088767
2.269862163512935	16.359438	4.04468
2.287392376121992	15.9872675	3.998408
2.304922642269869	15.877315	3.9846349
2.322452962367322	15.829752	3.978662
2.3399833368251164	15.60852	3.9507618
2.357513766054032	15.256321	3.905934
2.3750442504648586	14.823247	3.850097
2.3925747904683963	14.591797	3.819921
2.410105386475459	14.3320675	3.7857716
2.4276360388968707	13.942623	3.7339823
2.445166748143469	13.724396	3.7046452
2.4626975146261025	13.470398	3.6702042
2.4802283387556323	13.393622	3.6597297
2.4977592209429305	13.1374035	3.6245556
2.5152901615988825	12.756507	3.5716252
2.5328211611343865	12.410663	3.522877
2.5503522199603523	12.223385	3.4961958
2.5678833384877024	12.10622	3.4793994
2.5854145171273712	12.111334	3.4801342
2.6029457562903064	11.929675	3.453936
2.620477056387469	11.937777	3.455109
2.6380084178298326	11.737434	3.425994
2.655539841028383	11.327983	3.365707
2.673071326394119	11.05983	3.3256323
2.6906028743380523	10.819026	3.2892287
2.708134485271211	10.807404	3.2874615
2.7256661596046325	10.690674	3.2696595
2.743197897749369	10.638609	3.261688
2.760729700116486	10.527351	3.244588
2.778261567117063	10.178283	3.1903422
2.795793499162193	10.058075	3.1714468
2.8133254966629817	9.9381695	3.1524863
2.830857560030551	9.793382	3.129438
2.8483896896760337	9.734962	3.1200902
2.865921886010578	9.4892845	3.0804682
2.883454149445347	9.247623	3.0409906
2.9009864803915177	9.077023	3.0128098
2.91851887926028	8.951445	2.9918964
2.9360513464628384	8.898009	2.982953
2.953583882410413	8.790048	2.9648015
2.9711164875142373	8.599404	2.9324741
2.9886491621855606	8.6281185	2.937366
3.0061819068356455	8.566965	2.9269378
3.023714721875769	8.4257765	2.9027188
3.041247607717225	8.347638	2.8892279
3.0587805647713213	8.243369	2.871127
3.0763135934493806	8.142754	2.8535511
3.0938466941627407	8.065309	2.8399487
3.1113798673227544	7.7970476	2.7923193
3.1289131133407904	7.6321607	2.7626364
3.1464464326282315	7.5111675	2.740651
3.1639798255964786	7.5390496	2.745733
3.1815132926569443	7.532238	2.7444923
3.1990468342210603	7.5173736	2.741783
3.216580450700272	7.381632	2.7169158
3.2341141425060416	7.2215676	2.6872973
3.251647910049847	7.1315107	2.6704888
3.2691817537431813	7.098614	2.6643224
3.286715673997555	7.020235	2.6495726
3.3042496712244938	6.965133	2.639154
3.32178374583554	6.8410664	2.6155431
3.339317898242251	6.7772727	2.6033196
3.3568521288562034	6.66167	2.581021
3.3743864380889876	6.5688133	2.5629697
3.3919208263522127	6.378266	2.525523
3.4094552940575023	6.4011397	2.5300474
3.4269898416164972	6.4678364	2.543194
3.444524469440858	6.3873534	2.5273213
3.4620591779422587	6.301766	2.5103319
3.479593967532391	6.1726074	2.4844732
3.4971288386229658	6.1080413	2.471445
3.5146637916257086	6.1203456	2.4739332
3.5321988269523628	6.226764	2.4953485
3.5497339450146903	6.261755	2.5023499
3.5672691462244708	6.3281827	2.515588
3.5848044309934988	6.2456174	2.4991233
3.60233979973359	6.2324	2.4964776
3.619875252856575	6.2287645	2.4957492
3.6374107907743034	6.2083406	2.4916542
3.6549464138986427	6.0677104	2.4632723
3.6724821226414788	5.9665976	2.442662
3.690017917414714	5.95576	2.4404426
3.7075537986302702	6.019409	2.4534485
3.7250897667000857	6.124442	2.474761
3.7426258220361235	6.2451444	2.4990287
3.7601619650503553	6.555852	2.5604398
3.777698196154779	6.998206	2.6454122
3.7952345157614067	8.03192	2.8340642
3.8127709242822716	8.790066	2.9648044
3.830307422129425	10.894885	3.30074
3.847844009714936	12.238849	3.4984066
3.8653806874508954	15.564044	3.9451292
3.882917455749409	15.256537	3.9059618
3.900454315022606	15.409889	3.925543
3.917991265682631	12.595493	3.549013
3.9355283081416506	10.889025	3.2998521
3.9530654428118495	8.805817	2.9674597
3.970602670105433	7.550859	2.7478826
3.9881399904346244	6.6655526	2.581773
4.005677404211669	6.493356	2.5482066
4.023214911848827	6.3589406	2.521694
4.0407525137583855	6.362667	2.5224328
4.058290210352644	6.3261137	2.5151768
4.075828002043927	6.2480116	2.4996023
4.0933658892445814	6.153856	2.4806967
4.110903872366966	6.0289493	2.455392
4.128441951823468	5.935034	2.4361925
4.145980128026488	5.9077177	2.4305797
4.163518401388452	5.924426	2.4340143
4.181056772321807	6.0259004	2.454771
4.1985952412390155	6.123612	2.4745934
4.216133808552567	6.173815	2.4847162
4.233672474674966	6.180103	2.4859812
4.251211240018741	6.3032923	2.5106359
4.268750104996445	6.500953	2.5496967
4.286289070020643	7.4773345	2.7344716
4.303828135503928	9.168898	3.0280187
4.3213673018589125	29.334599	5.4161425
4.3389065694982305	90.51642	9.514011
4.356445938834537	165.59937	12.868542
4.3739854102805085	171.30357	13.088299
4.391524984248844	172.09477	13.118489
4.409064661152262	136.15372	11.668492
4.426604441403504	96.26378	9.811411
4.444144325415337	75.2687	8.675754
4.461684313600543	21.169514	4.601034
4.47922440637193	21.562853	4.643582
4.496764604142329	19.839127	4.4541135
4.5143049073245916	18.046396	4.248105
4.531845316331589	16.019833	4.002478
4.5493858315762195	13.109016	3.6206377
4.566926453471405	10.945825	3.3084474
4.584467182430081	8.921578	2.986901
4.602008018865218	7.8640075	2.8042839
4.619548963189798	7.2853966	2.6991475
4.637090015816834	6.8785357	2.6226962
4.654631177159353	6.7152834	2.5913863
4.672172447630417	6.452623	2.5402014
4.689713827643102	6.2701974	2.5040362
4.7072553176105085	6.0534596	2.460378
4.724796917945764	5.9176416	2.4326203
4.742338629062015	5.7903438	2.4063134
4.759880451372434	5.720203	2.3916945
4.777422385290215	5.6436977	2.3756468
4.794964431228581	5.5374274	2.353174
4.812506589600768	5.477032	2.340306
4.830048860820047	5.4414325	2.3326879
4.847591245299709	5.446296	2.3337302
4.8651337434530655	5.4881077	2.3426712
4.882676355693457	5.4880834	2.342666
4.900219082434242	5.452603	2.3350809
4.917761924088813	5.4797497	2.3408866
4.935304881070575	5.433477	2.330982
4.952847953792969	5.42789	2.3297832
4.970391142669449	5.336681	2.3101258
4.9879344481135055	5.28978	2.2999523
5.005477870538642	5.2804327	2.2979193
5.023021410358394	5.278081	2.2974074
5.040565067986324	5.3172407	2.3059144
5.05810884383601	5.263165	2.294159
5.075652738321066	5.261476	2.2937908
5.09319675185512	5.286104	2.2991529
5.110740884851836	5.2639594	2.294332
5.128285137724894	5.24877	2.2910194
5.145829510888007	5.24305	2.2897708
5.163374004754908	5.3030896	2.3028438
5.1809186197393595	5.2364535	2.2883298
5.198463356255145	5.1572003	2.270947
5.216008214716077	5.168997	2.273543
5.233553195535998	5.190935	2.2783623
5.251098299128764	5.272967	2.2962942
5.268643525908272	5.2059712	2.2816598
5.286188876288432	5.1480875	2.2689397
5.3037343506831895	5.0215554	2.2408826
5.32127994950651	4.936804	2.2218919
5.3388256731723915	4.8858333	2.210392
5.356371522094851	4.8965845	2.2128227
5.373917496687938	4.934684	2.2214148
5.391463597365729	4.98729	2.2332242
5.40900982454232	5.0686464	2.2513654
5.426556178631843	5.1879983	2.2777178
5.444102660048449	5.182016	2.2764041
5.4616492692063225	5.189162	2.2779732
5.479196006519669	5.1390963	2.2669575
5.496742872402727	5.0700397	2.251675
5.514289867269756	5.0693507	2.2515218
5.531836991535049	5.047801	2.2467313
5.549384245612924	5.0634365	2.2502081
5.566931629917724	5.1165614	2.2619817
5.584479144863822	5.141842	2.2675629
5.6020267908656205	5.038832	2.2447343
5.619574568337545	5.012035	2.2387574
5.637122477694054	4.973438	2.2301207
5.654670519349629	4.9906487	2.233976
5.672218693718784	4.990511	2.2339451
5.689767001216059	4.961045	2.2273402
5.707315442256021	5.034978	2.2438757
5.724864017253266	5.0605717	2.2495713
5.7424127266224225	5.1047316	2.2593653
5.75996157077814	5.1609216	2.2717662
5.777510550135105	5.1578336	2.2710865
5.795059665108022	5.074213	2.2526014
5.812608916111639	5.059223	2.2492716
5.830158303560715	5.196296	2.2795386
5.847707827870055	5.2097273	2.2824826
5.86525748945448	5.2212186	2.2849987
5.8828072887288485	5.3039856	2.3030384
5.900357226108044	5.3379307	2.3103962
5.917907302006979	5.4307375	2.3303943
5.9354575168406	5.92614	2.4343665
5.9530078710238765	6.478642	2.5453176
5.970558364971812	6.9690022	2.6398869
5.988108999099438	7.315525	2.7047226
6.005659773821818	7.8782916	2.8068295
6.023210689554039	7.7084146	2.7764032
6.040761746711227	8.170855	2.8584707
6.058312945708531	7.5553646	2.7487023
6.075864286961132	7.0820503	2.6612122
6.093415770884244	6.427711	2.535293
6.1109673978931065	5.870568	2.4229255
6.128519168402993	5.3841853	2.3203847
6.146071082829204	5.2682166	2.2952597
6.163623141587075	5.150053	2.269373
6.181175345091969	5.0511847	2.247484
6.198727693759281	5.01996	2.2405267
6.216280188004435	5.0809145	2.2540884
6.233832828242885	5.0668955	2.2509766
6.251385614890126	5.0402365	2.245047
6.268938548361669	4.992625	2.2344184
6.286491629073067	5.0077443	2.237799
6.304044857439898	5.003468	2.2368433
6.321598233877777	4.9859495	2.232924
6.339151758802344	4.94276	2.2232318
6.356705432629277	4.8896875	2.211264
6.37425925577428	4.8640685	2.2054634
6.391813228653095	4.8153734	2.194396
6.409367351681486	4.8859334	2.2104146
6.426921625275259	4.932401	2.220901
6.44447604985025	4.971526	2.229692
6.46203062582232	4.923768	2.2189565
6.47958535360737	4.910797	2.2160318
6.497140233621328	4.922324	2.2186313
6.514695266280161	4.986337	2.2330108
6.532250451999859	4.9884977	2.2334945
6.549805791196454	4.898857	2.2133362
6.567361284286002	4.8566623	2.2037835
6.584916931684597	4.8296485	2.1976461
6.602472733808367	4.900346	2.2136724
6.6200286910734665	4.9297743	2.2203095
6.637584803896092	4.921739	2.2184992
6.655141072692462	4.922086	2.2185774
6.672697497878842	4.946796	2.2241395
6.690254079871514	4.890918	2.211542
6.707810819086808	4.839983	2.1999962
6.725367715941078	4.7411942	2.1774282
6.742924770850719	4.7614126	2.1820662
6.760481984232151	4.7672143	2.1833951
6.778039356501836	4.8442	2.2009544
6.795596888076266	4.9193726	2.2179658
6.813154579371963	4.9317403	2.2207522
6.830712430805492	4.9082475	2.2154565
6.84827044279344	4.806022	2.192264
6.865828615752445	4.7261305	2.1739666
6.883386950099159	4.746321	2.1786053
6.900945446250287	4.81973	2.1953883
6.918504104622553	4.8547683	2.203354
6.936062925632727	4.880706	2.2092319
6.953621909697607	4.96749	2.2287867
6.971181057234028	5.0497894	2.2471735
6.988740368658859	5.149351	2.2692182
7.006299844389007	5.1534233	2.2701154
7.023859484841407	5.1795454	2.2758615
7.041419290433036	5.2533655	2.2920222
7.058979261580902	5.376478	2.3187234
7.0765393987020495	5.531697	2.351956
7.094099702213559	5.874058	2.4236455
7.111660172532549	6.1715794	2.4842663
7.129220810076164	6.5648904	2.5622041
7.146781615261595	7.1763916	2.6788788
7.16434258850606	7.409557	2.7220502
7.181903730226821	7.8701773	2.8053837
7.1994650408411704	8.02608	2.8330338
7.217026520766437	8.226991	2.868273
7.234588170419983	8.542025	2.9226742
7.252149990219215	8.512176	2.9175632
7.269711980581568	8.312875	2.8832057
7.2872741419245175	7.9237046	2.8149076
7.304836474665574	7.3936796	2.7191322
7.322398979222286	7.1181626	2.6679885
7.339961656012233	6.955894	2.6374028
7.357524505453039	6.7626534	2.6005101
7.375087527962357	6.5038414	2.550263
7.392650723957886	6.23533	2.4970644
7.410214093857353	5.8654404	2.4218671
7.427777638078528	5.681421	2.383573
7.445341357039213	5.484656	2.3419342
7.4629052511572525	5.3418846	2.3112516
7.480469320850524	5.259031	2.2932577
7.498033566536948	5.2057624	2.281614
7.5155979886344735	5.1397896	2.2671103
7.5331625875610975	5.1128693	2.2611654
7.550727363734844	5.1270294	2.2642944
7.568292317573788	5.131249	2.2652261
7.585857449496025	5.0833163	2.254621
7.603422759919705	5.058515	2.2491143
7.620988249263007	5.0851336	2.255024
7.638553917944147	5.1343784	2.2659166
7.656119766381391	5.1475596	2.2688234
7.673685794993023	5.094716	2.2571478
7.691252004197388	5.114147	2.2614481
7.70881839441285	5.091239	2.2563775
7.726384966057826	5.133239	2.2656653
7.743951719550762	5.192794	2.2787702
7.761518655310149	5.218715	2.2844508
7.779085773754511	5.232156	2.2873907
7.796653075302419	5.205968	2.2816591
7.814220560372475	5.1962166	2.2795212
7.831788229383323	5.2392077	2.2889316
7.8493560827536495	5.2501917	2.2913296
7.866924120902174	5.2615995	2.2938178
7.884492344247663	5.2499776	2.291283
7.9020607532089135	5.2750187	2.2967408
7.919629348204771	5.221924	2.285153
7.937198129654115	5.2269487	2.286252
7.954767097975865	5.217278	2.284136
7.972336253588986	5.2325616	2.2874794
7.989905596912472	5.198595	2.280043
8.007475128365371	5.240398	2.2891915
8.025044848366756	5.2728896	2.2962773
8.042614757335754	5.474084	2.3396761
8.060184855691523	5.559583	2.3578768
8.07775514385327	5.7874947	2.4057212
8.095325622240228	5.8130684	2.4110305
8.112896291271687	5.770467	2.4021795
8.130467151366968	5.764601	2.4009583
8.148038202945436	5.771811	2.4024594
8.165609446426497	5.857064	2.4201372
8.183180882229594	5.945773	2.4383955
8.200752510774217	5.9853888	2.4465053
8.218324332479893	5.9809794	2.445604
8.235896347766193	5.876322	2.4241126
8.253468557052724	5.8407607	2.4167666
8.27104096075914	5.8158717	2.4116118
8.288613559305137	5.909926	2.4310338
8.306186353110448	6.037928	2.4572196
8.32375934259485	6.112142	2.4722748
8.341332528178162	6.0731616	2.4643786
8.358905910280246	6.0631204	2.4623404
8.376479489321003	6.112026	2.4722512
8.394053265720377	6.1923995	2.4884531
8.411627239898356	6.230906	2.4961784
8.42920141227497	6.1154413	2.4729419
8.44677578327029	6.048156	2.4592998
8.464350353304427	6.0189743	2.4533598
8.48192512279754	6.0449104	2.4586399
8.499500092169827	6.0424595	2.4581416
8.51707526184153	6.0337324	2.4563656
8.534650632232934	6.1165304	2.473162
8.552226203764365	6.1587725	2.4816873
8.569801976856192	6.1853	2.4870262
8.587377951928834	6.1928387	2.4885414
8.60495412940274	6.2036	2.4907026
8.622530509698416	6.177741	2.4855063
8.6401070932364	6.2451577	2.4990313
8.657683880437283	6.3828645	2.5264332
8.675260871721695	6.6309714	2.5750673
8.692838067510303	6.7735963	2.6026134
8.710415468223834	6.8257656	2.6126165
8.727993074283043	6.9239154	2.6313334
8.745570886108737	6.88124	2.6232119
8.763148904121765	6.9845123	2.6428227
8.78072712874302	7.030622	2.651532
8.798305560393441	7.2204165	2.6870832
8.815884199494006	7.3259273	2.706645
8.833463046465745	7.483552	2.735608
8.851042101729728	7.653506	2.7664971
8.86862136570707	8.038251	2.835181
8.886200838818924	8.227551	2.8683708
8.903780521486505	8.355284	2.8905509
8.921360414131055	8.403995	2.8989644
8.938940517173874	8.529554	2.92054
8.956520831036297	8.636512	2.9387944
8.97410135613971	8.889977	2.9816065
8.99168209290554	9.103176	3.017147
9.009263041755265	9.379989	3.0626767
9.026844203110405	9.586652	3.096232
9.044425577392525	9.738515	3.1206594
9.062007165023239	9.741354	3.1211143
9.079588966424197	10.06571	3.1726503
9.097170982017108	10.099442	3.1779618
9.11475321222372	11.083187	3.329142
9.132335657465825	11.842145	3.4412417
9.149918318165264	12.017473	3.4666228
9.167501194743924	12.56937	3.5453308
9.18508428762374	12.205118	3.4935825
9.202667597226693	12.216053	3.495147
9.220251123974803	11.914058	3.4516747
9.237834868290143	11.654081	3.4138074
9.255418830594836	11.525681	3.3949492
9.273003011311046	10.9965	3.316097
9.290587410860985	10.784849	3.2840295
9.308172029666911	10.144188	3.1849942
9.32575686815113	9.862923	3.1405292
9.343341926735997	8.589835	2.9308422
9.360927205843916	8.34195	2.8882434
9.378512705897327	8.197863	2.863191
9.396098427318728	8.027631	2.8333075
9.413684370530664	7.935162	2.816942
9.431270535955722	7.7763753	2.7886152
9.448856924016539	7.710476	2.7767744
9.466443535135806	7.5664306	2.7507145
9.484030369736251	7.527324	2.743597
9.501617428240658	7.4865966	2.7361646
9.519204711071852	7.573043	2.7519162
9.536792218652714	7.692357	2.77351
9.55437995140617	7.7764063	2.788621
9.571967909755191	7.740923	2.7822514
9.589556094122802	7.6912193	2.7733047
9.60714450493207	7.6652093	2.7686114
9.624733142606116	7.69123	2.7733066
9.642322007568108	7.712188	2.7770827
9.659911100241267	7.6857123	2.7723117
9.677500421048851	7.707074	2.7761617
9.695089970414175	7.827645	2.797793
9.712679748760609	7.9671297	2.8226104
9.730269756511557	8.029978	2.8337216
9.747859994090492	8.009556	2.8301158
9.765450461920915	7.9805794	2.824992
9.78304116042639	7.980023	2.8248935
9.800632090030527	8.023608	2.8325975
9.81822325115699	8.053213	2.8378184
9.835814644229481	8.089033	2.8441226
9.853406269671762	8.10083	2.8461957
9.870998127907646	8.163993	2.8572702
9.888590219360985	8.249133	2.8721304
9.906182544455698	8.321818	2.884756
9.923775103615734	8.300739	2.8811004
9.941367897265108	8.240038	2.8705466
9.958960925827878	8.17394	2.8590102
9.97655418972816	8.165558	2.857544
9.994147689390106	8.181793	2.8603835
10.011741425237934	8.199342	2.8634493
10.029335397695904	8.198381	2.8632815
10.04692960718833	8.109284	2.8476806
10.06452405413958	8.105387	2.846996
10.082118738974064	8.111351	2.8480434
10.099713662116246	8.171054	2.8585055
10.117308823990651	8.206886	2.8647664
10.134904225021844	8.079107	2.842377
10.152499865634445	7.9604573	2.8214283
10.170095746253125	7.906936	2.8119276
10.18769186730261	7.978229	2.824576
10.205288229207675	8.055614	2.8382413
10.222884832393145	8.100217	2.846088
10.2404816772839	8.068598	2.8405278
10.258078764304868	7.9659853	2.8224077
10.275676093881035	7.8934393	2.8095264
10.293273666437438	7.8839474	2.8078368
10.310871482399158	7.9745336	2.8239217
10.32846954219134	7.9946156	2.827475
10.346067846239173	8.053178	2.8378122
10.363666394967908	8.010705	2.830319
10.38126518880283	7.9880204	2.8263087
10.398864228169298	8.056094	2.838326
10.416463513492713	8.108184	2.8474872
10.434063045198531	8.111422	2.8480558
10.451662823712262	8.115943	2.8488493
10.469262849459467	8.003815	2.8291013
10.486863122865758	8.019697	2.831907
10.504463644356806	8.055198	2.838168
10.522064414358338	8.02215	2.83234
10.539665433296118	7.950672	2.8196936
10.557266701595987	7.800332	2.7929075
10.574868219683818	7.7011704	2.7750983
10.592469987985552	7.584355	2.7539709
10.610072006927185	7.4868016	2.736202
10.627674276934751	7.4173636	2.7234838
10.64527679843435	7.3053765	2.702846
10.662879571852143	7.2286124	2.688608
10.680482597614331	7.12651	2.6695523
10.698085876147173	7.017834	2.6491196
10.715689407876988	6.925722	2.6316767
10.733293193230146	6.8317213	2.6137562
10.750897232633072	6.763549	2.6006825
10.76850152651225	6.6044364	2.5699098
10.786106075294207	6.4685264	2.5433297
10.803710879405534	6.382934	2.5264468
10.821315939272877	6.3286743	2.5156856
10.83892125532294	6.333395	2.5166237
10.856526827982472	6.195854	2.4891472
10.874132657678285	6.1385236	2.4776044
10.891738744837243	6.041639	2.4579744
10.909345089886271	6.0097084	2.4514706
10.926951693252343	5.9375515	2.4367092
10.944558555362494	5.8976097	2.4284995
10.96216567664381	5.812857	2.4109867
10.979773057523436	5.769433	2.4019644
10.997380698428573	5.725771	2.3928583
11.014988599786477	5.7416654	2.3961773
11.032596762024461	5.682722	2.383846
11.050205185569892	5.631535	2.3730855
11.067813870850198	5.5287085	2.3513205
11.085422818292859	5.4947596	2.3440905
11.10303202832541	5.4155264	2.3271284
11.120641501375454	5.370645	2.3174653
11.138251237870636	5.278329	2.2974615
11.155861238238671	5.1593103	2.2714114
11.173471502907317	5.090984	2.256321
11.191082032304402	5.015027	2.2394257
11.208692826857805	4.9531116	2.2255588
11.226303886995465	4.913028	2.216535
11.243915213145371	4.9055505	2.2148478
11.261526805735578	4.8944836	2.212348
11.279138665194196	4.859973	2.2045345
11.296750791949393	4.802751	2.191518
11.314363186429393	4.7273464	2.174246
11.331975849062479	4.6595926	2.158609
11.34958878027699	4.5736203	2.1386025
11.36720198050133	4.5722647	2.1382854
11.384815450163948	4.5525484	2.13367
11.402429189693366	4.5178714	2.1255286
11.420043199518153	4.389249	2.0950534
11.437657480066942	63.337917	7.9585123
11.455272031768422	85.03435	9.221407
11.472886855051353	107.453926	10.365998
11.490501950344528	99.02808	9.951285
11.508117318076819	84.39011	9.186409
11.52573295867715	45.797592	6.7673917
11.543348872574514	4.086553	2.0215225
11.560965060197946	4.0308495	2.0076976
11.57858152197655	4.031283	2.0078056
11.59619825833949	4.0540357	2.0134635
11.613815269715985	4.0258	2.0064397
11.631432556535323	38.53734	6.2078447
11.649050119226837	82.97762	9.109205
11.666667958219929	93.34362	9.66145
11.68428607394406	107.574326	10.371804
11.701904466828756	82.45623	9.080542
11.719523137303586	65.34095	8.083375
11.737142085798196	4.6274743	2.1511564
11.754761312742286	3.7384722	1.9335129
11.772380818565619	3.67448	1.9168934
11.790000603698015	3.6470437	1.9097235
11.80762066856935	3.6144462	1.9011697
11.825241013609572	3.5686803	1.8890951
11.842861639248683	3.4863465	1.867176
11.860482545916748	3.4452188	1.85613
11.878103734043883	3.4130545	1.8474454
11.895725204060282	3.3681986	1.8352653
11.91334695639619	3.3025072	1.8172802
11.930968991481919	3.2890532	1.8135747
11.948591309747824	3.2889454	1.813545
11.966213911624347	3.2937891	1.8148799
11.98383679754198	3.304277	1.817767
12.001459967931268	3.263042	1.8063892
12.019083423222835	3.1910303	1.7863455
12.036707163847352	3.1405382	1.7721564
12.05433119023556	3.138702	1.7716382
12.071955502818259	3.1488717	1.7745061
12.089580102026313	3.1249783	1.7677609
12.107204988290643	3.1162474	1.7652897
12.12483016204224	3.0840697	1.7561519
12.142455623712152	3.1037588	1.7617488
12.16008137373149	3.0985785	1.760278
12.177707412531431	3.0934794	1.758829
12.19533374054321	3.060299	1.749371
12.212960358198126	3.035484	1.742264
12.230587265927545	3.0000534	1.7320663
12.248214464162889	2.9625964	1.7212194
12.265841953335649	2.9223611	1.7094915
12.283469733877375	2.9394615	1.7144858
12.301097806219685	2.9467745	1.7166171
12.31872617079425	2.9567728	1.7195269
12.336354828032825	2.9384356	1.7141865
12.353983778367205	2.935475	1.7133229
12.371613022229262	2.9159167	1.7076055
12.389242560050928	2.888623	1.699595
12.406872392264201	2.8291929	1.6820204
12.424502519301143	2.817559	1.6785586
12.442132941593874	2.8201187	1.6793209
12.459763659574586	2.8265252	1.6812273
12.477394673675532	2.8064675	1.6752515
12.49502598432903	2.8040655	1.6745344
12.51265759196746	2.8117409	1.6768247
12.530289497023267	2.837757	1.6845644
12.547921699928967	2.8542786	1.689461
12.565554201117134	2.8207793	1.6795176
12.583187001020404	2.8111355	1.6766441
12.600820100071486	2.7682621	1.6638095
12.618453498703152	2.723548	1.6503175
12.636087197348235	2.6795597	1.6369361
12.65372119643964	2.699617	1.6430511
12.671355496410326	2.7148666	1.6476853
12.68899009769333	2.782777	1.6681658
12.706625000721749	2.8272555	1.6814444
12.724260205928752	2.8938923	1.7011445
12.741895713747551	2.892183	1.700642
12.759531524611454	2.9132085	1.7068124
12.777167638953818	2.9002633	1.7030159
12.794804057208072	2.9012105	1.703294
12.812440779807702	2.936221	1.7135404
12.830077807186271	3.092915	1.7586685
12.847715139777405	3.1805491	1.7834094
12.865352778014795	3.3742454	1.8369119
12.882990722332197	3.4912322	1.8684839
12.90062897316344	3.5331385	1.8796644
12.918267530942412	3.593556	1.8956677
12.935906396103071	3.500997	1.8710952
12.953545569079449	3.643459	1.9087847
12.971185050305628	3.521341	1.8765236
12.988824840215775	3.544207	1.8826065
13.006464939244115	3.5659254	1.8883657
13.024105347824943	3.3723412	1.8363935
13.041746066392617	3.4018958	1.8444229
13.05938709538157	3.1969059	1.7879894
13.077028435226296	3.2634401	1.8064994
13.094670086361363	3.24393	1.8010913
13.112312049221401	3.1818278	1.7837678
13.129954324241112	3.0674498	1.7514137
13.147596911855258	2.8455884	1.6868873
13.165239812498685	2.7839434	1.6685153
13.182883026606293	2.737305	1.6544802
13.200526554613058	2.7279205	1.6516417
13.218170396954017	2.7450728	1.6568261
13.235814554064284	2.7421532	1.6559448
13.253459026379034	2.7502139	1.6583769
13.271103814333523	2.677106	1.6361864
13.288748918363058	2.6601732	1.6310037
13.306394338903031	2.603482	1.6135309
13.32404007638889	2.575695	1.6048973
13.341686131256164	2.6408865	1.6250805
13.359332503940449	2.644448	1.6261759
13.376979194877402	2.6843057	1.638385
13.394626204502751	2.7030737	1.6441027
13.412273533252307	2.684174	1.6383449
13.429921181561937	2.6775036	1.636308
13.447569149867581	2.6853979	1.6387184
13.465217438605247	2.702808	1.6440219
13.482866048211022	2.6580794	1.6303617
13.500514979121052	2.6714084	1.6344444
13.518164231771568	2.6518152	1.6284395
13.535813806598844	2.635007	1.6232704
13.553463704039254	2.5937855	1.6105233
13.571113924529229	2.6039596	1.6136789
13.588764468505275	2.6710424	1.6343324
13.606415336403956	2.71018	1.6462624
13.624066528661917	2.7241883	1.6505115
13.641718045715882	2.778688	1.6669397
13.659369888002635	2.836293	1.6841297
13.67702205595903	2.9249175	1.710239
13.694674550021993	2.967155	1.7225431
13.712327370628532	3.0112464	1.7352943
13.729980518215713	3.0711544	1.752471
13.747633993220681	3.1157167	1.7651393
13.765287796080647	3.1717193	1.7809322
13.7829419272329	3.2007296	1.7890583
13.800596387114801	3.2526963	1.8035233
13.818251176163775	3.319899	1.822059
13.835906294817324	3.3516676	1.8307561
13.853561743513023	3.395946	1.8428093
13.871217522688525	3.4480758	1.8568995
13.888873632781538	3.470114	1.8628242
13.906530074229858	3.5167625	1.8753033
13.92418684747135	3.5384002	1.8810636
13.941843952943948	3.5061579	1.8724737
13.959501391085665	3.4865463	1.8672296
13.977159162334578	3.369947	1.8357415
13.994817267128846	3.3142788	1.8205161
14.012475705906693	3.2101483	1.7916887
14.030134479106424	3.1517935	1.7753291
14.047793587166414	3.0835297	1.7559983
14.065453030525108	3.033408	1.7416681
14.083112809621026	2.9665184	1.7223583
14.100772924892766	2.9367547	1.7136962
14.118433376778997	2.913187	1.7068061
14.136094165718458	2.8635578	1.6922051
14.153755292149969	2.8074806	1.6755538
14.171416756512416	2.704744	1.6446106
14.189078559244768	2.6001008	1.6124828
14.20674070078606	2.5244515	1.5888523
14.224403181575408	2.4502726	1.5653347
14.242066002051999	2.4346945	1.5603508
14.259729162655093	2.4287794	1.5584542
14.277392663824022	2.445082	1.5636758
14.295056505998208	2.4278364	1.5581516
14.312720689617128	2.3933263	1.547038
14.330385215120348	2.3772035	1.5418183
14.348050082947497	2.408335	1.5518811
14.3657152935383	2.410944	1.5527215
14.383380847332528	2.4153407	1.5541366
14.401046744770051	2.4030328	1.5501719
14.418712986290798	2.354784	1.5345305
14.436379572334793	2.3635802	1.5373939
14.454046503342123	2.3378832	1.5290138
14.471713779752946	2.3564699	1.5350797
14.489381402007504	2.343371	1.5308073
14.507049370546113	2.3321419	1.5271351
14.524717685809168	2.3335733	1.5276037
14.542386348237134	2.3645928	1.5377233
14.560055358270553	2.3820498	1.5433891
14.577724716350051	2.3832994	1.5437938
14.595394422916325	2.3637953	1.5374639
14.61306447841015	2.3565195	1.5350959
14.63073488327237	2.371461	1.5399549
14.648405637943917	2.3856	1.5445387
14.6660767428658	2.4066167	1.5513273
14.683748198479094	2.424602	1.5571134
14.701420005224954	2.4779813	1.5741605
14.719092163544628	2.5192337	1.5872095
14.73676467387942	2.603817	1.6136347
14.754437536670727	2.6540465	1.6291245
14.772110752360014	2.6554704	1.6295614
14.78978432138882	2.6363702	1.6236902
14.807458244198777	2.6304939	1.6218797
14.82513252123159	2.601109	1.6127954
14.842807152929028	2.6345153	1.623119
14.860482139732962	2.6308782	1.6219982
14.87815748208531	2.6220002	1.6192591
14.8958331804281	2.643377	1.6258466
14.91350923520342	2.6279626	1.6210992
14.931185646853438	2.6558294	1.6296716
14.948862415820408	2.6194282	1.6184647
14.966539542546656	2.6391113	1.6245341
14.98421702747459	2.6240692	1.619898
15.001894871046696	2.6541867	1.6291674
15.019573073705542	2.649956	1.6278685
15.037251635893766	2.6255083	1.620342
15.054930558054092	2.658636	1.6305325
15.072609840629323	2.7297468	1.6521945
15.090289484062351	2.8162088	1.6781564
15.107969488796124	2.9641452	1.7216693
15.125649855273691	3.1301749	1.76923
15.14333058393817	3.5088844	1.8732016
15.161011675232768	4.070293	2.0174966
15.17869312960076	4.7343326	2.175852
15.196374947485506	5.420237	2.3281403
15.214057129330447	6.748939	2.597872
15.231739675579114	8.921654	2.9869137
15.249422586675102	13.372175	3.6567986
15.267105863062092	17.764164	4.2147555
15.284789505183847	24.716795	4.9715986
15.302473513484218	29.381454	5.4204664
15.320157888407127	33.31709	5.7720957
15.337842630396578	32.29408	5.682788
15.355527739896656	29.694748	5.449289
15.37321321735153	23.29871	4.826874
15.39089906320545	15.999737	3.999967
15.408585277902748	10.30865	3.2107086
15.42627186188783	6.3684106	2.523571
15.443958815605198	4.55933	2.1352587
15.461646139499424	3.7610896	1.9393529
15.479333834015168	3.3836265	1.8394636
15.497021899597165	3.091659	1.7583114
15.514710336690234	2.8578756	1.6905253
15.53239914573928	2.6874647	1.6393489
15.550088327189297	2.561246	1.6003894
15.567777881485336	2.5190575	1.5871539
15.58546780907256	2.4946625	1.57945
15.6031581103962	2.499685	1.5810392
15.620848785901568	2.494797	1.5794927
15.638539836034063	2.4931977	1.5789863
15.656231261239173	2.473935	1.5728747
15.673923061962451	2.4306555	1.5590559
15.691615238649552	2.404276	1.5505728
15.709307791746202	2.3763828	1.5415521
15.727000721698221	2.3673484	1.538619
15.744694028951498	2.391213	1.5463548
15.76238771395202	2.391413	1.5464194
15.780081777145844	2.3985696	1.5487316
15.797776218979125	2.3986413	1.5487548
15.815471039898094	2.374974	1.541095
15.833166240349064	2.3672855	1.5385985
15.850861820778437	2.4032488	1.5502415
15.868557781632699	2.39234	1.5467191
15.886254123358412	2.4127522	1.5533036
15.903950846402232	2.4183295	1.5550979
15.921647951210897	2.4592583	1.5682023
15.939345438231225	2.5070548	1.5833682
15.957043307910133	2.5221488	1.5881275
15.974741560694602	2.513771	1.5854876
15.992440197031714	2.486386	1.5768279
16.01013921736862	2.4860165	1.5767107
16.02783862215259	2.4616163	1.5689539
16.045538411830933	2.4409077	1.5623405
16.06323858685107	2.3867896	1.5449238
16.080939147660512	2.3804	1.5428544
16.09864009470684	2.3698215	1.5394225
16.11634142843774	2.3984716	1.5487
16.134043149300954	2.3954806	1.547734
16.15174525774433	2.4209714	1.5559471
16.169447754215817	2.4417207	1.5626006
16.18715063916342	2.4363358	1.5608766
16.204853913035244	2.4356482	1.5606563
16.222557576279478	2.4540236	1.5665324
16.240261629344403	22.46348	4.7395654
16.257966072678386	43.0299	6.559718
16.275670906729868	38.109993	6.1733294
16.293376131947387	2.5231974	1.5884576
16.31108174877957	2.4833086	1.5758517
16.328787757675133	2.4932854	1.5790141
16.34649415908287	2.543335	1.5947837
16.364200953451657	2.6129565	1.6164643
16.38190814123048	2.6243968	1.619999
16.39961572286839	2.6228628	1.6195254
16.41732369881455	2.657978	1.6303307
16.43503206951817	2.6906931	1.6403333
16.45274083542859	2.679526	1.6369258
16.47044999699522	2.751339	1.6587161
16.488159554667558	2.813343	1.6773024
16.505869508895184	2.8767962	1.6961122
16.523579860127786	2.9054234	1.7045302
16.541290608815117	2.9692543	1.7231524
16.559001755407035	3.0478892	1.7458205
16.57671330035348	3.1018732	1.7612135
16.59442524410448	3.2098284	1.7915994
16.61213758711015	3.398674	1.8435493
16.629850329820705	3.4685428	1.8624024
16.647563472686436	3.4740438	1.8638787
16.665277016157724	3.4108088	1.8468375
16.682990960685053	3.394733	1.8424801
16.70070530671898	3.3801897	1.8385292
16.718420054710155	3.3971133	1.8431259
16.736135205109335	3.4723547	1.8634255
16.753850758367335	3.5398319	1.8814441
16.771566714935087	3.5911188	1.8950248
16.789283075263597	3.6740131	1.9167715
16.80699983980398	3.7780147	1.9437115
16.82471700900741	3.8431716	1.9604008
16.84243458332518	3.9085236	1.9769986
16.860152563208665	3.9236312	1.9808158
16.87787094910932	3.9554675	1.9888357
16.89558974147871	3.977663	1.9944079
16.913308940768466	4.0850043	2.0211394
16.931028547430333	4.1659474	2.0410652
16.94874856191613	4.2486067	2.061215
16.966468984677785	4.30004	2.0736537
16.98418981616729	4.296682	2.072844
17.00191105683676	4.293344	2.0720387
17.019632707138374	4.2816033	2.0692036
17.03735476752442	4.325154	2.0797005
17.05507723844728	4.3745437	2.091541
17.072800120359403	4.4738193	2.1151404
17.090523413713353	4.511859	2.1241138
17.108247118961785	4.5350695	2.1295702
17.125971236557437	4.526149	2.1274748
17.143695766953133	4.533539	2.129211
17.161420710601806	4.5523915	2.1336334
17.179146067956477	4.581502	2.1404443
17.19687183947025	4.6205883	2.1495554
17.21459802559634	4.6662498	2.1601503
17.232324626788028	4.6395082	2.153952
17.25005164349871	4.571142	2.138023
17.267779076181863	4.515149	2.124888
17.285506925291074	4.5077524	2.1231468
17.30323519127999	4.4756637	2.1155765
17.320963874602384	4.437946	2.1066432
17.33869297571211	4.4029636	2.098324
17.356422495063114	4.386784	2.094465
17.37415243310944	4.4056187	2.0989566
17.391882790305218	4.473384	2.1150377
17.40961356710468	4.498852	2.1210496
17.42734476396215	4.5254345	2.127307
17.445076381332044	4.5506697	2.13323
17.462808419668868	4.555521	2.1343668
17.48054087942723	4.6735034	2.1618288
17.498273761061835	4.820614	2.1955895
17.51600706502747	5.1379037	2.2666945
17.533740791779024	5.697984	2.3870451
17.551474941771485	6.5798917	2.56513
17.56920951545993	8.441754	2.9054697
17.586944513299528	9.707093	3.1156209
17.60467993574556	12.472483	3.5316403
17.622415783253373	15.089537	3.8845253
17.64015205627843	17.786299	4.2173805
17.657888755276293	20.02474	4.474901
17.675625880702604	21.442848	4.6306424
17.69336343301311	19.979687	4.4698644
17.71110141266366	18.040148	4.2473693
17.728839820110178	15.402345	3.924582
17.746578655808705	12.3118105	3.5088189
17.764317920215372	10.161562	3.1877205
17.7820576137864	8.470967	2.9104927
17.79979773697811	7.1592717	2.6756816
17.81753829024692	5.9205637	2.4332209
17.835279274049356	5.1402984	2.2672226
17.85302068884201	4.4333544	2.1055532
17.870762535081607	4.068772	2.0171196
17.888504813224934	3.880188	1.9698193
17.90624752372891	3.7080486	1.9256294
17.923990667050536	3.6085994	1.8996314
17.941734243646895	3.5417883	1.881964
17.959478253975185	3.5118854	1.8740025
17.9772226984927	3.4347982	1.8533208
17.994967577656833	3.397952	1.8433535
18.01271289192506	3.3700442	1.835768
18.030458641754965	3.3513918	1.8306807
18.04820482760425	3.2880247	1.8132911
18.06595144993067	3.2260766	1.7961283
18.083698509192125	3.2185524	1.7940325
18.101446005846576	3.212853	1.7924433
18.119193940352105	3.1923301	1.7867093
18.136942313166887	3.1405325	1.7721548
18.1546911247492	3.119447	1.7661957
18.1724403755574	3.1103742	1.7636253
18.19019006604997	3.1300986	1.7692084
18.207940196685467	3.12465	1.767668
18.225690767922575	3.0913894	1.7582347
18.243441780220046	3.0771363	1.7541769
18.261193234036764	3.0585556	1.7488726
18.278945129831676	2.980343	1.726367
18.29669746806386	2.9513867	1.71796
18.314450249192483	2.9393191	1.7144443
18.3322034736768	2.9926732	1.7299345
18.349957141976184	3.0081975	1.7344157
18.3677112545501	3.0292363	1.7404702
18.385465811858108	3.0199177	1.7377911
18.403220814359884	3.0419364	1.7441148
18.420976262515172	3.0854635	1.7565488
18.43873215678387	3.1028337	1.7614863
18.456488497625923	3.1234555	1.76733
18.474245285501407	3.195864	1.7876979
18.492002520870486	3.251861	1.8032918
18.50976020419343	3.2961483	1.8155297
18.527518335930615	3.5683677	1.8890123
18.545276916542516	4.1035314	2.0257175
18.563035946489688	4.282383	2.069392
18.580795426232832	4.775646	2.1853251
18.598555356232698	4.668845	2.160751
18.616315736950185	4.9514947	2.2251954
18.63407656884626	4.5929866	2.1431255
18.65183785238201	4.7682614	2.183635
18.669599588018617	4.611332	2.147401
18.68736177621737	4.5960183	2.1438327
18.705124417439652	4.596527	2.1439512
18.72288751214696	4.394425	2.0962884
18.740651060800886	4.586981	2.1417239
18.758415063863115	4.303017	2.0743716
18.77617952179546	4.454001	2.1104505
18.793944435059814	4.2145185	2.0529292
18.811709804118184	4.246943	2.0608113
18.829475629432675	4.1925006	2.0475597
18.8472419114655	3.9155173	1.9787666
18.86500865067897	3.9738648	1.9934555
18.88277584753551	3.6634514	1.9140145
18.90054350249763	3.7559972	1.9380395
18.918311616027957	3.4555862	1.8589207
18.936080188589226	3.357678	1.8323967
18.953849220644265	3.0415728	1.7440106
18.971618712656007	2.8799138	1.6970309
18.9893886650875	2.8135078	1.6773515
19.007159078401887	8.004159	2.8291621
19.024929953062408	32.860477	5.732406
19.042701289532435	32.79398	5.726603
19.060473088275405	25.308456	5.030751
19.07824534975489	2.6052973	1.6140933
19.096018074434568	2.5965166	1.611371
19.113791262778197	2.5810645	1.6065692
19.13156491524966	2.5724325	1.6038804
19.149339032312945	2.5675094	1.602345
19.167113614432136	2.52551	1.5891854
19.184888662071433	2.5122125	1.5849961
19.202664175695123	2.5146255	1.5857571
19.220440155767623	2.4875257	1.5771892
19.238216602753447	2.4515667	1.565748
19.2559935171172	2.4571598	1.567533
19.27377089932361	2.4848623	1.5763446
19.291548749837514	2.5107968	1.5845494
19.309327069123835	2.496301	1.5799687
19.32710585764763	2.4613602	1.5688723
19.344885115874032	2.455134	1.5668867
19.362664844268313	2.4863186	1.5768064
19.380445043295822	2.4939606	1.5792278
19.39822571342203	2.4830494	1.5757694
19.41600685511252	2.4749594	1.5732003
19.43378846883297	2.4636939	1.5696158
19.451570555049173	2.465732	1.5702649
19.469353114227037	2.4640548	1.5697308
19.48713614683254	2.4634595	1.5695412
19.50491965333182	2.4649336	1.5700107
19.52270363419109	2.4372888	1.5611819
19.540488089876686	2.4182942	1.5550866
19.55827302085503	2.403538	1.5503348
19.576058427592674	2.410238	1.5524942
19.593844310556282	2.4235148	1.5567642
19.611630670212598	2.448844	1.5648782
19.629417507028506	2.4515576	1.5657451
19.64720482147098	2.4451728	1.5637048
19.6649926140071	2.4330883	1.559836
19.682780885104084	2.4402204	1.5621204
19.70056963522921	2.4583066	1.5678988
19.718358864849908	2.4669719	1.5706596
19.7361485744337	2.4634123	1.5695261
19.753938764448215	2.4323845	1.5596104
19.771729435361202	2.4378803	1.5613713
19.789520587640506	2.4468412	1.5642382
19.807312221754092	2.48658	1.5768893
19.825104338170043	2.5012543	1.5815355
19.842896937356517	2.5061421	1.5830799
19.860690019781824	2.5247674	1.5889517
19.87848358591436	2.4936082	1.5791162
19.896277636222635	2.4743805	1.5730164
19.914072171175278	2.4206533	1.5558449
19.931867191241015	2.449003	1.564929
19.94966269688869	2.456136	1.5672064
19.967458688587264	2.4458923	1.5639349
19.985255166805807	2.4137573	1.5536271
20.00305213201348	2.3829703	1.5436872
20.020849584679578	2.4020817	1.5498651
20.038647525273507	2.4520895	1.5659149
20.05644595426477	2.4790173	1.5744895
20.07424487212299	2.4521494	1.5659341
20.092044279317903	2.4022367	1.5499151
20.109844176319353	2.4068418	1.5514
20.127644563597304	2.4069848	1.5514461
20.145445441621817	2.4045303	1.5506548
20.16324681086307	2.3706691	1.5396978
20.181048671791373	2.3608665	1.5365112
20.198851024877122	2.3636014	1.5374008
20.216653870590836	2.3579466	1.5355607
20.234457209403146	2.3413184	1.5301367
20.252261041784802	2.3400576	1.5297247
20.270065368206662	2.3583748	1.5357001
20.287870189139685	2.3930266	1.546941
20.305675505054968	2.3814924	1.5432085
20.323481316423702	2.373436	1.540596
20.341287623717207	2.3297813	1.5263621
20.359094427406884	2.3172338	1.5222462
20.376901727964288	2.3110926	1.5202278
20.39470952586107	2.3184552	1.5226474
20.41251782156899	2.3005922	1.5167704
20.430326615559935	2.3232946	1.5242357
20.448135908305886	2.3258164	1.5250628
20.465945700278965	2.3282073	1.5258464
20.483755991951384	2.2950432	1.51494
20.50156678379548	2.2709422	1.5069646
20.519378076283708	2.2724528	1.5074657
20.537189869888635	2.3060348	1.5185634
20.55500216508294	2.3394537	1.5295273
20.572814962339415	2.3312583	1.5268458
20.59062826213098	2.327984	1.5257733
20.60844206493066	2.3401775	1.5297639
20.626256371211593	2.3843489	1.5441337
20.644071181447032	2.392537	1.5467829
20.66188649611036	2.3313706	1.5268826
20.67970231567506	2.293926	1.5145712
20.697518640614742	2.262896	1.5042925
20.715335471403122	2.2304347	1.493464
20.73315280851404	2.2306798	1.493546
20.750970652421447	2.255374	1.5017903
20.768789003599412	2.3028748	1.5175226
20.786607862522136	2.2566416	1.5022123
20.8044272296639	2.2056687	1.4851494
20.82224710549913	2.2196357	1.4898442
20.84006749050237	2.279341	1.5097487
20.857888385148268	3.8953464	1.9736632
20.8757097899116	45.970356	6.780144
20.893531705267254	64.77983	8.048592
20.911354131690224	83.78211	9.153257
20.92917706965566	69.07181	8.3109455
20.94700051963877	50.174015	7.0833616
20.96482448211493	29.440742	5.4259324
20.982648957559622	4.157971	2.0391104
21.00047394644843	2.2435837	1.4978597
21.01829944925707	2.2282445	1.4927306
21.036125466461375	2.2447414	1.4982461
21.053951998537297	2.229832	1.4932622
21.071779045960906	2.2197776	1.4898918
21.089606609208378	2.1905744	1.4800589
21.10743468875603	2.1847076	1.4780756
21.12526328508028	2.188451	1.4793414
21.143092398657675	2.197339	1.4823425
21.16092202996488	2.1993437	1.4830184
21.17875217947867	2.2104547	1.4867598
21.19658284767596	2.1699812	1.4730856
21.21441403503377	2.1381857	1.4622537
21.232245742029225	2.1024542	1.4499842
21.2500779691396	2.1078815	1.4518545
21.26791071684227	2.1721125	1.4738089
21.28574398561475	2.1923645	1.4806635
21.30357777593465	2.1523914	1.4671031
21.321412088279704	2.0973635	1.4482276
21.339246923127792	2.0950067	1.4474138
21.357082280956888	2.1489193	1.4659193
21.3749181622451	2.159819	1.4696323
21.392754567470647	2.1190562	1.4556979
21.41059149711187	2.1035233	1.4503528
21.42842895164726	2.1073883	1.4516846
21.446266931555378	2.1135447	1.4538035
21.464105437314945	2.0978065	1.4483806
21.481944469404798	2.1125143	1.4534491
21.49978402830388	2.1169817	1.4549851
21.51762411449127	2.0759447	1.4408139
21.53546472844617	2.0405204	1.4284679
21.553305870647876	2.0121317	1.4184963
21.571147541575865	2.0151534	1.419561
21.58898974170967	1.9748926	1.4053087
21.60683247152899	1.9912488	1.4111161
21.62467573151363	2.0233874	1.4224583
21.642519522143523	2.079907	1.4421883
21.660363843898722	2.1010735	1.4495081
21.6782086972594	2.0856454	1.4441764
21.696054082705864	2.0441616	1.4297417
21.713900000718535	2.01209	1.4184816
21.73174645177795	1.9615622	1.4005578
21.749593436364794	1.9523107	1.3972511
21.767440954959845	1.9741889	1.4050584
21.785289008044032	2.026351	1.4234996
21.803137596098388	2.0265539	1.4235709
21.820986719604086	1.9884408	1.4101208
21.838836379042412	1.9549639	1.3982003
21.85668657489478	1.9404794	1.3930109
21.87453730764273	1.9706725	1.4038064
21.892388577767914	1.9934903	1.4119102
21.91024038575213	1.9898463	1.4106191
21.928092732077285	2.00663	1.4165556
21.945945617225426	1.9998182	1.4141493
21.963799041678694	2.0161955	1.419928
21.981653005919398	31.34028	5.598239
21.999507510429943	78.13936	8.839647
22.01736255569286	73.067924	8.547977
22.035218142190818	4.164931	2.0408163
22.05307427040661	1.996492	1.4129728
22.07093094082315	2.0043008	1.4157333
22.088788153923474	1.9748833	1.4053054
22.106645910190746	1.9469966	1.3953482
22.12450421010827	1.9262199	1.3878833
22.142363054159464	1.9417338	1.3934611
22.16022244282787	1.9609694	1.4003462
22.178082376597164	1.9683887	1.4029927
22.195942855951145	1.9573202	1.3990426
22.213803881373742	1.9488096	1.3959978
22.231665453349002	1.9462876	1.3950942
22.24952757236111	1.9383905	1.3922609
22.26739023889438	1.9363	1.39151
22.28525345343323	1.9302126	1.389321
22.30311721646225	1.9278219	1.3884603
22.320981528466113	1.9695053	1.4033906
22.33884638992964	1.9812496	1.4075687
22.356711801337788	1.939671	1.3927207
22.37457776317561	1.9311054	1.3896421
22.392444275928337	1.9344827	1.3908569
22.410311340081282	1.9416184	1.3934197
22.428178956119904	1.9289528	1.3888675
22.446047124529805	1.9417871	1.3934802
22.46391584579669	1.9446477	1.3945062
22.481785120406414	1.9128847	1.3830707
22.49965494884496	1.8850985	1.3729888
22.51752533159841	1.8928748	1.3758179
22.53539626915302	1.9359934	1.3913999
22.553267761995137	1.9437221	1.3941743
22.571139810611264	1.9375868	1.3919723
22.589012415488025	1.9342067	1.3907576
22.60688557711216	1.9308423	1.3895475
22.624759295970566	1.944193	1.3943433
22.642633572550263	1.9558595	1.3985205
22.660508407338362	1.9479254	1.395681
22.67838380082217	1.9355153	1.391228
22.696259753489077	1.9293617	1.3890146
22.714136265826614	1.9230589	1.386744
22.73201333832246	1.9214587	1.3861669
22.74989097146439	1.9595925	1.3998544
22.76776916574035	1.9679215	1.4028263
22.785647921638393	1.9454974	1.3948109
22.803527239646712	1.874316	1.3690566
22.82140712025363	1.8426696	1.3574497
22.839287563947593	1.8514633	1.3606849
22.85716857121719	1.876866	1.3699876
22.875050142551135	1.8858676	1.373269
22.892932278438277	1.9002177	1.3784838
22.910814979367604	1.905091	1.3802503
22.928698245828222	1.8931206	1.3759072
22.946582078309387	1.8834474	1.3723875
22.96446647730047	1.8755522	1.369508
22.98235144329098	1.8633323	1.3650393
23.000236976770562	1.8782778	1.3705027
23.018123078229	1.8928971	1.375826
23.03600974815619	1.9107262	1.3822902
23.053896987042194	1.897644	1.37755
23.071784795377173	1.8801521	1.3711864
23.08967317365145	1.8883773	1.3741825
23.10756212235546	1.9044516	1.3800187
23.125451641979787	1.8689317	1.3670888
23.143341733015134	1.8780415	1.3704165
23.161232395952357	1.9097915	1.381952
23.179123631282426	1.9303861	1.3893833
23.197015439496468	1.9198413	1.3855834
23.214907821085717	1.9275014	1.3883449
23.23280077654157	1.9619522	1.400697
23.250694306355538	1.9680729	1.4028802
23.268588411019277	1.9311987	1.3896757
23.28648309102458	1.8959945	1.3769512
23.304378346863356	1.8356931	1.3548775
23.322274179027676	1.8470975	1.3590796
23.340170588009723	1.8720111	1.3682146
23.358067574301852	1.9374573	1.3919258
23.37596513839651	1.9512662	1.3968773
23.39386328078629	1.900628	1.3786327
23.411762001963947	1.8211584	1.349503
23.429661302422353	1.8342153	1.3543321
23.4475611826545	1.8726645	1.3684533
23.46546164315356	1.890958	1.3751211
23.48336268441279	1.8840492	1.3726068
23.501264306925638	1.874386	1.3690822
23.51916651118564	1.8971746	1.3773797
23.537069297686497	1.9162394	1.384283
23.554972666922037	1.9571487	1.3989813
23.57287661938623	1.9614509	1.4005181
23.59078115557318	1.9424418	1.3937151
23.608686275977128	1.9522337	1.3972236
23.62659198109246	1.9460802	1.3950198
23.6444982714137	1.911331	1.382509
23.66240514743549	1.8811371	1.3715456
23.68031260965263	1.8643837	1.3654244
23.698220658560068	1.8793002	1.3708757
23.716129294652845	1.8810139	1.3715006
23.7340385184262	1.8777474	1.3703092
23.75194833037546	1.8558124	1.362282
23.769858730996123	1.8656158	1.3658755
23.78776972078382	1.9123747	1.3828864
23.80568130023431	1.9153371	1.383957
23.823593469843495	1.8849512	1.3729353
23.841506230107424	1.848461	1.3595812
23.859419581522275	1.864437	1.3654438
23.87733352458438	1.867934	1.3667238
23.89524805979019	1.8675447	1.3665813
23.913163187636318	1.8387928	1.3560209
23.931078908619508	1.8828069	1.3721541
23.948995223236633	1.9172564	1.3846502
23.966912131984735	1.969474	1.4033794
23.98482963536096	1.9876817	1.4098517
24.002747733862616	1.9878725	1.4099193
24.020666427987155	1.989627	1.4105414
24.038585718232156	2.0144298	1.4193062
24.056505605095353	2.0199971	1.4212661
24.074426089074617	2.051734	1.4323875
24.092347170667946	2.02945	1.4245876
24.110268850373515	2.0587978	1.4348512
24.128191128689586	2.0693922	1.4385382
24.146114006114626	2.0817425	1.4428245
24.164037483147187	2.0503721	1.4319121
24.181961560286005	2.0299819	1.4247743
24.199886238029926	2.0403929	1.4284232
24.21781151687797	2.0369115	1.4272041
24.235737397329274	2.0447192	1.4299368
24.253663879883135	2.0099878	1.4177403
24.271590965038975	2.0097656	1.417662
24.289518653296376	1.9933374	1.411856
24.30744694515505	2.0003088	1.4143227
24.32537584111486	2.0065894	1.4165413
24.34330534167581	2.0801365	1.4422679
24.361235447338046	2.1258953	1.458045
24.379166158601876	2.1010475	1.449499
24.39709747596772	2.0566638	1.4341073
24.41502939993615	2.021315	1.4217296
24.432961931007917	2.0108962	1.4180608
24.450895069683856	1.9767377	1.4059651
24.468828816465	1.9450917	1.3946655
24.4867631718525	1.9484311	1.3958621
24.504698136347656	1.9603009	1.4001075
24.52263371045192	1.9422371	1.3936417
24.540569894666874	1.9130216	1.3831202
24.558506689494266	1.9040679	1.3798797
24.57644409543597	1.8816555	1.3717345
24.594382112994012	1.8845115	1.3727751
24.61232074267057	1.8905007	1.3749548
24.630259984967953	1.9009446	1.3787475
24.64819984038863	1.8957657	1.376868
24.66614030943522	1.9262612	1.3878981
24.684081392610462	1.9299207	1.3892158
24.702023090417274	1.9661208	1.4021844
24.7199654033587	1.9600118	1.4000043
24.737908331937927	2.0025668	1.4151207
24.755851876658305	2.0360816	1.4269133
24.773796038023324	2.0665014	1.4375331
24.79174081653661	2.114209	1.454032
24.809686212701962	2.135486	1.4613302
24.827632227023294	2.1246397	1.4576144
24.8455788600047	2.1280432	1.4587814
24.8635261121504	2.1256418	1.4579581
24.88147398396475	2.0952113	1.4474845
24.899422475952303	2.078003	1.441528
24.917371588617698	2.0848963	1.443917
24.935321322465768	2.1550317	1.4680026
24.953271678001478	2.2659366	1.5053028
24.97122265572994	2.466663	1.5705613
24.989174256156414	2.8401144	1.6852639
25.00712647978632	3.449009	1.8571508
25.02507932712521	4.360798	2.0882523
25.043032798678798	5.7448983	2.3968518
25.060986894952933	7.365123	2.713876
25.078941616453637	8.923607	2.9872408
25.096896963687055	9.843881	3.137496
25.114852937159508	10.562803	3.2500467
25.132809537377444	10.232631	3.1988482
25.150766764847468	9.530317	3.0871212
25.168724620076347	8.244809	2.8713775
25.186683103570985	7.1248055	2.669233
25.204642215838426	5.775055	2.4031343
25.222601957385894	4.693572	2.1664653
25.24056232872074	3.5842938	1.8932232
25.25852333035048	2.838876	1.6848965
25.276484962782778	2.3873196	1.5450953
25.294447226525435	2.221572	1.4904939
25.312410122086423	2.097343	1.4482206
25.330373649973843	2.018302	1.4206696
25.348337810695988	1.9555962	1.3984263
25.366302604761245	1.9283223	1.3886404
25.384268032678207	1.9061354	1.3806286
25.40223409495558	1.9214518	1.3861644
25.420200792102257	1.9028181	1.3794267
25.438168124627246	1.9003968	1.3785489
25.45613609303974	1.9178388	1.3848605
25.474104697849057	1.9421445	1.3936085
25.492073939564698	1.9458112	1.3949233
25.510043818696285	1.921698	1.3862532
25.528014335753614	1.887451	1.3738453
25.54598549124664	1.8720127	1.3682152
25.56395728568544	1.880185	1.3711984
25.58192971958028	1.9109193	1.3823601
25.59990279344156	1.8979677	1.3776674
25.617876507779833	1.882823	1.37216
25.635850863105826	1.8522334	1.3609679
25.653825859930386	1.8723806	1.3683496
25.671801498764548	1.8275346	1.3518634
25.68977778011949	1.805813	1.3438054
25.707754704506524	1.8018882	1.3423443
25.725732272437153	1.8311667	1.3532062
25.743710484423012	1.8456995	1.3585652
25.761689340975888	1.845769	1.3585908
25.77966884260774	1.8336715	1.3541312
25.797648989830662	1.789782	1.3378273
25.815629783156922	1.7827296	1.335189
25.83361122309895	1.8226413	1.3500524
25.85159331016929	1.8472762	1.3591454
25.869576044880695	1.841212	1.3569127
25.887559427746034	1.8385806	1.3559427
25.90554345927836	1.8379464	1.3557088
25.92352813999086	1.8477138	1.3593063
25.94151347039689	1.8361765	1.3550559
25.959499451009965	1.861477	1.3643596
25.97748608234374	1.8545191	1.3618073
25.995473364912062	1.8316252	1.3533754
26.013461299228904	1.7406552	1.3193389
26.03144988580839	1.7456759	1.3212403
26.04943912516483	1.7665905	1.3291315
26.067429017812675	1.7740622	1.3319392
26.085419564266537	1.8039691	1.3431191
26.103410765041186	1.8566859	1.3626026
26.12140262065155	1.8246369	1.3507912
26.139395131612723	1.7765423	1.33287
26.157388298439948	1.7786453	1.3336586
26.17538212164861	1.8348925	1.3545821
26.193376601754295	1.820046	1.3490908
26.211371739272714	1.7904024	1.3380592
26.229367534719746	1.7425419	1.3200537
26.247363988611433	1.7556478	1.3250086
26.26536110146397	1.7877347	1.337062
26.283358873793727	1.7824519	1.3350849
26.301357306117204	1.7237552	1.3129185
26.319356398951104	1.7344954	1.3170024
26.33735615281224	1.7705704	1.3306278
26.35535656821762	1.7977387	1.3407978
26.373357645684404	1.7934365	1.3391925
26.39135938572991	1.791579	1.3384988
26.409361788871614	1.7730676	1.3315659
26.427364855627165	1.7744852	1.332098
26.445368586514352	1.7968308	1.3404591
26.46337298205115	1.8150315	1.347231
26.48137804275568	1.8414514	1.3570008
26.499383769146217	1.8006663	1.3418891
26.517390161741215	1.799704	1.3415304
26.53539722105928	1.8128325	1.3464147
26.553404947619182	1.8201505	1.3491296
26.571413341939856	1.7917382	1.3385582
26.589422404540397	1.7657254	1.328806
26.60743213594006	1.7542412	1.3244777
26.62544253665827	1.8157953	1.3475145
26.64345360721459	1.8217753	1.3497316
26.66146534812879	1.7800006	1.3341666
26.679477759920758	1.7243304	1.3131377
26.69749084311057	1.7706178	1.3306457
26.71550459821847	1.8188035	1.3486302
26.733519025764842	1.7984258	1.341054
26.751534126270258	1.7264663	1.3139507
26.769549900255434	1.7080002	1.3069048
26.787566348241267	1.7261542	1.3138319
26.80558347074881	1.7394874	1.3188963
26.823601268299267	1.7952958	1.3398865
26.841619741414036	1.8489534	1.3597622
26.85963889061465	1.8420945	1.3572378
26.877658716422832	1.7878205	1.3370941
26.89567921936045	1.8257384	1.3511989
26.913700399949544	1.8392454	1.3561878
26.93172225871233	1.8522526	1.3609749
26.949744796171174	1.8043993	1.3432792
26.967768012848605	1.7601557	1.3267086
26.98579190926733	1.776586	1.3328863
27.003816485950225	1.8321838	1.3535819
27.021841743420318	1.8698242	1.3674152
27.039867682200814	1.8191335	1.3487526
27.057894302815072	1.7902647	1.3380077
27.07592160578664	1.7854991	1.3362257
27.0939495916392	1.8020495	1.3424044
27.111978260896635	1.8266901	1.3515509
27.13000761408296	1.8561193	1.3623947
27.148037651722397	1.8446422	1.358176
27.166068374339304	1.8078176	1.3445511
27.184099782458215	1.7594866	1.3264564
27.20213187660384	1.7567235	1.3254144
27.22016465730105	1.7857114	1.3363051
27.23819812507487	1.8266445	1.3515341
27.256232280450533	1.8169637	1.347948
27.274267123953383	1.8271289	1.3517133
27.292302656108987	1.7965043	1.3403374
27.31033887744306	1.8144264	1.3470064
27.32837578848146	1.8023162	1.3425037
27.34641338975026	1.8016319	1.3422488
27.364451681775673	1.7881011	1.337199
27.382490665084074	1.8096325	1.3452258
27.400530340202046	1.8283648	1.3521705
27.41857070765629	1.8418689	1.3571547
27.436611767973726	1.8373567	1.3554913
27.454653521681404	1.8281691	1.352098
27.472695969306564	1.8261257	1.3513422
27.490739111376627	1.8523732	1.3610191
27.508782948419153	1.8818303	1.3717982
27.526827480961902	1.8673418	1.3665072
27.54487270953279	1.8379844	1.3557229
27.562918634659898	1.8126104	1.3463322
27.580965256871508	1.7846749	1.3359172
27.599012576696026	1.8068973	1.3442088
27.617060594662068	1.8122203	1.3461874
27.63510931129842	1.8246044	1.3507792
27.65315872713401	1.7677692	1.3295748
27.67120884269797	1.7249511	1.3133739
27.68925965851958	1.8330108	1.3538873
27.707311175128307	1.9099548	1.3820112
27.725363393053787	1.9419407	1.3935353
27.74341631282583	1.9451305	1.3946793
27.7614699349744	1.9497116	1.3963207
27.77952426002968	2.1181426	1.455384
27.797579288521973	2.2095335	1.48645
27.815635020981784	2.58055	1.6064091
27.83369145793979	2.6482038	1.6273303
27.85174859992682	2.5922832	1.6100569
27.869806447473923	2.4922214	1.578677
27.887865001112267	2.0761385	1.4408811
27.905924261373233	1.9226434	1.3865942
27.92398422878836	1.939058	1.3925006
27.94204490388936	1.9251512	1.3874981
27.96010628720813	1.8958151	1.376886
27.978168379276728	1.8776604	1.3702775
27.9962311806274	1.8969517	1.3772987
28.014294691792568	1.8629417	1.3648963
28.0323589133048	1.8253161	1.3510426
28.050423845696887	1.8047595	1.3434134
28.068489489501758	1.79301	1.3390332
28.086555845252523	1.8121206	1.3461503
28.104622913482487	1.8366464	1.3552293
28.122690694725115	1.8813704	1.3716305
28.14075918951405	1.8605385	1.3640156
28.15882839838312	1.9286242	1.3887491
28.176898321866304	1.9258488	1.3877496
28.1949689604978	1.9081458	1.3813565
28.213040314811945	1.8783805	1.3705403
28.23111238534327	1.9281664	1.3885843
28.249185172626493	1.9175581	1.3847592
28.267258677196473	1.9463353	1.3951112
28.285332899588294	1.9414912	1.3933741
28.303407840337172	1.9259478	1.3877852
28.321483499978545	1.99751	1.4133329
28.33955987904799	2.019732	1.4211727
28.357636978081285	2.0342705	1.4262786
28.37571479761439	2.0051413	1.41603
28.393793338183425	1.997848	1.4134525
28.41187260032469	2.00906	1.4174131
28.429952584574686	2.0376	1.4274453
28.448033291470065	2.0477164	1.4309844
28.46611472154769	2.0372462	1.4273213
28.484196875344566	1.9883254	1.41008
28.502279753397914	1.9406652	1.3930776
28.52036335624511	2.0305836	1.4249855
28.538447684423716	2.0759673	1.4408218
28.556532738471482	2.0486767	1.43132
28.574618518926325	2.0222428	1.4220558
28.59270502632635	2.006263	1.4164262
28.61079226120985	1.9781778	1.4064771
28.628880224115274	1.9763166	1.4058152
28.646968915581287	2.0719428	1.4394245
28.66505833614671	2.0978482	1.448395
28.68314848635055	2.059285	1.4350209
28.701239366732004	2.0474083	1.4308767
28.71933097783044	2.1037757	1.4504398
28.737423320185403	2.138664	1.4624171
28.75551639433665	2.1339345	1.4607992
28.773610200824074	2.1651435	1.4714427
28.791704740187793	2.1386497	1.4624122
28.80980001296809	2.1036315	1.4503901
28.827896019705413	2.083652	1.4434861
28.845992760940433	2.086269	1.4443922
28.86409023721397	2.155091	1.4680228
28.88218844906704	2.1615906	1.4702349
28.900287397040845	2.1942127	1.4812875
28.918387081676755	2.214524	1.4881277
28.936487503516343	2.201317	1.4836836
28.954588663101365	2.2418284	1.4972737
28.97269056097374	2.2981994	1.5159813
28.990793197675597	2.37014	1.5395259
29.00889657374923	2.3822088	1.5434406
29.027000689737125	2.3695817	1.5393445
29.04510554618196	2.4335978	1.5599993
29.06321114362659	2.4442832	1.5634204
29.08131748261405	2.4266539	1.557772
29.099424563687567	2.3964813	1.5480573
29.11753238739057	2.4100888	1.552446
29.13564095426663	2.4621682	1.5691297
29.15375026485954	2.4987419	1.5807409
29.171860319713275	2.5439558	1.5949783
29.18997111937199	2.630803	1.6219751
29.20808266438002	2.6327584	1.6225777
29.226194955281898	2.6409209	1.6250911
29.244307992622335	2.7349982	1.653783
29.26242177694624	2.8177633	1.6786195
29.2805363087987	2.8731437	1.695035
29.29865158872498	2.8902495	1.7000734
29.316767617270557	2.910892	1.7061336
29.334884394981064	2.9206126	1.70898
29.353001922402367	2.9755008	1.724964
29.37112020008047	3.0251353	1.7392915
29.389239228561596	3.111433	1.7639254
29.407359008392152	3.264655	1.8068357
29.42547954011872	3.5952377	1.8961112
29.44360082428809	4.0930676	2.023133
29.46172286144722	4.9417706	2.2230093
29.479845652143283	6.584984	2.5661223
29.497969196923606	9.245754	3.0406833
29.516093496335728	13.064564	3.6144936
29.5342185509274	16.725937	4.0897355
29.55234436124651	19.99107	4.4711375
29.570470927841175	21.376945	4.623521
29.588598251259686	21.151522	4.599078
29.60672633205055	19.613754	4.428742
29.624855170762405	16.454796	4.0564513
29.642984767944146	12.958361	3.5997722
29.66111512414481	9.673149	3.1101687
29.67924623991366	7.206813	2.6845508
29.697378115800138	5.3063803	2.303558
29.71551075235387	4.3138447	2.0769796
29.733644150124675	3.7408373	1.9341245
29.751778309662576	3.4341874	1.8531561
29.769913231517766	3.3843665	1.8396648
29.78804891624066	3.426979	1.8512101
29.806185364381818	3.3547542	1.8315988
29.82432257649206	3.2533612	1.8037076
29.842460553122333	3.263734	1.8065808
29.86059929482382	3.2653496	1.8070278
29.878738802147872	3.322532	1.8227813
29.896879075646048	3.3300638	1.8248463
29.915020115870114	3.2235065	1.7954127
29.933161923371976	3.198649	1.7884767
29.951304498703777	3.1817095	1.7837347
29.969447842417857	3.1820493	1.7838299
29.987591955066733	3.2536657	1.803792
30.005736837203123	3.2844312	1.8123
30.023882489379943	3.2398076	1.7999465
30.04202891215028	3.2313666	1.7976003
30.060176106067455	3.1636412	1.7786628
30.078324071684946	3.2063308	1.7906231
30.09647280955646	3.2258158	1.7960557
30.114622320235863	3.1298623	1.7691417
30.132772604277257	3.0823922	1.7556742
30.1509236622349	3.1079936	1.7629503
30.16907549466328	3.0605602	1.7494457
30.18722810211705	2.978701	1.7258914
30.205381485151097	2.9809651	1.7265471
30.22353564432045	2.9432192	1.7155813
30.241690580180403	2.9007478	1.7031581
30.25984629328638	2.9412682	1.7150126
30.278002784194037	2.9676852	1.722697
30.296160053459246	2.9134219	1.7068748
30.314318101638033	2.89379	1.7011143
30.332476929286646	2.9416034	1.7151103
30.35063653696153	2.9598763	1.7204291
30.368796925219307	2.9285707	1.7113067
30.386958094616844	2.8966687	1.7019602
30.40512004571115	2.845657	1.6869075
30.423282779059463	2.8810527	1.6973664
30.441446295219233	2.9099112	1.7058462
30.459610594748067	2.8576434	1.6904565
30.47777567820382	2.8366888	1.6842473
30.495941546144504	2.8050785	1.6748369
30.51410819912835	2.822609	1.6800622
30.532275637713795	2.8395414	1.6850939
30.55044386245946	2.8105452	1.6764681
30.56861287392416	2.7821891	1.6679895
30.586782672666956	2.7535732	1.6593894
30.604953259247047	2.7697732	1.6642636
30.623124634223885	2.7438257	1.6564497
30.641296798157075	2.7216218	1.6497339
30.659469751606462	2.781649	1.6678276
30.677643495132074	2.7816164	1.6678178
30.695818029294152	2.755655	1.6600165
30.713993354653116	2.6780186	1.6364653
30.73216947176962	2.6677082	1.633312
30.75034638120448	2.7359498	1.6540706
30.768524083518756	2.7782345	1.6668037
30.786702579273673	2.8109124	1.6765776
30.80488186903069	2.8926468	1.7007782
30.82306195335144	3.0578105	1.7486596
30.841242832797782	3.2955174	1.815356
30.85942450793176	3.5972333	1.8966373
30.877606979315637	3.9477365	1.9868912
30.895790247511883	4.353188	2.0864296
30.913974313083134	4.8587666	2.204261
30.932159176592283	5.3128524	2.3049626
30.95034483860237	5.6150947	2.3696191
30.968531299676698	5.5194597	2.349353
30.98671856037873	5.2603292	2.2935407
31.00490662127215	4.919866	2.2180772
31.023095482920848	4.444517	2.1082025
31.04128514588892	3.9323041	1.9830039
31.059475610740662	3.405393	1.8453707
31.07766687804056	2.9104621	1.7060077
31.09585894835335	2.625186	1.6202426
31.11405182224393	2.4835892	1.5759407
31.132245500277417	2.4320655	1.5595081
31.15043998301914	2.4435651	1.5631907
31.168635271034628	2.4448504	1.5636017
31.18683136488964	2.4259546	1.5575476
31.20502826515008	2.4010582	1.5495348
31.223225972382135	2.4530377	1.5662177
31.241424487152155	2.523712	1.5886195
31.259623810026692	2.5389512	1.5934087
31.27782394157253	2.5451126	1.5953408
31.296024882356644	2.4587862	1.5680517
31.314226632946237	2.434873	1.560408
31.332429193908684	2.3971553	1.548275
31.350632565811598	2.395962	1.5478896
31.368836749222787	2.4478903	1.5645735
31.387041744710295	2.509425	1.5841165
31.40524755284232	2.5675714	1.6023643
31.423454174187317	2.6065502	1.6144814
31.441661609313922	2.590609	1.6095369
31.459869858791002	2.4331126	1.5598438
31.478078923187628	2.299793	1.5165068
31.496288803073064	2.2891219	1.5129844
31.514499499016807	2.3266957	1.525351
31.532711011588546	2.291876	1.5138943
31.550923341358178	2.2279694	1.4926383
31.56913648889584	2.2127528	1.4875325
31.587350454771844	2.2116408	1.4871587
31.605565239556732	2.2281947	1.4927139
31.62378084382127	2.2450814	1.4983596
31.641997268136382	2.2245471	1.4914916
31.660214513073274	2.2234828	1.4911348
31.67843257920331	2.2903912	1.5134039
31.6966514670981	2.3091557	1.5195906
31.71487117732944	2.2932172	1.5143372
31.733091710469346	2.2811935	1.510362
31.751313067090052	2.2975178	1.5157565
31.769535247764008	2.2745426	1.5081587
31.787758253063878	2.2744458	1.5081266
31.805982083562526	2.2440908	1.498029
31.824206739833024	2.272379	1.5074412
31.84243222244869	2.2618515	1.5039454
31.860658531983013	2.23442	1.4947977
31.878885669009737	2.2165272	1.4888006
31.897113634102784	2.23868	1.4962219
31.91534242783632	2.2545826	1.5015267
31.933572050784694	2.257361	1.5024517
31.951802503522508	2.22184	1.4905838
31.970033786624548	2.161882	1.4703339
31.988265900665834	2.1919155	1.4805119
32.006498846221575	2.262944	1.5043085
32.02473262386724	2.2825446	1.5108093
32.04296723417845	2.2420495	1.4973475
32.0612026777311	2.209556	1.4864576
32.07943895510129	2.162187	1.4704378
32.097676066865304	2.1414082	1.4633551
32.115914013599685	2.1288576	1.4590605
32.13415279588115	2.1310413	1.4598087
32.152392414286666	2.1338143	1.4607581
32.1706328693934	2.0840006	1.4436069
32.18887416177875	2.0833433	1.4433792
32.20711629202032	2.139631	1.4627478
32.225359260695924	2.1266115	1.4582906
32.243603068383614	2.1656864	1.4716271
32.26184771566166	2.18466	1.4780595
32.28009320310852	2.2289255	1.4929587
32.2983395313029	2.218686	1.4895254
32.31658670082372	2.2486546	1.4995514
32.33483471225012	2.1864216	1.4786553
32.35308356616143	2.135862	1.4614589
32.371333263137245	2.1092355	1.4523207
32.38958380375734	2.1069639	1.4515384
32.407835188601744	2.1061807	1.4512687
32.42608741825067	2.1155858	1.4545053
32.444340493284585	2.0541916	1.4332452
32.46259441428416	1.9948957	1.4124078
32.48084918183028	1.9616822	1.4006007
32.49910479650405	1.995004	1.4124461
32.51736125888683	2.0158412	1.4198033
32.53561856956014	1.991397	1.4111687
32.5538767291058	2.0594633	1.435083
32.572135738105764	2.1033933	1.450308
32.59039559714228	2.1214976	1.4565362
32.608656306797776	2.1478539	1.4655558
32.62691786765491	2.0517836	1.4324049
32.645180280296586	1.969427	1.4033628
32.663443545305896	1.9806247	1.4073467
32.68170766326619	2.0575242	1.4344072
32.69997263476099	2.0765238	1.4410149
32.7182384603741	2.0757966	1.4407625
32.7365051406895	1.997588	1.4133606
32.75477267629144	1.9457656	1.394907
32.77304106776434	1.8977002	1.3775704
32.79131031569289	1.9436523	1.3941493
32.809580420661966	1.9941002	1.4121262
32.827851383256714	1.9809703	1.4074695
32.84612320406245	1.9980588	1.4135271
32.86439588366476	1.9324119	1.3901122
32.88266942264945	1.9324876	1.3901395
32.9009438216025	1.9079725	1.3812938
32.9192190811102	1.8721039	1.3682485
32.937495201758985	1.8752934	1.3694135
32.95577218413556	1.9110092	1.3823925
32.974050028826866	1.9131647	1.383172
32.992328736420035	1.9557431	1.3984789
33.010608307502444	1.960724	1.4002585
33.02888874266169	1.9323941	1.3901058
33.047170042485604	1.9180443	1.3849348
33.06545220756225	1.8963729	1.3770885
33.083735238479896	1.9218637	1.386313
33.10201913582707	1.8914484	1.3752993
33.12030390019248	1.8720134	1.3682154
33.138589532165135	1.8265715	1.3515071
33.15687603233419	1.8898199	1.3747072
33.17516340128909	1.9640361	1.4014407
33.19345163961947	1.9643991	1.4015702
33.211740747915215	1.9459523	1.394974
33.23003072676643	1.9583153	1.3993982
33.248321576763466	1.9116877	1.382638
33.266613298496885	1.9000807	1.3784342
33.28490589255747	1.9806875	1.407369
33.30319935953626	2.006067	1.4163569
33.32149370002451	1.9249856	1.3874385
33.339788914613706	1.9471996	1.3954209
33.358085003895575	1.9904562	1.4108353
33.376381968462034	1.9914559	1.4111896
33.39467980890529	1.9982015	1.4135776
33.41297852581774	2.016625	1.4200792
33.43127811979204	1.9029068	1.3794589
33.44957859142105	1.8696201	1.3673406
33.467879941297866	1.9536195	1.3977194
33.486182170015844	1.9792922	1.4068732
33.50448527816853	1.8807693	1.3714114
33.522789266349754	1.9436097	1.394134
33.541094135153514	1.938777	1.3923997
33.55939988517411	1.9216427	1.3862332
33.57770651700602	1.8939608	1.3762125
33.59601403124398	1.8641721	1.3653469
33.61432242848296	1.8534355	1.3614094
33.632631709318154	1.9830718	1.4082159
33.650941874344994	1.9914516	1.411188
33.66925292415916	1.7532268	1.3240947
33.68756485935654	1.6179843	1.2720001
33.70587768053328	1.7412885	1.3195789
33.724191388285746	1.8096266	1.3452237
33.74250598321054	1.8030789	1.3427877
33.760821465904506	1.8218546	1.3497609
33.77913783696474	1.8818142	1.3717923
33.79745509698852	1.8635876	1.3651328
33.815773246573414	1.8086078	1.3448449
33.8340922863172	1.8208648	1.3493942
33.852412216817896	1.8677626	1.3666611
33.87073303867377	1.9163173	1.3843112
33.889054752483304	1.9616094	1.4005747
33.907377358845245	1.9524053	1.397285
33.92570085835853	1.9421207	1.3935999
33.94402525162239	2.0880628	1.445013
33.96235053923627	2.087757	1.4449073
33.980676721799824	1.9525696	1.3973438
33.999003799912984	1.8234453	1.35035
34.01733177417592	1.8322376	1.3536017
34.03566064518901	1.9430774	1.3939431
34.0539904135529	1.8858594	1.373266
34.07232107986846	1.8345201	1.3544446
34.090652644736785	1.8475956	1.3592628
34.108985108759235	1.8774225	1.3701906
34.12731847253742	2.0431633	1.4293926
34.14565273667313	2.0646024	1.4368725
34.16398790176847	1.9413708	1.3933308
34.18232396842574	1.854702	1.3618745
34.20066093724749	1.920109	1.38568
34.21899880883651	1.9511168	1.3968239
34.23733758379583	2.0355148	1.4267147
34.25567726272874	2.045824	1.430323
34.27401784623872	1.9359488	1.3913838
34.29235933492957	1.8687314	1.3670155
34.31070172940526	1.9166738	1.3844398
34.32904503027003	1.9242064	1.3871577
34.347389238128386	1.9833485	1.4083141
34.36573435358502	1.9344858	1.3908579
34.38408037724492	2.0278518	1.4240266
34.402427309713296	1.9784237	1.4065645
34.42077515159559	1.9506016	1.3966393
34.43912390349752	2.0591025	1.4349574
34.45747356602499	2.0544026	1.4333187
34.47582413978423	1.8428557	1.3575182
34.49417562538163	1.8061917	1.3439463
34.51252802342388	1.8427432	1.3574767
34.53088133451789	1.8611908	1.3642547
34.54923555927084	1.8678422	1.3666903
34.567590698290104	1.7910595	1.3383048
34.58594675218336	1.7419494	1.3198293
34.6043037215585	1.7669251	1.3292574
34.62266160702365	1.7995075	1.3414572
34.641020409187234	2.042633	1.4292071
34.65938012865785	2.0952563	1.4475
34.677740766044394	2.0562456	1.4339615
34.69610232195598	2.0340002	1.4261838
34.714464797002016	2.060479	1.4354368
34.73282819179208	2.0569913	1.4342215
34.751192506936064	1.9590977	1.3996778
34.76955774304408	1.9808714	1.4074343
34.7879239007265	1.8796633	1.3710082
34.80629098059391	1.8188359	1.3486422
34.824658983257194	2.02377	1.4225928
34.843027909327446	2.158214	1.4690862
34.86139775941603	2.1878357	1.4791334
34.879768534134534	2.2385776	1.4961877
34.89814023409483	2.0787234	1.4417778
34.91651285990901	1.857641	1.3629531
34.93488641218944	1.9671205	1.4025407
34.95326089154871	2.0023677	1.4150504
34.97163629859967	1.9185727	1.3851255
34.99001263395542	1.9777066	1.4063096
35.00838989822934	1.9934106	1.4118819
35.02676809203499	1.9145627	1.3836772
35.04514721598624	1.9678398	1.4027971
35.063527270697215	2.0377047	1.4274819
35.081908256782256	1.8660715	1.3660423
35.10029017485597	1.8264474	1.3514612
35.11867302553321	1.8463746	1.3588136
35.137056809429104	1.8468158	1.358976
35.155441527159006	1.9592819	1.3997436
35.173827179338524	1.9106935	1.3822783
35.19221376658354	1.8798896	1.3710907
35.21060128951017	2.0287738	1.4243503
35.2289897487348	2.0877962	1.4449208
35.24737914487405	1.9809291	1.4074548
35.26576947854479	2.1331692	1.4605373
35.28416075036418	2.056879	1.4341824
35.30255296094958	1.8231342	1.3502349
35.32094611091867	1.9422656	1.393652
35.33934020088932	2.0652802	1.4371083
35.35773523147969	2.3107388	1.5201114
35.3761312033082	2.3283484	1.5258926
35.394528116993506	2.1046436	1.450739
35.41292597315452	1.9295388	1.3890784
35.431324772410434	2.0202112	1.4213413
35.449724515380666	1.8156232	1.3474506
35.46812520268491	1.5850779	1.2589988
35.486526834943106	1.7709256	1.3307613
35.504929412775454	2.00105	1.4145848
35.52333293680242	2.1999817	1.4832336
35.54173740764471	2.3087902	1.5194703
35.560142825923286	2.4985497	1.5806801
35.5785491922594	2.1745398	1.4746321
35.59695650727454	1.5486082	1.2444309
35.61536477159042	0.4990961	0.70646733
