0.008763373481513119	0.9483193	0.9738169
0.026290120649546365	0.38522455	0.6206646
0.043816868432600686	0.22262515	0.4718317
0.06134361724069026	0.015320444	0.12377578
0.07887036748382949	0.070286326	0.26511568
0.0963971195720331	0.12057915	0.3472451
0.11392387391531617	0.22786951	0.4773568
0.1314506309236943	0.23038456	0.47998393
0.1489773910071836	0.17275788	0.41564152
0.16650415457580078	0.17943946	0.42360294
0.18403092203956356	0.11825596	0.34388363
0.20155769380849	0.12651871	0.35569468
0.2190844702925996	0.110662304	0.33265945
0.2366112519019124	0.121993124	0.34927514
0.2541380390464497	0.1157295	0.34019038
0.27166483213623416	0.087358736	0.2955651
0.28919163158128947	0.10896185	0.3300937
0.3067184377916406	0.09473875	0.3077966
0.324245251177314	0.104820795	0.3237604
0.34177207214833777	0.08331404	0.28864172
0.3592989011147415	0.077847786	0.27901217
0.37682573848655654	0.10776632	0.32827783
0.39435258467381573	0.11325782	0.336538
0.41187944008655414	0.11910674	0.34511843
0.42940630513480854	0.10386391	0.32227924
0.446933180228618	0.10694615	0.32702622
0.4644600657780234	0.1005156	0.31704193
0.48198696219306775	0.07290621	0.2700115
0.49951386988379676	0.061078466	0.24714059
0.5170407892602581	0.06544608	0.2558243
0.5345677207325025	0.1173529	0.3425681
0.5520946647105822	0.15504673	0.39375973
0.5696216216045534	0.17375064	0.41683406
0.5871485918244737	0.16801223	0.40989295
0.6046755757804043	0.17928609	0.4234219
0.6222025738824094	0.18335149	0.42819563
0.6397295865405557	0.15979598	0.3997449
0.6572566141649129	0.1399072	0.3740417
0.6747836571655547	0.15060236	0.3880752
0.6923107159525568	0.1732522	0.41623574
0.7098377909359992	0.19140096	0.43749395
0.7273648825259653	0.22364591	0.47291216
0.7448919911325411	0.18842238	0.43407646
0.762419117165817	0.15146701	0.38918763
0.7799462610358868	0.14648211	0.3827298
0.7974734231528482	0.17220552	0.41497654
0.8150006039268024	0.18430826	0.42931136
0.8325278037678551	0.19799338	0.44496447
0.8500550230861152	0.21402207	0.4626252
0.8675822622916969	0.25769144	0.50763315
0.8851095217947171	0.30374187	0.5511278
0.9026368020052984	0.2731491	0.5226367
0.9201641033335665	0.2677587	0.517454
0.9376914261896523	0.19691062	0.44374612
0.9552187709836915	0.17195162	0.4146705
0.9727461381258234	0.18969266	0.43553722
0.990273528026193	0.21806702	0.46697646
1.0078009410949496	0.2416868	0.49161652
1.0253283777422473	0.2546689	0.5046473
1.0428558383782454	0.2593955	0.5093089
1.0603833234131086	0.32427454	0.5694511
1.0779108332570058	0.36986437	0.6081648
1.0954383683201119	0.40597975	0.6371654
1.112965929012607	0.42252198	0.6500169
1.1304935157446763	0.56588286	0.75225186
1.1480211289265108	0.57650805	0.7592813
1.1655487689683062	1.399926	1.1831846
1.1830764362802655	1.6390654	1.2802598
1.200604131272596	2.0431938	1.4294033
1.2181318543555117	2.2928839	1.5142272
1.235659605939232	2.395957	1.5478879
1.253187386433982	3.945569	1.9863456
1.270715196249994	6.3810267	2.5260694
1.2882430357975057	11.709695	3.4219432
1.3057709054867608	16.332092	4.0412984
1.3232988057280106	22.27364	4.719496
1.3408267369315112	27.273174	5.2223725
1.358354699507526	31.21802	5.587309
1.3758826938663256	35.41583	5.95112
1.3934107204181858	37.50238	6.1239185
1.410938779573391	38.023464	6.166317
1.4284668717422309	38.542843	6.208288
1.4459949973350033	37.720684	6.1417165
1.4635231567620117	37.663345	6.137047
1.4810513504335687	36.72263	6.05992
1.4985795787599925	36.05206	6.004337
1.5161078421516088	35.6056	5.967043
1.5336361410187505	34.806545	5.8997073
1.5511644757717598	34.770348	5.896639
1.5686928468209842	35.145718	5.9283824
1.58622125457678	35.57454	5.9644394
1.6037496994495108	36.670162	6.055589
1.621278181849548	36.64619	6.05361
1.6388067021872719	37.99898	6.1643314
1.6563352608730693	37.411755	6.1165147
1.673863858317336	36.309666	6.02575
1.6913924949304753	34.97731	5.9141617
1.7089211711228998	33.576057	5.794485
1.7264498873050296	32.976635	5.7425284
1.7439786438872935	32.5901	5.708774
1.7615074412801288	31.868946	5.645259
1.779036279893981	31.290451	5.5937867
1.796565160139305	30.280914	5.5028095
1.814094082426564	29.427504	5.424712
1.8316230471662298	28.622599	5.3500094
1.849152054768784	27.889355	5.2810373
1.8666811056447168	27.593956	5.252995
1.8842102002045273	26.866585	5.1832986
1.901739338858724	26.559956	5.153635
1.9192685220178245	26.047152	5.103641
1.9367977500923557	25.072424	5.007237
1.9543270234928547	24.242329	4.92365
1.971856342629867	23.695335	4.8677855
1.9893857079139496	23.14252	4.8106675
2.006915119755667	22.843407	4.7794776
2.0244445785655945	22.329187	4.725377
2.0419740847543175	21.992933	4.6896625
2.0595036387324317	21.462435	4.6327567
2.0770332409105414	20.884981	4.5700088
2.094562891699263	20.283403	4.50371
2.1120925915092217	19.878336	4.458513
2.129622340751053	19.476093	4.4131727
2.1471521398354043	187.79291	13.703755
2.1646819891729323	444.2294	21.07675
2.182211889174303	440.63437	20.991293
2.1997418402501974	453.13095	21.286873
2.2172718428113023	432.93054	20.806984
2.234801897268317	320.72565	17.908815
2.2523320040319548	17.094236	4.1345177
2.269862163512935	16.668459	4.0827026
2.287392376121992	16.51731	4.0641494
2.304922642269869	16.3463	4.043056
2.322452962367322	15.996067	3.9995084
2.3399833368251164	15.527808	3.940534
2.357513766054032	15.340689	3.9167192
2.3750442504648586	15.129246	3.8896332
2.3925747904683963	15.042657	3.8784864
2.410105386475459	14.940385	3.8652794
2.4276360388968707	14.556396	3.8152845
2.445166748143469	14.278902	3.7787435
2.4626975146261025	13.793878	3.714011
2.4802283387556323	13.400665	3.660692
2.4977592209429305	13.0155525	3.6077073
2.5152901615988825	12.691536	3.5625181
2.5328211611343865	12.576359	3.5463161
2.5503522199603523	12.472368	3.531624
2.5678833384877024	12.313962	3.5091255
2.5854145171273712	12.152747	3.486079
2.6029457562903064	11.985293	3.4619782
2.620477056387469	11.75372	3.42837
2.6380084178298326	11.667048	3.4157062
2.655539841028383	11.384289	3.374061
2.673071326394119	11.287409	3.359674
2.6906028743380523	11.048964	3.3239982
2.708134485271211	10.977307	3.313202
2.7256661596046325	10.921207	3.304725
2.743197897749369	10.733936	3.2762687
2.760729700116486	10.568691	3.2509522
2.778261567117063	10.328149	3.2137437
2.795793499162193	10.2591095	3.2029846
2.8133254966629817	10.059359	3.1716492
2.830857560030551	9.799298	3.130383
2.8483896896760337	9.811551	3.1323395
2.865921886010578	9.750326	3.1225512
2.883454149445347	9.703425	3.1150322
2.9009864803915177	9.566559	3.0929854
2.91851887926028	9.337219	3.0556865
2.9360513464628384	9.191993	3.0318298
2.953583882410413	8.953211	2.9921916
2.9711164875142373	8.808333	2.9678836
2.9886491621855606	8.714905	2.9521017
3.0061819068356455	8.574483	2.9282217
3.023714721875769	8.456256	2.9079642
3.041247607717225	8.345689	2.8888905
3.0587805647713213	8.215022	2.866186
3.0763135934493806	8.139548	2.8529894
3.0938466941627407	8.178183	2.8597522
3.1113798673227544	8.098081	2.8457127
3.1289131133407904	8.1229925	2.8500865
3.1464464326282315	7.9686756	2.8228843
3.1639798255964786	7.8684916	2.8050833
3.1815132926569443	7.7521763	2.784273
3.1990468342210603	7.674176	2.7702303
3.216580450700272	7.5912395	2.7552204
3.2341141425060416	7.442179	2.7280357
3.251647910049847	7.3085375	2.7034307
3.2691817537431813	7.2184176	2.6867113
3.286715673997555	7.147125	2.6734107
3.3042496712244938	7.1788516	2.679338
3.32178374583554	7.287515	2.69954
3.339317898242251	7.136835	2.6714857
3.3568521288562034	7.014387	2.6484687
3.3743864380889876	6.794843	2.606692
3.3919208263522127	6.6562233	2.5799658
3.4094552940575023	6.655255	2.579778
3.4269898416164972	6.6183724	2.5726197
3.444524469440858	6.5916915	2.567429
3.4620591779422587	6.47465	2.5445333
3.479593967532391	6.468292	2.5432837
3.4971288386229658	6.507375	2.5509558
3.5146637916257086	6.526586	2.5547185
3.5321988269523628	6.5039635	2.550287
3.5497339450146903	6.4318914	2.5361173
3.5672691462244708	6.40545	2.530899
3.5848044309934988	6.3621926	2.5223386
3.60233979973359	6.3235164	2.5146604
3.619875252856575	6.247311	2.4994621
3.6374107907743034	6.1756206	2.4850795
3.6549464138986427	6.1531467	2.4805536
3.6724821226414788	6.250986	2.5001972
3.690017917414714	6.1680174	2.4835494
3.7075537986302702	6.233612	2.4967203
3.7250897667000857	6.353824	2.5206792
3.7426258220361235	6.472126	2.5440373
3.7601619650503553	6.8181252	2.611154
3.777698196154779	7.3952584	2.7194223
3.7952345157614067	8.609967	2.9342747
3.8127709242822716	9.557573	3.0915325
3.830307422129425	11.708901	3.4218273
3.847844009714936	30.545202	5.5267715
3.8653806874508954	97.89303	9.894091
3.882917455749409	97.08707	9.853277
3.900454315022606	96.90757	9.844164
3.917991265682631	41.429253	6.436556
3.9355283081416506	11.026411	3.320604
3.9530654428118495	8.820724	2.9699702
3.970602670105433	7.507599	2.7399998
3.9881399904346244	6.517053	2.552852
4.005677404211669	6.45069	2.539821
4.023214911848827	6.4217978	2.5341265
4.0407525137583855	6.4477906	2.53925
4.058290210352644	6.3475394	2.5194323
4.075828002043927	6.3364596	2.5172324
4.0933658892445814	6.336576	2.5172555
4.110903872366966	6.3037767	2.5107324
4.128441951823468	6.2093964	2.491866
4.145980128026488	6.109252	2.4716902
4.163518401388452	6.1185155	2.4735634
4.181056772321807	6.1158013	2.4730146
4.1985952412390155	6.0282693	2.4552534
4.216133808552567	6.0447536	2.4586082
4.233672474674966	6.140325	2.477968
4.251211240018741	6.40658	2.5311222
4.268750104996445	6.533175	2.5560076
4.286289070020643	7.3982506	2.7199726
4.303828135503928	8.991325	2.998554
4.3213673018589125	29.420895	5.4241033
4.3389065694982305	90.67713	9.522454
4.356445938834537	165.88982	12.879822
4.3739854102805085	171.23611	13.085722
4.391524984248844	172.10359	13.118826
4.409064661152262	136.2794	11.673877
4.426604441403504	96.7303	9.835156
4.444144325415337	75.7446	8.703137
4.461684313600543	21.807161	4.6698136
4.47922440637193	22.261024	4.718159
4.496764604142329	20.730885	4.553118
4.5143049073245916	18.976883	4.3562465
4.531845316331589	16.837791	4.103388
4.5493858315762195	13.801609	3.7150517
4.566926453471405	11.279454	3.35849
4.584467182430081	9.197721	3.0327744
4.602008018865218	8.083561	2.8431604
4.619548963189798	7.4248953	2.7248662
4.637090015816834	7.0263276	2.650722
4.654631177159353	6.8529654	2.617817
4.672172447630417	6.6158404	2.5721276
4.689713827643102	6.3952475	2.5288827
4.7072553176105085	6.1628284	2.4825044
4.724796917945764	5.9985585	2.4491954
4.742338629062015	5.922953	2.4337118
4.759880451372434	5.797357	2.4077702
4.777422385290215	5.7216215	2.3919911
4.794964431228581	5.6658454	2.3803036
4.812506589600768	5.6198225	2.3706164
4.830048860820047	5.4927964	2.3436716
4.847591245299709	5.477794	2.340469
4.8651337434530655	5.531621	2.35194
4.882676355693457	5.670789	2.3813417
4.900219082434242	5.7185545	2.39135
4.917761924088813	5.6344943	2.373709
4.935304881070575	5.551326	2.356125
4.952847953792969	5.4480004	2.3340952
4.970391142669449	5.3869267	2.3209753
4.9879344481135055	5.4294477	2.3301175
5.005477870538642	5.433935	2.3310802
5.023021410358394	5.493148	2.3437464
5.040565067986324	5.5339494	2.3524349
5.05810884383601	5.4867015	2.342371
5.075652738321066	5.464839	2.3376994
5.09319675185512	5.343556	2.3116133
5.110740884851836	5.3418703	2.3112485
5.128285137724894	5.389307	2.3214881
5.145829510888007	5.416125	2.327257
5.163374004754908	5.4391723	2.3322034
5.1809186197393595	5.4418206	2.332771
5.198463356255145	5.403861	2.3246207
5.216008214716077	5.2904625	2.3001006
5.233553195535998	5.327085	2.3080478
5.251098299128764	5.3339605	2.309537
5.268643525908272	5.323402	2.3072498
5.286188876288432	5.3089046	2.304106
5.3037343506831895	5.285298	2.2989776
5.32127994950651	5.3263993	2.3078992
5.3388256731723915	5.348927	2.3127747
5.356371522094851	5.3444343	2.3118033
5.373917496687938	5.269352	2.295507
5.391463597365729	5.144775	2.2682097
5.40900982454232	5.051775	2.2476153
5.426556178631843	5.0390115	2.2447743
5.444102660048449	5.0682793	2.251284
5.4616492692063225	5.1432886	2.2678819
5.479196006519669	5.1574993	2.2710128
5.496742872402727	5.2079115	2.282085
5.514289867269756	5.2507796	2.291458
5.531836991535049	5.1820197	2.276405
5.549384245612924	5.089735	2.2560441
5.566931629917724	5.083906	2.254752
5.584479144863822	5.0723553	2.252189
5.6020267908656205	5.1338983	2.2658107
5.619574568337545	5.20634	2.2817404
5.637122477694054	5.221347	2.2850266
5.654670519349629	5.2417665	2.2894905
5.672218693718784	5.1150203	2.261641
5.689767001216059	5.1365924	2.266405
5.707315442256021	5.1173973	2.2621665
5.724864017253266	5.1444187	2.268131
5.7424127266224225	5.1522493	2.2698567
5.75996157077814	5.134873	2.2660258
5.777510550135105	5.1210403	2.2629716
5.795059665108022	5.11354	2.261314
5.812608916111639	5.1600046	2.2715642
5.830158303560715	5.239977	2.2890997
5.847707827870055	5.2505913	2.291417
5.86525748945448	5.29314	2.3006825
5.8828072887288485	5.3699074	2.317306
5.900357226108044	5.457988	2.3362336
5.917907302006979	5.5874033	2.3637688
5.9354575168406	6.2131624	2.4926217
5.9530078710238765	6.833829	2.6141593
5.970558364971812	7.304622	2.7027063
5.988108999099438	7.5832195	2.7537646
6.005659773821818	8.148267	2.854517
6.023210689554039	7.904176	2.8114367
6.040761746711227	8.327401	2.8857236
6.058312945708531	7.7447257	2.7829347
6.075864286961132	7.2995205	2.7017624
6.093415770884244	6.692969	2.5870774
6.1109673978931065	6.1102285	2.4718876
6.128519168402993	5.4585376	2.3363514
6.146071082829204	5.3085566	2.3040304
6.163623141587075	5.2473593	2.2907114
6.181175345091969	5.1817827	2.276353
6.198727693759281	5.2225385	2.2852874
6.216280188004435	5.2246337	2.2857459
6.233832828242885	5.2151694	2.2836745
6.251385614890126	5.2385545	2.2887888
6.268938548361669	5.1633763	2.2723064
6.286491629073067	5.0612884	2.2497308
6.304044857439898	4.981698	2.2319717
6.321598233877777	4.958278	2.2267191
6.339151758802344	4.929147	2.220168
6.356705432629277	4.9409723	2.2228298
6.37425925577428	4.948887	2.2246094
6.391813228653095	5.0383987	2.2446377
6.409367351681486	5.1171536	2.2621126
6.426921625275259	5.1034365	2.2590787
6.44447604985025	5.119179	2.2625601
6.46203062582232	5.079463	2.2537663
6.47958535360737	5.0237403	2.2413702
6.497140233621328	5.0090284	2.238086
6.514695266280161	4.991982	2.2342744
6.532250451999859	5.0334845	2.243543
6.549805791196454	5.0401654	2.2450314
6.567361284286002	5.0393267	2.2448444
6.584916931684597	5.028133	2.2423499
6.602472733808367	5.0665917	2.250909
6.6200286910734665	5.069139	2.2514749
6.637584803896092	5.032247	2.243267
6.655141072692462	5.046279	2.2463925
6.672697497878842	5.0131645	2.2390096
6.690254079871514	4.9920897	2.2342985
6.707810819086808	4.992903	2.2344806
6.725367715941078	4.918389	2.217744
6.742924770850719	4.957423	2.2265272
6.760481984232151	4.946851	2.2241516
6.778039356501836	4.970006	2.229351
6.795596888076266	4.936383	2.2217972
6.813154579371963	4.9173427	2.2175083
6.830712430805492	4.9066334	2.2150922
6.84827044279344	4.9503617	2.2249408
6.865828615752445	5.0008125	2.2362497
6.883386950099159	5.030631	2.2429068
6.900945446250287	5.024943	2.2416384
6.918504104622553	5.007484	2.2377408
6.936062925632727	5.0513654	2.2475243
6.953621909697607	4.9801717	2.2316298
6.971181057234028	4.975525	2.2305884
6.988740368658859	5.022062	2.2409956
7.006299844389007	5.1143756	2.2614985
7.023859484841407	5.2158227	2.2838175
7.041419290433036	5.2876616	2.2994916
7.058979261580902	5.4136515	2.3267255
7.0765393987020495	5.6532817	2.3776631
7.094099702213559	6.033205	2.4562583
7.111660172532549	6.389634	2.5277727
7.129220810076164	6.7670717	2.6013596
7.146781615261595	7.340454	2.7093272
7.16434258850606	7.7133155	2.7772856
7.181903730226821	8.165937	2.8576105
7.1994650408411704	8.354295	2.8903797
7.217026520766437	8.436744	2.9046073
7.234588170419983	8.5809555	2.9293268
7.252149990219215	8.528762	2.9204044
7.269711980581568	8.357174	2.8908777
7.2872741419245175	8.13336	2.8519046
7.304836474665574	7.812812	2.7951407
7.322398979222286	7.528398	2.7437925
7.339961656012233	7.3062162	2.7030013
7.357524505453039	6.929062	2.632311
7.375087527962357	6.647153	2.5782073
7.392650723957886	6.3498716	2.519895
7.410214093857353	5.975427	2.4444687
7.427777638078528	5.716777	2.3909783
7.445341357039213	5.539928	2.3537052
7.4629052511572525	5.4133925	2.32667
7.480469320850524	5.3347692	2.309712
7.498033566536948	5.300923	2.3023734
7.5155979886344735	5.2634544	2.2942219
7.5331625875610975	5.235531	2.2881281
7.550727363734844	5.281867	2.2982314
7.568292317573788	5.291935	2.3004205
7.585857449496025	5.3080783	2.3039267
7.603422759919705	5.290431	2.3000937
7.620988249263007	5.2379317	2.288653
7.638553917944147	5.2142816	2.2834802
7.656119766381391	5.158556	2.2712455
7.673685794993023	5.222628	2.285307
7.691252004197388	5.224409	2.2856967
7.70881839441285	5.2337985	2.2877498
7.726384966057826	5.2051005	2.2814689
7.743951719550762	5.1670074	2.2731051
7.761518655310149	5.173103	2.2744455
7.779085773754511	5.156081	2.2707007
7.796653075302419	5.1902466	2.2782114
7.814220560372475	5.1963553	2.2795515
7.831788229383323	5.2005525	2.280472
7.8493560827536495	5.2480674	2.2908661
7.866924120902174	5.2862716	2.2991893
7.884492344247663	5.364789	2.3162014
7.9020607532089135	5.2878466	2.2995317
7.919629348204771	5.297408	2.30161
7.937198129654115	5.3257146	2.307751
7.954767097975865	5.422695	2.328668
7.972336253588986	5.4006968	2.32394
7.989905596912472	5.43937	2.3322458
8.007475128365371	5.4344807	2.3311973
8.025044848366756	5.443689	2.3331714
8.042614757335754	5.465325	2.3378034
8.060184855691523	5.4972353	2.3446183
8.07775514385327	5.646395	2.3762145
8.095325622240228	5.729314	2.3935986
8.112896291271687	5.86631	2.4220467
8.130467151366968	5.894713	2.427903
8.148038202945436	5.912849	2.4316351
8.165609446426497	5.8639417	2.4215577
8.183180882229594	5.9064317	2.4303153
8.200752510774217	5.94116	2.4374495
8.218324332479893	5.965397	2.4424162
8.235896347766193	5.9381185	2.4368255
8.253468557052724	5.923441	2.433812
8.27104096075914	5.937749	2.4367497
8.288613559305137	6.025646	2.454719
8.306186353110448	6.119612	2.473785
8.32375934259485	6.2020593	2.4903934
8.341332528178162	6.2559137	2.5011826
8.358905910280246	6.297157	2.5094137
8.376479489321003	6.302967	2.510571
8.394053265720377	6.32159	2.5142772
8.411627239898356	6.298441	2.5096695
8.42920141227497	6.2975183	2.5094857
8.44677578327029	6.279679	2.5059288
8.464350353304427	6.2602344	2.502046
8.48192512279754	6.1943207	2.4888391
8.499500092169827	6.1789684	2.485753
8.51707526184153	6.1664195	2.4832277
8.534650632232934	6.1990447	2.489788
8.552226203764365	6.203072	2.4905968
8.569801976856192	6.173911	2.4847357
8.587377951928834	6.155016	2.4809306
8.60495412940274	6.2365623	2.497311
8.622530509698416	6.2875338	2.5074954
8.6401070932364	6.4574533	2.541152
8.657683880437283	6.5792055	2.5649962
8.675260871721695	6.727592	2.5937603
8.692838067510303	6.87883	2.6227524
8.710415468223834	6.954934	2.6372209
8.727993074283043	7.0561805	2.6563473
8.745570886108737	7.1114507	2.6667304
8.763148904121765	7.123265	2.6689446
8.78072712874302	7.1504393	2.6740305
8.798305560393441	7.372919	2.715312
8.815884199494006	7.5749373	2.7522604
8.833463046465745	7.793507	2.7916853
8.851042101729728	7.9713564	2.823359
8.86862136570707	8.2583475	2.873734
8.886200838818924	8.392365	2.8969579
8.903780521486505	8.340054	2.8879151
8.921360414131055	8.412488	2.900429
8.938940517173874	8.595353	2.9317832
8.956520831036297	8.760494	2.959813
8.97410135613971	9.019841	3.003305
8.99168209290554	9.141076	3.0234213
9.009263041755265	9.422544	3.069616
9.026844203110405	9.553483	3.0908709
9.044425577392525	9.72822	3.1190095
9.062007165023239	9.912276	3.1483767
9.079588966424197	10.304987	3.210138
9.097170982017108	10.459878	3.2341735
9.11475321222372	11.372382	3.3722963
9.132335657465825	12.200765	3.4929593
9.149918318165264	12.298756	3.5069582
9.167501194743924	12.982369	3.6031055
9.18508428762374	12.738727	3.5691352
9.202667597226693	12.6875725	3.561962
9.220251123974803	12.230309	3.4971857
9.237834868290143	11.850228	3.442416
9.255418830594836	11.659861	3.4146538
9.273003011311046	11.182441	3.3440156
9.290587410860985	11.018786	3.3194559
9.308172029666911	10.378329	3.2215414
9.32575686815113	10.15685	3.1869812
9.343341926735997	8.807674	2.9677727
9.360927205843916	8.519663	2.9188461
9.378512705897327	8.275426	2.876704
9.396098427318728	8.037349	2.8350217
9.413684370530664	7.941693	2.818101
9.431270535955722	7.8121715	2.7950263
9.448856924016539	7.8041167	2.7935848
9.466443535135806	7.691792	2.773408
9.484030369736251	7.7811127	2.7894645
9.501617428240658	7.8005524	2.7929468
9.519204711071852	7.8305774	2.798317
9.536792218652714	7.7871757	2.7905512
9.55437995140617	7.8024316	2.7932832
9.571967909755191	7.8761573	2.8064492
9.589556094122802	7.924875	2.8151155
9.60714450493207	7.9426785	2.8182757
9.624733142606116	7.8682795	2.8050454
9.642322007568108	7.9813757	2.8251328
9.659911100241267	8.026405	2.833091
9.677500421048851	7.96765	2.8227026
9.695089970414175	7.9772935	2.8244102
9.712679748760609	7.944517	2.818602
9.730269756511557	8.042763	2.8359766
9.747859994090492	8.100478	2.846134
9.765450461920915	8.158044	2.856229
9.78304116042639	8.273326	2.876339
9.800632090030527	8.30871	2.8824832
9.81822325115699	8.283168	2.8780494
9.835814644229481	8.158702	2.8563442
9.853406269671762	8.162494	2.8570077
9.870998127907646	8.202994	2.864087
9.888590219360985	8.21643	2.8664315
9.906182544455698	8.283915	2.878179
9.923775103615734	8.275226	2.8766692
9.941367897265108	8.361689	2.8916585
9.958960925827878	8.341361	2.8881414
9.97655418972816	8.326994	2.885653
9.994147689390106	8.309999	2.8827069
10.011741425237934	8.238115	2.8702116
10.029335397695904	8.189692	2.8617637
10.04692960718833	8.199902	2.863547
10.06452405413958	8.184163	2.8607976
10.082118738974064	8.253746	2.8729334
10.099713662116246	8.273655	2.8763962
10.117308823990651	8.237252	2.8700614
10.134904225021844	8.132885	2.8518214
10.152499865634445	8.119896	2.849543
10.170095746253125	8.177934	2.8597088
10.18769186730261	8.15976	2.8565295
10.205288229207675	8.140503	2.8531566
10.222884832393145	8.0854025	2.8434842
10.2404816772839	8.003554	2.8290553
10.258078764304868	7.964123	2.8220778
10.275676093881035	8.021247	2.8321805
10.293273666437438	8.1271105	2.8508089
10.310871482399158	8.211117	2.8655047
10.32846954219134	8.168878	2.8581247
10.346067846239173	8.144643	2.853882
10.363666394967908	8.167335	2.8578548
10.38126518880283	8.15784	2.8561933
10.398864228169298	8.232596	2.86925
10.416463513492713	8.274616	2.8765633
10.434063045198531	8.270872	2.8759124
10.451662823712262	8.2787695	2.877285
10.469262849459467	8.219654	2.866994
10.486863122865758	8.069611	2.840706
10.504463644356806	7.987194	2.8261623
10.522064414358338	7.9946065	2.8274734
10.539665433296118	7.9701853	2.8231516
10.557266701595987	7.931945	2.816371
10.574868219683818	7.7897873	2.791019
10.592469987985552	7.7127395	2.7771819
10.610072006927185	7.6169524	2.7598827
10.627674276934751	7.541355	2.7461529
10.64527679843435	7.4198923	2.723948
10.662879571852143	7.3214817	2.7058237
10.680482597614331	7.2705	2.6963866
10.698085876147173	7.1934595	2.6820626
10.715689407876988	7.0635686	2.6577375
10.733293193230146	6.919689	2.63053
10.750897232633072	6.831333	2.613682
10.76850152651225	6.724074	2.593082
10.786106075294207	6.6625357	2.581189
10.803710879405534	6.543002	2.5579293
10.821315939272877	6.444202	2.5385432
10.83892125532294	6.3843226	2.5267217
10.856526827982472	6.3235545	2.514668
10.874132657678285	6.293386	2.5086622
10.891738744837243	6.254692	2.5009382
10.909345089886271	6.2529106	2.500582
10.926951693252343	6.216501	2.4932911
10.944558555362494	6.1353135	2.4769566
10.96216567664381	6.048666	2.4594035
10.979773057523436	5.9787817	2.4451547
10.997380698428573	5.902333	2.4294717
11.014988599786477	5.7690578	2.4018862
11.032596762024461	5.659075	2.378881
11.050205185569892	5.639232	2.3747067
11.067813870850198	5.6562033	2.3782773
11.085422818292859	5.635327	2.3738844
11.10303202832541	5.5556726	2.3570476
11.120641501375454	5.4130034	2.3265862
11.138251237870636	5.37511	2.3184283
11.155861238238671	5.29564	2.3012257
11.173471502907317	5.193332	2.2788885
11.191082032304402	5.0952945	2.2572758
11.208692826857805	5.010955	2.2385163
11.226303886995465	4.9445434	2.2236328
11.243915213145371	4.885846	2.210395
11.261526805735578	4.8325624	2.198309
11.279138665194196	4.8861685	2.2104678
11.296750791949393	4.870369	2.2068913
11.314363186429393	4.8128896	2.1938298
11.331975849062479	4.7186384	2.1722426
11.34958878027699	4.6106377	2.1472394
11.36720198050133	4.628552	2.151407
11.384815450163948	4.5990343	2.144536
11.402429189693366	4.5582943	2.1350162
11.420043199518153	4.485022	2.1177871
11.437657480066942	63.397617	7.962262
11.455272031768422	85.12577	9.226363
11.472886855051353	107.56698	10.37145
11.490501950344528	99.220085	9.960928
11.508117318076819	84.58443	9.1969795
11.52573295867715	45.976048	6.780564
11.543348872574514	4.2422338	2.0596683
11.560965060197946	4.1459947	2.0361717
11.57858152197655	4.053716	2.0133843
11.59619825833949	3.9953275	1.9988315
11.613815269715985	4.0056725	2.0014176
11.631432556535323	38.549957	6.2088614
11.649050119226837	83.03625	9.112423
11.666667958219929	93.368774	9.662752
11.68428607394406	107.56496	10.371353
11.701904466828756	82.418884	9.078485
11.719523137303586	65.25705	8.078183
11.737142085798196	4.524836	2.1271663
11.754761312742286	3.6958349	1.9224554
11.772380818565619	3.7313929	1.9316814
11.790000603698015	3.709132	1.9259107
11.80762066856935	3.6199636	1.9026202
11.825241013609572	3.5844479	1.8932638
11.842861639248683	3.6011322	1.8976649
11.860482545916748	3.6292868	1.9050688
11.878103734043883	3.6063957	1.8990513
11.895725204060282	3.543934	1.8825339
11.91334695639619	3.47337	1.863698
11.930968991481919	3.4181862	1.8488337
11.948591309747824	3.3567634	1.8321472
11.966213911624347	3.3228745	1.8228754
11.98383679754198	3.2604632	1.8056753
12.001459967931268	3.1995254	1.7887217
12.019083423222835	3.2238216	1.7955004
12.036707163847352	3.246035	1.8016757
12.05433119023556	3.2797203	1.8109998
12.071955502818259	3.261088	1.8058482
12.089580102026313	3.2162423	1.7933885
12.107204988290643	3.1722336	1.7810766
12.12483016204224	3.1192703	1.7661456
12.142455623712152	3.1183035	1.7658719
12.16008137373149	3.110392	1.7636304
12.177707412531431	3.1130307	1.7643783
12.19533374054321	3.0618246	1.749807
12.212960358198126	3.0298605	1.7406495
12.230587265927545	3.0093164	1.7347381
12.248214464162889	3.003114	1.7329495
12.265841953335649	2.986913	1.7282687
12.283469733877375	3.0185845	1.7374074
12.301097806219685	3.0383556	1.7430879
12.31872617079425	3.0229506	1.7386634
12.336354828032825	2.9535177	1.7185801
12.353983778367205	2.9109576	1.7061529
12.371613022229262	2.9133742	1.7068609
12.389242560050928	2.9288921	1.7114006
12.406872392264201	2.92232	1.7094795
12.424502519301143	2.8809474	1.6973354
12.442132941593874	2.8335016	1.6833009
12.459763659574586	2.7904897	1.6704758
12.477394673675532	2.790589	1.6705056
12.49502598432903	2.7946994	1.6717354
12.51265759196746	2.7831583	1.66828
12.530289497023267	2.791699	1.6708378
12.547921699928967	2.8314326	1.6826861
12.565554201117134	2.8263197	1.6811662
12.583187001020404	2.7871716	1.6694825
12.600820100071486	2.7535732	1.6593894
12.618453498703152	2.7571177	1.6604571
12.636087197348235	2.7748091	1.6657758
12.65372119643964	2.7796068	1.6672153
12.671355496410326	2.786534	1.6692915
12.68899009769333	2.8128233	1.6771474
12.706625000721749	2.862876	1.6920035
12.724260205928752	2.9566424	1.719489
12.741895713747551	2.9833417	1.7272353
12.759531524611454	3.0248435	1.7392077
12.777167638953818	3.0079834	1.7343539
12.794804057208072	3.032557	1.7414238
12.812440779807702	3.0627496	1.7500713
12.830077807186271	3.2210367	1.7947247
12.847715139777405	3.2516499	1.8032331
12.865352778014795	3.4689007	1.8624985
12.882990722332197	3.5859463	1.8936595
12.90062897316344	3.6935115	1.921851
12.918267530942412	3.7732348	1.9424816
12.935906396103071	3.6252613	1.9040118
12.953545569079449	3.7583554	1.9386479
12.971185050305628	3.579562	1.891973
12.988824840215775	3.5650396	1.8881313
13.006464939244115	3.5691633	1.889223
13.024105347824943	3.4132543	1.8474995
13.041746066392617	3.5235534	1.877113
13.05938709538157	3.309537	1.8192133
13.077028435226296	3.32084	1.8223171
13.094670086361363	3.266437	1.8073287
13.112312049221401	3.200037	1.7888647
13.129954324241112	3.1209853	1.766631
13.147596911855258	2.8950787	1.701493
13.165239812498685	2.8689275	1.6937909
13.182883026606293	2.811204	1.6766646
13.200526554613058	2.7791328	1.6670731
13.218170396954017	2.7199	1.6492119
13.235814554064284	2.683881	1.6382555
13.253459026379034	2.689409	1.6399418
13.271103814333523	2.665454	1.6326218
13.288748918363058	2.6719775	1.6346185
13.306394338903031	2.660875	1.6312189
13.32404007638889	2.683537	1.6381505
13.341686131256164	2.7145143	1.6475784
13.359332503940449	2.7131379	1.6471605
13.376979194877402	2.6966283	1.6421413
13.394626204502751	2.7025466	1.6439424
13.412273533252307	2.7141106	1.6474558
13.429921181561937	2.7497585	1.6582396
13.447569149867581	2.7489738	1.658003
13.465217438605247	2.7699456	1.6643153
13.482866048211022	2.7311692	1.652625
13.500514979121052	2.704488	1.6445328
13.518164231771568	2.6663046	1.6328822
13.535813806598844	2.6630206	1.6318763
13.553463704039254	2.6735168	1.6350892
13.571113924529229	2.6662812	1.6328751
13.588764468505275	2.6691644	1.6337577
13.606415336403956	2.6880856	1.6395382
13.624066528661917	2.7189054	1.6489104
13.641718045715882	2.8109589	1.6765914
13.659369888002635	2.8759317	1.6958573
13.67702205595903	2.919423	1.708632
13.694674550021993	2.9300036	1.7117254
13.712327370628532	3.0023663	1.7327337
13.729980518215713	3.0724628	1.7528442
13.747633993220681	3.1838646	1.7843387
13.765287796080647	3.236835	1.7991207
13.7829419272329	3.2936914	1.814853
13.800596387114801	3.3163981	1.8210981
13.818251176163775	3.330478	1.8249598
13.835906294817324	3.398141	1.8434047
13.853561743513023	3.442797	1.8554776
13.871217522688525	3.5200503	1.8761797
13.888873632781538	3.5230281	1.8769732
13.906530074229858	3.5129573	1.8742884
13.92418684747135	3.510742	1.8736974
13.941843952943948	3.5172694	1.8754385
13.959501391085665	3.5001626	1.8708721
13.977159162334578	3.4378657	1.8541483
13.994817267128846	3.3741713	1.8368918
14.012475705906693	3.267618	1.8076553
14.030134479106424	3.1920614	1.7866341
14.047793587166414	3.104094	1.7618439
14.065453030525108	3.0671113	1.751317
14.083112809621026	3.04728	1.745646
14.100772924892766	3.0091872	1.7347009
14.118433376778997	2.9236686	1.7098739
14.136094165718458	2.8350847	1.683771
14.153755292149969	2.786192	1.669189
14.171416756512416	2.7455118	1.6569586
14.189078559244768	2.6850133	1.6386011
14.20674070078606	2.625318	1.6202834
14.224403181575408	2.5665307	1.6020396
14.242066002051999	2.5098987	1.584266
14.259729162655093	2.468691	1.5712069
14.277392663824022	2.4624524	1.5692203
14.295056505998208	2.464973	1.5700233
14.312720689617128	2.461563	1.568937
14.330385215120348	2.452279	1.5659754
14.348050082947497	2.4264297	1.5577002
14.3657152935383	2.4110503	1.5527557
14.383380847332528	2.3742151	1.5408489
14.401046744770051	2.3931925	1.5469947
14.418712986290798	2.4035914	1.550352
14.436379572334793	2.4415295	1.5625395
14.454046503342123	2.433937	1.5601081
14.471713779752946	2.4103258	1.5525224
14.489381402007504	2.3448906	1.5313035
14.507049370546113	2.3179607	1.522485
14.524717685809168	2.3137493	1.5211014
14.542386348237134	2.385356	1.5444597
14.560055358270553	2.4314904	1.5593237
14.577724716350051	2.4867043	1.5769287
14.595394422916325	2.4484837	1.5647632
14.61306447841015	2.4801912	1.5748622
14.63073488327237	2.4786534	1.574374
14.648405637943917	2.5133483	1.5853543
14.6660767428658	2.4982998	1.5806011
14.683748198479094	2.5381699	1.5931635
14.701420005224954	2.621068	1.6189712
14.719092163544628	2.683399	1.6381084
14.73676467387942	2.6843684	1.6384043
14.754437536670727	2.6907961	1.6403646
14.772110752360014	2.72176	1.6497757
14.78978432138882	2.7321255	1.6529143
14.807458244198777	2.7201056	1.6492742
14.82513252123159	2.6712546	1.6343974
14.842807152929028	2.6626859	1.6317738
14.860482139732962	2.6427977	1.6256684
14.87815748208531	2.6280003	1.6211108
14.8958331804281	2.594427	1.6107225
14.91350923520342	2.59166	1.6098634
14.931185646853438	2.6500807	1.6279068
14.948862415820408	2.6595907	1.6308252
14.966539542546656	2.7038493	1.6443386
14.98421702747459	2.6787074	1.6366757
15.001894871046696	2.6647773	1.6324146
15.019573073705542	2.677357	1.6362631
15.037251635893766	2.6736739	1.6351373
15.054930558054092	2.6892223	1.6398848
15.072609840629323	2.697306	1.6423477
15.090289484062351	2.8168087	1.6783351
15.107969488796124	3.0993435	1.7604953
15.125649855273691	3.5090978	1.8732586
15.14333058393817	4.08961	2.0222785
15.161011675232768	5.1521316	2.2698307
15.17869312960076	6.5972304	2.5685074
15.196374947485506	8.462603	2.9090552
15.214057129330447	11.699442	3.4204447
15.231739675579114	16.611649	4.075739
15.249422586675102	21.847496	4.6741304
15.267105863062092	24.780035	4.977955
15.284789505183847	24.737694	4.9737
15.302473513484218	22.385462	4.7313275
15.320157888407127	18.780998	4.333705
15.337842630396578	14.548996	3.8143146
15.355527739896656	11.282207	3.3588996
15.37321321735153	8.651201	2.9412925
15.39089906320545	6.262487	2.5024962
15.408585277902748	4.729526	2.1747475
15.42627186188783	3.7253737	1.9301227
15.443958815605198	3.2313724	1.7976018
15.461646139499424	2.9836056	1.7273117
15.479333834015168	2.827739	1.6815883
15.497021899597165	2.7557688	1.6600509
15.514710336690234	2.7057197	1.6449072
15.53239914573928	2.6827202	1.6379012
15.550088327189297	2.5979004	1.6118003
15.567777881485336	2.5545957	1.5983102
15.58546780907256	2.5251799	1.5890814
15.6031581103962	2.4948785	1.5795184
15.620848785901568	2.4618933	1.5690422
15.638539836034063	2.4318554	1.5594407
15.656231261239173	2.4566987	1.5673859
15.673923061962451	2.435399	1.5605766
15.691615238649552	2.4457605	1.5638927
15.709307791746202	2.4415388	1.5625424
15.727000721698221	2.4224298	1.5564157
15.744694028951498	2.399303	1.5489683
15.76238771395202	2.378712	1.5423074
15.780081777145844	2.3826132	1.5435716
15.797776218979125	2.3666582	1.5383947
15.815471039898094	2.3597996	1.5361639
15.833166240349064	2.3713927	1.5399327
15.850861820778437	2.417188	1.5547308
15.868557781632699	2.4061248	1.5511689
15.886254123358412	2.3985696	1.5487316
15.903950846402232	2.3508306	1.5332419
15.921647951210897	2.3345768	1.5279322
15.939345438231225	2.3297095	1.5263386
15.957043307910133	2.3192425	1.522906
15.974741560694602	2.341739	1.5302742
15.992440197031714	2.3755374	1.5412779
16.01013921736862	2.419824	1.5555784
16.02783862215259	2.426576	1.557747
16.045538411830933	2.3786998	1.5423034
16.06323858685107	2.3417199	1.530268
16.080939147660512	2.3251045	1.5248293
16.09864009470684	2.3616219	1.5367569
16.11634142843774	2.3825166	1.5435402
16.134043149300954	2.4173172	1.5547724
16.15174525774433	2.407421	1.5515866
16.169447754215817	2.4197297	1.5555481
16.18715063916342	2.4590726	1.568143
16.204853913035244	2.471036	1.5719529
16.222557576279478	2.4777248	1.574079
16.240261629344403	22.439817	4.7370687
16.257966072678386	42.99886	6.5573516
16.275670906729868	38.104404	6.1728764
16.293376131947387	2.5271251	1.5896934
16.31108174877957	2.5452569	1.5953861
16.328787757675133	2.5845592	1.6076565
16.34649415908287	2.6103127	1.6156462
16.364200953451657	2.6215656	1.6191249
16.38190814123048	2.619454	1.6184727
16.39961572286839	2.6851187	1.6386331
16.41732369881455	2.7249506	1.6507424
16.43503206951817	2.7318316	1.6528254
16.45274083542859	2.7619832	1.6619215
16.47044999699522	2.8107026	1.676515
16.488159554667558	2.8601553	1.6911994
16.505869508895184	2.8982544	1.7024261
16.523579860127786	2.9071724	1.7050432
16.541290608815117	2.9777484	1.7256154
16.559001755407035	3.0317605	1.7411951
16.57671330035348	3.0304399	1.7408159
16.59442524410448	3.0832024	1.755905
16.61213758711015	3.1533103	1.7757562
16.629850329820705	3.2502804	1.8028533
16.647563472686436	3.2909632	1.8141012
16.665277016157724	3.3524153	1.8309603
16.682990960685053	3.4158134	1.848192
16.70070530671898	3.475984	1.8643991
16.718420054710155	3.5330646	1.8796448
16.736135205109335	3.5566041	1.8858961
16.753850758367335	3.604715	1.8986087
16.771566714935087	3.6235287	1.9035568
16.789283075263597	3.6906228	1.9210994
16.80699983980398	3.7190826	1.9284923
16.82471700900741	3.7848716	1.9454746
16.84243458332518	3.9035254	1.9757341
16.860152563208665	3.9915056	1.9978753
16.87787094910932	4.0580254	2.0144541
16.89558974147871	4.129863	2.0322063
16.913308940768466	4.2196784	2.0541856
16.931028547430333	4.27637	2.0679386
16.94874856191613	4.2830524	2.0695536
16.966468984677785	4.3377757	2.0827327
16.98418981616729	4.3982687	2.097205
17.00191105683676	4.411699	2.1004045
17.019632707138374	4.452847	2.110177
17.03735476752442	4.5358243	2.1297474
17.05507723844728	4.6036296	2.145607
17.072800120359403	4.5942197	2.143413
17.090523413713353	4.616222	2.1485395
17.108247118961785	4.6129904	2.1477873
17.125971236557437	4.61046	2.1471982
17.143695766953133	4.5706925	2.1379178
17.161420710601806	4.5947995	2.1435483
17.179146067956477	4.680275	2.1633942
17.19687183947025	4.698977	2.1677125
17.21459802559634	4.7216	2.1729243
17.232324626788028	4.660669	2.1588583
17.25005164349871	4.671938	2.1614666
17.267779076181863	4.6915264	2.1659932
17.285506925291074	4.6783447	2.1629481
17.30323519127999	4.6585836	2.1583753
17.320963874602384	4.6122117	2.1476061
17.33869297571211	4.587505	2.1418462
17.356422495063114	4.5367746	2.1299706
17.37415243310944	4.5323215	2.1289248
17.391882790305218	4.5655084	2.136705
17.40961356710468	4.5688014	2.1374755
17.42734476396215	4.572987	2.1384544
17.445076381332044	4.532942	2.1290708
17.462808419668868	4.568887	2.1374955
17.48054087942723	4.723581	2.1733801
17.498273761061835	5.067743	2.2511647
17.51600706502747	5.5684304	2.3597522
17.533740791779024	6.345846	2.5190964
17.551474941771485	7.9581103	2.8210123
17.56920951545993	9.166562	3.0276332
17.586944513299528	11.477625	3.3878644
17.60467993574556	13.12966	3.6234872
17.622415783253373	14.821282	3.8498418
17.64015205627843	16.17429	4.021727
17.657888755276293	17.281239	4.157071
17.675625880702604	17.701862	4.207358
17.69336343301311	17.477932	4.1806617
17.71110141266366	16.747026	4.0923133
17.728839820110178	15.932415	3.991543
17.746578655808705	15.0488	3.8792784
17.764317920215372	13.368017	3.65623
17.7820576137864	11.5984535	3.4056501
17.79979773697811	9.363411	3.0599692
17.81753829024692	7.405678	2.7213376
17.835279274049356	5.7550616	2.3989708
17.85302068884201	4.7933507	2.1893723
17.870762535081607	4.1833596	2.0453262
17.888504813224934	3.893846	1.973283
17.90624752372891	3.7011838	1.9238461
17.923990667050536	3.6103506	1.9000922
17.941734243646895	3.5628352	1.8875474
17.959478253975185	3.523491	1.8770964
17.9772226984927	3.4504628	1.8575422
17.994967577656833	3.3960295	1.842832
18.01271289192506	3.3672864	1.8350167
18.030458641754965	3.334618	1.8260937
18.04820482760425	3.2764852	1.8101064
18.06595144993067	3.2493737	1.8026019
18.083698509192125	3.2296076	1.7971109
18.101446005846576	3.2404463	1.8001239
18.119193940352105	3.2047594	1.7901841
18.136942313166887	3.19338	1.7870032
18.1546911247492	3.2175348	1.7937489
18.1724403755574	3.2204213	1.7945533
18.19019006604997	3.210476	1.7917801
18.207940196685467	3.181446	1.7836609
18.225690767922575	3.1423104	1.7726563
18.243441780220046	3.1076298	1.7628471
18.261193234036764	3.0976017	1.7600005
18.278945129831676	3.0990462	1.7604108
18.29669746806386	3.0700014	1.752142
18.314450249192483	3.0469024	1.7455379
18.3322034736768	3.0440655	1.744725
18.349957141976184	3.0484505	1.7459812
18.3677112545501	3.0368054	1.7426432
18.385465811858108	3.08905	1.7575693
18.403220814359884	3.0932312	1.7587584
18.420976262515172	3.0917585	1.7583396
18.43873215678387	3.130341	1.769277
18.456488497625923	3.1775231	1.7825608
18.474245285501407	3.275247	1.8097644
18.492002520870486	3.3324842	1.8255093
18.50976020419343	3.3798392	1.8384339
18.527518335930615	3.686552	1.9200397
18.545276916542516	4.247583	2.0609665
18.563035946489688	4.429202	2.104567
18.580795426232832	4.7940736	2.1895373
18.598555356232698	4.6684217	2.160653
18.616315736950185	4.9950857	2.234969
18.63407656884626	4.6588984	2.1584482
18.65183785238201	4.89642	2.2127855
18.669599588018617	4.6535134	2.1572003
18.68736177621737	4.6863713	2.1648028
18.705124417439652	4.672264	2.1615422
18.72288751214696	4.500925	2.1215384
18.740651060800886	4.647704	2.1558535
18.758415063863115	4.3650455	2.0892692
18.77617952179546	4.5279965	2.127909
18.793944435059814	4.258404	2.06359
18.811709804118184	4.296872	2.0728898
18.829475629432675	4.2545323	2.0626519
18.8472419114655	4.0271177	2.006768
18.86500865067897	4.0863566	2.021474
18.88277584753551	3.7814076	1.9445841
18.90054350249763	3.8400903	1.9596149
18.918311616027957	3.538931	1.8812046
18.936080188589226	3.4026995	1.8446407
18.953849220644265	3.0665162	1.7511472
18.971618712656007	2.8536382	1.6892715
18.9893886650875	2.815407	1.6779175
19.007159078401887	7.9912515	2.8268802
19.024929953062408	32.869724	5.7332125
19.042701289532435	32.806244	5.7276735
19.060473088275405	25.342209	5.0341043
19.07824534975489	2.622544	1.6194271
19.096018074434568	2.6031063	1.6134145
19.113791262778197	2.6203291	1.6187431
19.13156491524966	2.6346574	1.6231627
19.149339032312945	2.6485596	1.6274396
19.167113614432136	2.6376638	1.6240886
19.184888662071433	2.609554	1.6154114
19.202664175695123	2.5824475	1.6069995
19.220440155767623	2.5394547	1.5935667
19.238216602753447	2.5174968	1.5866622
19.2559935171172	2.5380132	1.5931143
19.27377089932361	2.5719411	1.6037272
19.291548749837514	2.5671299	1.6022265
19.309327069123835	2.5585465	1.5995457
19.32710585764763	2.5396502	1.593628
19.344885115874032	2.5431633	1.5947299
19.362664844268313	2.5217004	1.5879862
19.380445043295822	2.536041	1.5924952
19.39822571342203	2.568083	1.6025239
19.41600685511252	2.5914366	1.609794
19.43378846883297	2.5305989	1.5907856
19.451570555049173	2.4903467	1.5780833
19.469353114227037	2.4619496	1.5690601
19.48713614683254	2.5041616	1.5824543
19.50491965333182	2.5307755	1.5908412
19.52270363419109	2.5073586	1.5834641
19.540488089876686	2.4703898	1.5717474
19.55827302085503	2.4662976	1.5704451
19.576058427592674	2.4662435	1.5704278
19.593844310556282	2.4652214	1.5701023
19.611630670212598	2.4396365	1.5619335
19.629417507028506	2.4771478	1.5738957
19.64720482147098	2.488523	1.5775054
19.6649926140071	2.474146	1.5729418
19.682780885104084	2.4592843	1.5682106
19.70056963522921	2.4669719	1.5706596
19.718358864849908	2.5083005	1.5837616
19.7361485744337	2.5205398	1.5876207
19.753938764448215	2.541821	1.594309
19.771729435361202	2.5169525	1.5864906
19.789520587640506	2.491887	1.5785712
19.807312221754092	2.4892054	1.5777216
19.825104338170043	2.4731574	1.5726275
19.842896937356517	2.4597225	1.5683502
19.860690019781824	2.499629	1.5810215
19.87848358591436	2.5355937	1.5923548
19.896277636222635	2.5654979	1.6017171
19.914072171175278	2.5240695	1.588732
19.931867191241015	2.489429	1.5777924
19.94966269688869	2.4618247	1.5690203
19.967458688587264	2.4733918	1.572702
19.985255166805807	2.4730763	1.5726018
20.00305213201348	2.4662888	1.5704422
20.020849584679578	2.4627514	1.5693156
20.038647525273507	2.4758976	1.5734985
20.05644595426477	2.4829566	1.57574
20.07424487212299	2.463888	1.5696777
20.092044279317903	2.464278	1.5698019
20.109844176319353	2.4637625	1.5696377
20.127644563597304	2.415504	1.5541892
20.145445441621817	2.406021	1.5511354
20.16324681086307	2.4049973	1.5508053
20.181048671791373	2.434278	1.5602173
20.198851024877122	2.449667	1.5651412
20.216653870590836	2.4534898	1.5663619
20.234457209403146	2.4385295	1.5615791
20.252261041784802	2.418005	1.5549935
20.270065368206662	2.370333	1.5395886
20.287870189139685	2.3164392	1.5219853
20.305675505054968	2.3080637	1.5192313
20.323481316423702	2.3281326	1.5258219
20.341287623717207	2.3717856	1.5400603
20.359094427406884	2.358457	1.5357269
20.376901727964288	2.3618257	1.5368233
20.39470952586107	2.338502	1.5292162
20.41251782156899	2.3642423	1.5376093
20.430326615559935	2.3771117	1.5417885
20.448135908305886	2.3835342	1.5438699
20.465945700278965	2.3740804	1.5408051
20.483755991951384	2.3903944	1.54609
20.50156678379548	2.373637	1.5406612
20.519378076283708	2.3323011	1.5271873
20.537189869888635	2.3251574	1.5248467
20.55500216508294	2.3165772	1.5220306
20.572814962339415	2.3080373	1.5192226
20.59062826213098	2.2854466	1.5117694
20.60844206493066	2.267542	1.5058359
20.626256371211593	2.265002	1.5049924
20.644071181447032	2.2873874	1.5124111
20.66188649611036	2.2763789	1.5087674
20.67970231567506	2.2450526	1.4983499
20.697518640614742	2.2434783	1.4978245
20.715335471403122	2.2434986	1.4978313
20.73315280851404	2.267286	1.505751
20.750970652421447	2.2817633	1.5105506
20.768789003599412	2.2771049	1.5090079
20.786607862522136	2.262306	1.5040964
20.8044272296639	2.256675	1.5022234
20.82224710549913	2.2814	1.5104303
20.84006749050237	2.2811284	1.5103405
20.857888385148268	3.8291094	1.9568111
20.8757097899116	45.92486	6.776788
20.893531705267254	64.775795	8.048341
20.911354131690224	83.81895	9.155269
20.92917706965566	69.105446	8.312968
20.94700051963877	50.145317	7.081336
20.96482448211493	29.3735	5.4197326
20.982648957559622	4.107641	2.0267317
21.00047394644843	2.2463784	1.4987923
21.01829944925707	2.2517774	1.5005924
21.036125466461375	2.2535436	1.5011808
21.053951998537297	2.2804787	1.5101254
21.071779045960906	2.268604	1.5061886
21.089606609208378	2.2380342	1.4960061
21.10743468875603	2.1892424	1.4796089
21.12526328508028	2.1612191	1.4701085
21.143092398657675	2.132777	1.460403
21.16092202996488	2.1360633	1.4615277
21.17875217947867	2.2065387	1.4854423
21.19658284767596	2.2241697	1.4913651
21.21441403503377	2.1958816	1.4818507
21.232245742029225	2.1262436	1.4581645
21.2500779691396	2.132293	1.4602373
21.26791071684227	2.1356647	1.4613913
21.28574398561475	2.1519217	1.466943
21.30357777593465	2.166934	1.4720509
21.321412088279704	2.183022	1.4775053
21.339246923127792	2.1617546	1.4702907
21.357082280956888	2.1389656	1.4625202
21.3749181622451	2.131932	1.4601136
21.392754567470647	2.1526456	1.4671897
21.41059149711187	2.1409073	1.463184
21.42842895164726	2.0906584	1.4459109
21.446266931555378	2.0644372	1.4368149
21.464105437314945	2.093146	1.4467709
21.481944469404798	2.106414	1.451349
21.49978402830388	2.0913498	1.4461501
21.51762411449127	2.0867229	1.4445493
21.53546472844617	2.0790477	1.4418904
21.553305870647876	2.078282	1.4416248
21.571147541575865	2.1035938	1.4503771
21.58898974170967	2.1208782	1.4563235
21.60683247152899	2.0796158	1.4420873
21.62467573151363	2.037963	1.4275724
21.642519522143523	2.0370228	1.4272431
21.660363843898722	2.0642421	1.4367471
21.6782086972594	2.0843432	1.4437255
21.696054082705864	2.0962317	1.4478369
21.713900000718535	2.087178	1.4447069
21.73174645177795	2.0437312	1.4295913
21.749593436364794	1.999548	1.4140537
21.767440954959845	1.9567096	1.3988243
21.785289008044032	1.9574687	1.3990957
21.803137596098388	1.9896529	1.4105506
21.820986719604086	2.0090914	1.4174242
21.838836379042412	2.0141017	1.4191905
21.85668657489478	1.9888844	1.4102782
21.87453730764273	1.98687	1.4095638
21.892388577767914	1.983327	1.4083065
21.91024038575213	1.9874411	1.4097663
21.928092732077285	2.0038104	1.4155601
21.945945617225426	2.0150206	1.4195142
21.963799041678694	1.9890333	1.4103309
21.981653005919398	31.314526	5.595938
21.999507510429943	78.1129	8.83815
22.01736255569286	73.07643	8.548475
22.035218142190818	4.153429	2.0379963
22.05307427040661	1.9966407	1.4130254
22.07093094082315	1.9865733	1.4094585
22.088788153923474	1.9852811	1.409
22.106645910190746	1.9971933	1.4132209
22.12450421010827	2.0119827	1.4184438
22.142363054159464	2.0016568	1.4147992
22.16022244282787	1.9745916	1.4052017
22.178082376597164	1.9315981	1.3898194
22.195942855951145	1.9334344	1.3904799
22.213803881373742	1.9755048	1.4055265
22.231665453349002	1.9760917	1.4057353
22.24952757236111	1.9691725	1.403272
22.26739023889438	1.9890746	1.4103456
22.28525345343323	1.9985955	1.4137169
22.30311721646225	1.9663075	1.4022509
22.320981528466113	1.9381499	1.3921745
22.33884638992964	1.9476898	1.3955966
22.356711801337788	1.949208	1.3961405
22.37457776317561	1.9347078	1.3909377
22.392444275928337	1.9557017	1.3984641
22.410311340081282	1.9545429	1.3980497
22.428178956119904	1.9622895	1.4008174
22.446047124529805	1.9501915	1.3964926
22.46391584579669	1.9655362	1.4019759
22.481785120406414	1.951217	1.3968598
22.49965494884496	1.9572843	1.3990297
22.51752533159841	1.9575877	1.3991382
22.53539626915302	1.9621564	1.40077
22.553267761995137	1.9300884	1.3892763
22.571139810611264	1.9192115	1.3853561
22.589012415488025	1.9090761	1.3816932
22.60688557711216	1.921753	1.386273
22.624759295970566	1.9313878	1.3897438
22.642633572550263	1.9501653	1.3964832
22.660508407338362	1.9540946	1.3978894
22.67838380082217	1.9293658	1.3890162
22.696259753489077	1.919503	1.3854613
22.714136265826614	1.877688	1.3702875
22.73201333832246	1.8772253	1.3701187
22.74989097146439	1.8494961	1.3599619
22.76776916574035	1.8696227	1.3673415
22.785647921638393	1.9142904	1.3835789
22.803527239646712	1.9127512	1.3830224
22.82140712025363	1.8544269	1.3617734
22.839287563947593	1.8827829	1.3721454
22.85716857121719	1.9447557	1.394545
22.875050142551135	1.968423	1.403005
22.892932278438277	1.9334183	1.3904741
22.910814979367604	1.8987386	1.3779472
22.928698245828222	1.87523	1.3693904
22.946582078309387	1.8619741	1.3645418
22.96446647730047	1.8511317	1.360563
22.98235144329098	1.9103085	1.3821391
23.000236976770562	1.937525	1.3919501
23.018123078229	1.9573512	1.3990537
23.03600974815619	1.9313074	1.3897148
23.053896987042194	1.9563003	1.3986781
23.071784795377173	1.9387611	1.3923941
23.08967317365145	1.9299054	1.3892103
23.10756212235546	1.8922185	1.3755794
23.125451641979787	1.8982797	1.3777807
23.143341733015134	1.9326073	1.3901825
23.161232395952357	1.9326392	1.3901939
23.179123631282426	1.9409814	1.3931911
23.197015439496468	1.9511783	1.3968458
23.214907821085717	1.9997624	1.4141296
23.23280077654157	1.9862342	1.4093382
23.250694306355538	1.9119014	1.3827152
23.268588411019277	1.8782679	1.3704991
23.28648309102458	1.881427	1.3716512
23.304378346863356	1.950071	1.3964494
23.322274179027676	1.9635506	1.4012675
23.340170588009723	1.9889722	1.4103092
23.358067574301852	1.957776	1.3992054
23.37596513839651	1.9289846	1.388879
23.39386328078629	1.8907588	1.3750486
23.411762001963947	1.8825705	1.3720679
23.429661302422353	1.9233843	1.3868613
23.4475611826545	1.9741921	1.4050595
23.46546164315356	1.9989533	1.4138435
23.48336268441279	1.9294318	1.3890399
23.501264306925638	1.8764476	1.3698349
23.51916651118564	1.8410358	1.3568478
23.537069297686497	1.8637701	1.3651997
23.554972666922037	1.9158908	1.3841571
23.57287661938623	1.95169	1.3970289
23.59078115557318	1.9631094	1.40111
23.608686275977128	1.9476125	1.3955688
23.62659198109246	1.9452386	1.394718
23.6444982714137	1.9023706	1.3792645
23.66240514743549	1.8498111	1.3600776
23.68031260965263	1.8685728	1.3669575
23.698220658560068	1.9059004	1.3805435
23.716129294652845	1.9499273	1.396398
23.7340385184262	1.962302	1.4008219
23.75194833037546	1.9505044	1.3966047
23.769858730996123	1.9523727	1.3972733
23.78776972078382	1.9495416	1.3962599
23.80568130023431	1.9029886	1.3794885
23.823593469843495	1.8617654	1.3644652
23.841506230107424	1.8617799	1.3644706
23.859419581522275	1.888687	1.3742951
23.87733352458438	1.8833817	1.3723636
23.89524805979019	1.9004067	1.3785524
23.913163187636318	1.9230838	1.386753
23.931078908619508	1.9303188	1.3893591
23.948995223236633	1.9693022	1.4033183
23.966912131984735	2.0234108	1.4224664
23.98482963536096	2.0816236	1.4427832
24.002747733862616	2.109861	1.452536
24.020666427987155	2.0766392	1.4410549
24.038585718232156	2.0587308	1.4348278
24.056505605095353	2.0242813	1.4227724
24.074426089074617	2.058817	1.4348578
24.092347170667946	2.0677965	1.4379835
24.110268850373515	2.0451734	1.4300956
24.128191128689586	2.0416446	1.4288613
24.146114006114626	2.059689	1.4351617
24.164037483147187	2.0683646	1.438181
24.181961560286005	2.099079	1.4488199
24.199886238029926	2.0732129	1.4398656
24.21781151687797	1.9833084	1.4082998
24.235737397329274	1.9308339	1.3895445
24.253663879883135	1.9741337	1.4050387
24.271590965038975	2.0708063	1.4390296
24.289518653296376	2.1410809	1.4632432
24.30744694515505	2.1388235	1.4624717
24.32537584111486	2.0971868	1.4481667
24.34330534167581	2.074896	1.44045
24.361235447338046	2.0743003	1.4402431
24.379166158601876	2.0895188	1.4455168
24.39709747596772	2.049678	1.4316697
24.41502939993615	2.0518649	1.4324332
24.432961931007917	2.025892	1.4233383
24.450895069683856	2.0164204	1.4200072
24.468828816465	1.9976709	1.4133898
24.4867631718525	1.9961126	1.4128385
24.504698136347656	1.9914713	1.411195
24.52263371045192	1.9618382	1.4006563
24.540569894666874	1.9475442	1.3955444
24.558506689494266	1.8796909	1.3710182
24.57644409543597	1.917294	1.3846638
24.594382112994012	1.9599293	1.3999748
24.61232074267057	1.9724375	1.4044349
24.630259984967953	1.9674016	1.4026409
24.64819984038863	1.9874153	1.4097571
24.66614030943522	1.9681664	1.4029136
24.684081392610462	1.9554448	1.3983722
24.702023090417274	1.9738809	1.4049487
24.7199654033587	2.008378	1.4171726
24.737908331937927	2.0148551	1.4194559
24.755851876658305	2.0288384	1.424373
24.773796038023324	2.0360413	1.4268992
24.79174081653661	2.0394835	1.4281049
24.809686212701962	2.113935	1.4539378
24.827632227023294	2.1332858	1.4605772
24.8455788600047	2.0564313	1.4340262
24.8635261121504	1.9949484	1.4124265
24.88147398396475	2.0355031	1.4267106
24.899422475952303	2.1120975	1.4533057
24.917371588617698	2.13405	1.4608388
24.935321322465768	2.128645	1.4589876
24.953271678001478	2.2254684	1.4918004
24.97122265572994	2.4831502	1.5758015
24.989174256156414	2.868727	1.6937317
25.00712647978632	3.3378127	1.8269682
25.02507932712521	3.965749	1.9914188
25.043032798678798	4.5517817	2.1334906
25.060986894952933	5.1606035	2.271696
25.078941616453637	5.8833227	2.4255562
25.096896963687055	6.8180165	2.611133
25.114852937159508	7.924727	2.8150892
25.132809537377444	8.373552	2.8937092
25.150766764847468	8.292625	2.8796918
25.168724620076347	7.6257	2.761467
25.186683103570985	6.5196295	2.5533564
25.204642215838426	5.350397	2.3130925
25.222601957385894	4.0062904	2.001572
25.24056232872074	3.073475	1.7531328
25.25852333035048	2.5113657	1.5847288
25.276484962782778	2.1937745	1.4811395
25.294447226525435	2.0651557	1.437065
25.312410122086423	1.9904226	1.4108233
25.330373649973843	1.9435488	1.3941122
25.348337810695988	1.9105098	1.3822119
25.366302604761245	1.9576856	1.3991731
25.384268032678207	1.9703903	1.403706
25.40223409495558	1.9543914	1.3979955
25.420200792102257	1.8913841	1.375276
25.438168124627246	1.890553	1.3749738
25.45613609303974	1.913286	1.3832158
25.474104697849057	1.9141982	1.3835455
25.492073939564698	1.8929118	1.3758314
25.510043818696285	1.8730413	1.368591
25.528014335753614	1.861318	1.3643013
25.54598549124664	1.8596276	1.3636817
25.56395728568544	1.9072849	1.3810449
25.58192971958028	1.9194359	1.385437
25.59990279344156	1.8684164	1.3669003
25.617876507779833	1.8159035	1.3475547
25.635850863105826	1.8333435	1.3540101
25.653825859930386	1.8914647	1.3753053
25.671801498764548	1.8944552	1.3763921
25.68977778011949	1.8577207	1.3629823
25.707754704506524	1.8905411	1.3749695
25.725732272437153	1.9468635	1.3953005
25.743710484423012	1.943973	1.3942643
25.761689340975888	1.9267424	1.3880715
25.77966884260774	1.8735446	1.3687749
25.797648989830662	1.8291625	1.3524654
25.815629783156922	1.815581	1.347435
25.83361122309895	1.8425745	1.3574146
25.85159331016929	1.8626851	1.3648022
25.869576044880695	1.8740098	1.3689448
25.887559427746034	1.8604175	1.3639712
25.90554345927836	1.8862326	1.3734019
25.92352813999086	1.8922358	1.3755856
25.94151347039689	1.9194446	1.3854402
25.959499451009965	1.9107013	1.3822812
25.97748608234374	1.8866191	1.3735425
25.995473364912062	1.8767081	1.36993
26.013461299228904	1.855825	1.3622867
26.03144988580839	1.8228081	1.3501141
26.04943912516483	1.8174361	1.3481232
26.067429017812675	1.8502563	1.3602413
26.085419564266537	1.8389469	1.3560778
26.103410765041186	1.8296833	1.3526579
26.12140262065155	1.798406	1.3410466
26.139395131612723	1.7935015	1.3392167
26.157388298439948	1.8344	1.3544003
26.17538212164861	1.9024494	1.3792931
26.193376601754295	1.8725926	1.368427
26.211371739272714	1.8602626	1.3639145
26.229367534719746	1.8346348	1.354487
26.247363988611433	1.8164037	1.3477403
26.26536110146397	1.7883086	1.3372766
26.283358873793727	1.7879047	1.3371255
26.301357306117204	1.8703034	1.3675903
26.319356398951104	1.9138033	1.3834028
26.33735615281224	1.8918253	1.3754364
26.35535656821762	1.8412881	1.3569407
26.373357645684404	1.851306	1.360627
26.39135938572991	1.8402447	1.3565562
26.409361788871614	1.832645	1.3537523
26.427364855627165	1.8171332	1.3480108
26.445368586514352	1.7988569	1.3412147
26.46337298205115	1.8087153	1.3448849
26.48137804275568	1.8590142	1.3634567
26.499383769146217	1.8698211	1.367414
26.517390161741215	1.8277843	1.3519558
26.53539722105928	1.7810513	1.3345603
26.553404947619182	1.7935011	1.3392166
26.571413341939856	1.8051167	1.3435463
26.589422404540397	1.8589538	1.3634346
26.60743213594006	1.8745122	1.3691282
26.62544253665827	1.8622177	1.3646309
26.64345360721459	1.8448654	1.3582582
26.66146534812879	1.8322135	1.3535929
26.679477759920758	1.8574661	1.3628889
26.69749084311057	1.8697474	1.367387
26.71550459821847	1.8857632	1.3732309
26.733519025764842	1.8874681	1.3738515
26.751534126270258	1.8716335	1.3680766
26.769549900255434	1.827809	1.3519648
26.787566348241267	1.7875555	1.3369949
26.80558347074881	1.7632608	1.3278784
26.823601268299267	1.8292247	1.3524883
26.841619741414036	1.8438507	1.3578846
26.85963889061465	1.8179942	1.3483301
26.877658716422832	1.7628641	1.327729
26.89567921936045	1.7994934	1.341452
26.913700399949544	1.8335682	1.3540931
26.93172225871233	1.8204573	1.3492433
26.949744796171174	1.8441652	1.3580004
26.967768012848605	1.8621931	1.364622
26.98579190926733	1.841227	1.3569182
27.003816485950225	1.7985706	1.341108
27.021841743420318	1.810622	1.3455936
27.039867682200814	1.8153262	1.3473405
27.057894302815072	1.8209131	1.3494121
27.07592160578664	1.8338233	1.3541874
27.0939495916392	1.8763816	1.3698108
27.111978260896635	1.8789971	1.3707651
27.13000761408296	1.8106198	1.3455927
27.148037651722397	1.8066429	1.3441142
27.166068374339304	1.7872256	1.3368716
27.184099782458215	1.8054401	1.3436667
27.20213187660384	1.8155973	1.347441
27.22016465730105	1.765315	1.3286515
27.23819812507487	1.7799952	1.3341646
27.256232280450533	1.7791889	1.3338624
27.274267123953383	1.7993087	1.3413831
27.292302656108987	1.778586	1.3336364
27.31033887744306	1.8010647	1.3420376
27.32837578848146	1.7825853	1.3351349
27.34641338975026	1.7934985	1.3392156
27.364451681775673	1.7729841	1.3315345
27.382490665084074	1.8511047	1.3605531
27.400530340202046	1.8716795	1.3680934
27.41857070765629	1.833696	1.3541403
27.436611767973726	1.7840402	1.3356797
27.454653521681404	1.7481067	1.3221599
27.472695969306564	1.7414066	1.3196236
27.490739111376627	1.7529655	1.3239961
27.508782948419153	1.7742125	1.3319957
27.526827480961902	1.7962855	1.3402557
27.54487270953279	1.83681	1.3552896
27.562918634659898	1.8400364	1.3564794
27.580965256871508	1.810146	1.3454167
27.599012576696026	1.7783319	1.3335412
27.617060594662068	1.770003	1.3304145
27.63510931129842	1.7975351	1.3407218
27.65315872713401	1.8196427	1.3489413
27.67120884269797	1.8133125	1.3465929
27.68925965851958	1.8151658	1.3472809
27.707311175128307	1.8155284	1.3474154
27.725363393053787	1.8294107	1.3525571
27.74341631282583	1.8359462	1.3549709
27.7614699349744	1.8720794	1.3682395
27.77952426002968	2.056265	1.4339683
27.797579288521973	2.135993	1.4615036
27.815635020981784	2.5249584	1.5890118
27.83369145793979	2.5870328	1.6084256
27.85174859992682	2.4680874	1.5710148
27.869806447473923	2.3097548	1.5197878
27.887865001112267	1.9394895	1.3926555
27.905924261373233	1.8359028	1.354955
27.92398422878836	1.895775	1.3768715
27.94204490388936	1.9239407	1.3870618
27.96010628720813	1.8735476	1.368776
27.978168379276728	1.8338654	1.3542029
27.9962311806274	1.8507537	1.360424
28.014294691792568	1.841187	1.3569034
28.0323589133048	1.8513744	1.3606522
28.050423845696887	1.8896731	1.3746538
28.068489489501758	1.8641781	1.365349
28.086555845252523	1.8740969	1.3689766
28.104622913482487	1.8815054	1.3716798
28.122690694725115	1.8806702	1.3713753
28.14075918951405	1.8862832	1.3734202
28.15882839838312	1.8876796	1.3739285
28.176898321866304	1.898165	1.3777391
28.1949689604978	1.9168032	1.3844867
28.213040314811945	1.9703279	1.4036837
28.23111238534327	1.9561622	1.3986287
28.249185172626493	1.9659171	1.4021116
28.267258677196473	1.9520324	1.3971516
28.285332899588294	1.9559838	1.3985649
28.303407840337172	1.9651562	1.4018403
28.321483499978545	2.0012934	1.4146708
28.33955987904799	1.9224238	1.386515
28.357636978081285	1.9258442	1.3877479
28.37571479761439	1.9648228	1.4017214
28.393793338183425	1.9328567	1.3902721
28.41187260032469	1.8921272	1.3755461
28.429952584574686	1.8846436	1.3728232
28.448033291470065	1.9184209	1.3850707
28.46611472154769	1.9506483	1.3966562
28.484196875344566	2.0003598	1.4143407
28.502279753397914	2.0353606	1.4266607
28.52036335624511	2.0454195	1.4301816
28.538447684423716	2.006247	1.4164205
28.556532738471482	2.0009935	1.4145647
28.574618518926325	1.9589967	1.3996416
28.59270502632635	1.9700534	1.4035859
28.61079226120985	1.9801342	1.4071724
28.628880224115274	1.9911729	1.4110893
28.646968915581287	1.986094	1.4092885
28.66505833614671	1.9668754	1.4024533
28.68314848635055	1.9799911	1.4071215
28.701239366732004	1.9884105	1.4101101
28.71933097783044	1.964018	1.4014343
28.737423320185403	2.0957484	1.44767
28.75551639433665	2.1550732	1.4680167
28.773610200824074	2.123784	1.4573208
28.791704740187793	2.0963252	1.4478692
28.80980001296809	2.1359096	1.4614751
28.827896019705413	2.1125336	1.4534557
28.845992760940433	2.0831141	1.4432998
28.86409023721397	2.1507874	1.4665563
28.88218844906704	2.1869264	1.478826
28.900287397040845	2.185455	1.4783285
28.918387081676755	2.218031	1.4893055
28.936487503516343	2.316131	1.5218841
28.954588663101365	2.2949407	1.5149062
28.97269056097374	2.2640076	1.5046619
28.990793197675597	2.2939794	1.5145888
29.00889657374923	2.264828	1.5049345
29.027000689737125	2.2751067	1.5083457
29.04510554618196	2.4048433	1.5507557
29.06321114362659	2.4695754	1.5714883
29.08131748261405	2.4450455	1.5636641
29.099424563687567	2.4454877	1.5638056
29.11753238739057	2.488309	1.5774374
29.13564095426663	2.5147042	1.5857819
29.15375026485954	2.543392	1.5948015
29.171860319713275	2.558276	1.5994612
29.18997111937199	2.681083	1.6374013
29.20808266438002	2.7883513	1.6698357
29.226194955281898	2.7969186	1.672399
29.244307992622335	2.7859793	1.6691253
29.26242177694624	2.81213	1.6769407
29.2805363087987	2.8271122	1.6814018
29.29865158872498	2.851658	1.6886853
29.316767617270557	2.8804505	1.697189
29.334884394981064	2.9138432	1.7069982
29.353001922402367	2.946883	1.7166488
29.37112020008047	3.0487163	1.7460574
29.389239228561596	3.1699338	1.7804308
29.407359008392152	3.3656962	1.8345834
29.42547954011872	3.7653098	1.9404407
29.44360082428809	4.5428085	2.1313865
29.46172286144722	5.7557836	2.3991215
29.479845652143283	7.382004	2.7169843
29.497969196923606	9.515028	3.0846438
29.516093496335728	12.246291	3.4994702
29.5342185509274	15.297695	3.9112267
29.55234436124651	17.63548	4.199462
29.570470927841175	18.719328	4.326584
29.588598251259686	18.147078	4.2599387
29.60672633205055	16.507605	4.0629554
29.624855170762405	14.207906	3.7693377
29.642984767944146	11.381232	3.373608
29.66111512414481	8.514289	2.9179254
29.67924623991366	6.272491	2.5044942
29.697378115800138	4.861435	2.2048662
29.71551075235387	4.0404034	2.0100756
29.733644150124675	3.7114847	1.9265214
29.751778309662576	3.5718353	1.88993
29.769913231517766	3.4771514	1.8647121
29.78804891624066	3.4570603	1.8593172
29.806185364381818	3.3813193	1.8388364
29.82432257649206	3.35719	1.8322636
29.842460553122333	3.310828	1.819568
29.86059929482382	3.2638345	1.8066086
29.878738802147872	3.2386484	1.7996246
29.896879075646048	3.2786605	1.8107072
29.915020115870114	3.2767966	1.8101925
29.933161923371976	3.2623956	1.8062103
29.951304498703777	3.2670336	1.8074937
29.969447842417857	3.2773752	1.8103522
29.987591955066733	3.2856698	1.8126416
30.005736837203123	3.2638795	1.8066211
30.023882489379943	3.191384	1.7864445
30.04202891215028	3.189162	1.7858225
30.060176106067455	3.163117	1.7785153
30.078324071684946	3.0946887	1.7591727
30.09647280955646	3.074666	1.7534726
30.114622320235863	3.0701373	1.7521807
30.132772604277257	3.0591779	1.7490506
30.1509236622349	3.0899017	1.7578117
30.16907549466328	3.1158967	1.7651902
30.18722810211705	3.1550875	1.7762566
30.205381485151097	3.099567	1.7605587
30.22353564432045	3.0197754	1.73775
30.241690580180403	2.9577549	1.7198124
30.25984629328638	2.9595094	1.7203225
30.278002784194037	2.9455209	1.716252
30.296160053459246	2.9376662	1.7139621
30.314318101638033	2.9371552	1.7138131
30.332476929286646	2.9722137	1.724011
30.35063653696153	2.9973133	1.7312751
30.368796925219307	3.0166645	1.7368548
30.386958094616844	2.9625142	1.7211956
30.40512004571115	2.9675727	1.7226644
30.423282779059463	2.964331	1.7217232
30.441446295219233	2.9636092	1.7215136
30.459610594748067	2.9674742	1.7226359
30.47777567820382	2.8981118	1.7023841
30.495941546144504	2.855086	1.6897
30.51410819912835	2.8344421	1.6835802
30.532275637713795	2.7766392	1.6663251
30.55044386245946	2.8292637	1.6820415
30.56861287392416	2.9262023	1.7106146
30.586782672666956	2.9279923	1.7111378
30.604953259247047	2.8482902	1.6876879
30.623124634223885	2.797776	1.6726553
30.641296798157075	2.8400285	1.6852384
30.659469751606462	2.8100748	1.6763278
30.677643495132074	2.7916615	1.6708266
30.695818029294152	2.7660768	1.6631527
30.713993354653116	2.7345617	1.653651
30.73216947176962	2.6916425	1.6406226
30.75034638120448	2.7039397	1.644366
30.768524083518756	2.7346003	1.6536627
30.786702579273673	2.7709312	1.6646115
30.80488186903069	2.8626304	1.691931
30.82306195335144	3.0918844	1.7583755
30.841242832797782	3.3434618	1.8285135
30.85942450793176	3.5475097	1.8834834
30.877606979315637	3.7701085	1.9416767
30.895790247511883	4.07969	2.0198243
30.913974313083134	4.522666	2.126656
30.932159176592283	4.9176497	2.2175775
30.95034483860237	4.9621534	2.2275891
30.968531299676698	4.654621	2.157457
30.98671856037873	4.265357	2.065274
31.00490662127215	3.9537125	1.9883945
31.023095482920848	3.5655892	1.8882768
31.04128514588892	3.0684278	1.7516929
31.059475610740662	2.7096674	1.6461067
31.07766687804056	2.519534	1.587304
31.09585894835335	2.5121934	1.58499
31.11405182224393	2.5567553	1.5989857
31.132245500277417	2.4818308	1.5753827
31.15043998301914	2.4259338	1.557541
31.168635271034628	2.4157536	1.5542694
31.18683136488964	2.4418936	1.5626559
31.20502826515008	2.4359179	1.5607427
31.223225972382135	2.467434	1.5708067
31.241424487152155	2.5015056	1.5816149
31.259623810026692	2.4830842	1.5757805
31.27782394157253	2.479489	1.5746393
31.296024882356644	2.4894445	1.5777974
31.314226632946237	2.4507935	1.5655011
31.332429193908684	2.4318829	1.5594496
31.350632565811598	2.4720762	1.5722837
31.368836749222787	2.4906056	1.5781653
31.387041744710295	2.477467	1.5739971
31.40524755284232	2.4744673	1.573044
31.423454174187317	2.4236994	1.5568235
31.441661609313922	2.4094598	1.5522435
31.459869858791002	2.4471376	1.564333
31.478078923187628	2.449274	1.5650157
31.496288803073064	2.3703942	1.5396085
31.514499499016807	2.4185863	1.5551804
31.532711011588546	2.381879	1.5433338
31.550923341358178	2.300316	1.5166793
31.56913648889584	2.2655334	1.5051689
31.587350454771844	2.317964	1.5224861
31.605565239556732	2.2858198	1.5118928
31.62378084382127	2.1966147	1.4820981
31.641997268136382	2.223613	1.4911784
31.660214513073274	2.2569437	1.5023128
31.67843257920331	2.2654972	1.5051569
31.6966514670981	2.311833	1.5204713
31.71487117732944	2.3445737	1.5312
31.733091710469346	2.3572943	1.5353483
31.751313067090052	2.3813195	1.5431525
31.769535247764008	2.3464856	1.5318242
31.787758253063878	2.3105953	1.5200642
31.805982083562526	2.264765	1.5049136
31.824206739833024	2.244106	1.4980341
31.84243222244869	2.284813	1.5115597
31.860658531983013	2.332803	1.5273516
31.878885669009737	2.3203282	1.5232624
31.897113634102784	2.2917507	1.513853
31.91534242783632	2.2911716	1.5136616
31.933572050784694	2.3205144	1.5233235
31.951802503522508	2.317777	1.5224247
31.970033786624548	2.2675483	1.505838
31.988265900665834	2.2125673	1.4874701
32.006498846221575	2.142529	1.4637381
32.02473262386724	2.1776042	1.4756708
32.04296723417845	2.2575016	1.5024985
32.0612026777311	2.27156	1.5071695
32.07943895510129	2.237935	1.495973
32.097676066865304	2.1814444	1.4769714
32.115914013599685	2.1100674	1.452607
32.13415279588115	2.0335667	1.4260318
32.152392414286666	2.0527892	1.4327558
32.1706328693934	2.1110096	1.4529314
32.18887416177875	2.216813	1.4888966
32.20711629202032	2.283013	1.5109643
32.225359260695924	2.2015822	1.483773
32.243603068383614	2.1375835	1.4620477
32.26184771566166	2.097223	1.4481792
32.28009320310852	2.1145701	1.4541562
32.2983395313029	2.2047276	1.4848325
32.31658670082372	2.2474308	1.4991434
32.33483471225012	2.2472906	1.4990966
32.35308356616143	2.1674583	1.472229
32.371333263137245	2.1440923	1.4642719
32.38958380375734	2.1030476	1.4501889
32.407835188601744	2.0639358	1.4366404
32.42608741825067	2.005417	1.4161276
32.444340493284585	1.9902813	1.4107733
32.46259441428416	2.0245547	1.4228685
32.48084918183028	2.023931	1.4226493
32.49910479650405	2.021129	1.4216641
32.51736125888683	1.9720114	1.4042833
32.53561856956014	1.974648	1.4052217
32.5538767291058	2.0807836	1.4424921
32.572135738105764	2.0896413	1.4455591
32.59039559714228	2.0313215	1.4252443
32.608656306797776	2.032565	1.4256806
32.62691786765491	2.0637805	1.4365864
32.645180280296586	2.0645604	1.4368578
32.663443545305896	2.0786989	1.4417694
32.68170766326619	2.0821617	1.4429697
32.69997263476099	2.0426877	1.4292263
32.7182384603741	2.061105	1.4356549
32.7365051406895	2.1017268	1.4497334
32.75477267629144	2.0534256	1.4329779
32.77304106776434	1.9836249	1.4084122
32.79131031569289	2.0094275	1.4175428
32.809580420661966	2.042502	1.4291613
32.827851383256714	2.1012967	1.449585
32.84612320406245	2.123659	1.4572779
32.86439588366476	2.0276008	1.4239385
32.88266942264945	1.9778647	1.4063658
32.9009438216025	2.0044086	1.4157714
32.9192190811102	1.9668409	1.402441
32.937495201758985	1.9464781	1.3951623
32.95577218413556	2.0125546	1.4186454
32.974050028826866	1.9986471	1.4137352
32.992328736420035	1.9891695	1.4103792
33.010608307502444	1.9590656	1.3996662
33.02888874266169	1.9381151	1.3921621
33.047170042485604	1.9029348	1.379469
33.06545220756225	1.9311752	1.3896673
33.083735238479896	1.8850275	1.3729631
33.10201913582707	1.9074571	1.3811072
33.12030390019248	1.9601109	1.4000396
33.138589532165135	1.9650891	1.4018164
33.15687603233419	1.9482245	1.3957882
33.17516340128909	1.9284735	1.3886949
33.19345163961947	1.9564058	1.3987157
33.211740747915215	1.9874438	1.4097673
33.23003072676643	2.0156276	1.419728
33.248321576763466	1.9739053	1.4049574
33.266613298496885	1.9089072	1.3816321
33.28490589255747	2.0081456	1.4170905
33.30319935953626	2.1512892	1.4667274
33.32149370002451	2.165795	1.4716641
33.339788914613706	2.0456898	1.4302762
33.358085003895575	2.0179644	1.4205507
33.376381968462034	2.0186977	1.4208088
33.39467980890529	1.966046	1.4021577
33.41297852581774	1.8743201	1.3690581
33.43127811979204	1.8700961	1.3675146
33.44957859142105	1.8849342	1.3729291
33.467879941297866	1.8917462	1.3754076
33.486182170015844	1.885084	1.3729836
33.50448527816853	1.9235729	1.3869293
33.522789266349754	1.9297357	1.3891493
33.541094135153514	2.0095153	1.4175737
33.55939988517411	1.9535062	1.3976789
33.57770651700602	1.8844706	1.3727602
33.59601403124398	1.906839	1.3808835
33.61432242848296	1.9026626	1.3793703
33.632631709318154	1.8534611	1.3614188
33.650941874344994	1.7639292	1.32813
33.66925292415916	1.7578679	1.3258461
33.68756485935654	1.845166	1.3583689
33.70587768053328	1.8337561	1.3541625
33.724191388285746	1.7322582	1.3161528
33.74250598321054	1.7733682	1.3316787
33.760821465904506	1.8841498	1.3726434
33.77913783696474	1.9433633	1.3940457
33.79745509698852	1.8964598	1.3771201
33.815773246573414	1.8650198	1.3656573
33.8340922863172	1.9100745	1.3820544
33.852412216817896	1.9789813	1.4067627
33.87073303867377	1.9846495	1.4087759
33.889054752483304	1.9612266	1.400438
33.907377358845245	1.8566512	1.3625898
33.92570085835853	1.7284508	1.3147056
33.94402525162239	1.7354342	1.3173587
33.96235053923627	1.8935044	1.3760467
33.980676721799824	1.9978508	1.4134535
33.999003799912984	1.9532816	1.3975985
34.01733177417592	1.9359204	1.3913735
34.03566064518901	2.0499332	1.4317588
34.0539904135529	2.0372698	1.4273297
34.07232107986846	1.9318055	1.389894
34.090652644736785	1.9557819	1.3984927
34.108985108759235	2.0258353	1.4233184
34.12731847253742	2.061861	1.4359182
34.14565273667313	2.0822062	1.4429852
34.16398790176847	2.0231564	1.422377
34.18232396842574	1.8675545	1.366585
34.20066093724749	1.8474207	1.3591986
34.21899880883651	1.911646	1.3826228
34.23733758379583	1.9732586	1.4047272
34.25567726272874	1.9709705	1.4039125
34.27401784623872	1.9074669	1.3811108
34.29235933492957	1.832063	1.3535372
34.31070172940526	1.9488558	1.3960142
34.32904503027003	1.985375	1.4090334
34.347389238128386	1.9543102	1.3979664
34.36573435358502	2.0055087	1.4161599
34.38408037724492	2.0947118	1.4473119
34.402427309713296	2.0771973	1.4412485
34.42077515159559	2.0953343	1.4475269
34.43912390349752	2.0149364	1.4194846
34.45747356602499	1.9339743	1.390674
34.47582413978423	2.014376	1.4192871
34.49417562538163	2.1082437	1.4519793
34.51252802342388	2.115601	1.4545106
34.53088133451789	2.0141654	1.4192129
34.54923555927084	2.0006866	1.4144562
34.567590698290104	1.928823	1.3888208
34.58594675218336	1.9072733	1.3810407
34.6043037215585	1.8685709	1.3669568
34.62266160702365	1.9336836	1.3905696
34.641020409187234	1.9796635	1.4070052
34.65938012865785	2.073136	1.4398389
34.677740766044394	2.1180856	1.4553645
34.69610232195598	2.0576994	1.4344684
34.714464797002016	1.9297923	1.3891697
34.73282819179208	1.7854059	1.3361908
34.751192506936064	1.7187063	1.3109944
34.76955774304408	1.7808528	1.334486
34.7879239007265	1.7786018	1.3336422
34.80629098059391	1.8113298	1.3458565
34.824658983257194	1.9456908	1.3948802
34.843027909327446	2.1257372	1.4579908
34.86139775941603	2.033615	1.4260488
34.879768534134534	1.7900065	1.3379112
34.89814023409483	1.8301662	1.3528364
34.91651285990901	1.9132738	1.3832114
34.93488641218944	1.953769	1.3977729
34.95326089154871	1.997801	1.4134358
34.97163629859967	2.080225	1.4422985
34.99001263395542	2.0017576	1.4148349
35.00838989822934	1.8687147	1.3670094
35.02676809203499	1.9825077	1.4080155
35.04514721598624	1.9931138	1.4117768
35.063527270697215	1.77604	1.3326815
35.081908256782256	1.8714797	1.3680204
35.10029017485597	2.189638	1.4797425
35.11867302553321	2.2115765	1.487137
35.137056809429104	2.1836553	1.4777197
35.155441527159006	2.109466	1.4524001
35.173827179338524	2.038827	1.4278749
35.19221376658354	1.9856724	1.4091389
35.21060128951017	2.0362563	1.4269745
35.2289897487348	2.1464756	1.4650855
35.24737914487405	2.238121	1.4960351
35.26576947854479	2.0873418	1.4447635
35.28416075036418	1.898705	1.377935
35.30255296094958	2.2609875	1.503658
35.32094611091867	2.3876545	1.5452037
35.33934020088932	2.0881345	1.4450378
35.35773523147969	1.7875048	1.3369759
35.3761312033082	1.7541885	1.3244579
35.394528116993506	1.7614658	1.3272022
35.41292597315452	2.0423875	1.4291213
35.431324772410434	2.0864692	1.4444616
35.449724515380666	2.2021322	1.4839582
35.46812520268491	2.1941578	1.481269
35.486526834943106	2.051367	1.4322594
35.504929412775454	1.4985989	1.2241727
35.52333293680242	1.2276107	1.107976
35.54173740764471	1.532161	1.2378049
35.560142825923286	2.1248045	1.4576709
35.5785491922594	2.0626597	1.4361963
35.59695650727454	1.6421459	1.2814624
35.61536477159042	1.2419951	1.1144483
