0.008763373481513119	0.0	0.0
0.026290120649546365	0.17179282	0.414479
0.043816868432600686	0.12005361	0.34648752
0.06134361724069026	0.082868464	0.28786883
0.07887036748382949	0.038731266	0.1968026
0.0963971195720331	0.06426555	0.2535065
0.11392387391531617	0.1574266	0.3967702
0.1314506309236943	0.16656217	0.40812027
0.1489773910071836	0.17607152	0.41960877
0.16650415457580078	0.15318564	0.39138937
0.18403092203956356	0.10453817	0.32332364
0.20155769380849	0.10513385	0.3242435
0.2190844702925996	0.09891745	0.31451145
0.2366112519019124	0.16365437	0.40454218
0.2541380390464497	0.2063328	0.4542387
0.27166483213623416	0.2340228	0.48375902
0.28919163158128947	0.21190265	0.46032885
0.3067184377916406	0.2353986	0.48517895
0.324245251177314	0.21440831	0.46304244
0.34177207214833777	0.21417202	0.46278724
0.3592989011147415	0.18720038	0.4326666
0.37682573848655654	0.1761483	0.41970024
0.39435258467381573	0.15689039	0.3960939
0.41187944008655414	0.10333255	0.3214538
0.42940630513480854	0.103852265	0.32226118
0.446933180228618	0.12066935	0.34737495
0.4644600657780234	0.14663337	0.38292736
0.48198696219306775	0.14532527	0.3812155
0.49951386988379676	0.12662949	0.35585037
0.5170407892602581	0.13813	0.37165844
0.5345677207325025	0.16497228	0.4061678
0.5520946647105822	0.17447591	0.41770312
0.5696216216045534	0.12970461	0.36014527
0.5871485918244737	0.12317168	0.35095823
0.6046755757804043	0.10062847	0.3172199
0.6222025738824094	0.15183689	0.38966253
0.6397295865405557	0.20349044	0.45109913
0.6572566141649129	0.21419354	0.4628105
0.6747836571655547	0.21768664	0.466569
0.6923107159525568	0.16492495	0.40610954
0.7098377909359992	0.14868419	0.3855959
0.7273648825259653	0.14642954	0.38266113
0.7448919911325411	0.13827887	0.3718587
0.762419117165817	0.13030165	0.3609732
0.7799462610358868	0.1309697	0.36189738
0.7974734231528482	0.20135318	0.44872394
0.8150006039268024	0.23811662	0.48797196
0.8325278037678551	0.26539603	0.51516604
0.8500550230861152	0.22356746	0.4728292
0.8675822622916969	0.20350297	0.45111305
0.8851095217947171	0.20413941	0.4518179
0.9026368020052984	0.22535628	0.47471705
0.9201641033335665	0.20900722	0.45717308
0.9376914261896523	0.21127737	0.45964918
0.9552187709836915	0.20930511	0.45749876
0.9727461381258234	0.24475792	0.49473014
0.990273528026193	0.22196436	0.47113094
1.0078009410949496	0.18882367	0.43453845
1.0253283777422473	0.18977739	0.43563446
1.0428558383782454	0.1990812	0.44618517
1.0603833234131086	0.22759444	0.47706857
1.0779108332570058	0.25836757	0.5082987
1.0954383683201119	0.28641734	0.53517973
1.112965929012607	0.3547341	0.5955956
1.1304935157446763	0.47627813	0.69012904
1.1480211289265108	0.5041301	0.7100212
1.1655487689683062	1.3925879	1.1800796
1.1830764362802655	1.7292867	1.3150234
1.200604131272596	2.2165697	1.4888148
1.2181318543555117	2.5408647	1.594009
1.235659605939232	2.5433006	1.5947729
1.253187386433982	4.0274544	2.006852
1.270715196249994	6.253557	2.5007114
1.2882430357975057	12.038906	3.4697127
1.3057709054867608	16.77504	4.095734
1.3232988057280106	22.770542	4.771849
1.3408267369315112	27.794361	5.2720356
1.358354699507526	31.253004	5.590439
1.3758826938663256	35.70431	5.9753084
1.3934107204181858	37.941547	6.159671
1.410938779573391	38.7282	6.2231984
1.4284668717422309	39.121147	6.25469
1.4459949973350033	38.865746	6.2342396
1.4635231567620117	38.914913	6.238182
1.4810513504335687	38.172997	6.17843
1.4985795787599925	37.390083	6.114743
1.5161078421516088	36.21409	6.017814
1.5336361410187505	35.174427	5.9308033
1.5511644757717598	34.80446	5.8995304
1.5686928468209842	35.630775	5.969152
1.58622125457678	36.382404	6.0317826
1.6037496994495108	37.96017	6.1611824
1.621278181849548	37.83416	6.150948
1.6388067021872719	38.559395	6.209621
1.6563352608730693	38.03093	6.166922
1.673863858317336	37.349655	6.1114364
1.6913924949304753	36.77605	6.0643263
1.7089211711228998	35.48698	5.957095
1.7264498873050296	34.37251	5.8628073
1.7439786438872935	33.4876	5.786847
1.7615074412801288	32.591194	5.70887
1.779036279893981	31.911572	5.6490326
1.796565160139305	30.754063	5.5456347
1.814094082426564	30.31684	5.506073
1.8316230471662298	29.569094	5.437747
1.849152054768784	28.74759	5.3616776
1.8666811056447168	28.198847	5.310259
1.8842102002045273	27.597446	5.2533274
1.901739338858724	27.143555	5.2099476
1.9192685220178245	26.4611	5.1440353
1.9367977500923557	25.668568	5.066416
1.9543270234928547	25.280884	5.02801
1.971856342629867	24.976315	4.997631
1.9893857079139496	24.484247	4.948156
2.006915119755667	23.832628	4.8818674
2.0244445785655945	23.189615	4.81556
2.0419740847543175	22.536572	4.74727
2.0595036387324317	22.24758	4.716734
2.0770332409105414	21.718065	4.6602645
2.094562891699263	21.292372	4.6143656
2.1120925915092217	20.44286	4.521378
2.129622340751053	19.71745	4.4404335
2.1471521398354043	188.00206	13.711385
2.1646819891729323	444.48715	21.082865
2.182211889174303	440.9091	20.997835
2.1997418402501974	453.41586	21.293564
2.2172718428113023	433.32205	20.81639
2.234801897268317	321.3991	17.927607
2.2523320040319548	17.927628	4.2341027
2.269862163512935	17.43841	4.1759324
2.287392376121992	16.886864	4.109363
2.304922642269869	16.570467	4.070684
2.322452962367322	16.152485	4.0190153
2.3399833368251164	15.643919	3.9552395
2.357513766054032	15.239802	3.9038188
2.3750442504648586	15.074949	3.8826473
2.3925747904683963	15.065378	3.8814144
2.410105386475459	14.981348	3.8705747
2.4276360388968707	14.735319	3.8386612
2.445166748143469	14.430419	3.7987392
2.4626975146261025	14.11543	3.7570508
2.4802283387556323	13.807862	3.7158933
2.4977592209429305	13.550013	3.681034
2.5152901615988825	13.303827	3.6474411
2.5328211611343865	13.162401	3.6280024
2.5503522199603523	12.8688755	3.5873215
2.5678833384877024	12.572832	3.545819
2.5854145171273712	12.484661	3.533364
2.6029457562903064	12.323663	3.5105076
2.620477056387469	12.188985	3.4912727
2.6380084178298326	11.968566	3.4595616
2.655539841028383	11.657731	3.414342
2.673071326394119	11.460984	3.3854074
2.6906028743380523	11.213741	3.3486924
2.708134485271211	10.94386	3.3081505
2.7256661596046325	10.769208	3.2816472
2.743197897749369	10.731415	3.275884
2.760729700116486	10.60224	3.256108
2.778261567117063	10.345852	3.216497
2.795793499162193	10.128166	3.182478
2.8133254966629817	9.884912	3.144028
2.830857560030551	9.762261	3.124462
2.8483896896760337	9.867241	3.1412165
2.865921886010578	9.876364	3.1426682
2.883454149445347	9.737856	3.1205537
2.9009864803915177	9.544586	3.0894313
2.91851887926028	9.208592	3.0345662
2.9360513464628384	9.128245	3.0212986
2.953583882410413	8.98122	2.9968684
2.9711164875142373	9.013382	3.0022295
2.9886491621855606	8.9624405	2.9937336
3.0061819068356455	8.839517	2.9731324
3.023714721875769	8.757214	2.959259
3.041247607717225	8.608807	2.9340768
3.0587805647713213	8.390605	2.8966541
3.0763135934493806	8.253334	2.8728616
3.0938466941627407	7.995018	2.8275464
3.1113798673227544	8.077264	2.8420527
3.1289131133407904	7.9795847	2.8248158
3.1464464326282315	7.9536386	2.8202195
3.1639798255964786	7.9593506	2.821232
3.1815132926569443	7.876838	2.8065705
3.1990468342210603	7.814304	2.7954075
3.216580450700272	7.6275916	2.7618096
3.2341141425060416	7.494088	2.7375333
3.251647910049847	7.522076	2.7426403
3.2691817537431813	7.3890233	2.7182758
3.286715673997555	7.4170833	2.7234323
3.3042496712244938	7.2958975	2.701092
3.32178374583554	7.25044	2.6926641
3.339317898242251	7.147063	2.6733992
3.3568521288562034	7.0806804	2.6609547
3.3743864380889876	7.056132	2.656338
3.3919208263522127	6.9688015	2.6398487
3.4094552940575023	6.8969765	2.6262095
3.4269898416164972	6.782634	2.604349
3.444524469440858	6.7023745	2.5888944
3.4620591779422587	6.6123624	2.5714514
3.479593967532391	6.5685167	2.5629117
3.4971288386229658	6.6416497	2.5771399
3.5146637916257086	6.6328735	2.5754366
3.5321988269523628	6.581858	2.5655131
3.5497339450146903	6.4407773	2.5378687
3.5672691462244708	6.3911304	2.5280685
3.5848044309934988	6.392678	2.5283744
3.60233979973359	6.332527	2.5164514
3.619875252856575	6.3750825	2.5248926
3.6374107907743034	6.361908	2.5222824
3.6549464138986427	6.449915	2.5396683
3.6724821226414788	6.544534	2.5582287
3.690017917414714	6.4290347	2.5355542
3.7075537986302702	6.459773	2.5416083
3.7250897667000857	6.5266027	2.5547216
3.7426258220361235	6.767612	2.6014633
3.7601619650503553	7.1149054	2.667378
3.777698196154779	7.6149487	2.7595196
3.7952345157614067	8.671125	2.9446774
3.8127709242822716	9.429891	3.0708127
3.830307422129425	11.603933	3.4064546
3.847844009714936	30.35409	5.5094547
3.8653806874508954	97.7875	9.888756
3.882917455749409	97.05216	9.851505
3.900454315022606	96.816505	9.839538
3.917991265682631	41.39447	6.4338536
3.9355283081416506	11.078956	3.3285065
3.9530654428118495	8.873068	2.9787695
3.970602670105433	7.5099406	2.740427
3.9881399904346244	6.681159	2.5847938
4.005677404211669	6.6005607	2.5691557
4.023214911848827	6.564495	2.562127
4.0407525137583855	6.6138473	2.5717402
4.058290210352644	6.5169635	2.5528345
4.075828002043927	6.3933444	2.5285063
4.0933658892445814	6.282976	2.5065866
4.110903872366966	6.315078	2.512982
4.128441951823468	6.3166256	2.5132897
4.145980128026488	6.2929654	2.5085783
4.163518401388452	6.245594	2.4991186
4.181056772321807	6.157246	2.48138
4.1985952412390155	6.0965595	2.4691212
4.216133808552567	6.0922813	2.4682548
4.233672474674966	6.2473	2.49946
4.251211240018741	6.4910865	2.547761
4.268750104996445	6.7762227	2.603118
4.286289070020643	7.70791	2.7763124
4.303828135503928	9.279154	3.0461702
4.3213673018589125	29.615257	5.4419904
4.3389065694982305	90.82201	9.530058
4.356445938834537	166.13411	12.889302
4.3739854102805085	171.95377	13.113114
4.391524984248844	172.74205	13.143137
4.409064661152262	136.96548	11.703225
4.426604441403504	97.18144	9.858065
4.444144325415337	76.2019	8.72937
4.461684313600543	22.171114	4.708621
4.47922440637193	22.533205	4.7469153
4.496764604142329	20.623375	4.5412965
4.5143049073245916	18.861038	4.34293
4.531845316331589	16.726145	4.089761
4.5493858315762195	13.987691	3.7400122
4.566926453471405	11.675246	3.4169059
4.584467182430081	9.651296	3.1066535
4.602008018865218	8.402599	2.8987238
4.619548963189798	7.5987115	2.756576
4.637090015816834	7.07894	2.6606278
4.654631177159353	6.88946	2.624778
4.672172447630417	6.688831	2.5862775
4.689713827643102	6.518861	2.553206
4.7072553176105085	6.2759495	2.5051844
4.724796917945764	6.056803	2.4610574
4.742338629062015	6.00151	2.4497979
4.759880451372434	5.800535	2.40843
4.777422385290215	5.7559686	2.39916
4.794964431228581	5.714562	2.390515
4.812506589600768	5.7912507	2.4065018
4.830048860820047	5.8257117	2.4136512
4.847591245299709	5.831262	2.4148006
4.8651337434530655	5.7877593	2.4057763
4.882676355693457	5.7443514	2.3967376
4.900219082434242	5.692567	2.38591
4.917761924088813	5.634154	2.3736372
4.935304881070575	5.525145	2.3505628
4.952847953792969	5.5010133	2.345424
4.970391142669449	5.4880395	2.3426566
4.9879344481135055	5.5713835	2.3603778
5.005477870538642	5.6176353	2.370155
5.023021410358394	5.638894	2.3746355
5.040565067986324	5.629802	2.3727205
5.05810884383601	5.590725	2.3644714
5.075652738321066	5.5450044	2.3547833
5.09319675185512	5.43524	2.33136
5.110740884851836	5.4115276	2.3262691
5.128285137724894	5.4073853	2.3253787
5.145829510888007	5.392245	2.3221207
5.163374004754908	5.3981967	2.323402
5.1809186197393595	5.3487477	2.312736
5.198463356255145	5.3092136	2.304173
5.216008214716077	5.3196306	2.3064325
5.233553195535998	5.2607713	2.293637
5.251098299128764	5.338867	2.3105989
5.268643525908272	5.3474827	2.3124626
5.286188876288432	5.3650174	2.3162508
5.3037343506831895	5.321107	2.3067524
5.32127994950651	5.180193	2.2760038
5.3388256731723915	5.1655426	2.272783
5.356371522094851	5.2641435	2.294372
5.373917496687938	5.3235736	2.307287
5.391463597365729	5.3931317	2.3223116
5.40900982454232	5.3539352	2.3138573
5.426556178631843	5.3132877	2.305057
5.444102660048449	5.2903814	2.300083
5.4616492692063225	5.3097167	2.3042822
5.479196006519669	5.3582487	2.314789
5.496742872402727	5.3191795	2.3063347
5.514289867269756	5.3283286	2.3083172
5.531836991535049	5.290871	2.3001893
5.549384245612924	5.2684135	2.2953024
5.566931629917724	5.286394	2.299216
5.584479144863822	5.2076707	2.2820323
5.6020267908656205	5.231926	2.2873404
5.619574568337545	5.1775527	2.2754235
5.637122477694054	5.159452	2.2714427
5.654670519349629	5.073376	2.2524157
5.672218693718784	5.063279	2.250173
5.689767001216059	5.0882215	2.2557087
5.707315442256021	5.144708	2.268195
5.724864017253266	5.1131883	2.261236
5.7424127266224225	5.1796007	2.2758737
5.75996157077814	5.2269654	2.2862558
5.777510550135105	5.335293	2.3098252
5.795059665108022	5.3711944	2.3175838
5.812608916111639	5.404111	2.3246744
5.830158303560715	5.4511933	2.334779
5.847707827870055	5.4372873	2.3317993
5.86525748945448	5.404502	2.3247585
5.8828072887288485	5.520761	2.3496299
5.900357226108044	5.608551	2.368238
5.917907302006979	5.744149	2.3966954
5.9354575168406	6.2873726	2.5074635
5.9530078710238765	6.8213096	2.6117637
5.970558364971812	7.301916	2.702206
5.988108999099438	7.694375	2.7738736
6.005659773821818	8.347305	2.8891704
6.023210689554039	8.174455	2.8591003
6.040761746711227	8.486509	2.9131613
6.058312945708531	7.8194127	2.7963214
6.075864286961132	7.3587155	2.7126954
6.093415770884244	6.751752	2.5984132
6.1109673978931065	6.1940603	2.488787
6.128519168402993	5.543838	2.3545356
6.146071082829204	5.449994	2.3345222
6.163623141587075	5.295307	2.3011534
6.181175345091969	5.276164	2.2969902
6.198727693759281	5.2541137	2.2921853
6.216280188004435	5.313507	2.3051045
6.233832828242885	5.30156	2.3025117
6.251385614890126	5.2884235	2.2996573
6.268938548361669	5.1789465	2.27573
6.286491629073067	5.1514854	2.2696884
6.304044857439898	5.1226206	2.2633207
6.321598233877777	5.061504	2.2497787
6.339151758802344	5.0602636	2.249503
6.356705432629277	5.087474	2.255543
6.37425925577428	5.1332517	2.2656682
6.391813228653095	5.1254654	2.2639492
6.409367351681486	5.0843444	2.2548492
6.426921625275259	5.090322	2.256174
6.44447604985025	5.134876	2.2660265
6.46203062582232	5.1544476	2.270341
6.47958535360737	5.1645007	2.2725537
6.497140233621328	5.220786	2.284904
6.514695266280161	5.180259	2.2760184
6.532250451999859	5.100061	2.2583315
6.549805791196454	5.056983	2.2487736
6.567361284286002	4.9675627	2.228803
6.584916931684597	4.9644656	2.2281082
6.602472733808367	4.9428244	2.2232463
6.6200286910734665	4.9776716	2.2310696
6.637584803896092	5.029948	2.2427547
6.655141072692462	5.085628	2.2551336
6.672697497878842	5.0879326	2.2556446
6.690254079871514	5.1071	2.2598894
6.707810819086808	5.1079288	2.2600727
6.725367715941078	5.0481834	2.2468164
6.742924770850719	5.0714283	2.2519832
6.760481984232151	5.0728407	2.2522967
6.778039356501836	5.059986	2.2494414
6.795596888076266	5.080812	2.2540658
6.813154579371963	5.102714	2.2589188
6.830712430805492	5.173934	2.2746284
6.84827044279344	5.1141624	2.2614515
6.865828615752445	5.106983	2.2598636
6.883386950099159	5.124398	2.2637134
6.900945446250287	5.1110606	2.2607656
6.918504104622553	5.1311126	2.2651958
6.936062925632727	5.162615	2.2721388
6.953621909697607	5.186723	2.277438
6.971181057234028	5.224711	2.2857625
6.988740368658859	5.245951	2.290404
7.006299844389007	5.2847652	2.2988617
7.023859484841407	5.3702893	2.3173885
7.041419290433036	5.481318	2.3412216
7.058979261580902	5.588065	2.3639088
7.0765393987020495	5.778918	2.403938
7.094099702213559	6.0827193	2.466317
7.111660172532549	6.3859477	2.5270433
7.129220810076164	6.7992597	2.607539
7.146781615261595	7.4500647	2.7294807
7.16434258850606	7.735796	2.7813299
7.181903730226821	8.206632	2.864722
7.1994650408411704	8.239506	2.8704538
7.217026520766437	8.3227005	2.8849092
7.234588170419983	8.550691	2.9241564
7.252149990219215	8.523187	2.9194498
7.269711980581568	8.465524	2.9095573
7.2872741419245175	8.2554455	2.873229
7.304836474665574	7.864552	2.804381
7.322398979222286	7.4826956	2.7354517
7.339961656012233	7.2740045	2.6970363
7.357524505453039	6.933039	2.6330664
7.375087527962357	6.682138	2.584983
7.392650723957886	6.447481	2.539189
7.410214093857353	6.078986	2.46556
7.427777638078528	5.853351	2.41937
7.445341357039213	5.6965017	2.3867345
7.4629052511572525	5.5782757	2.3618374
7.480469320850524	5.4402704	2.3324387
7.498033566536948	5.3844757	2.3204472
7.5155979886344735	5.2869177	2.2993298
7.5331625875610975	5.306058	2.3034883
7.550727363734844	5.312275	2.3048372
7.568292317573788	5.320379	2.3065946
7.585857449496025	5.303903	2.3030205
7.603422759919705	5.226356	2.2861226
7.620988249263007	5.1983247	2.2799835
7.638553917944147	5.2456923	2.2903476
7.656119766381391	5.2592406	2.2933035
7.673685794993023	5.242819	2.2897203
7.691252004197388	5.215592	2.283767
7.70881839441285	5.2680044	2.2952135
7.726384966057826	5.3480496	2.312585
7.743951719550762	5.424201	2.3289914
7.761518655310149	5.368414	2.3169837
7.779085773754511	5.2548003	2.292335
7.796653075302419	5.140266	2.2672155
7.814220560372475	5.2246156	2.2857418
7.831788229383323	5.3292947	2.3085265
7.8493560827536495	5.450093	2.3345435
7.866924120902174	5.436134	2.3315518
7.884492344247663	5.4243217	2.3290174
7.9020607532089135	5.402938	2.3244221
7.919629348204771	5.4377193	2.3318918
7.937198129654115	5.3994513	2.3236718
7.954767097975865	5.367447	2.316775
7.972336253588986	5.400318	2.3238585
7.989905596912472	5.4824386	2.3414607
8.007475128365371	5.51023	2.347388
8.025044848366756	5.56772	2.3596017
8.042614757335754	5.6317954	2.3731403
8.060184855691523	5.7035522	2.388211
8.07775514385327	5.868015	2.4223986
8.095325622240228	5.909508	2.430948
8.112896291271687	5.9353623	2.43626
8.130467151366968	5.9398017	2.4371707
8.148038202945436	5.979842	2.4453716
8.165609446426497	5.9854426	2.4465165
8.183180882229594	6.0297956	2.4555643
8.200752510774217	6.0234613	2.4542742
8.218324332479893	6.040391	2.4577208
8.235896347766193	6.0266576	2.454925
8.253468557052724	6.109243	2.4716883
8.27104096075914	6.1067076	2.4711754
8.288613559305137	6.121662	2.4741993
8.306186353110448	6.082627	2.466298
8.32375934259485	6.1232886	2.474528
8.341332528178162	6.2123246	2.4924536
8.358905910280246	6.3526177	2.52044
8.376479489321003	6.4042773	2.5306673
8.394053265720377	6.3999515	2.5298126
8.411627239898356	6.413572	2.5325031
8.42920141227497	6.4833627	2.5462449
8.44677578327029	6.4697967	2.5435796
8.464350353304427	6.4421115	2.5381315
8.48192512279754	6.3634963	2.522597
8.499500092169827	6.363462	2.5225904
8.51707526184153	6.302095	2.5103974
8.534650632232934	6.2472134	2.4994426
8.552226203764365	6.2619696	2.5023928
8.569801976856192	6.29196	2.508378
8.587377951928834	6.345728	2.5190728
8.60495412940274	6.3905654	2.5279567
8.622530509698416	6.4266896	2.5350916
8.6401070932364	6.578193	2.5647988
8.657683880437283	6.6887584	2.5862634
8.675260871721695	6.855086	2.618222
8.692838067510303	6.9917254	2.6441872
8.710415468223834	7.13942	2.6719694
8.727993074283043	7.3032036	2.702444
8.745570886108737	7.3292565	2.70726
8.763148904121765	7.376198	2.7159157
8.78072712874302	7.3269544	2.7068348
8.798305560393441	7.5549483	2.7486267
8.815884199494006	7.7164936	2.7778578
8.833463046465745	7.910791	2.8126128
8.851042101729728	8.015849	2.8312275
8.86862136570707	8.321486	2.8846986
8.886200838818924	8.4938135	2.914415
8.903780521486505	8.598546	2.9323277
8.921360414131055	8.727426	2.9542217
8.938940517173874	8.841841	2.9735234
8.956520831036297	8.887847	2.9812493
8.97410135613971	9.195479	3.032405
8.99168209290554	9.3620205	3.059742
9.009263041755265	9.659188	3.1079235
9.026844203110405	9.886561	3.1442902
9.044425577392525	10.03204	3.1673396
9.062007165023239	10.135828	3.1836815
9.079588966424197	10.40577	3.2257977
9.097170982017108	10.502114	3.2406967
9.11475321222372	11.532909	3.3960137
9.132335657465825	12.418465	3.5239842
9.149918318165264	12.496669	3.5350628
9.167501194743924	12.984489	3.6033998
9.18508428762374	12.660264	3.5581264
9.202667597226693	12.577273	3.5464451
9.220251123974803	12.197846	3.4925416
9.237834868290143	11.919145	3.4524114
9.255418830594836	11.780941	3.4323375
9.273003011311046	11.316736	3.3640356
9.290587410860985	11.179385	3.3435588
9.308172029666911	10.5079775	3.241601
9.32575686815113	10.1997385	3.193703
9.343341926735997	8.91035	2.9850209
9.360927205843916	8.630332	2.9377427
9.378512705897327	8.486898	2.9132283
9.396098427318728	8.322962	2.8849545
9.413684370530664	8.230437	2.8688738
9.431270535955722	8.1142435	2.848551
9.448856924016539	8.029559	2.8336477
9.466443535135806	7.851735	2.8020947
9.484030369736251	7.8106117	2.794747
9.501617428240658	7.7991104	2.7926888
9.519204711071852	7.8298297	2.7981832
9.536792218652714	7.8891153	2.8087568
9.55437995140617	7.8595552	2.80349
9.571967909755191	7.967092	2.8226037
9.589556094122802	8.03895	2.8353043
9.60714450493207	8.132418	2.8517394
9.624733142606116	8.165031	2.857452
9.642322007568108	8.151673	2.8551135
9.659911100241267	8.180095	2.8600864
9.677500421048851	8.120415	2.8496342
9.695089970414175	8.118168	2.8492398
9.712679748760609	8.129985	2.8513129
9.730269756511557	8.204811	2.8644042
9.747859994090492	8.304299	2.8817182
9.765450461920915	8.362487	2.8917966
9.78304116042639	8.395742	2.8975408
9.800632090030527	8.381887	2.895149
9.81822325115699	8.356507	2.8907623
9.835814644229481	8.335681	2.887158
9.853406269671762	8.457854	2.9082391
9.870998127907646	8.467385	2.9098773
9.888590219360985	8.403044	2.8988004
9.906182544455698	8.342284	2.8883014
9.923775103615734	8.358489	2.8911052
9.941367897265108	8.431575	2.9037175
9.958960925827878	8.461698	2.9088998
9.97655418972816	8.470624	2.9104335
9.994147689390106	8.469248	2.9101973
10.011741425237934	8.413123	2.9005384
10.029335397695904	8.431547	2.9037127
10.04692960718833	8.416004	2.901035
10.06452405413958	8.393024	2.8970716
10.082118738974064	8.368495	2.8928351
10.099713662116246	8.450253	2.9069319
10.117308823990651	8.476147	2.9113822
10.134904225021844	8.484465	2.9128103
10.152499865634445	8.387078	2.8960452
10.170095746253125	8.350058	2.8896465
10.18769186730261	8.341408	2.8881495
10.205288229207675	8.286608	2.8786469
10.222884832393145	8.261193	2.8742292
10.2404816772839	8.216784	2.8664932
10.258078764304868	8.23856	2.870289
10.275676093881035	8.182062	2.8604305
10.293273666437438	8.139771	2.8530285
10.310871482399158	8.167591	2.8578997
10.32846954219134	8.187878	2.8614469
10.346067846239173	8.282532	2.8779387
10.363666394967908	8.303941	2.881656
10.38126518880283	8.321193	2.8846478
10.398864228169298	8.343997	2.8885977
10.416463513492713	8.320258	2.8844857
10.434063045198531	8.302706	2.8814416
10.451662823712262	8.341251	2.8881226
10.469262849459467	8.348394	2.8893588
10.486863122865758	8.219862	2.8670301
10.504463644356806	8.134007	2.852018
10.522064414358338	8.081518	2.842801
10.539665433296118	8.086208	2.843626
10.557266701595987	8.081359	2.8427732
10.574868219683818	7.993249	2.8272336
10.592469987985552	7.8663597	2.8047032
10.610072006927185	7.713834	2.777379
10.627674276934751	7.5577316	2.7491329
10.64527679843435	7.4412255	2.727861
10.662879571852143	7.4246283	2.724817
10.680482597614331	7.384249	2.7173975
10.698085876147173	7.2603765	2.6945086
10.715689407876988	7.09602	2.6638355
10.733293193230146	6.8567066	2.6185315
10.750897232633072	6.7426143	2.5966544
10.76850152651225	6.745653	2.5972395
10.786106075294207	6.6782393	2.584229
10.803710879405534	6.5508404	2.5594609
10.821315939272877	6.4156413	2.5329115
10.83892125532294	6.3303976	2.5160282
10.856526827982472	6.318126	2.5135884
10.874132657678285	6.319198	2.5138016
10.891738744837243	6.2811327	2.506219
10.909345089886271	6.3125043	2.5124698
10.926951693252343	6.2920613	2.508398
10.944558555362494	6.2138915	2.4927678
10.96216567664381	6.0642834	2.4625766
10.979773057523436	5.9613333	2.441584
10.997380698428573	5.9405684	2.437328
11.014988599786477	5.9231877	2.43376
11.032596762024461	5.8784733	2.4245563
11.050205185569892	5.7774305	2.4036286
11.067813870850198	5.642393	2.3753722
11.085422818292859	5.5767903	2.361523
11.10303202832541	5.4930153	2.3437183
11.120641501375454	5.436958	2.3317285
11.138251237870636	5.3293967	2.3085487
11.155861238238671	5.2830667	2.2984922
11.173471502907317	5.202524	2.2809043
11.191082032304402	5.1578107	2.2710814
11.208692826857805	5.1547794	2.2704139
11.226303886995465	5.0895476	2.2560027
11.243915213145371	5.0875316	2.2555556
11.261526805735578	5.0414395	2.245315
11.279138665194196	4.9366307	2.221853
11.296750791949393	4.87086	2.2070024
11.314363186429393	4.8675833	2.20626
11.331975849062479	4.855807	2.2035894
11.34958878027699	4.8167634	2.1947126
11.36720198050133	4.7501917	2.1794934
11.384815450163948	4.6643705	2.1597154
11.402429189693366	4.608493	2.14674
11.420043199518153	4.531764	2.128794
11.437657480066942	63.47993	7.967429
11.455272031768422	85.16404	9.228436
11.472886855051353	107.581535	10.372152
11.490501950344528	99.201485	9.959994
11.508117318076819	84.565765	9.195965
11.52573295867715	45.940865	6.777969
11.543348872574514	4.219357	2.0541074
11.560965060197946	4.1681285	2.0415995
11.57858152197655	4.1353664	2.03356
11.59619825833949	4.054464	2.0135698
11.613815269715985	4.0614166	2.0152957
11.631432556535323	38.605904	6.213365
11.649050119226837	83.164444	9.119454
11.666667958219929	93.565895	9.672947
11.68428607394406	107.819725	10.383628
11.701904466828756	82.59649	9.088261
11.719523137303586	65.41664	8.088056
11.737142085798196	4.6033463	2.145541
11.754761312742286	3.7013185	1.923881
11.772380818565619	3.7140734	1.9271932
11.790000603698015	3.6960742	1.9225177
11.80762066856935	3.6434329	1.9087778
11.825241013609572	3.592245	1.8953218
11.842861639248683	3.599999	1.8973663
11.860482545916748	3.591631	1.8951598
11.878103734043883	3.58379	1.8930901
11.895725204060282	3.5363207	1.8805108
11.91334695639619	3.5270896	1.8780547
11.930968991481919	3.5143502	1.87466
11.948591309747824	3.5036662	1.8718083
11.966213911624347	3.433859	1.8530675
11.98383679754198	3.4005	1.8440444
12.001459967931268	3.3529592	1.8311087
12.019083423222835	3.2979567	1.8160278
12.036707163847352	3.2496243	1.8026714
12.05433119023556	3.262151	1.8061426
12.071955502818259	3.2793906	1.8109088
12.089580102026313	3.2559721	1.8044312
12.107204988290643	3.2406275	1.8001744
12.12483016204224	3.1915972	1.7865041
12.142455623712152	3.1622212	1.7782636
12.16008137373149	3.148262	1.7743342
12.177707412531431	3.125349	1.7678657
12.19533374054321	3.104953	1.7620877
12.212960358198126	3.0602398	1.7493541
12.230587265927545	3.054442	1.7476962
12.248214464162889	3.0828578	1.7558069
12.265841953335649	3.0659525	1.7509862
12.283469733877375	3.0447032	1.7449079
12.301097806219685	3.021759	1.7383207
12.31872617079425	2.9969153	1.7311602
12.336354828032825	2.968647	1.7229762
12.353983778367205	2.9509466	1.717832
12.371613022229262	2.957133	1.7196317
12.389242560050928	2.9881098	1.728615
12.406872392264201	2.9436598	1.7157097
12.424502519301143	2.9225266	1.7095399
12.442132941593874	2.929997	1.7117234
12.459763659574586	2.927	1.7108477
12.477394673675532	2.920747	1.7090193
12.49502598432903	2.8814123	1.6974723
12.51265759196746	2.8751647	1.695631
12.530289497023267	2.8710465	1.6944163
12.547921699928967	2.8531556	1.6891286
12.565554201117134	2.8479335	1.6875821
12.583187001020404	2.852774	1.6890156
12.600820100071486	2.8595808	1.6910295
12.618453498703152	2.86335	1.6921436
12.636087197348235	2.8810112	1.6973542
12.65372119643964	2.9132378	1.706821
12.671355496410326	2.9056227	1.7045888
12.68899009769333	2.8941796	1.7012289
12.706625000721749	2.9198978	1.7087709
12.724260205928752	2.9925766	1.7299066
12.741895713747551	3.0434434	1.7445468
12.759531524611454	3.0714397	1.7525524
12.777167638953818	3.0590258	1.7490071
12.794804057208072	3.0800405	1.7550044
12.812440779807702	3.1035955	1.7617024
12.830077807186271	3.287972	1.8132765
12.847715139777405	3.3196757	1.8219978
12.865352778014795	3.5448146	1.8827678
12.882990722332197	3.6395946	1.9077722
12.90062897316344	3.7289119	1.9310391
12.918267530942412	3.8092983	1.9517424
12.935906396103071	3.6667633	1.9148794
12.953545569079449	3.7966547	1.9485006
12.971185050305628	3.6560977	1.9120924
12.988824840215775	3.697885	1.9229885
13.006464939244115	3.6591918	1.9129014
13.024105347824943	3.4771547	1.8647131
13.041746066392617	3.5313318	1.8791838
13.05938709538157	3.3561976	1.8319927
13.077028435226296	3.4139607	1.8476906
13.094670086361363	3.3637004	1.8340393
13.112312049221401	3.3107738	1.8195533
13.129954324241112	3.183778	1.7843144
13.147596911855258	2.964235	1.7216954
13.165239812498685	2.9115465	1.7063254
13.182883026606293	2.8378758	1.6845996
13.200526554613058	2.7769566	1.6664203
13.218170396954017	2.7603257	1.6614227
13.235814554064284	2.7681167	1.6637658
13.253459026379034	2.7774093	1.6665561
13.271103814333523	2.7448893	1.6567707
13.288748918363058	2.7287421	1.6518905
13.306394338903031	2.7539265	1.6594958
13.32404007638889	2.7395978	1.6551731
13.341686131256164	2.7465122	1.6572604
13.359332503940449	2.6922672	1.640813
13.376979194877402	2.717662	1.6485333
13.394626204502751	2.7683067	1.6638229
13.412273533252307	2.812024	1.6769091
13.429921181561937	2.7814517	1.6677685
13.447569149867581	2.7441442	1.6565459
13.465217438605247	2.7529519	1.6592022
13.482866048211022	2.7154496	1.6478621
13.500514979121052	2.7359354	1.6540663
13.518164231771568	2.6846871	1.6385015
13.535813806598844	2.7216494	1.6497422
13.553463704039254	2.7433958	1.65632
13.571113924529229	2.7580752	1.6607454
13.588764468505275	2.7829015	1.6682031
13.606415336403956	2.8025281	1.6740754
13.624066528661917	2.839219	1.6849983
13.641718045715882	2.9365346	1.713632
13.659369888002635	2.9874022	1.7284104
13.67702205595903	3.002988	1.7329131
13.694674550021993	3.0326614	1.7414539
13.712327370628532	3.0483358	1.7459484
13.729980518215713	3.1312559	1.7695355
13.747633993220681	3.2029693	1.7896842
13.765287796080647	3.2373593	1.7992663
13.7829419272329	3.3262177	1.8237921
13.800596387114801	3.3515205	1.8307159
13.818251176163775	3.383452	1.8394161
13.835906294817324	3.3798027	1.838424
13.853561743513023	3.4341555	1.8531475
13.871217522688525	3.4752355	1.8641983
13.888873632781538	3.5131261	1.8743335
13.906530074229858	3.5566463	1.8859073
13.92418684747135	3.577301	1.8913754
13.941843952943948	3.5544314	1.88532
13.959501391085665	3.4770172	1.8646761
13.977159162334578	3.4468164	1.8565603
13.994817267128846	3.45557	1.8589164
14.012475705906693	3.3709733	1.8360211
14.030134479106424	3.270734	1.8085171
14.047793587166414	3.209169	1.7914153
14.065453030525108	3.1861923	1.7849908
14.083112809621026	3.1046877	1.7620124
14.100772924892766	2.9507127	1.7177639
14.118433376778997	2.8800542	1.6970723
14.136094165718458	2.8251073	1.6808056
14.153755292149969	2.843038	1.6861311
14.171416756512416	2.7753923	1.6659509
14.189078559244768	2.703885	1.6443495
14.20674070078606	2.639892	1.6247745
14.224403181575408	2.5754564	1.6048229
14.242066002051999	2.4972513	1.5802693
14.259729162655093	2.4727767	1.5725064
14.277392663824022	2.5026627	1.5819806
14.295056505998208	2.5009835	1.5814497
14.312720689617128	2.493389	1.5790468
14.330385215120348	2.4667742	1.5705968
14.348050082947497	2.4374168	1.5612229
14.3657152935383	2.40685	1.5514026
14.383380847332528	2.397175	1.5482813
14.401046744770051	2.4326286	1.5596887
14.418712986290798	2.448167	1.564662
14.436379572334793	2.4526198	1.5660843
14.454046503342123	2.3826313	1.5435774
14.471713779752946	2.3679922	1.5388281
14.489381402007504	2.3768632	1.5417079
14.507049370546113	2.3946915	1.547479
14.524717685809168	2.4124231	1.5531977
14.542386348237134	2.4137938	1.5536389
14.560055358270553	2.4229584	1.5565854
14.577724716350051	2.4586391	1.5680048
14.595394422916325	2.4999182	1.581113
14.61306447841015	2.556092	1.5987782
14.63073488327237	2.5206923	1.5876689
14.648405637943917	2.5338578	1.5918096
14.6660767428658	2.5091808	1.5840393
14.683748198479094	2.5411403	1.5940955
14.701420005224954	2.5946693	1.6107978
14.719092163544628	2.6811779	1.6374303
14.73676467387942	2.7230394	1.6501634
14.754437536670727	2.7255347	1.6509193
14.772110752360014	2.7473576	1.6575155
14.78978432138882	2.7400415	1.655307
14.807458244198777	2.777076	1.6664561
14.82513252123159	2.7286093	1.6518502
14.842807152929028	2.733864	1.6534401
14.860482139732962	2.6986098	1.6427447
14.87815748208531	2.7318017	1.6528163
14.8958331804281	2.7252629	1.6508371
14.91350923520342	2.699925	1.6431448
14.931185646853438	2.7346127	1.6536665
14.948862415820408	2.7025292	1.6439371
14.966539542546656	2.6892972	1.6399077
14.98421702747459	2.6461334	1.626694
15.001894871046696	2.6761055	1.6358807
15.019573073705542	2.6826081	1.637867
15.037251635893766	2.6534781	1.62895
15.054930558054092	2.6775	1.6363068
15.072609840629323	2.7156212	1.6479142
15.090289484062351	2.883952	1.6982203
15.107969488796124	3.184165	1.7844229
15.125649855273691	3.665419	1.9145284
15.14333058393817	4.1843295	2.0455635
15.161011675232768	5.167779	2.273275
15.17869312960076	6.455006	2.5406704
15.196374947485506	8.248402	2.872003
15.214057129330447	11.35135	3.3691764
15.231739675579114	16.020744	4.002592
15.249422586675102	21.110376	4.594603
15.267105863062092	24.208029	4.9201655
15.284789505183847	24.540127	4.9537992
15.302473513484218	22.418814	4.734851
15.320157888407127	18.856247	4.342378
15.337842630396578	14.659427	3.828763
15.355527739896656	11.449299	3.3836813
15.37321321735153	8.905084	2.9841387
15.39089906320545	6.531268	2.5556345
15.408585277902748	4.9263744	2.2195437
15.42627186188783	3.7779903	1.9437053
15.443958815605198	3.255268	1.8042362
15.461646139499424	3.0217342	1.7383137
15.479333834015168	2.8900828	1.7000244
15.497021899597165	2.8322175	1.6829194
15.514710336690234	2.7753427	1.665936
15.53239914573928	2.720805	1.6494863
15.550088327189297	2.6098175	1.6154929
15.567777881485336	2.5423467	1.5944738
15.58546780907256	2.5193784	1.587255
15.6031581103962	2.5486982	1.5964643
15.620848785901568	2.5222251	1.5881515
15.638539836034063	2.4908714	1.5782495
15.656231261239173	2.4923513	1.5787182
15.673923061962451	2.5165892	1.5863761
15.691615238649552	2.5302646	1.5906806
15.709307791746202	2.514547	1.5857323
15.727000721698221	2.4726877	1.5724782
15.744694028951498	2.4399269	1.5620265
15.76238771395202	2.4244034	1.5570496
15.780081777145844	2.4310775	1.5591913
15.797776218979125	2.4117694	1.5529872
15.815471039898094	2.3844745	1.5441744
15.833166240349064	2.3917034	1.5465133
15.850861820778437	2.4130764	1.553408
15.868557781632699	2.4480796	1.564634
15.886254123358412	2.461906	1.5690461
15.903950846402232	2.4473033	1.5643859
15.921647951210897	2.4070013	1.5514513
15.939345438231225	2.4149516	1.5540115
15.957043307910133	2.4379833	1.5614042
15.974741560694602	2.448202	1.5646731
15.992440197031714	2.4584134	1.5679328
16.01013921736862	2.4416568	1.5625802
16.02783862215259	2.4440904	1.5633587
16.045538411830933	2.4336514	1.5600165
16.06323858685107	2.4321241	1.5595269
16.080939147660512	2.4427636	1.5629343
16.09864009470684	2.4668772	1.5706296
16.11634142843774	2.478031	1.5741763
16.134043149300954	2.5004735	1.5812886
16.15174525774433	2.5071862	1.5834097
16.169447754215817	2.4739904	1.5728924
16.18715063916342	2.476047	1.573546
16.204853913035244	2.5047758	1.5826484
16.222557576279478	2.5527933	1.5977463
16.240261629344403	22.531404	4.7467256
16.257966072678386	43.04508	6.560875
16.275670906729868	38.1703	6.1782117
16.293376131947387	2.619433	1.6184663
16.31108174877957	2.612023	1.6161754
16.328787757675133	2.6100137	1.6155537
16.34649415908287	2.6320202	1.6223502
16.364200953451657	2.673756	1.6351624
16.38190814123048	2.708843	1.6458563
16.39961572286839	2.7114923	1.6466609
16.41732369881455	2.7011	1.6435024
16.43503206951817	2.7051456	1.6447327
16.45274083542859	2.7265346	1.6512221
16.47044999699522	2.7902915	1.6704166
16.488159554667558	2.8489988	1.6878977
16.505869508895184	2.9104886	1.7060155
16.523579860127786	2.9506693	1.7177513
16.541290608815117	2.994013	1.7303216
16.559001755407035	3.0507047	1.7466266
16.57671330035348	3.1015255	1.7611148
16.59442524410448	3.1293013	1.7689831
16.61213758711015	3.1943307	1.7872691
16.629850329820705	3.255382	1.8042678
16.647563472686436	3.365355	1.8344904
16.665277016157724	3.4067192	1.84573
16.682990960685053	3.4803896	1.8655802
16.70070530671898	3.5185604	1.8757826
16.718420054710155	3.5361724	1.8804713
16.736135205109335	3.5763466	1.891123
16.753850758367335	3.630449	1.9053737
16.771566714935087	3.7210155	1.9289933
16.789283075263597	3.798263	1.9489133
16.80699983980398	3.884673	1.9709574
16.82471700900741	3.9761865	1.9940377
16.84243458332518	4.056495	2.0140743
16.860152563208665	4.0767813	2.019104
16.87787094910932	4.138797	2.0344033
16.89558974147871	4.2183304	2.0538573
16.913308940768466	4.247221	2.0608788
16.931028547430333	4.2701926	2.0664444
16.94874856191613	4.323381	2.0792742
16.966468984677785	4.4162393	2.101485
16.98418981616729	4.477861	2.1160958
17.00191105683676	4.493076	2.1196878
17.019632707138374	4.507608	2.1231127
17.03735476752442	4.5556016	2.1343856
17.05507723844728	4.599288	2.1445951
17.072800120359403	4.623807	2.1503038
17.090523413713353	4.636764	2.1533146
17.108247118961785	4.6653547	2.1599433
17.125971236557437	4.713996	2.1711738
17.143695766953133	4.7795405	2.186216
17.161420710601806	4.7920275	2.18907
17.179146067956477	4.805736	2.192199
17.19687183947025	4.777116	2.1856613
17.21459802559634	4.7380247	2.1767004
17.232324626788028	4.744251	2.1781301
17.25005164349871	4.7550817	2.180615
17.267779076181863	4.704269	2.1689327
17.285506925291074	4.647688	2.1558497
17.30323519127999	4.623384	2.1502056
17.320963874602384	4.6425667	2.1546617
17.33869297571211	4.6620955	2.1591887
17.356422495063114	4.6348457	2.1528692
17.37415243310944	4.610069	2.1471071
17.391882790305218	4.566279	2.1368854
17.40961356710468	4.569694	2.1376843
17.42734476396215	4.622617	2.150027
17.445076381332044	4.64945	2.1562583
17.462808419668868	4.716704	2.1717973
17.48054087942723	4.8173285	2.1948414
17.498273761061835	5.100883	2.2585135
17.51600706502747	5.583481	2.3629391
17.533740791779024	6.3320274	2.516352
17.551474941771485	7.800321	2.7929056
17.56920951545993	8.880962	2.9800944
17.586944513299528	10.9621525	3.310914
17.60467993574556	12.580694	3.5469275
17.622415783253373	14.279226	3.7787864
17.64015205627843	15.684393	3.9603527
17.657888755276293	16.8316	4.1026335
17.675625880702604	17.417698	4.1734514
17.69336343301311	17.210676	4.1485753
17.71110141266366	16.367353	4.0456586
17.728839820110178	15.288055	3.9099944
17.746578655808705	14.378019	3.7918358
17.764317920215372	12.942235	3.5975318
17.7820576137864	11.452354	3.3841329
17.79979773697811	9.499172	3.0820727
17.81753829024692	7.6864495	2.7724447
17.835279274049356	6.08128	2.466025
17.85302068884201	5.0177803	2.2400403
17.870762535081607	4.3501296	2.0856965
17.888504813224934	4.0205956	2.0051422
17.90624752372891	3.809159	1.9517066
17.923990667050536	3.6618254	1.9135897
17.941734243646895	3.5641346	1.8878915
17.959478253975185	3.5220203	1.8767047
17.9772226984927	3.5428033	1.8822336
17.994967577656833	3.5276644	1.8782078
18.01271289192506	3.4409957	1.8549922
18.030458641754965	3.4174674	1.8486394
18.04820482760425	3.3806741	1.838661
18.06595144993067	3.386328	1.8401978
18.083698509192125	3.3598235	1.8329822
18.101446005846576	3.3487306	1.8299537
18.119193940352105	3.2952874	1.8152926
18.136942313166887	3.2544074	1.8039976
18.1546911247492	3.2323773	1.7978814
18.1724403755574	3.212239	1.792272
18.19019006604997	3.2045178	1.7901167
18.207940196685467	3.2115963	1.7920927
18.225690767922575	3.2103415	1.7917426
18.243441780220046	3.2063446	1.7906269
18.261193234036764	3.135315	1.7706821
18.278945129831676	3.1068854	1.762636
18.29669746806386	3.097415	1.7599474
18.314450249192483	3.074143	1.7533234
18.3322034736768	3.0785437	1.7545779
18.349957141976184	3.097799	1.7600565
18.3677112545501	3.1225789	1.767082
18.385465811858108	3.1413796	1.7723937
18.403220814359884	3.1479952	1.7742591
18.420976262515172	3.177975	1.7826875
18.43873215678387	3.2006283	1.78903
18.456488497625923	3.2227206	1.7951938
18.474245285501407	3.279087	1.810825
18.492002520870486	3.3000343	1.8165996
18.50976020419343	3.3920083	1.8417406
18.527518335930615	3.757964	1.9385469
18.545276916542516	4.397382	2.0969934
18.563035946489688	4.567927	2.137271
18.580795426232832	5.057362	2.248858
18.598555356232698	4.926513	2.219575
18.616315736950185	5.268418	2.2953033
18.63407656884626	4.8986363	2.2132864
18.65183785238201	5.141516	2.267491
18.669599588018617	4.8682775	2.2064173
18.68736177621737	4.8716216	2.207175
18.705124417439652	4.8178406	2.194958
18.72288751214696	4.580973	2.1403208
18.740651060800886	4.693776	2.1665125
18.758415063863115	4.397758	2.0970833
18.77617952179546	4.582458	2.1406677
18.793944435059814	4.2776885	2.0682573
18.811709804118184	4.3185325	2.0781078
18.829475629432675	4.3005953	2.0737877
18.8472419114655	4.1466126	2.0363233
18.86500865067897	4.2113657	2.0521612
18.88277584753551	3.827049	1.9562845
18.90054350249763	3.836449	1.9586855
18.918311616027957	3.5613291	1.8871484
18.936080188589226	3.450476	1.8575457
18.953849220644265	3.106159	1.7624298
18.971618712656007	2.9210625	1.7091116
18.9893886650875	2.8481646	1.6876506
19.007159078401887	8.002589	2.8288848
19.024929953062408	32.883987	5.734456
19.042701289532435	32.821327	5.72899
19.060473088275405	25.384632	5.0383162
19.07824534975489	2.6538541	1.6290654
19.096018074434568	2.7000074	1.6431699
19.113791262778197	2.7253299	1.6508573
19.13156491524966	2.72739	1.6514812
19.149339032312945	2.684913	1.6385704
19.167113614432136	2.6424334	1.6255563
19.184888662071433	2.5849366	1.6077738
19.202664175695123	2.5923262	1.6100702
19.220440155767623	2.5954003	1.6110246
19.238216602753447	2.6227248	1.6194829
19.2559935171172	2.5877342	1.6086437
19.27377089932361	2.5518422	1.5974487
19.291548749837514	2.5380247	1.593118
19.309327069123835	2.5446625	1.5951998
19.32710585764763	2.5616865	1.6005269
19.344885115874032	2.5676236	1.6023806
19.362664844268313	2.5574682	1.5992086
19.380445043295822	2.5310674	1.5909328
19.39822571342203	2.4894297	1.5777926
19.41600685511252	2.498693	1.5807254
19.43378846883297	2.523166	1.5884477
19.451570555049173	2.5282874	1.5900589
19.469353114227037	2.517756	1.5867438
19.48713614683254	2.4978755	1.5804669
19.50491965333182	2.5175152	1.5866679
19.52270363419109	2.5402198	1.5938067
19.540488089876686	2.5429387	1.5946594
19.55827302085503	2.5353446	1.5922766
19.576058427592674	2.5273352	1.5897595
19.593844310556282	2.5454733	1.595454
19.611630670212598	2.534285	1.5919439
19.629417507028506	2.5451024	1.5953377
19.64720482147098	2.507116	1.5833875
19.6649926140071	2.490237	1.5780485
19.682780885104084	2.5122178	1.5849978
19.70056963522921	2.5296178	1.5904772
19.718358864849908	2.5259092	1.5893109
19.7361485744337	2.51676	1.58643
19.753938764448215	2.5168443	1.5864565
19.771729435361202	2.5162313	1.5862633
19.789520587640506	2.514483	1.5857122
19.807312221754092	2.5233994	1.5885211
19.825104338170043	2.5310643	1.5909319
19.842896937356517	2.5189292	1.5871135
19.860690019781824	2.5210938	1.5877953
19.87848358591436	2.537491	1.5929505
19.896277636222635	2.5642753	1.6013354
19.914072171175278	2.5472424	1.5960083
19.931867191241015	2.5181637	1.5868723
19.94966269688869	2.5232422	1.5884717
19.967458688587264	2.5736415	1.6042573
19.985255166805807	2.555649	1.5986397
20.00305213201348	2.5509844	1.5971801
20.020849584679578	2.5555	1.5985931
20.038647525273507	2.5331066	1.5915736
20.05644595426477	2.5027466	1.5820072
20.07424487212299	2.4868042	1.5769604
20.092044279317903	2.4831982	1.5758166
20.109844176319353	2.4904299	1.5781096
20.127644563597304	2.4765222	1.573697
20.145445441621817	2.4697669	1.5715492
20.16324681086307	2.4401793	1.5621073
20.181048671791373	2.4273245	1.5579873
20.198851024877122	2.418479	1.555146
20.216653870590836	2.4412675	1.5624557
20.234457209403146	2.4575038	1.5676428
20.252261041784802	2.4449959	1.5636482
20.270065368206662	2.409831	1.552363
20.287870189139685	2.4251542	1.5572907
20.305675505054968	2.4274452	1.5580261
20.323481316423702	2.423011	1.5566024
20.341287623717207	2.3918793	1.5465702
20.359094427406884	2.388266	1.5454016
20.376901727964288	2.3859699	1.5446585
20.39470952586107	2.3609633	1.5365427
20.41251782156899	2.367844	1.5387801
20.430326615559935	2.3893223	1.5457432
20.448135908305886	2.3998344	1.5491399
20.465945700278965	2.4129205	1.5533578
20.483755991951384	2.4123251	1.5531662
20.50156678379548	2.4248343	1.5571879
20.519378076283708	2.4022558	1.5499213
20.537189869888635	2.3767693	1.5416775
20.55500216508294	2.3385215	1.5292225
20.572814962339415	2.3420072	1.5303618
20.59062826213098	2.3578002	1.535513
20.60844206493066	2.350716	1.5332046
20.626256371211593	2.3432026	1.5307523
20.644071181447032	2.3325315	1.5272627
20.66188649611036	2.3560433	1.5349408
20.67970231567506	2.3537812	1.5342038
20.697518640614742	2.3611317	1.5365975
20.715335471403122	2.3499122	1.5329423
20.73315280851404	2.333653	1.5276299
20.750970652421447	2.3076751	1.5191034
20.768789003599412	2.3081138	1.5192478
20.786607862522136	2.3127568	1.5207751
20.8044272296639	2.322092	1.5238413
20.82224710549913	2.3393886	1.529506
20.84006749050237	2.3383653	1.5291715
20.857888385148268	3.869983	1.9672272
20.8757097899116	45.924988	6.776798
20.893531705267254	64.76455	8.047643
20.911354131690224	83.80818	9.154681
20.92917706965566	69.084236	8.311693
20.94700051963877	50.1922	7.0846453
20.96482448211493	29.445362	5.426358
20.982648957559622	4.1655617	2.0409708
21.00047394644843	2.2825792	1.5108207
21.01829944925707	2.2904878	1.5134357
21.036125466461375	2.3412242	1.530106
21.053951998537297	2.3190405	1.5228397
21.071779045960906	2.3115597	1.5203815
21.089606609208378	2.2797272	1.5098766
21.10743468875603	2.277289	1.5090688
21.12526328508028	2.2606244	1.5035373
21.143092398657675	2.2150972	1.4883202
21.16092202996488	2.2044332	1.4847333
21.17875217947867	2.1958225	1.4818308
21.19658284767596	2.230176	1.4933773
21.21441403503377	2.259658	1.5032159
21.232245742029225	2.2292852	1.4930791
21.2500779691396	2.1961942	1.4819562
21.26791071684227	2.177211	1.4755375
21.28574398561475	2.1968474	1.4821765
21.30357777593465	2.1956792	1.4817824
21.321412088279704	2.2024934	1.48408
21.339246923127792	2.18189	1.4771222
21.357082280956888	2.1912525	1.4802879
21.3749181622451	2.161134	1.4700795
21.392754567470647	2.1538768	1.4676092
21.41059149711187	2.1386564	1.4624146
21.42842895164726	2.1569862	1.4686682
21.446266931555378	2.13922	1.4626073
21.464105437314945	2.1591551	1.4694064
21.481944469404798	2.155422	1.4681356
21.49978402830388	2.164363	1.4711773
21.51762411449127	2.1561685	1.4683897
21.53546472844617	2.157879	1.4689721
21.553305870647876	2.1502483	1.4663725
21.571147541575865	2.1532114	1.4673824
21.58898974170967	2.1276233	1.4586375
21.60683247152899	2.123089	1.4570824
21.62467573151363	2.0714104	1.4392395
21.642519522143523	2.0655801	1.4372126
21.660363843898722	2.0634158	1.4364594
21.6782086972594	2.0935156	1.4468986
21.696054082705864	2.0991392	1.4488406
21.713900000718535	2.035336	1.4266521
21.73174645177795	1.9991198	1.4139023
21.749593436364794	2.0332677	1.4259269
21.767440954959845	2.0797093	1.4421197
21.785289008044032	2.0935626	1.4469149
21.803137596098388	2.0671847	1.4377707
21.820986719604086	2.0624917	1.4361378
21.838836379042412	2.064101	1.436698
21.85668657489478	2.0382333	1.427667
21.87453730764273	2.0324774	1.4256498
21.892388577767914	2.02076	1.4215344
21.91024038575213	2.022268	1.4220647
21.928092732077285	2.0151248	1.4195509
21.945945617225426	2.013741	1.4190634
21.963799041678694	2.0115376	1.4182868
21.981653005919398	31.339724	5.5981894
21.999507510429943	78.14395	8.839907
22.01736255569286	73.09423	8.549517
22.035218142190818	4.185294	2.0457993
22.05307427040661	2.0113206	1.4182104
22.07093094082315	2.033044	1.4258486
22.088788153923474	2.0362067	1.4269571
22.106645910190746	2.0489683	1.4314218
22.12450421010827	2.023559	1.4225186
22.142363054159464	1.9828129	1.4081239
22.16022244282787	1.9812256	1.4075601
22.178082376597164	2.0050192	1.415987
22.195942855951145	2.0387146	1.4278357
22.213803881373742	2.0106173	1.4179623
22.231665453349002	2.030014	1.4247856
22.24952757236111	2.072737	1.4397004
22.26739023889438	2.0650995	1.4370455
22.28525345343323	2.0169833	1.4202054
22.30311721646225	1.9603639	1.4001299
22.320981528466113	1.9560834	1.3986006
22.33884638992964	1.9774327	1.4062122
22.356711801337788	1.932287	1.3900672
22.37457776317561	1.919327	1.3853978
22.392444275928337	1.9477772	1.3956279
22.410311340081282	1.9536612	1.3977343
22.428178956119904	1.9246385	1.3873134
22.446047124529805	1.914702	1.3837276
22.46391584579669	1.9385222	1.3923082
22.481785120406414	1.9875194	1.4097941
22.49965494884496	2.017971	1.4205531
22.51752533159841	1.9916692	1.4112651
22.53539626915302	2.0109413	1.4180766
22.553267761995137	1.9714317	1.4040768
22.571139810611264	1.9453825	1.3947697
22.589012415488025	1.9333266	1.3904412
22.60688557711216	1.9532388	1.3975832
22.624759295970566	1.9930156	1.4117421
22.642633572550263	1.9924308	1.4115349
22.660508407338362	1.9714353	1.4040781
22.67838380082217	1.9556776	1.3984555
22.696259753489077	1.9687192	1.4031105
22.714136265826614	2.0052476	1.4160676
22.73201333832246	2.0113883	1.4182342
22.74989097146439	2.0117617	1.4183658
22.76776916574035	2.0095282	1.4175782
22.785647921638393	2.0155544	1.4197023
22.803527239646712	2.0017002	1.4148146
22.82140712025363	2.0018482	1.4148668
22.839287563947593	1.9869212	1.4095819
22.85716857121719	1.9627374	1.4009774
22.875050142551135	1.9281594	1.3885818
22.892932278438277	1.91455	1.3836726
22.910814979367604	1.9166965	1.384448
22.928698245828222	1.938058	1.3921416
22.946582078309387	1.9276974	1.3884155
22.96446647730047	1.9569665	1.3989162
22.98235144329098	1.9442122	1.39435
23.000236976770562	1.9142526	1.3835652
23.018123078229	1.9203868	1.3857802
23.03600974815619	1.9517848	1.3970629
23.053896987042194	1.9580369	1.3992987
23.071784795377173	1.9598316	1.3999399
23.08967317365145	1.9685687	1.4030569
23.10756212235546	1.9237555	1.3869952
23.125451641979787	1.9503164	1.3965373
23.143341733015134	1.9565809	1.3987783
23.161232395952357	1.9755653	1.4055481
23.179123631282426	1.9325367	1.3901571
23.197015439496468	1.9315453	1.3898004
23.214907821085717	1.9393294	1.392598
23.23280077654157	1.9155122	1.3840203
23.250694306355538	1.9156381	1.3840657
23.268588411019277	1.8989002	1.3780059
23.28648309102458	1.9199156	1.3856102
23.304378346863356	1.9171362	1.3846068
23.322274179027676	1.9419562	1.3935409
23.340170588009723	1.9423265	1.3936738
23.358067574301852	1.9415276	1.3933871
23.37596513839651	1.9572736	1.3990259
23.39386328078629	2.003891	1.4155886
23.411762001963947	2.0339384	1.4261621
23.429661302422353	2.0017867	1.4148451
23.4475611826545	1.9666095	1.4023585
23.46546164315356	1.9678861	1.4028137
23.48336268441279	1.9448494	1.3945786
23.501264306925638	1.9544293	1.3980091
23.51916651118564	1.93028	1.3893452
23.537069297686497	1.9008441	1.378711
23.554972666922037	1.8994864	1.3782185
23.57287661938623	1.8847387	1.3728578
23.59078115557318	1.901914	1.379099
23.608686275977128	1.9011956	1.3788385
23.62659198109246	1.9744483	1.4051507
23.6444982714137	1.9836298	1.4084139
23.66240514743549	1.9693108	1.4033214
23.68031260965263	1.9239038	1.3870486
23.698220658560068	1.8698164	1.3674123
23.716129294652845	1.8750652	1.3693302
23.7340385184262	1.9403739	1.3929731
23.75194833037546	1.9619786	1.4007064
23.769858730996123	1.9498308	1.3963634
23.78776972078382	1.9612348	1.4004409
23.80568130023431	1.9727525	1.4045471
23.823593469843495	1.9855909	1.40911
23.841506230107424	1.9429383	1.3938932
23.859419581522275	1.9188633	1.3852304
23.87733352458438	1.9101642	1.3820869
23.89524805979019	1.930828	1.3895423
23.913163187636318	1.8955636	1.3767947
23.931078908619508	1.917244	1.3846458
23.948995223236633	1.940424	1.3929911
23.966912131984735	1.9343988	1.3908267
23.98482963536096	1.99423	1.4121721
24.002747733862616	2.0585601	1.4347683
24.020666427987155	2.123789	1.4573226
24.038585718232156	2.1243784	1.4575248
24.056505605095353	2.111134	1.4529742
24.074426089074617	2.1517723	1.466892
24.092347170667946	2.1694639	1.47291
24.110268850373515	2.1448634	1.4645352
24.128191128689586	2.1308842	1.4597548
24.146114006114626	2.0783498	1.4416482
24.164037483147187	2.0700083	1.4387523
24.181961560286005	2.1071935	1.4516175
24.199886238029926	2.1265323	1.4582635
24.21781151687797	2.0986383	1.4486678
24.235737397329274	2.0606666	1.4355022
24.253663879883135	2.0744448	1.4402933
24.271590965038975	2.0850892	1.4439838
24.289518653296376	2.1156144	1.4545152
24.30744694515505	2.132338	1.4602528
24.32537584111486	2.0996504	1.449017
24.34330534167581	2.0870636	1.4446673
24.361235447338046	2.107946	1.4518766
24.379166158601876	2.1610866	1.4700634
24.39709747596772	2.1445706	1.4644352
24.41502939993615	2.0961921	1.4478233
24.432961931007917	2.0405085	1.4284637
24.450895069683856	2.0349329	1.4265107
24.468828816465	1.9757625	1.4056182
24.4867631718525	1.9926667	1.4116185
24.504698136347656	2.0315075	1.4253097
24.52263371045192	2.0185122	1.4207436
24.540569894666874	1.9487392	1.3959725
24.558506689494266	1.9412597	1.393291
24.57644409543597	1.9405398	1.3930326
24.594382112994012	1.9479796	1.3957003
24.61232074267057	1.9758294	1.405642
24.630259984967953	1.9630934	1.4011043
24.64819984038863	1.963717	1.4013269
24.66614030943522	1.9829999	1.4081903
24.684081392610462	2.031107	1.4251691
24.702023090417274	2.0355444	1.426725
24.7199654033587	2.001075	1.4145936
24.737908331937927	2.0386496	1.4278128
24.755851876658305	2.109705	1.4524823
24.773796038023324	2.0784006	1.4416659
24.79174081653661	2.0499105	1.4317509
24.809686212701962	2.0504274	1.4319314
24.827632227023294	2.1520073	1.4669721
24.8455788600047	2.159379	1.4694825
24.8635261121504	2.13853	1.4623713
24.88147398396475	2.1005678	1.4493335
24.899422475952303	2.111009	1.4529312
24.917371588617698	2.1401844	1.4629369
24.935321322465768	2.2063015	1.4853624
24.953271678001478	2.2994385	1.51639
24.97122265572994	2.5401237	1.5937766
24.989174256156414	2.8732634	1.6950703
25.00712647978632	3.3311787	1.8251517
25.02507932712521	3.7504022	1.9365956
25.043032798678798	4.2456875	2.0605066
25.060986894952933	4.915998	2.217205
25.078941616453637	5.7273993	2.3931985
25.096896963687055	6.6471243	2.5782018
25.114852937159508	7.8164444	2.7957904
25.132809537377444	8.304862	2.8818157
25.150766764847468	8.29642	2.8803506
25.168724620076347	7.6320167	2.7626104
25.186683103570985	6.6504283	2.5788424
25.204642215838426	5.5801806	2.3622406
25.222601957385894	4.2970405	2.0729303
25.24056232872074	3.2946208	1.815109
25.25852333035048	2.6979315	1.6425382
25.276484962782778	2.3088946	1.5195048
25.294447226525435	2.1408315	1.463158
25.312410122086423	2.040104	1.4283221
25.330373649973843	1.9648883	1.4017447
25.348337810695988	1.9557112	1.3984674
25.366302604761245	1.9039494	1.3798367
25.384268032678207	1.9204341	1.3857973
25.40223409495558	1.9201206	1.3856841
25.420200792102257	1.944448	1.3944347
25.438168124627246	1.9465632	1.3951929
25.45613609303974	1.9283706	1.3886578
25.474104697849057	1.9264143	1.3879533
25.492073939564698	1.9291111	1.3889245
25.510043818696285	1.9362038	1.3914754
25.528014335753614	1.9299113	1.3892125
25.54598549124664	1.9071231	1.3809863
25.56395728568544	1.9004642	1.3785733
25.58192971958028	1.8924189	1.3756522
25.59990279344156	1.8906236	1.3749995
25.617876507779833	1.8631673	1.3649789
25.635850863105826	1.8649585	1.3656348
25.653825859930386	1.8614489	1.3643492
25.671801498764548	1.8772492	1.3701274
25.68977778011949	1.8714982	1.3680271
25.707754704506524	1.8727546	1.3684863
25.725732272437153	1.8540826	1.361647
25.743710484423012	1.8887032	1.374301
25.761689340975888	1.8946139	1.3764497
25.77966884260774	1.8708485	1.3677896
25.797648989830662	1.8328191	1.3538165
25.815629783156922	1.8106445	1.3456019
25.83361122309895	1.8324983	1.353698
25.85159331016929	1.8500764	1.3601751
25.869576044880695	1.8670198	1.3663893
25.887559427746034	1.8704791	1.3676546
25.90554345927836	1.8794336	1.3709244
25.92352813999086	1.8735858	1.3687899
25.94151347039689	1.8663595	1.3661476
25.959499451009965	1.8364459	1.3551553
25.97748608234374	1.8022351	1.3424735
25.995473364912062	1.8043658	1.3432668
26.013461299228904	1.8282315	1.3521211
26.03144988580839	1.8553114	1.3620982
26.04943912516483	1.8268925	1.3516259
26.067429017812675	1.8037835	1.3430501
26.085419564266537	1.8140585	1.34687
26.103410765041186	1.829138	1.3524563
26.12140262065155	1.8046955	1.3433895
26.139395131612723	1.8328631	1.3538327
26.157388298439948	1.8849324	1.3729284
26.17538212164861	1.9019389	1.3791081
26.193376601754295	1.8894504	1.3745729
26.211371739272714	1.9078443	1.3812474
26.229367534719746	1.8881282	1.3740917
26.247363988611433	1.8181939	1.3484042
26.26536110146397	1.7849423	1.3360174
26.283358873793727	1.8029718	1.3427479
26.301357306117204	1.8202937	1.3491826
26.319356398951104	1.835744	1.3548963
26.33735615281224	1.839798	1.3563915
26.35535656821762	1.8712047	1.3679198
26.373357645684404	1.8784244	1.3705562
26.39135938572991	1.8890339	1.3744214
26.409361788871614	1.8434252	1.3577279
26.427364855627165	1.8031982	1.3428322
26.445368586514352	1.7735698	1.3317544
26.46337298205115	1.7522423	1.323723
26.48137804275568	1.8077956	1.3445429
26.499383769146217	1.8682367	1.3668345
26.517390161741215	1.8384837	1.355907
26.53539722105928	1.8113531	1.3458651
26.553404947619182	1.8296001	1.3526272
26.571413341939856	1.8482462	1.3595022
26.589422404540397	1.8340526	1.354272
26.60743213594006	1.8522586	1.360977
26.62544253665827	1.8697518	1.3673887
26.64345360721459	1.8729362	1.3685526
26.66146534812879	1.8308184	1.3530774
26.679477759920758	1.8156092	1.3474455
26.69749084311057	1.8423942	1.3573482
26.71550459821847	1.845399	1.3584547
26.733519025764842	1.8580424	1.3631003
26.751534126270258	1.8768711	1.3699895
26.769549900255434	1.8566843	1.362602
26.787566348241267	1.8614056	1.3643334
26.80558347074881	1.8349051	1.3545867
26.823601268299267	1.8234159	1.3503392
26.841619741414036	1.8077962	1.3445431
26.85963889061465	1.7856665	1.3362883
26.877658716422832	1.745872	1.3213145
26.89567921936045	1.7660632	1.3289331
26.913700399949544	1.8058087	1.3438038
26.93172225871233	1.8267546	1.3515749
26.949744796171174	1.8300717	1.3528014
26.967768012848605	1.8329254	1.3538557
26.98579190926733	1.8524512	1.3610479
27.003816485950225	1.879974	1.3711214
27.021841743420318	1.8537399	1.3615211
27.039867682200814	1.825118	1.3509693
27.057894302815072	1.8425714	1.3574135
27.07592160578664	1.846935	1.3590199
27.0939495916392	1.8179692	1.3483208
27.111978260896635	1.8271437	1.3517188
27.13000761408296	1.8265444	1.351497
27.148037651722397	1.8298075	1.3527038
27.166068374339304	1.7726269	1.3314004
27.184099782458215	1.7572373	1.3256083
27.20213187660384	1.8024498	1.3425535
27.22016465730105	1.8620694	1.3645766
27.23819812507487	1.8151543	1.3472767
27.256232280450533	1.7899945	1.3379067
27.274267123953383	1.7927378	1.3389316
27.292302656108987	1.8073938	1.3443935
27.31033887744306	1.8379177	1.3556982
27.32837578848146	1.8335825	1.3540984
27.34641338975026	1.8429713	1.3575608
27.364451681775673	1.8713636	1.367978
27.382490665084074	1.8796531	1.3710045
27.400530340202046	1.8467118	1.3589377
27.41857070765629	1.8356785	1.3548721
27.436611767973726	1.7887694	1.3374488
27.454653521681404	1.7631125	1.3278224
27.472695969306564	1.7892312	1.3376215
27.490739111376627	1.8143438	1.3469758
27.508782948419153	1.8147928	1.3471425
27.526827480961902	1.8047744	1.343419
27.54487270953279	1.8301059	1.3528141
27.562918634659898	1.8183109	1.3484476
27.580965256871508	1.823422	1.3503414
27.599012576696026	1.8483862	1.3595537
27.617060594662068	1.8685936	1.366965
27.63510931129842	1.8485614	1.3596181
27.65315872713401	1.8005717	1.3418539
27.67120884269797	1.8134485	1.3466434
27.68925965851958	1.8404372	1.3566271
27.707311175128307	1.884392	1.3727316
27.725363393053787	1.8702863	1.3675841
27.74341631282583	1.8219324	1.3497897
27.7614699349744	1.7982012	1.3409703
27.77952426002968	2.0304556	1.4249406
27.797579288521973	2.1559076	1.4683009
27.815635020981784	2.6460016	1.6266534
27.83369145793979	2.7119906	1.6468122
27.85174859992682	2.5444412	1.5951304
27.869806447473923	2.429855	1.5587993
27.887865001112267	2.0679567	1.4380392
27.905924261373233	1.9136258	1.3833387
27.92398422878836	1.8931172	1.375906
27.94204490388936	1.8956482	1.3768255
27.96010628720813	1.9127157	1.3830097
27.978168379276728	1.9029688	1.3794813
27.9962311806274	1.8696783	1.3673618
28.014294691792568	1.8317674	1.353428
28.0323589133048	1.8467581	1.3589548
28.050423845696887	1.8976992	1.37757
28.068489489501758	1.9046102	1.3800762
28.086555845252523	1.8826874	1.3721106
28.104622913482487	1.8408234	1.3567694
28.122690694725115	1.8836204	1.3724505
28.14075918951405	1.9342664	1.3907791
28.15882839838312	1.955189	1.3982807
28.176898321866304	1.967177	1.4025608
28.1949689604978	1.9296904	1.389133
28.213040314811945	1.9696016	1.403425
28.23111238534327	1.9628593	1.4010208
28.249185172626493	1.9320543	1.3899835
28.267258677196473	1.9161769	1.3842604
28.285332899588294	1.9566417	1.3988001
28.303407840337172	1.9776026	1.4062726
28.321483499978545	1.977266	1.4061528
28.33955987904799	1.9583358	1.3994055
28.357636978081285	1.9415301	1.393388
28.37571479761439	1.9168044	1.384487
28.393793338183425	1.9162785	1.3842971
28.41187260032469	1.9419364	1.3935338
28.429952584574686	1.9931296	1.4117824
28.448033291470065	2.0125039	1.4186275
28.46611472154769	1.9843242	1.4086604
28.484196875344566	1.9948938	1.412407
28.502279753397914	2.0496259	1.4316515
28.52036335624511	2.0956976	1.4476525
28.538447684423716	2.0247355	1.422932
28.556532738471482	1.9758471	1.4056484
28.574618518926325	1.9779459	1.4063946
28.59270502632635	1.9920719	1.4114077
28.61079226120985	2.0143971	1.4192946
28.628880224115274	2.0788293	1.4418145
28.646968915581287	2.1376855	1.4620826
28.66505833614671	2.0967126	1.4480029
28.68314848635055	2.0855184	1.4441324
28.701239366732004	2.0803616	1.4423459
28.71933097783044	2.0755334	1.4406712
28.737423320185403	2.0517733	1.4324012
28.75551639433665	2.0967517	1.4480165
28.773610200824074	2.1823018	1.4772615
28.791704740187793	2.1753128	1.4748942
28.80980001296809	2.1378372	1.4621345
28.827896019705413	2.1527793	1.4672353
28.845992760940433	2.131919	1.4601092
28.86409023721397	2.1692555	1.4728392
28.88218844906704	2.2517178	1.5005724
28.900287397040845	2.2645438	1.5048401
28.918387081676755	2.2664123	1.5054609
28.936487503516343	2.2846682	1.5115119
28.954588663101365	2.336736	1.5286386
28.97269056097374	2.3596418	1.5361125
28.990793197675597	2.3359206	1.5283718
29.00889657374923	2.347851	1.53227
29.027000689737125	2.3828814	1.5436585
29.04510554618196	2.4556756	1.5670595
29.06321114362659	2.5261238	1.5893785
29.08131748261405	2.5273395	1.5897608
29.099424563687567	2.4976947	1.5804096
29.11753238739057	2.5569956	1.5990609
29.13564095426663	2.5798082	1.6061782
29.15375026485954	2.5692	1.6028725
29.171860319713275	2.5831475	1.6072173
29.18997111937199	2.6791286	1.6368043
29.20808266438002	2.745863	1.6570646
29.226194955281898	2.8020182	1.673923
29.244307992622335	2.881729	1.6975656
29.26242177694624	2.9349878	1.7131807
29.2805363087987	2.9284766	1.7112793
29.29865158872498	2.9183583	1.7083204
29.316767617270557	2.921157	1.7091392
29.334884394981064	2.9372485	1.7138402
29.353001922402367	2.9791174	1.726012
29.37112020008047	3.019443	1.7376544
29.389239228561596	3.1015942	1.7611344
29.407359008392152	3.3806345	1.8386502
29.42547954011872	3.7334456	1.9322126
29.44360082428809	4.3339934	2.0818245
29.46172286144722	5.3929462	2.3222718
29.479845652143283	6.9634075	2.6388268
29.497969196923606	8.981329	2.9968865
29.516093496335728	11.531106	3.3957481
29.5342185509274	14.262759	3.7766068
29.55234436124651	16.530916	4.065823
29.570470927841175	17.855974	4.225633
29.588598251259686	17.688976	4.2058263
29.60672633205055	16.292477	4.036394
29.624855170762405	14.160939	3.7631023
29.642984767944146	11.511772	3.3929002
29.66111512414481	8.795364	2.965698
29.67924623991366	6.592191	2.5675263
29.697378115800138	5.169092	2.2735639
29.71551075235387	4.2975836	2.0730615
29.733644150124675	3.913315	1.9782101
29.751778309662576	3.7204463	1.9288459
29.769913231517766	3.5698957	1.8894168
29.78804891624066	3.4455757	1.8562262
29.806185364381818	3.4630215	1.8609196
29.82432257649206	3.461037	1.8603863
29.842460553122333	3.4471023	1.8566374
29.86059929482382	3.3660371	1.8346763
29.878738802147872	3.3053257	1.8180555
29.896879075646048	3.3198457	1.8220444
29.915020115870114	3.3940792	1.8423027
29.933161923371976	3.398284	1.8434435
29.951304498703777	3.3403168	1.8276534
29.969447842417857	3.280801	1.8112981
29.987591955066733	3.258132	1.8050296
30.005736837203123	3.219958	1.7944242
30.023882489379943	3.2065387	1.7906811
30.04202891215028	3.1996992	1.7887703
30.060176106067455	3.199811	1.7888016
30.078324071684946	3.1670945	1.7796333
30.09647280955646	3.1799731	1.783248
30.114622320235863	3.2397192	1.799922
30.132772604277257	3.2741427	1.8094592
30.1509236622349	3.2357554	1.7988206
30.16907549466328	3.1723106	1.7810981
30.18722810211705	3.1313853	1.769572
30.205381485151097	3.1408165	1.7722349
30.22353564432045	3.1184509	1.7659136
30.241690580180403	3.1102507	1.7635903
30.25984629328638	3.1196396	1.7662501
30.278002784194037	3.0525503	1.747155
30.296160053459246	2.9873102	1.7283837
30.314318101638033	2.989682	1.7290697
30.332476929286646	3.0372634	1.7427746
30.35063653696153	3.0581503	1.7487568
30.368796925219307	3.0346746	1.7420318
30.386958094616844	2.9552112	1.7190728
30.40512004571115	2.930392	1.7118388
30.423282779059463	2.9092731	1.7056592
30.441446295219233	2.9266648	1.7107497
30.459610594748067	3.0200975	1.7378428
30.47777567820382	2.994979	1.7306007
30.495941546144504	2.9237647	1.7099019
30.51410819912835	2.9536119	1.7186075
30.532275637713795	2.9119177	1.7064342
30.55044386245946	2.8265946	1.681248
30.56861287392416	2.7739484	1.6655174
30.586782672666956	2.7890453	1.6700435
30.604953259247047	2.8400648	1.6852492
30.623124634223885	2.875168	1.6956321
30.641296798157075	2.8597195	1.6910706
30.659469751606462	2.863011	1.6920434
30.677643495132074	2.8591032	1.6908883
30.695818029294152	2.7778118	1.6666769
30.713993354653116	2.704695	1.6445957
30.73216947176962	2.6698742	1.6339749
30.75034638120448	2.6921332	1.6407721
30.768524083518756	2.7719533	1.6649184
30.786702579273673	2.7833886	1.668349
30.80488186903069	2.8048506	1.6747688
30.82306195335144	2.9144576	1.7071782
30.841242832797782	3.1212244	1.7666987
30.85942450793176	3.4711452	1.863101
30.877606979315637	3.770411	1.9417546
30.895790247511883	4.07056	2.0175629
30.913974313083134	4.5056233	2.1226454
30.932159176592283	4.791887	2.1890378
30.95034483860237	4.903342	2.214349
30.968531299676698	4.702266	2.1684709
30.98671856037873	4.3796024	2.09275
31.00490662127215	3.9641986	1.9910295
31.023095482920848	3.552221	1.8847337
31.04128514588892	3.1786904	1.7828882
31.059475610740662	2.8584573	1.6906973
31.07766687804056	2.630988	1.622032
31.09585894835335	2.493425	1.5790582
31.11405182224393	2.380717	1.5429572
31.132245500277417	2.3520036	1.5336243
31.15043998301914	2.4063506	1.5512416
31.168635271034628	2.4358933	1.5607349
31.18683136488964	2.449961	1.5652351
31.20502826515008	2.4549594	1.566831
31.223225972382135	2.457661	1.5676929
31.241424487152155	2.469146	1.5713516
31.259623810026692	2.516692	1.5864085
31.27782394157253	2.5388477	1.5933762
31.296024882356644	2.470993	1.5719392
31.314226632946237	2.420768	1.5558817
31.332429193908684	2.4229615	1.5565865
31.350632565811598	2.485416	1.5765202
31.368836749222787	2.5501359	1.5969145
31.387041744710295	2.5607858	1.6002455
31.40524755284232	2.5337815	1.5917857
31.423454174187317	2.5153239	1.5859773
31.441661609313922	2.528494	1.5901239
31.459869858791002	2.5439072	1.5949631
31.478078923187628	2.4590578	1.5681384
31.496288803073064	2.3798184	1.542666
31.514499499016807	2.3391123	1.5294156
31.532711011588546	2.2896533	1.51316
31.550923341358178	2.297753	1.5158341
31.56913648889584	2.3275533	1.5256321
31.587350454771844	2.395797	1.5478362
31.605565239556732	2.3751166	1.5411413
31.62378084382127	2.3375585	1.5289077
31.641997268136382	2.3224587	1.5239615
31.660214513073274	2.3305562	1.5266159
31.67843257920331	2.325757	1.5250432
31.6966514670981	2.272777	1.5075732
31.71487117732944	2.258956	1.5029824
31.733091710469346	2.304128	1.5179354
31.751313067090052	2.3508902	1.5332613
31.769535247764008	2.358317	1.5356812
31.787758253063878	2.3619297	1.5368571
31.805982083562526	2.3522787	1.533714
31.824206739833024	2.3058197	1.5184926
31.84243222244869	2.233369	1.494446
31.860658531983013	2.277266	1.5090613
31.878885669009737	2.2892888	1.5130396
31.897113634102784	2.2149782	1.4882803
31.91534242783632	2.2004375	1.4833872
31.933572050784694	2.2623172	1.5041001
31.951802503522508	2.2990808	1.5162721
31.970033786624548	2.302086	1.5172627
31.988265900665834	2.255628	1.5018749
32.006498846221575	2.2425828	1.4975256
32.02473262386724	2.26635	1.5054401
32.04296723417845	2.2608247	1.5036039
32.0612026777311	2.1768458	1.4754138
32.07943895510129	2.200669	1.4834652
32.097676066865304	2.1926837	1.4807713
32.115914013599685	2.209495	1.4864371
32.13415279588115	2.2097402	1.4865195
32.152392414286666	2.2636323	1.5045372
32.1706328693934	2.2910864	1.5136335
32.18887416177875	2.2080545	1.4859524
32.20711629202032	2.1021345	1.4498739
32.225359260695924	2.1016982	1.4497235
32.243603068383614	2.0831885	1.4433255
32.26184771566166	2.0475368	1.4309217
32.28009320310852	2.087525	1.444827
32.2983395313029	2.1846414	1.4780532
32.31658670082372	2.205798	1.4851929
32.33483471225012	2.1179783	1.4553275
32.35308356616143	2.0558264	1.4338154
32.371333263137245	2.038035	1.4275976
32.38958380375734	2.060601	1.4354794
32.407835188601744	2.0735443	1.4399806
32.42608741825067	2.0554085	1.4336696
32.444340493284585	2.0108688	1.418051
32.46259441428416	2.0493886	1.4315686
32.48084918183028	2.062391	1.4361027
32.49910479650405	2.091496	1.4462005
32.51736125888683	2.175395	1.4749221
32.53561856956014	2.2200296	1.4899764
32.5538767291058	2.1458766	1.4648811
32.572135738105764	2.1008754	1.4494396
32.59039559714228	2.11587	1.4546031
32.608656306797776	2.1459038	1.4648904
32.62691786765491	2.066737	1.437615
32.645180280296586	2.0362644	1.4269774
32.663443545305896	1.9594351	1.3997983
32.68170766326619	1.9317812	1.3898853
32.69997263476099	1.9630035	1.4010723
32.7182384603741	2.0283363	1.4241967
32.7365051406895	1.9499552	1.396408
32.75477267629144	1.8952917	1.3766959
32.77304106776434	1.9439883	1.3942698
32.79131031569289	2.0883427	1.44511
32.809580420661966	2.1008577	1.4494336
32.827851383256714	2.020939	1.4215974
32.84612320406245	1.9320223	1.3899721
32.86439588366476	1.9523655	1.3972707
32.88266942264945	2.033347	1.4259547
32.9009438216025	2.0921383	1.4464226
32.9192190811102	2.0597203	1.4351726
32.937495201758985	2.090541	1.4458703
32.95577218413556	2.0740967	1.4401724
32.974050028826866	1.9175383	1.384752
32.992328736420035	1.8427458	1.3574778
33.010608307502444	1.9631934	1.4011401
33.02888874266169	2.0432	1.4294055
33.047170042485604	2.0441384	1.4297336
33.06545220756225	1.9925905	1.4115915
33.083735238479896	2.0003324	1.4143311
33.10201913582707	1.9566607	1.3988069
33.12030390019248	1.9444374	1.3944309
33.138589532165135	2.0699272	1.4387242
33.15687603233419	2.127719	1.4586703
33.17516340128909	2.0975683	1.4482985
33.19345163961947	2.0334392	1.4259871
33.211740747915215	2.0138433	1.4190995
33.23003072676643	1.9983934	1.4136454
33.248321576763466	2.005379	1.4161141
33.266613298496885	1.9302504	1.3893346
33.28490589255747	1.9954684	1.4126105
33.30319935953626	2.0075397	1.4168768
33.32149370002451	2.026247	1.423463
33.339788914613706	2.0033011	1.4153802
33.358085003895575	1.9749739	1.4053377
33.376381968462034	1.9992425	1.4139458
33.39467980890529	2.0020413	1.4149351
33.41297852581774	2.0008829	1.4145256
33.43127811979204	1.9295292	1.3890749
33.44957859142105	1.9337336	1.3905874
33.467879941297866	1.9517589	1.3970536
33.486182170015844	2.0072343	1.416769
33.50448527816853	1.948633	1.3959345
33.522789266349754	1.8768476	1.3699809
33.541094135153514	1.8742782	1.3690428
33.55939988517411	2.0004303	1.4143656
33.57770651700602	2.0040627	1.4156492
33.59601403124398	1.9015514	1.3789675
33.61432242848296	1.8370415	1.355375
33.632631709318154	1.8952305	1.3766737
33.650941874344994	1.9644122	1.4015749
33.66925292415916	1.9480612	1.3957297
33.68756485935654	1.871265	1.3679419
33.70587768053328	1.8549443	1.3619634
33.724191388285746	1.8981974	1.3777509
33.74250598321054	1.9017876	1.3790531
33.760821465904506	1.8341744	1.354317
33.77913783696474	1.8853443	1.3730783
33.79745509698852	1.9862044	1.4093276
33.815773246573414	1.9943135	1.4122016
33.8340922863172	1.9142947	1.3835804
33.852412216817896	1.9700708	1.4035921
33.87073303867377	2.0535488	1.4330208
33.889054752483304	2.04155	1.4288281
33.907377358845245	2.0139666	1.4191428
33.92570085835853	2.003917	1.4155978
33.94402525162239	2.0400395	1.4282995
33.96235053923627	2.0350842	1.4265637
33.980676721799824	2.0180304	1.420574
33.999003799912984	1.9770191	1.4060651
34.01733177417592	1.950096	1.3964584
34.03566064518901	1.9778073	1.4063454
34.0539904135529	1.9616992	1.4006068
34.07232107986846	1.8955616	1.376794
34.090652644736785	1.8656005	1.3658699
34.108985108759235	1.9140446	1.38349
34.12731847253742	1.8973719	1.3774512
34.14565273667313	1.8805815	1.3713429
34.16398790176847	1.9070609	1.3809638
34.18232396842574	1.992263	1.4114754
34.20066093724749	1.9376252	1.391986
34.21899880883651	1.8107257	1.3456321
34.23733758379583	1.8324859	1.3536935
34.25567726272874	2.0231774	1.4223844
34.27401784623872	2.077772	1.4414479
34.29235933492957	2.018138	1.4206119
34.31070172940526	1.9737151	1.4048897
34.32904503027003	2.052508	1.4326577
34.347389238128386	2.099385	1.4489255
34.36573435358502	1.9490395	1.39608
34.38408037724492	1.8551979	1.3620565
34.402427309713296	1.9233074	1.3868335
34.42077515159559	2.0057173	1.4162335
34.43912390349752	1.9905177	1.4108571
34.45747356602499	2.0791605	1.4419295
34.47582413978423	2.0768275	1.4411203
34.49417562538163	2.0628676	1.4362687
34.51252802342388	2.0338626	1.4261355
34.53088133451789	1.9514847	1.3969555
34.54923555927084	1.9103621	1.3821585
34.567590698290104	1.8639927	1.3652812
34.58594675218336	1.9553195	1.3983274
34.6043037215585	1.9713182	1.4040364
34.62266160702365	2.0569863	1.4342197
34.641020409187234	2.0484238	1.4312315
34.65938012865785	2.0078814	1.4169973
34.677740766044394	1.9207898	1.3859257
34.69610232195598	2.0118353	1.4183918
34.714464797002016	2.1071978	1.451619
34.73282819179208	1.9855024	1.4090786
34.751192506936064	1.8637182	1.3651806
34.76955774304408	1.838742	1.3560022
34.7879239007265	1.8542022	1.3616909
34.80629098059391	1.945245	1.3947204
34.824658983257194	2.046297	1.4304883
34.843027909327446	1.8896976	1.3746628
34.86139775941603	1.9810344	1.4074923
34.879768534134534	2.1164968	1.4548185
34.89814023409483	2.156101	1.4683667
34.91651285990901	2.113708	1.4538597
34.93488641218944	2.0206504	1.4214958
34.95326089154871	1.9652891	1.4018877
34.97163629859967	2.0068114	1.4166197
34.99001263395542	2.132002	1.4601377
35.00838989822934	2.2100048	1.4866085
35.02676809203499	2.0604522	1.4354275
35.04514721598624	1.8833154	1.3723394
35.063527270697215	1.912499	1.3829312
35.081908256782256	2.012082	1.4184788
35.10029017485597	2.024217	1.4227498
35.11867302553321	1.8442158	1.358019
35.137056809429104	1.7984234	1.3410531
35.155441527159006	1.9108814	1.3823464
35.173827179338524	2.1966472	1.4821091
35.19221376658354	2.130315	1.4595599
35.21060128951017	2.0720088	1.4394474
35.2289897487348	2.0060074	1.4163359
35.24737914487405	1.7579151	1.325864
35.26576947854479	1.8462818	1.3587795
35.28416075036418	2.0192153	1.420991
35.30255296094958	2.1020815	1.4498557
35.32094611091867	1.9789712	1.4067591
35.33934020088932	2.1198785	1.4559803
35.35773523147969	2.27306	1.5076671
35.3761312033082	2.0183606	1.4206902
35.394528116993506	1.9585685	1.3994887
35.41292597315452	1.968997	1.4032096
35.431324772410434	2.0510118	1.4321353
35.449724515380666	2.2886095	1.5128151
35.46812520268491	2.6324053	1.6224688
35.486526834943106	2.6581247	1.6303756
35.504929412775454	2.3371935	1.5287882
35.52333293680242	1.8696693	1.3673586
35.54173740764471	1.7647175	1.3284267
35.560142825923286	1.8154949	1.347403
35.5785491922594	1.4457506	1.2023937
35.59695650727454	1.3550484	1.1640655
35.61536477159042	1.3578206	1.1652557
