0.008763373481513119	1.3305467	1.1534933
0.026290120649546365	0.925145	0.96184456
0.043816868432600686	0.62998754	0.79371756
0.06134361724069026	0.3499198	0.5915402
0.07887036748382949	0.2064894	0.45441106
0.0963971195720331	0.10667746	0.32661515
0.11392387391531617	0.08437189	0.2904684
0.1314506309236943	0.038826194	0.19704363
0.1489773910071836	0.03420388	0.18494292
0.16650415457580078	0.022301693	0.14933752
0.18403092203956356	0.05816855	0.24118157
0.20155769380849	0.12230587	0.34972256
0.2190844702925996	0.20538941	0.4531991
0.2366112519019124	0.18105304	0.42550328
0.2541380390464497	0.1481395	0.38488895
0.27166483213623416	0.13870214	0.37242737
0.28919163158128947	0.16958064	0.4118017
0.3067184377916406	0.17007442	0.4124008
0.324245251177314	0.17154321	0.41417775
0.34177207214833777	0.22274038	0.47195378
0.3592989011147415	0.21676606	0.46558142
0.37682573848655654	0.20975025	0.45798498
0.39435258467381573	0.1345452	0.36680403
0.41187944008655414	0.09724993	0.3118492
0.42940630513480854	0.09430702	0.30709448
0.446933180228618	0.11583808	0.34034994
0.4644600657780234	0.1376578	0.37102264
0.48198696219306775	0.13169405	0.36289674
0.49951386988379676	0.14697585	0.38337427
0.5170407892602581	0.1416419	0.3763534
0.5345677207325025	0.16853864	0.4105346
0.5520946647105822	0.15427774	0.39278206
0.5696216216045534	0.16307142	0.40382102
0.5871485918244737	0.17012118	0.4124575
0.6046755757804043	0.1630236	0.4037618
0.6222025738824094	0.14874732	0.38567775
0.6397295865405557	0.16596729	0.40739083
0.6572566141649129	0.16127077	0.4015853
0.6747836571655547	0.15655147	0.39566585
0.6923107159525568	0.18640374	0.431745
0.7098377909359992	0.18428342	0.42928246
0.7273648825259653	0.22159418	0.4707379
0.7448919911325411	0.20456389	0.4522874
0.762419117165817	0.18842922	0.43408436
0.7799462610358868	0.18621616	0.4315277
0.7974734231528482	0.18160805	0.42615497
0.8150006039268024	0.19604552	0.44277027
0.8325278037678551	0.23133501	0.48097298
0.8500550230861152	0.23599473	0.48579288
0.8675822622916969	0.24019521	0.49009714
0.8851095217947171	0.20533772	0.45314205
0.9026368020052984	0.22385953	0.47313797
0.9201641033335665	0.23819906	0.4880564
0.9376914261896523	0.24250257	0.4924455
0.9552187709836915	0.26651058	0.5162466
0.9727461381258234	0.25292554	0.50291705
0.990273528026193	0.257447	0.50739235
1.0078009410949496	0.24732001	0.49731278
1.0253283777422473	0.27262175	0.5221319
1.0428558383782454	0.2610675	0.51094764
1.0603833234131086	0.22919933	0.47874767
1.0779108332570058	0.30110002	0.5487258
1.0954383683201119	0.3153986	0.5616036
1.112965929012607	0.35555896	0.59628767
1.1304935157446763	0.4340446	0.6588206
1.1480211289265108	0.43530536	0.65977675
1.1655487689683062	1.3135267	1.1460919
1.1830764362802655	1.6590743	1.2880505
1.200604131272596	2.1033719	1.4503006
1.2181318543555117	2.417693	1.5548933
1.235659605939232	2.4770265	1.5738572
1.253187386433982	3.9260747	1.9814326
1.270715196249994	6.275843	2.5051632
1.2882430357975057	11.70428	3.4211519
1.3057709054867608	16.51483	4.063844
1.3232988057280106	22.553392	4.749041
1.3408267369315112	27.875587	5.2797337
1.358354699507526	32.03134	5.6596236
1.3758826938663256	35.98498	5.9987483
1.3934107204181858	37.837082	6.1511855
1.410938779573391	38.21975	6.1822124
1.4284668717422309	38.758602	6.225641
1.4459949973350033	38.119358	6.1740875
1.4635231567620117	37.81598	6.14947
1.4810513504335687	36.65514	6.054349
1.4985795787599925	36.040222	6.0033507
1.5161078421516088	35.713097	5.9760437
1.5336361410187505	34.80237	5.899353
1.5511644757717598	34.99249	5.915445
1.5686928468209842	36.044224	6.003684
1.58622125457678	36.724133	6.060044
1.6037496994495108	38.147522	6.176368
1.621278181849548	37.816227	6.14949
1.6388067021872719	38.458	6.2014513
1.6563352608730693	37.714554	6.1412177
1.673863858317336	36.854305	6.0707746
1.6913924949304753	36.179253	6.0149193
1.7089211711228998	34.955223	5.9122944
1.7264498873050296	33.797405	5.813554
1.7439786438872935	33.03287	5.747423
1.7615074412801288	31.90835	5.6487474
1.779036279893981	31.365416	5.6004834
1.796565160139305	30.340174	5.5081916
1.814094082426564	29.85846	5.4642897
1.8316230471662298	29.307571	5.4136467
1.849152054768784	28.614443	5.349247
1.8666811056447168	28.161196	5.306712
1.8842102002045273	27.312943	5.2261786
1.901739338858724	26.363413	5.1345315
1.9192685220178245	25.606485	5.060285
1.9367977500923557	24.805222	4.980484
1.9543270234928547	24.53914	4.9536996
1.971856342629867	23.785814	4.8770704
1.9893857079139496	23.30146	4.8271585
2.006915119755667	22.904047	4.785817
2.0244445785655945	22.559729	4.749708
2.0419740847543175	22.051931	4.6959486
2.0595036387324317	21.30803	4.616062
2.0770332409105414	20.746311	4.554812
2.094562891699263	20.540573	4.532171
2.1120925915092217	20.149755	4.4888477
2.129622340751053	19.639406	4.431637
2.1471521398354043	187.90208	13.707738
2.1646819891729323	444.24866	21.077208
2.182211889174303	440.66913	20.99212
2.1997418402501974	453.02975	21.284496
2.2172718428113023	433.02206	20.809183
2.234801897268317	320.91873	17.914206
2.2523320040319548	17.356764	4.166145
2.269862163512935	16.818832	4.101077
2.287392376121992	16.571577	4.0708203
2.304922642269869	16.222626	4.027732
2.322452962367322	15.845314	3.9806173
2.3399833368251164	15.461092	3.9320595
2.357513766054032	15.135462	3.8904321
2.3750442504648586	15.2410345	3.9039767
2.3925747904683963	15.337864	3.9163585
2.410105386475459	15.221198	3.9014354
2.4276360388968707	14.71115	3.8355117
2.445166748143469	14.321385	3.7843606
2.4626975146261025	13.994454	3.7409163
2.4802283387556323	13.738576	3.7065585
2.4977592209429305	13.505172	3.6749384
2.5152901615988825	13.17974	3.6303911
2.5328211611343865	13.089033	3.6178768
2.5503522199603523	12.707508	3.5647593
2.5678833384877024	12.469353	3.531197
2.5854145171273712	12.305394	3.5079045
2.6029457562903064	12.221937	3.4959888
2.620477056387469	12.05458	3.4719706
2.6380084178298326	11.910464	3.451154
2.655539841028383	11.715911	3.4228513
2.673071326394119	11.491894	3.3899696
2.6906028743380523	11.2194805	3.3495493
2.708134485271211	10.980585	3.3136966
2.7256661596046325	10.7843895	3.2839594
2.743197897749369	10.678759	3.267837
2.760729700116486	10.603934	3.2563682
2.778261567117063	10.477032	3.2368243
2.795793499162193	10.383758	3.2223837
2.8133254966629817	10.239821	3.1999722
2.830857560030551	9.987892	3.1603627
2.8483896896760337	9.748631	3.1222796
2.865921886010578	9.554428	3.0910237
2.883454149445347	9.490918	3.0807333
2.9009864803915177	9.366704	3.060507
2.91851887926028	9.227122	3.037618
2.9360513464628384	9.093018	3.015463
2.953583882410413	8.887555	2.9812002
2.9711164875142373	8.795687	2.9657524
2.9886491621855606	8.583633	2.9297838
3.0061819068356455	8.537009	2.921816
3.023714721875769	8.438058	2.9048336
3.041247607717225	8.376729	2.894258
3.0587805647713213	8.370172	2.8931248
3.0763135934493806	8.24773	2.8718863
3.0938466941627407	8.097382	2.8455899
3.1113798673227544	7.971657	2.8234122
3.1289131133407904	7.8222084	2.796821
3.1464464326282315	7.813303	2.7952287
3.1639798255964786	7.7579064	2.785302
3.1815132926569443	7.662249	2.768077
3.1990468342210603	7.521819	2.7425935
3.216580450700272	7.3877807	2.7180471
3.2341141425060416	7.3426104	2.7097251
3.251647910049847	7.198921	2.6830804
3.2691817537431813	7.192096	2.6818085
3.286715673997555	7.0999045	2.6645646
3.3042496712244938	7.027901	2.6510189
3.32178374583554	6.904067	2.6275592
3.339317898242251	6.8707404	2.6212096
3.3568521288562034	6.897033	2.6262202
3.3743864380889876	6.929121	2.6323223
3.3919208263522127	6.916693	2.6299608
3.4094552940575023	6.8698697	2.6210437
3.4269898416164972	6.846541	2.6165895
3.444524469440858	6.694059	2.587288
3.4620591779422587	6.5679092	2.5627933
3.479593967532391	6.4512005	2.5399213
3.4971288386229658	6.335886	2.5171187
3.5146637916257086	6.4150167	2.5327883
3.5321988269523628	6.5201626	2.5534608
3.5497339450146903	6.4991207	2.5493374
3.5672691462244708	6.4009547	2.5300107
3.5848044309934988	6.2950253	2.5089889
3.60233979973359	6.300575	2.5100946
3.619875252856575	6.2455044	2.4991007
3.6374107907743034	6.2656894	2.503136
3.6549464138986427	6.272974	2.5045905
3.6724821226414788	6.3304796	2.5160444
3.690017917414714	6.3750095	2.524878
3.7075537986302702	6.3690505	2.5236979
3.7250897667000857	6.3541102	2.520736
3.7426258220361235	6.403251	2.5304646
3.7601619650503553	6.637691	2.5763717
3.777698196154779	7.2550025	2.6935112
3.7952345157614067	8.378119	2.894498
3.8127709242822716	9.255909	3.0423524
3.830307422129425	11.4348345	3.3815432
3.847844009714936	30.162783	5.4920654
3.8653806874508954	97.637955	9.881192
3.882917455749409	96.826866	9.840064
3.900454315022606	96.571236	9.827066
3.917991265682631	41.099102	6.410858
3.9355283081416506	10.657404	3.2645679
3.9530654428118495	8.704043	2.9502616
3.970602670105433	7.5207195	2.742393
3.9881399904346244	6.7385488	2.5958714
4.005677404211669	6.6182833	2.5726025
4.023214911848827	6.5850425	2.5661337
4.0407525137583855	6.587085	2.5665317
4.058290210352644	6.4657803	2.54279
4.075828002043927	6.4162927	2.5330403
4.0933658892445814	6.3588037	2.5216668
4.110903872366966	6.352389	2.5203946
4.128441951823468	6.237605	2.4975197
4.145980128026488	6.111079	2.4720597
4.163518401388452	6.062655	2.462246
4.181056772321807	6.07052	2.4638426
4.1985952412390155	6.082582	2.466289
4.216133808552567	6.100394	2.4698975
4.233672474674966	6.1441774	2.4787452
4.251211240018741	6.4100122	2.5318003
4.268750104996445	6.6614156	2.5809717
4.286289070020643	7.7308197	2.780435
4.303828135503928	9.536764	3.0881653
4.3213673018589125	29.717352	5.4513626
4.3389065694982305	90.83139	9.53055
4.356445938834537	165.91188	12.880678
4.3739854102805085	171.78941	13.106846
4.391524984248844	172.63026	13.138884
4.409064661152262	136.7554	11.694246
4.426604441403504	96.94463	9.846046
4.444144325415337	75.98483	8.716928
4.461684313600543	22.019623	4.6925073
4.47922440637193	22.187979	4.7104115
4.496764604142329	20.409395	4.517676
4.5143049073245916	18.540699	4.305891
4.531845316331589	16.539848	4.066921
4.5493858315762195	13.858954	3.7227616
4.566926453471405	11.572303	3.4018087
4.584467182430081	9.578353	3.0948913
4.602008018865218	8.277258	2.8770225
4.619548963189798	7.591719	2.7553074
4.637090015816834	7.091501	2.6629872
4.654631177159353	6.8876567	2.6244345
4.672172447630417	6.524264	2.5542638
4.689713827643102	6.34856	2.519635
4.7072553176105085	6.0568438	2.4610655
4.724796917945764	5.8970833	2.428391
4.742338629062015	5.817909	2.4120343
4.759880451372434	5.8750024	2.4238405
4.777422385290215	5.8453674	2.4177194
4.794964431228581	5.768519	2.4017742
4.812506589600768	5.678963	2.3830576
4.830048860820047	5.534694	2.3525932
4.847591245299709	5.5268664	2.3509288
4.8651337434530655	5.52466	2.3504596
4.882676355693457	5.5761323	2.3613834
4.900219082434242	5.5929832	2.364949
4.917761924088813	5.570196	2.3601263
4.935304881070575	5.5256314	2.3506663
4.952847953792969	5.4344773	2.3311965
4.970391142669449	5.351279	2.3132832
4.9879344481135055	5.4075274	2.3254092
5.005477870538642	5.460701	2.3368142
5.023021410358394	5.5261254	2.3507712
5.040565067986324	5.5643187	2.3588808
5.05810884383601	5.5814495	2.3625093
5.075652738321066	5.5518045	2.3562267
5.09319675185512	5.4624867	2.3371964
5.110740884851836	5.3789296	2.319252
5.128285137724894	5.3487263	2.3127313
5.145829510888007	5.332069	2.3091273
5.163374004754908	5.3817496	2.3198597
5.1809186197393595	5.384386	2.320428
5.198463356255145	5.449817	2.3344843
5.216008214716077	5.454205	2.335424
5.233553195535998	5.4025917	2.3243475
5.251098299128764	5.4042788	2.3247104
5.268643525908272	5.364297	2.316095
5.286188876288432	5.3551054	2.31411
5.3037343506831895	5.2922783	2.3004951
5.32127994950651	5.30232	2.3026767
5.3388256731723915	5.283158	2.298512
5.356371522094851	5.294304	2.3009355
5.373917496687938	5.2679543	2.2952025
5.391463597365729	5.3062944	2.3035395
5.40900982454232	5.3258405	2.3077784
5.426556178631843	5.3885965	2.321335
5.444102660048449	5.3137817	2.305164
5.4616492692063225	5.2231636	2.2854242
5.479196006519669	5.2113996	2.282849
5.496742872402727	5.2208076	2.2849088
5.514289867269756	5.1451087	2.2682831
5.531836991535049	5.1410413	2.2673864
5.549384245612924	5.10114	2.2585704
5.566931629917724	5.1693625	2.2736232
5.584479144863822	5.1786346	2.2756615
5.6020267908656205	5.0757327	2.2529387
5.619574568337545	5.0342927	2.243723
5.637122477694054	5.015156	2.2394543
5.654670519349629	5.0591288	2.2492507
5.672218693718784	5.102177	2.2588
5.689767001216059	5.135218	2.266102
5.707315442256021	5.157022	2.2709076
5.724864017253266	5.1623883	2.272089
5.7424127266224225	5.127034	2.2642956
5.75996157077814	5.125833	2.2640302
5.777510550135105	5.197371	2.2797744
5.795059665108022	5.2690935	2.2954507
5.812608916111639	5.322848	2.3071299
5.830158303560715	5.390097	2.3216584
5.847707827870055	5.3837605	2.3202932
5.86525748945448	5.46813	2.3384032
5.8828072887288485	5.531658	2.3519478
5.900357226108044	5.590634	2.3644521
5.917907302006979	5.65636	2.3783104
5.9354575168406	6.210452	2.4920778
5.9530078710238765	6.767488	2.6014397
5.970558364971812	7.227301	2.688364
5.988108999099438	7.597768	2.7564049
6.005659773821818	8.162664	2.8570378
6.023210689554039	7.911708	2.8127759
6.040761746711227	8.310043	2.8827145
6.058312945708531	7.5878897	2.7546124
6.075864286961132	7.0754404	2.65997
6.093415770884244	6.4645567	2.5425491
6.1109673978931065	5.9804163	2.445489
6.128519168402993	5.597856	2.365979
6.146071082829204	5.4981885	2.3448217
6.163623141587075	5.3865576	2.320896
6.181175345091969	5.3135962	2.3051238
6.198727693759281	5.298347	2.3018138
6.216280188004435	5.324321	2.3074489
6.233832828242885	5.299733	2.302115
6.251385614890126	5.304887	2.303234
6.268938548361669	5.2566724	2.2927434
6.286491629073067	5.172896	2.2744002
6.304044857439898	5.0945024	2.2571003
6.321598233877777	5.001688	2.2364454
6.339151758802344	5.0402527	2.2450507
6.356705432629277	5.0780053	2.253443
6.37425925577428	5.088273	2.2557201
6.391813228653095	5.088466	2.2557628
6.409367351681486	5.092507	2.2566583
6.426921625275259	5.094919	2.2571929
6.44447604985025	5.0524883	2.2477741
6.46203062582232	4.97761	2.2310557
6.47958535360737	4.958444	2.2267563
6.497140233621328	4.9307995	2.2205403
6.514695266280161	4.938293	2.222227
6.532250451999859	4.939942	2.222598
6.549805791196454	5.0300283	2.2427726
6.567361284286002	5.066638	2.2509193
6.584916931684597	5.0202518	2.2405918
6.602472733808367	4.9669666	2.2286692
6.6200286910734665	4.980283	2.2316546
6.637584803896092	5.0531206	2.2479148
6.655141072692462	5.081673	2.2542567
6.672697497878842	4.992853	2.2344694
6.690254079871514	4.9156137	2.2171183
6.707810819086808	4.8705053	2.206922
6.725367715941078	4.90108	2.2138383
6.742924770850719	5.0043025	2.2370298
6.760481984232151	5.0389423	2.2447588
6.778039356501836	5.093806	2.256946
6.795596888076266	5.117983	2.262296
6.813154579371963	5.1580677	2.271138
6.830712430805492	5.1330943	2.2656333
6.84827044279344	5.0929203	2.2567499
6.865828615752445	5.0040216	2.236967
6.883386950099159	5.008381	2.2379413
6.900945446250287	5.0719204	2.2520924
6.918504104622553	5.1266403	2.2642086
6.936062925632727	5.106716	2.2598045
6.953621909697607	5.072856	2.2523003
6.971181057234028	5.0963364	2.2575066
6.988740368658859	5.0885415	2.2557795
7.006299844389007	5.137156	2.2665296
7.023859484841407	5.1700306	2.27377
7.041419290433036	5.332219	2.3091598
7.058979261580902	5.570442	2.3601785
7.0765393987020495	5.783899	2.4049737
7.094099702213559	6.156265	2.481182
7.111660172532549	6.4448204	2.538665
7.129220810076164	6.758276	2.5996685
7.146781615261595	7.378906	2.7164142
7.16434258850606	7.598679	2.75657
7.181903730226821	8.14578	2.8540812
7.1994650408411704	8.222803	2.867543
7.217026520766437	8.286286	2.878591
7.234588170419983	8.49163	2.91404
7.252149990219215	8.500155	2.9155025
7.269711980581568	8.413638	2.9006271
7.2872741419245175	8.179011	2.8598971
7.304836474665574	7.7083693	2.776395
7.322398979222286	7.504107	2.7393625
7.339961656012233	7.237833	2.6903222
7.357524505453039	6.927018	2.631923
7.375087527962357	6.627859	2.574463
7.392650723957886	6.3248186	2.5149193
7.410214093857353	5.992241	2.4479053
7.427777638078528	5.7786913	2.4038908
7.445341357039213	5.628872	2.3725243
7.4629052511572525	5.4632883	2.3373678
7.480469320850524	5.400003	2.3237906
7.498033566536948	5.35603	2.3143098
7.5155979886344735	5.347589	2.3124855
7.5331625875610975	5.279133	2.2976363
7.550727363734844	5.2576165	2.2929492
7.568292317573788	5.264491	2.294448
7.585857449496025	5.2397227	2.2890441
7.603422759919705	5.256053	2.2926083
7.620988249263007	5.2548633	2.2923489
7.638553917944147	5.2805758	2.2979503
7.656119766381391	5.253749	2.2921057
7.673685794993023	5.244606	2.2901106
7.691252004197388	5.2447467	2.290141
7.70881839441285	5.2747126	2.2966743
7.726384966057826	5.273334	2.296374
7.743951719550762	5.2554297	2.2924724
7.761518655310149	5.3091664	2.3041627
7.779085773754511	5.371964	2.3177497
7.796653075302419	5.3586936	2.3148851
7.814220560372475	5.373804	2.3181467
7.831788229383323	5.4014354	2.3240988
7.8493560827536495	5.357794	2.3146908
7.866924120902174	5.266658	2.29492
7.884492344247663	5.2119455	2.2829685
7.9020607532089135	5.224081	2.285625
7.919629348204771	5.331923	2.3090956
7.937198129654115	5.43343	2.330972
7.954767097975865	5.4934335	2.3438075
7.972336253588986	5.479623	2.3408594
7.989905596912472	5.439788	2.3323352
8.007475128365371	5.4096494	2.3258653
8.025044848366756	5.4706597	2.3389442
8.042614757335754	5.6301575	2.3727953
8.060184855691523	5.712305	2.390043
8.07775514385327	5.8811126	2.4251006
8.095325622240228	5.931816	2.435532
8.112896291271687	5.9747133	2.4443226
8.130467151366968	5.993803	2.4482245
8.148038202945436	5.989835	2.447414
8.165609446426497	5.9837136	2.446163
8.183180882229594	6.0340705	2.4564345
8.200752510774217	6.0544825	2.4605858
8.218324332479893	6.066801	2.4630878
8.235896347766193	6.0537267	2.4604323
8.253468557052724	6.05003	2.459681
8.27104096075914	6.0449886	2.4586558
8.288613559305137	6.0276194	2.455121
8.306186353110448	6.0848684	2.4667525
8.32375934259485	6.154964	2.48092
8.341332528178162	6.2206936	2.4941318
8.358905910280246	6.262339	2.5024667
8.376479489321003	6.2233405	2.4946625
8.394053265720377	6.2847476	2.50694
8.411627239898356	6.2645063	2.5028996
8.42920141227497	6.277614	2.5055168
8.44677578327029	6.352873	2.5204906
8.464350353304427	6.282325	2.5064566
8.48192512279754	6.240511	2.4981015
8.499500092169827	6.1378884	2.4774761
8.51707526184153	6.1560364	2.481136
8.534650632232934	6.2032175	2.4906259
8.552226203764365	6.2138114	2.4927518
8.569801976856192	6.1894474	2.48786
8.587377951928834	6.178897	2.4857388
8.60495412940274	6.1615415	2.4822452
8.622530509698416	6.241388	2.498277
8.6401070932364	6.3907475	2.5279927
8.657683880437283	6.5331516	2.556003
8.675260871721695	6.672147	2.58305
8.692838067510303	6.8460135	2.6164887
8.710415468223834	7.02792	2.6510224
8.727993074283043	7.158304	2.6755006
8.745570886108737	7.1032953	2.6652007
8.763148904121765	7.130503	2.6703002
8.78072712874302	7.243217	2.6913226
8.798305560393441	7.5449176	2.7468014
8.815884199494006	7.6632485	2.7682574
8.833463046465745	7.747044	2.7833512
8.851042101729728	7.804597	2.793671
8.86862136570707	8.120226	2.849601
8.886200838818924	8.360139	2.8913906
8.903780521486505	8.440568	2.9052656
8.921360414131055	8.515429	2.9181206
8.938940517173874	8.584587	2.9299467
8.956520831036297	8.7186985	2.9527442
8.97410135613971	9.0106125	3.001768
8.99168209290554	9.281203	3.0465066
9.009263041755265	9.61449	3.100724
9.026844203110405	9.86802	3.1413405
9.044425577392525	9.990064	3.1607063
9.062007165023239	10.094556	3.1771932
9.079588966424197	10.297911	3.2090359
9.097170982017108	10.398368	3.2246501
9.11475321222372	11.320691	3.3646235
9.132335657465825	12.256945	3.500992
9.149918318165264	12.328619	3.5112133
9.167501194743924	12.700263	3.5637429
9.18508428762374	12.290665	3.5058045
9.202667597226693	12.291634	3.5059426
9.220251123974803	12.022294	3.467318
9.237834868290143	11.856932	3.4433897
9.255418830594836	11.645415	3.412538
9.273003011311046	11.142068	3.3379736
9.290587410860985	10.886301	3.2994394
9.308172029666911	10.314134	3.2115624
9.32575686815113	10.10335	3.1785767
9.343341926735997	8.854441	2.9756413
9.360927205843916	8.591025	2.931045
9.378512705897327	8.400323	2.8983312
9.396098427318728	8.265208	2.8749275
9.413684370530664	8.156906	2.8560297
9.431270535955722	8.020775	2.8320973
9.448856924016539	7.9297185	2.8159757
9.466443535135806	7.8165245	2.7958047
9.484030369736251	7.8271594	2.7977061
9.501617428240658	7.8175135	2.7959816
9.519204711071852	7.821902	2.7967663
9.536792218652714	7.767132	2.7869575
9.55437995140617	7.720982	2.7786655
9.571967909755191	7.7855625	2.790262
9.589556094122802	7.8018036	2.793171
9.60714450493207	7.898821	2.8104842
9.624733142606116	7.916563	2.8136387
9.642322007568108	8.016478	2.8313384
9.659911100241267	8.065043	2.839902
9.677500421048851	8.126038	2.8506205
9.695089970414175	8.146069	2.854132
9.712679748760609	8.137445	2.8526208
9.730269756511557	8.144775	2.8539052
9.747859994090492	8.105855	2.8470783
9.765450461920915	8.148301	2.854523
9.78304116042639	8.170674	2.8584392
9.800632090030527	8.162398	2.856991
9.81822325115699	8.1864195	2.861192
9.835814644229481	8.202953	2.86408
9.853406269671762	8.251887	2.8726099
9.870998127907646	8.283568	2.878119
9.888590219360985	8.269301	2.8756392
9.906182544455698	8.322165	2.8848162
9.923775103615734	8.276102	2.8768215
9.941367897265108	8.282671	2.877963
9.958960925827878	8.357061	2.8908582
9.97655418972816	8.476826	2.9114988
9.994147689390106	8.476602	2.9114604
10.011741425237934	8.408621	2.8997622
10.029335397695904	8.389347	2.896437
10.04692960718833	8.406169	2.8993394
10.06452405413958	8.35003	2.8896418
10.082118738974064	8.3410015	2.8880792
10.099713662116246	8.339107	2.887751
10.117308823990651	8.322405	2.884858
10.134904225021844	8.24687	2.8717365
10.152499865634445	8.207744	2.864916
10.170095746253125	8.254656	2.8730917
10.18769186730261	8.280125	2.8775206
10.205288229207675	8.254232	2.873018
10.222884832393145	8.221572	2.8673284
10.2404816772839	8.173719	2.8589718
10.258078764304868	8.15274	2.8553002
10.275676093881035	8.074427	2.8415534
10.293273666437438	8.087495	2.843852
10.310871482399158	8.097083	2.8455374
10.32846954219134	8.1069	2.847262
10.346067846239173	8.153153	2.8553727
10.363666394967908	8.22924	2.8686652
10.38126518880283	8.326517	2.8855705
10.398864228169298	8.368741	2.8928776
10.416463513492713	8.295578	2.8802044
10.434063045198531	8.266496	2.8751514
10.451662823712262	8.236959	2.8700104
10.469262849459467	8.286922	2.8787014
10.486863122865758	8.187909	2.8614523
10.504463644356806	8.1226015	2.8500178
10.522064414358338	7.9641204	2.8220773
10.539665433296118	7.974702	2.8239515
10.557266701595987	7.9717283	2.8234248
10.574868219683818	7.9292808	2.815898
10.592469987985552	7.714119	2.7774303
10.610072006927185	7.592378	2.7554271
10.627674276934751	7.538471	2.7456276
10.64527679843435	7.502741	2.739113
10.662879571852143	7.3445177	2.710077
10.680482597614331	7.255021	2.6935146
10.698085876147173	7.1560698	2.6750832
10.715689407876988	7.0224504	2.6499906
10.733293193230146	6.9390645	2.6342103
10.750897232633072	6.8024387	2.6081486
10.76850152651225	6.80553	2.608741
10.786106075294207	6.7084613	2.5900698
10.803710879405534	6.6598473	2.580668
10.821315939272877	6.4963465	2.548793
10.83892125532294	6.3815665	2.5261762
10.856526827982472	6.338209	2.51758
10.874132657678285	6.281757	2.5063434
10.891738744837243	6.315841	2.5131338
10.909345089886271	6.2566566	2.501331
10.926951693252343	6.203249	2.4906323
10.944558555362494	6.17788	2.4855342
10.96216567664381	6.09695	2.4692004
10.979773057523436	5.9913363	2.4477205
10.997380698428573	5.9252453	2.4341826
11.014988599786477	5.8624544	2.4212506
11.032596762024461	5.756718	2.399316
11.050205185569892	5.658866	2.378837
11.067813870850198	5.622745	2.3712327
11.085422818292859	5.553781	2.356646
11.10303202832541	5.4676256	2.3382955
11.120641501375454	5.3090835	2.3041449
11.138251237870636	5.2812023	2.2980866
11.155861238238671	5.276942	2.2971594
11.173471502907317	5.2625294	2.2940204
11.191082032304402	5.2139544	2.2834084
11.208692826857805	5.092768	2.2567163
11.226303886995465	5.010736	2.2384672
11.243915213145371	4.999946	2.2360559
11.261526805735578	4.924549	2.2191324
11.279138665194196	4.8971305	2.2129462
11.296750791949393	4.7919154	2.1890445
11.314363186429393	4.733591	2.1756818
11.331975849062479	4.6884346	2.1652794
11.34958878027699	4.670554	2.1611464
11.36720198050133	4.6643033	2.1597
11.384815450163948	4.639717	2.1540003
11.402429189693366	4.613369	2.1478755
11.420043199518153	4.5635595	2.1362488
11.437657480066942	63.475895	7.967176
11.455272031768422	85.14428	9.2273655
11.472886855051353	107.52368	10.369363
11.490501950344528	99.111626	9.9554825
11.508117318076819	84.47135	9.19083
11.52573295867715	45.874115	6.773043
11.543348872574514	4.173082	2.0428123
11.560965060197946	4.126302	2.03133
11.57858152197655	4.0919137	2.022848
11.59619825833949	4.0654173	2.016288
11.613815269715985	4.015167	2.0037882
11.631432556535323	38.46769	6.202233
11.649050119226837	83.02666	9.1118965
11.666667958219929	93.46665	9.667815
11.68428607394406	107.77289	10.381372
11.701904466828756	82.55137	9.085778
11.719523137303586	65.36791	8.085043
11.737142085798196	4.5987515	2.14447
11.754761312742286	3.6902444	1.9210008
11.772380818565619	3.641599	1.9082974
11.790000603698015	3.6000376	1.8973765
11.80762066856935	3.5767856	1.8912392
11.825241013609572	3.5338137	1.8798441
11.842861639248683	3.5493698	1.8839772
11.860482545916748	3.501157	1.8711379
11.878103734043883	3.487073	1.8673706
11.895725204060282	3.4586155	1.8597354
11.91334695639619	3.451604	1.8578492
11.930968991481919	3.4331384	1.852873
11.948591309747824	3.4203906	1.8494298
11.966213911624347	3.3947906	1.8424958
11.98383679754198	3.3246615	1.8233654
12.001459967931268	3.2972512	1.8158334
12.019083423222835	3.299699	1.8165073
12.036707163847352	3.2819371	1.8116118
12.05433119023556	3.2505846	1.8029377
12.071955502818259	3.2275257	1.7965316
12.089580102026313	3.199656	1.7887583
12.107204988290643	3.2069478	1.7907953
12.12483016204224	3.1555314	1.7763815
12.142455623712152	3.1549532	1.7762188
12.16008137373149	3.111504	1.7639456
12.177707412531431	3.0597084	1.7492023
12.19533374054321	3.0454247	1.7451146
12.212960358198126	3.0865233	1.7568504
12.230587265927545	3.0940754	1.7589984
12.248214464162889	3.0882752	1.7573489
12.265841953335649	3.0629501	1.7501286
12.283469733877375	3.072836	1.7529507
12.301097806219685	3.082486	1.755701
12.31872617079425	3.0806937	1.7551905
12.336354828032825	3.037824	1.7429354
12.353983778367205	2.9905543	1.729322
12.371613022229262	2.9476788	1.7168806
12.389242560050928	2.9029462	1.7038034
12.406872392264201	2.9179423	1.7081985
12.424502519301143	2.9376025	1.7139436
12.442132941593874	2.8961568	1.7018099
12.459763659574586	2.8557513	1.6898968
12.477394673675532	2.8159285	1.6780728
12.49502598432903	2.849668	1.6880959
12.51265759196746	2.8686512	1.6937093
12.530289497023267	2.89701	1.7020606
12.547921699928967	2.856937	1.6902475
12.565554201117134	2.7991202	1.6730571
12.583187001020404	2.7551064	1.6598513
12.600820100071486	2.7523782	1.6590292
12.618453498703152	2.7496176	1.658197
12.636087197348235	2.7390826	1.6550174
12.65372119643964	2.7332516	1.6532549
12.671355496410326	2.747493	1.6575563
12.68899009769333	2.7914736	1.6707704
12.706625000721749	2.8520951	1.6888148
12.724260205928752	2.9257917	1.7104946
12.741895713747551	2.980038	1.7262787
12.759531524611454	3.0390167	1.7432775
12.777167638953818	3.051447	1.7468392
12.794804057208072	3.043342	1.7445177
12.812440779807702	3.0840137	1.7561361
12.830077807186271	3.2171135	1.7936313
12.847715139777405	3.2638683	1.806618
12.865352778014795	3.4145594	1.8478526
12.882990722332197	3.4994648	1.8706856
12.90062897316344	3.5895894	1.8946211
12.918267530942412	3.7283318	1.9308889
12.935906396103071	3.654939	1.9117894
12.953545569079449	3.823441	1.9553621
12.971185050305628	3.5997455	1.8972995
12.988824840215775	3.5891042	1.8944931
13.006464939244115	3.5798833	1.892058
13.024105347824943	3.4295223	1.8518969
13.041746066392617	3.5336318	1.8797957
13.05938709538157	3.3599846	1.833026
13.077028435226296	3.3884635	1.840778
13.094670086361363	3.3131676	1.8202108
13.112312049221401	3.2256424	1.7960074
13.129954324241112	3.1182468	1.7658558
13.147596911855258	2.9049373	1.7043877
13.165239812498685	2.882653	1.6978377
13.182883026606293	2.802356	1.6740239
13.200526554613058	2.7875996	1.6696106
13.218170396954017	2.7492118	1.6580747
13.235814554064284	2.7580378	1.660734
13.253459026379034	2.7248445	1.6507103
13.271103814333523	2.7350419	1.6537962
13.288748918363058	2.7255764	1.650932
13.306394338903031	2.7106402	1.6464022
13.32404007638889	2.6739242	1.6352139
13.341686131256164	2.6953323	1.6417468
13.359332503940449	2.6590753	1.6306671
13.376979194877402	2.6530786	1.6288273
13.394626204502751	2.6895254	1.6399772
13.412273533252307	2.7382555	1.6547675
13.429921181561937	2.74682	1.6573533
13.447569149867581	2.7491026	1.6580418
13.465217438605247	2.7883246	1.6698277
13.482866048211022	2.7670064	1.6634321
13.500514979121052	2.7437139	1.6564159
13.518164231771568	2.6757586	1.6357746
13.535813806598844	2.6508145	1.6281322
13.553463704039254	2.6642668	1.6322582
13.571113924529229	2.6704073	1.6341381
13.588764468505275	2.6922643	1.640812
13.606415336403956	2.6764662	1.6359909
13.624066528661917	2.6951778	1.6416997
13.641718045715882	2.7593603	1.6611322
13.659369888002635	2.8500776	1.6882173
13.67702205595903	2.9484396	1.717102
13.694674550021993	2.9717104	1.7238649
13.712327370628532	3.0275867	1.7399962
13.729980518215713	3.1037235	1.7617388
13.747633993220681	3.1755702	1.7820129
13.765287796080647	3.2101219	1.7916813
13.7829419272329	3.2718375	1.8088222
13.800596387114801	3.320721	1.8222846
13.818251176163775	3.3572817	1.8322886
13.835906294817324	3.4119813	1.847155
13.853561743513023	3.4644082	1.8612921
13.871217522688525	3.49672	1.8699518
13.888873632781538	3.5378227	1.88091
13.906530074229858	3.6129081	1.9007652
13.92418684747135	3.5902593	1.8947979
13.941843952943948	3.524806	1.8774467
13.959501391085665	3.4505093	1.8575547
13.977159162334578	3.3881886	1.8407032
13.994817267128846	3.3398576	1.8275278
14.012475705906693	3.2198122	1.7943835
14.030134479106424	3.1393297	1.7718154
14.047793587166414	3.081222	1.755341
14.065453030525108	3.0626242	1.7500355
14.083112809621026	3.017623	1.7371306
14.100772924892766	2.9799209	1.7262447
14.118433376778997	2.9235716	1.7098455
14.136094165718458	2.8841252	1.6982713
14.153755292149969	2.8112729	1.6766851
14.171416756512416	2.7096188	1.6460919
14.189078559244768	2.609853	1.6155039
14.20674070078606	2.5485451	1.5964164
14.224403181575408	2.5353475	1.5922774
14.242066002051999	2.5314195	1.5910435
14.259729162655093	2.5294137	1.5904131
14.277392663824022	2.5099568	1.5842843
14.295056505998208	2.462648	1.5692827
14.312720689617128	2.4605665	1.5686193
14.330385215120348	2.4264662	1.5577118
14.348050082947497	2.3968425	1.5481739
14.3657152935383	2.3745022	1.540942
14.383380847332528	2.3924453	1.5467532
14.401046744770051	2.3985069	1.5487114
14.418712986290798	2.3895974	1.5458323
14.436379572334793	2.3821745	1.5434295
14.454046503342123	2.379582	1.5425893
14.471713779752946	2.3968742	1.5481842
14.489381402007504	2.402097	1.54987
14.507049370546113	2.415126	1.5540676
14.524717685809168	2.4150598	1.5540463
14.542386348237134	2.4119542	1.5530467
14.560055358270553	2.4252057	1.5573072
14.577724716350051	2.4772766	1.5739367
14.595394422916325	2.4635935	1.5695839
14.61306447841015	2.4889584	1.5776433
14.63073488327237	2.5103931	1.584422
14.648405637943917	2.5660589	1.6018922
14.6660767428658	2.5685518	1.6026702
14.683748198479094	2.5636036	1.6011257
14.701420005224954	2.5853806	1.6079118
14.719092163544628	2.6370602	1.6239028
14.73676467387942	2.6858952	1.6388701
14.754437536670727	2.7097309	1.646126
14.772110752360014	2.6879761	1.6395048
14.78978432138882	2.678401	1.6365821
14.807458244198777	2.6884108	1.6396374
14.82513252123159	2.7003617	1.6432778
14.842807152929028	2.7357025	1.6539959
14.860482139732962	2.7112548	1.6465888
14.87815748208531	2.7009537	1.6434579
14.8958331804281	2.6932619	1.641116
14.91350923520342	2.6753051	1.635636
14.931185646853438	2.6818836	1.6376457
14.948862415820408	2.6833541	1.6380947
14.966539542546656	2.704363	1.6444948
14.98421702747459	2.7146757	1.6476272
15.001894871046696	2.6751416	1.635586
15.019573073705542	2.633721	1.6228744
15.037251635893766	2.6218562	1.6192147
15.054930558054092	2.6340756	1.6229836
15.072609840629323	2.6595922	1.6308256
15.090289484062351	2.8087575	1.6759348
15.107969488796124	3.154429	1.7760712
15.125649855273691	3.6379163	1.9073323
15.14333058393817	4.137502	2.034085
15.161011675232768	5.0804615	2.253988
15.17869312960076	6.4062934	2.5310657
15.196374947485506	8.259445	2.873925
15.214057129330447	11.389155	3.3747823
15.231739675579114	16.005033	4.000629
15.249422586675102	20.824232	4.5633574
15.267105863062092	23.762781	4.874708
15.284789505183847	23.901485	4.8889146
15.302473513484218	21.832453	4.672521
15.320157888407127	18.32255	4.2804847
15.337842630396578	14.30057	3.7816093
15.355527739896656	11.133104	3.3366306
15.37321321735153	8.686703	2.9473212
15.39089906320545	6.4136214	2.532513
15.408585277902748	4.86363	2.205364
15.42627186188783	3.7424994	1.9345541
15.443958815605198	3.2212532	1.794785
15.461646139499424	2.9348783	1.7131487
15.479333834015168	2.778655	1.6669298
15.497021899597165	2.7056267	1.644879
15.514710336690234	2.628732	1.6213365
15.53239914573928	2.6141026	1.6168187
15.550088327189297	2.5832632	1.6072533
15.567777881485336	2.560516	1.6001613
15.58546780907256	2.5327165	1.591451
15.6031581103962	2.5410008	1.5940517
15.620848785901568	2.531084	1.5909381
15.638539836034063	2.5313275	1.5910146
15.656231261239173	2.4648798	1.5699935
15.673923061962451	2.4293659	1.5586423
15.691615238649552	2.4338186	1.56007
15.709307791746202	2.4463482	1.5640806
15.727000721698221	2.4405959	1.5622406
15.744694028951498	2.393033	1.5469431
15.76238771395202	2.3862228	1.5447404
15.780081777145844	2.4082794	1.5518632
15.797776218979125	2.4108386	1.5526875
15.815471039898094	2.4037013	1.5503875
15.833166240349064	2.388365	1.5454336
15.850861820778437	2.3829284	1.5436736
15.868557781632699	2.389036	1.5456506
15.886254123358412	2.387827	1.5452595
15.903950846402232	2.4111085	1.5527744
15.921647951210897	2.3855813	1.5445327
15.939345438231225	2.3908012	1.5462216
15.957043307910133	2.387992	1.5453129
15.974741560694602	2.3972397	1.5483022
15.992440197031714	2.3988452	1.5488206
16.01013921736862	2.3897686	1.5458876
16.02783862215259	2.4063544	1.5512428
16.045538411830933	2.3854697	1.5444965
16.06323858685107	2.3561292	1.5349687
16.080939147660512	2.3540592	1.5342944
16.09864009470684	2.3757806	1.5413567
16.11634142843774	2.4187636	1.5552375
16.134043149300954	2.458446	1.5679432
16.15174525774433	2.463799	1.5696493
16.169447754215817	2.442172	1.5627451
16.18715063916342	2.4798079	1.5747405
16.204853913035244	2.487645	1.577227
16.222557576279478	2.4678366	1.5709349
16.240261629344403	22.408913	4.733805
16.257966072678386	42.935383	6.55251
16.275670906729868	38.045948	6.16814
16.293376131947387	2.452454	1.5660313
16.31108174877957	2.487582	1.577207
16.328787757675133	2.5292716	1.5903684
16.34649415908287	2.59658	1.6113907
16.364200953451657	2.6275163	1.6209615
16.38190814123048	2.6640108	1.6321797
16.39961572286839	2.6916213	1.6406162
16.41732369881455	2.6868749	1.639169
16.43503206951817	2.7024446	1.6439114
16.45274083542859	2.7336533	1.6533763
16.47044999699522	2.7717402	1.6648544
16.488159554667558	2.8274038	1.6814885
16.505869508895184	2.878739	1.6966847
16.523579860127786	2.9138253	1.7069931
16.541290608815117	2.9266253	1.7107382
16.559001755407035	2.9226208	1.7095674
16.57671330035348	2.9994345	1.7318876
16.59442524410448	3.0813148	1.7553674
16.61213758711015	3.1610854	1.7779441
16.629850329820705	3.2365637	1.7990452
16.647563472686436	3.3214777	1.8224921
16.665277016157724	3.360434	1.8331487
16.682990960685053	3.3848083	1.8397849
16.70070530671898	3.408942	1.8463321
16.718420054710155	3.4585931	1.8597293
16.736135205109335	3.539727	1.8814162
16.753850758367335	3.61912	1.9023985
16.771566714935087	3.7141867	1.9272225
16.789283075263597	3.788034	1.9462873
16.80699983980398	3.8536053	1.9630601
16.82471700900741	3.8693318	1.9670618
16.84243458332518	3.9129715	1.9781232
16.860152563208665	3.933976	1.9834253
16.87787094910932	3.975488	1.9938626
16.89558974147871	4.035483	2.008851
16.913308940768466	4.125539	2.0311422
16.931028547430333	4.1744466	2.0431461
16.94874856191613	4.21391	2.052781
16.966468984677785	4.2650466	2.065199
16.98418981616729	4.3595433	2.087952
17.00191105683676	4.4696937	2.114165
17.019632707138374	4.549866	2.1330416
17.03735476752442	4.589489	2.1423092
17.05507723844728	4.5919743	2.1428893
17.072800120359403	4.5680113	2.1372907
17.090523413713353	4.5805707	2.1402268
17.108247118961785	4.592972	2.143122
17.125971236557437	4.609419	2.1469557
17.143695766953133	4.6504965	2.156501
17.161420710601806	4.6389885	2.153831
17.179146067956477	4.6045747	2.1458273
17.19687183947025	4.617907	2.1489315
17.21459802559634	4.6434093	2.1548572
17.232324626788028	4.6648264	2.159821
17.25005164349871	4.657236	2.158063
17.267779076181863	4.690281	2.1657057
17.285506925291074	4.665246	2.159918
17.30323519127999	4.615308	2.1483266
17.320963874602384	4.565127	2.1366158
17.33869297571211	4.56319	2.1361625
17.356422495063114	4.567687	2.137215
17.37415243310944	4.5129843	2.1243787
17.391882790305218	4.4815097	2.1169577
17.40961356710468	4.4856787	2.117942
17.42734476396215	4.533362	2.1291692
17.445076381332044	4.5089893	2.1234381
17.462808419668868	4.532495	2.1289656
17.48054087942723	4.6673794	2.1604118
17.498273761061835	5.055849	2.2485216
17.51600706502747	5.5797877	2.3621573
17.533740791779024	6.2858253	2.5071547
17.551474941771485	7.6397753	2.7640142
17.56920951545993	8.688541	2.9476333
17.586944513299528	10.746953	3.2782545
17.60467993574556	12.242412	3.4989157
17.622415783253373	13.844521	3.7208226
17.64015205627843	15.2082405	3.8997743
17.657888755276293	16.24666	4.0307145
17.675625880702604	16.707386	4.0874667
17.69336343301311	16.520018	4.0644827
17.71110141266366	15.839432	3.9798784
17.728839820110178	14.925783	3.8633902
17.746578655808705	14.110205	3.7563553
17.764317920215372	12.794454	3.5769336
17.7820576137864	11.415521	3.3786862
17.79979773697811	9.446154	3.0734596
17.81753829024692	7.5860744	2.754283
17.835279274049356	5.930481	2.435258
17.85302068884201	4.879682	2.2090003
17.870762535081607	4.199745	2.049328
17.888504813224934	3.877457	1.9691259
17.90624752372891	3.772229	1.9422227
17.923990667050536	3.6829891	1.9191115
17.941734243646895	3.5709193	1.8896877
17.959478253975185	3.5116284	1.8739339
17.9772226984927	3.4874802	1.8674797
17.994967577656833	3.4633372	1.8610044
18.01271289192506	3.4286575	1.8516635
18.030458641754965	3.3827243	1.8392184
18.04820482760425	3.3202662	1.8221598
18.06595144993067	3.3131654	1.8202102
18.083698509192125	3.275486	1.8098304
18.101446005846576	3.2560992	1.8044665
18.119193940352105	3.2148252	1.7929933
18.136942313166887	3.1751049	1.7818824
18.1546911247492	3.1597629	1.7775722
18.1724403755574	3.1681504	1.7799299
18.19019006604997	3.150719	1.7750264
18.207940196685467	3.1686273	1.7800639
18.225690767922575	3.133177	1.7700783
18.243441780220046	3.1152072	1.764995
18.261193234036764	3.0688596	1.751816
18.278945129831676	3.0198731	1.7377782
18.29669746806386	3.010533	1.7350888
18.314450249192483	3.0461774	1.7453302
18.3322034736768	3.0780783	1.7544453
18.349957141976184	3.0909536	1.7581108
18.3677112545501	3.0781689	1.7544711
18.385465811858108	3.0702493	1.7522126
18.403220814359884	3.0764008	1.7539672
18.420976262515172	3.083866	1.756094
18.43873215678387	3.1253965	1.7678791
18.456488497625923	3.1915908	1.7865024
18.474245285501407	3.2647367	1.8068582
18.492002520870486	3.3168583	1.8212245
18.50976020419343	3.4017928	1.8443949
18.527518335930615	3.7272277	1.9306029
18.545276916542516	4.294897	2.0724134
18.563035946489688	4.4678774	2.1137354
18.580795426232832	4.927072	2.2197008
18.598555356232698	4.8262606	2.196875
18.616315736950185	5.12098	2.2629583
18.63407656884626	4.7408233	2.1773431
18.65183785238201	4.9577856	2.2266085
18.669599588018617	4.7620664	2.182216
18.68736177621737	4.763568	2.18256
18.705124417439652	4.6787944	2.163052
18.72288751214696	4.452881	2.1101851
18.740651060800886	4.6537576	2.1572568
18.758415063863115	4.4377184	2.1065893
18.77617952179546	4.6297913	2.151695
18.793944435059814	4.2848444	2.0699866
18.811709804118184	4.256201	2.0630562
18.829475629432675	4.225269	2.0555458
18.8472419114655	4.0475845	2.0118608
18.86500865067897	4.1745434	2.04317
18.88277584753551	3.870696	1.9674084
18.90054350249763	3.8457577	1.9610604
18.918311616027957	3.4668484	1.8619474
18.936080188589226	3.33571	1.8263927
18.953849220644265	3.0653307	1.7508086
18.971618712656007	2.89666	1.7019577
18.9893886650875	2.8309357	1.6825385
19.007159078401887	8.011393	2.8304403
19.024929953062408	32.885845	5.734618
19.042701289532435	32.82688	5.729475
19.060473088275405	25.358416	5.035714
19.07824534975489	2.6443858	1.6261568
19.096018074434568	2.6331427	1.6226962
19.113791262778197	2.6038697	1.613651
19.13156491524966	2.5902176	1.6094153
19.149339032312945	2.5715563	1.6036073
19.167113614432136	2.5701087	1.6031559
19.184888662071433	2.5778985	1.6055835
19.202664175695123	2.5992258	1.6122115
19.220440155767623	2.6082184	1.614998
19.238216602753447	2.5660756	1.6018975
19.2559935171172	2.521057	1.5877837
19.27377089932361	2.5181043	1.5868536
19.291548749837514	2.542808	1.5946184
19.309327069123835	2.5473158	1.5960313
19.32710585764763	2.5238888	1.5886751
19.344885115874032	2.5152645	1.5859586
19.362664844268313	2.519669	1.5873466
19.380445043295822	2.5463667	1.5957339
19.39822571342203	2.569007	1.6028122
19.41600685511252	2.5520954	1.5975279
19.43378846883297	2.5259562	1.5893257
19.451570555049173	2.4833095	1.575852
19.469353114227037	2.455351	1.566956
19.48713614683254	2.4490101	1.5649314
19.50491965333182	2.430213	1.5589141
19.52270363419109	2.4318266	1.5594316
19.540488089876686	2.4530234	1.5662131
19.55827302085503	2.5056136	1.582913
19.576058427592674	2.5082278	1.5837386
19.593844310556282	2.5051844	1.5827774
19.611630670212598	2.5297942	1.5905327
19.629417507028506	2.5482078	1.5963106
19.64720482147098	2.5471532	1.5959803
19.6649926140071	2.4982183	1.5805753
19.682780885104084	2.4817822	1.5753673
19.70056963522921	2.450667	1.5654606
19.718358864849908	2.4631493	1.5694424
19.7361485744337	2.4531372	1.5662494
19.753938764448215	2.4690275	1.571314
19.771729435361202	2.4837842	1.5760026
19.789520587640506	2.5075147	1.5835134
19.807312221754092	2.50411	1.582438
19.825104338170043	2.5235095	1.5885558
19.842896937356517	2.5193286	1.5872393
19.860690019781824	2.4934206	1.5790569
19.87848358591436	2.502323	1.5818732
19.896277636222635	2.533981	1.5918484
19.914072171175278	2.5666952	1.6020908
19.931867191241015	2.566278	1.6019607
19.94966269688869	2.5644302	1.6013838
19.967458688587264	2.5394142	1.5935539
19.985255166805807	2.5198736	1.5874109
20.00305213201348	2.491469	1.5784388
20.020849584679578	2.470422	1.5717577
20.038647525273507	2.4759119	1.573503
20.05644595426477	2.438224	1.5614814
20.07424487212299	2.4294183	1.5586592
20.092044279317903	2.4389977	1.5617291
20.109844176319353	2.4699435	1.5716054
20.127644563597304	2.442279	1.5627793
20.145445441621817	2.4373033	1.5611866
20.16324681086307	2.3973792	1.5483472
20.181048671791373	2.424865	1.5571978
20.198851024877122	2.4155202	1.5541943
20.216653870590836	2.4214694	1.5561072
20.234457209403146	2.404925	1.5507821
20.252261041784802	2.4010818	1.5495424
20.270065368206662	2.4036431	1.5503687
20.287870189139685	2.3871238	1.545032
20.305675505054968	2.3938065	1.547193
20.323481316423702	2.4214308	1.5560948
20.341287623717207	2.392644	1.5468173
20.359094427406884	2.35017	1.5330263
20.376901727964288	2.3061647	1.5186062
20.39470952586107	2.2985392	1.5160934
20.41251782156899	2.3224406	1.5239556
20.430326615559935	2.3458803	1.5316267
20.448135908305886	2.3660765	1.5382056
20.465945700278965	2.3533087	1.5340497
20.483755991951384	2.339824	1.5296483
20.50156678379548	2.3368282	1.5286688
20.519378076283708	2.323593	1.5243336
20.537189869888635	2.3311322	1.5268046
20.55500216508294	2.3107903	1.5201284
20.572814962339415	2.3254848	1.524954
20.59062826213098	2.3083923	1.5193394
20.60844206493066	2.3083732	1.5193331
20.626256371211593	2.3588657	1.53586
20.644071181447032	2.368023	1.5388381
20.66188649611036	2.3623025	1.5369784
20.67970231567506	2.3332202	1.5274882
20.697518640614742	2.3450112	1.531343
20.715335471403122	2.369896	1.5394466
20.73315280851404	2.3871932	1.5450544
20.750970652421447	2.3552892	1.5346951
20.768789003599412	2.3275142	1.5256193
20.786607862522136	2.3050983	1.518255
20.8044272296639	2.3113499	1.5203124
20.82224710549913	2.3021874	1.5172961
20.84006749050237	2.3092597	1.5196248
20.857888385148268	3.869255	1.9670422
20.8757097899116	45.971973	6.7802634
20.893531705267254	64.83246	8.051861
20.911354131690224	83.859436	9.15748
20.92917706965566	69.105774	8.312988
20.94700051963877	50.149075	7.081601
20.96482448211493	29.394028	5.421626
20.982648957559622	4.1298637	2.0322065
21.00047394644843	2.215373	1.488413
21.01829944925707	2.217171	1.4890168
21.036125466461375	2.2382207	1.4960684
21.053951998537297	2.232002	1.4939886
21.071779045960906	2.2177944	1.4892261
21.089606609208378	2.219608	1.4898349
21.10743468875603	2.23909	1.4963589
21.12526328508028	2.2322524	1.4940724
21.143092398657675	2.187911	1.4791589
21.16092202996488	2.201004	1.4835781
21.17875217947867	2.1981769	1.482625
21.19658284767596	2.2336035	1.4945245
21.21441403503377	2.2099721	1.4865975
21.232245742029225	2.1856914	1.4784083
21.2500779691396	2.1597424	1.4696062
21.26791071684227	2.1392605	1.4626211
21.28574398561475	2.1647506	1.4713092
21.30357777593465	2.1669936	1.4720712
21.321412088279704	2.1948586	1.4815055
21.339246923127792	2.1728847	1.4740708
21.357082280956888	2.144408	1.4643798
21.3749181622451	2.1303573	1.4595743
21.392754567470647	2.164663	1.4712794
21.41059149711187	2.1825938	1.4773604
21.42842895164726	2.1558814	1.468292
21.446266931555378	2.1179657	1.4553232
21.464105437314945	2.0779316	1.4415033
21.481944469404798	2.0850425	1.4439676
21.49978402830388	2.0601377	1.435318
21.51762411449127	2.0646732	1.436897
21.53546472844617	2.0615106	1.4357961
21.553305870647876	2.0553744	1.4336576
21.571147541575865	2.0647638	1.4369286
21.58898974170967	2.094722	1.4473155
21.60683247152899	2.0987556	1.4487083
21.62467573151363	2.08075	1.4424804
21.642519522143523	2.0768743	1.4411365
21.660363843898722	2.0961819	1.4478197
21.6782086972594	2.1051536	1.4509147
21.696054082705864	2.0777214	1.4414303
21.713900000718535	2.0597425	1.4351803
21.73174645177795	2.0520031	1.4324814
21.749593436364794	2.0586948	1.4348153
21.767440954959845	2.0714376	1.4392489
21.785289008044032	2.032853	1.4257815
21.803137596098388	2.0140362	1.4191674
21.820986719604086	1.985008	1.4089031
21.838836379042412	1.9858449	1.4092001
21.85668657489478	1.9856132	1.4091179
21.87453730764273	2.0283456	1.4241999
21.892388577767914	2.0486822	1.4313219
21.91024038575213	2.0627708	1.436235
21.928092732077285	2.0414047	1.4287773
21.945945617225426	2.0046337	1.4158509
21.963799041678694	1.9977156	1.4134057
21.981653005919398	31.341356	5.5983353
21.999507510429943	78.17049	8.841408
22.01736255569286	73.11693	8.550843
22.035218142190818	4.2208834	2.054479
22.05307427040661	2.037954	1.4275693
22.07093094082315	2.009683	1.4176328
22.088788153923474	1.9612352	1.400441
22.106645910190746	1.9471732	1.3954115
22.12450421010827	1.9818949	1.4077978
22.142363054159464	2.0257127	1.4232754
22.16022244282787	2.0133035	1.4189093
22.178082376597164	1.9791486	1.4068222
22.195942855951145	1.9717704	1.4041975
22.213803881373742	1.9765342	1.4058927
22.231665453349002	1.9986961	1.4137524
22.24952757236111	2.0160563	1.419879
22.26739023889438	2.037477	1.4274021
22.28525345343323	2.029134	1.4244767
22.30311721646225	1.9981604	1.413563
22.320981528466113	1.9730481	1.4046524
22.33884638992964	1.9668626	1.4024488
22.356711801337788	1.969248	1.403299
22.37457776317561	1.9380059	1.3921229
22.392444275928337	1.940037	1.3928521
22.410311340081282	1.9407777	1.3931179
22.428178956119904	1.9345288	1.3908734
22.446047124529805	1.9261483	1.3878574
22.46391584579669	1.910776	1.3823082
22.481785120406414	1.9419063	1.393523
22.49965494884496	1.9485215	1.3958945
22.51752533159841	2.0001566	1.414269
22.53539626915302	1.9800078	1.4071275
22.553267761995137	1.9552356	1.3982974
22.571139810611264	1.9229231	1.386695
22.589012415488025	1.9461797	1.3950554
22.60688557711216	1.9581976	1.3993561
22.624759295970566	1.921906	1.3863282
22.642633572550263	1.9145912	1.3836875
22.660508407338362	1.9363545	1.3915296
22.67838380082217	1.9497418	1.3963315
22.696259753489077	1.924651	1.3873179
22.714136265826614	1.9044994	1.380036
22.73201333832246	1.8869042	1.3736464
22.74989097146439	1.8938785	1.3761826
22.76776916574035	1.9233559	1.3868511
22.785647921638393	1.9997286	1.4141176
22.803527239646712	1.97405	1.4050089
22.82140712025363	1.9219137	1.3863311
22.839287563947593	1.9310678	1.3896286
22.85716857121719	1.972253	1.4043692
22.875050142551135	1.9971468	1.4132044
22.892932278438277	1.9394699	1.3926486
22.910814979367604	1.9135029	1.3832942
22.928698245828222	1.9129165	1.3830823
22.946582078309387	1.9498075	1.396355
22.96446647730047	1.9425555	1.3937559
22.98235144329098	1.9424318	1.3937116
23.000236976770562	1.9056375	1.3804483
23.018123078229	1.8860536	1.3733367
23.03600974815619	1.8561072	1.3623903
23.053896987042194	1.9084251	1.3814576
23.071784795377173	1.916577	1.3844049
23.08967317365145	1.9010535	1.378787
23.10756212235546	1.8872347	1.3737667
23.125451641979787	1.9157344	1.3841006
23.143341733015134	1.9371995	1.3918332
23.161232395952357	1.9121633	1.3828099
23.179123631282426	1.9412446	1.3932855
23.197015439496468	1.8981773	1.3777435
23.214907821085717	1.8900032	1.3747739
23.23280077654157	1.8798573	1.3710788
23.250694306355538	1.9652368	1.401869
23.268588411019277	1.9894812	1.4104897
23.28648309102458	1.9717121	1.4041767
23.304378346863356	1.9522433	1.397227
23.322274179027676	1.9735721	1.4048388
23.340170588009723	1.9535255	1.3976858
23.358067574301852	1.9357742	1.3913211
23.37596513839651	1.9190313	1.385291
23.39386328078629	1.9102362	1.382113
23.411762001963947	1.8747318	1.3692085
23.429661302422353	1.8614309	1.3643427
23.4475611826545	1.9109864	1.3823843
23.46546164315356	1.9288031	1.3888135
23.48336268441279	1.896579	1.3771634
23.501264306925638	1.8747666	1.3692212
23.51916651118564	1.9061769	1.3806436
23.537069297686497	1.9754881	1.4055206
23.554972666922037	2.0004494	1.4143724
23.57287661938623	1.9878478	1.4099106
23.59078115557318	1.9512874	1.3968849
23.608686275977128	1.972515	1.4044626
23.62659198109246	1.9714305	1.4040765
23.6444982714137	1.9856068	1.4091156
23.66240514743549	1.9278764	1.3884798
23.68031260965263	1.8771074	1.3700757
23.698220658560068	1.8678114	1.366679
23.716129294652845	1.8982921	1.3777852
23.7340385184262	1.9149405	1.3838137
23.75194833037546	1.9121271	1.3827969
23.769858730996123	1.9205765	1.3858486
23.78776972078382	1.9300635	1.3892672
23.80568130023431	1.9162189	1.3842756
23.823593469843495	1.8930019	1.375864
23.841506230107424	1.8978068	1.3776091
23.859419581522275	1.8911511	1.3751913
23.87733352458438	1.9313788	1.3897406
23.89524805979019	1.9735147	1.4048184
23.913163187636318	1.9803562	1.4072512
23.931078908619508	1.9722165	1.4043562
23.948995223236633	1.9474064	1.395495
23.966912131984735	1.9745806	1.4051977
23.98482963536096	1.9939654	1.4120784
24.002747733862616	1.9726183	1.4044993
24.020666427987155	1.9517603	1.3970542
24.038585718232156	1.9823527	1.4079605
24.056505605095353	1.9940104	1.4120944
24.074426089074617	2.0643718	1.4367923
24.092347170667946	2.0776258	1.4413972
24.110268850373515	2.0670915	1.4377383
24.128191128689586	2.0277376	1.4239866
24.146114006114626	2.0418944	1.4289488
24.164037483147187	2.0841515	1.4436591
24.181961560286005	2.074712	1.440386
24.199886238029926	2.0233552	1.422447
24.21781151687797	1.9914551	1.4111892
24.235737397329274	2.0213366	1.4217372
24.253663879883135	2.0249906	1.4230217
24.271590965038975	1.9995248	1.4140456
24.289518653296376	2.020201	1.4213377
24.30744694515505	2.0715733	1.4392961
24.32537584111486	2.103282	1.4502696
24.34330534167581	2.0756094	1.4406976
24.361235447338046	2.0620086	1.4359696
24.379166158601876	2.0035052	1.4154524
24.39709747596772	1.9550928	1.3982463
24.41502939993615	1.9289387	1.3888624
24.432961931007917	1.9581048	1.399323
24.450895069683856	2.000679	1.4144536
24.468828816465	2.0085294	1.417226
24.4867631718525	1.9847314	1.408805
24.504698136347656	1.9473041	1.3954583
24.52263371045192	1.9478415	1.395651
24.540569894666874	1.9557605	1.3984851
24.558506689494266	1.9509968	1.3967808
24.57644409543597	1.9196612	1.3855184
24.594382112994012	1.8721871	1.3682789
24.61232074267057	1.8999902	1.3784013
24.630259984967953	1.9420696	1.3935816
24.64819984038863	1.9277786	1.3884447
24.66614030943522	1.9317932	1.3898896
24.684081392610462	1.9025285	1.3793218
24.702023090417274	1.9122467	1.38284
24.7199654033587	1.9450803	1.3946613
24.737908331937927	1.996518	1.412982
24.755851876658305	2.0009928	1.4145645
24.773796038023324	2.0479617	1.4310701
24.79174081653661	2.0745237	1.4403207
24.809686212701962	2.0877478	1.4449041
24.827632227023294	2.0846586	1.4438347
24.8455788600047	2.0764282	1.4409816
24.8635261121504	2.1008382	1.4494269
24.88147398396475	2.0699165	1.4387205
24.899422475952303	2.056947	1.434206
24.917371588617698	2.0779865	1.4415222
24.935321322465768	2.139807	1.4628079
24.953271678001478	2.2481892	1.4993963
24.97122265572994	2.471815	1.5722008
24.989174256156414	2.8168697	1.6783533
25.00712647978632	3.2358365	1.7988431
25.02507932712521	3.7274861	1.9306699
25.043032798678798	4.2369027	2.0583737
25.060986894952933	4.8114824	2.193509
25.078941616453637	5.5477133	2.3553584
25.096896963687055	6.5582194	2.560902
25.114852937159508	7.6932006	2.7736619
25.132809537377444	8.187741	2.861423
25.150766764847468	8.206151	2.864638
25.168724620076347	7.63033	2.7623053
25.186683103570985	6.530094	2.555405
25.204642215838426	5.397065	2.3231585
25.222601957385894	4.232873	2.0573947
25.24056232872074	3.3371978	1.8267999
25.25852333035048	2.6771522	1.6362005
25.276484962782778	2.2323492	1.4941047
25.294447226525435	2.0595062	1.4350979
25.312410122086423	2.0303404	1.4249002
25.330373649973843	1.978282	1.4065142
25.348337810695988	1.9249259	1.387417
25.366302604761245	1.8730888	1.3686084
25.384268032678207	1.9049662	1.3802052
25.40223409495558	1.9732243	1.4047151
25.420200792102257	1.951463	1.3969477
25.438168124627246	1.913218	1.3831912
25.45613609303974	1.8729576	1.3685604
25.474104697849057	1.8817303	1.3717618
25.492073939564698	1.868296	1.3668562
25.510043818696285	1.8293827	1.3525467
25.528014335753614	1.7955679	1.339988
25.54598549124664	1.8201249	1.34912
25.56395728568544	1.8742574	1.3690352
25.58192971958028	1.9188818	1.3852371
25.59990279344156	1.873971	1.3689306
25.617876507779833	1.8398287	1.3564029
25.635850863105826	1.846175	1.3587402
25.653825859930386	1.9092804	1.3817672
25.671801498764548	1.8901522	1.3748281
25.68977778011949	1.8416289	1.3570663
25.707754704506524	1.8122892	1.346213
25.725732272437153	1.8438622	1.3578888
25.743710484423012	1.8649203	1.3656209
25.761689340975888	1.8404534	1.3566331
25.77966884260774	1.8297693	1.3526896
25.797648989830662	1.8143835	1.3469906
25.815629783156922	1.8194498	1.3488698
25.83361122309895	1.8368102	1.3552897
25.85159331016929	1.8669214	1.3663533
25.869576044880695	1.8824811	1.3720354
25.887559427746034	1.8763424	1.3697965
25.90554345927836	1.844521	1.3581314
25.92352813999086	1.8014331	1.3421748
25.94151347039689	1.8148745	1.3471727
25.959499451009965	1.8337258	1.3541514
25.97748608234374	1.8643181	1.3654003
25.995473364912062	1.8107966	1.3456584
26.013461299228904	1.8298713	1.3527274
26.03144988580839	1.836061	1.3550133
26.04943912516483	1.839678	1.3563473
26.067429017812675	1.804214	1.3432103
26.085419564266537	1.782354	1.3350483
26.103410765041186	1.782199	1.3349903
26.12140262065155	1.8050039	1.3435043
26.139395131612723	1.7977183	1.3407902
26.157388298439948	1.820179	1.34914
26.17538212164861	1.8395313	1.3562932
26.193376601754295	1.841444	1.3569982
26.211371739272714	1.848033	1.3594238
26.229367534719746	1.8524979	1.361065
26.247363988611433	1.8346422	1.3544897
26.26536110146397	1.7987359	1.3411696
26.283358873793727	1.7843884	1.3358101
26.301357306117204	1.8066412	1.3441136
26.319356398951104	1.8026006	1.3426096
26.33735615281224	1.7923006	1.3387684
26.35535656821762	1.8127983	1.3464019
26.373357645684404	1.816588	1.3478086
26.39135938572991	1.8017653	1.3422985
26.409361788871614	1.8306193	1.3530039
26.427364855627165	1.8445213	1.3581315
26.445368586514352	1.8395118	1.356286
26.46337298205115	1.826508	1.3514837
26.48137804275568	1.770426	1.3305736
26.499383769146217	1.8080733	1.3446461
26.517390161741215	1.8042275	1.3432153
26.53539722105928	1.8006886	1.3418974
26.553404947619182	1.7921004	1.3386935
26.571413341939856	1.7677922	1.3295835
26.589422404540397	1.7649087	1.3284986
26.60743213594006	1.78868	1.3374155
26.62544253665827	1.8010005	1.3420136
26.64345360721459	1.7913893	1.3384279
26.66146534812879	1.8014687	1.342188
26.679477759920758	1.7775763	1.3332578
26.69749084311057	1.8197012	1.348963
26.71550459821847	1.8156183	1.3474488
26.733519025764842	1.8277326	1.3519366
26.751534126270258	1.8072941	1.3443564
26.769549900255434	1.8242236	1.3506383
26.787566348241267	1.8463573	1.3588073
26.80558347074881	1.8441747	1.358004
26.823601268299267	1.7797079	1.334057
26.841619741414036	1.7748613	1.3322393
26.85963889061465	1.7716362	1.3310282
26.877658716422832	1.7779772	1.3334081
26.89567921936045	1.7498267	1.3228102
26.913700399949544	1.7818484	1.334859
26.93172225871233	1.7982196	1.3409771
26.949744796171174	1.7991924	1.3413398
26.967768012848605	1.7587317	1.3261719
26.98579190926733	1.7573406	1.3256472
27.003816485950225	1.7738034	1.3318421
27.021841743420318	1.7867078	1.3366779
27.039867682200814	1.7434211	1.3203868
27.057894302815072	1.7026058	1.3048394
27.07592160578664	1.6944311	1.3017031
27.0939495916392	1.7492293	1.3225843
27.111978260896635	1.7653345	1.3286589
27.13000761408296	1.7704253	1.3305733
27.148037651722397	1.7895573	1.3377434
27.166068374339304	1.8160626	1.3476137
27.184099782458215	1.8316654	1.3533903
27.20213187660384	1.8300009	1.3527752
27.22016465730105	1.8290309	1.3524166
27.23819812507487	1.7926711	1.3389066
27.256232280450533	1.7875261	1.3369839
27.274267123953383	1.8264174	1.3514501
27.292302656108987	1.8499414	1.3601255
27.31033887744306	1.8184917	1.3485147
27.32837578848146	1.7846752	1.3359174
27.34641338975026	1.8107418	1.345638
27.364451681775673	1.8519763	1.3608733
27.382490665084074	1.820891	1.349404
27.400530340202046	1.7873632	1.336923
27.41857070765629	1.7752359	1.3323798
27.436611767973726	1.7771572	1.3331006
27.454653521681404	1.7642629	1.3282555
27.472695969306564	1.7703456	1.3305433
27.490739111376627	1.8250546	1.3509458
27.508782948419153	1.8547072	1.3618764
27.526827480961902	1.817808	1.3482611
27.54487270953279	1.8094043	1.3451409
27.562918634659898	1.855434	1.3621432
27.580965256871508	1.8247395	1.3508291
27.599012576696026	1.772514	1.331358
27.617060594662068	1.7338618	1.3167619
27.63510931129842	1.751776	1.3235468
27.65315872713401	1.7713313	1.3309137
27.67120884269797	1.8239232	1.350527
27.68925965851958	1.8692374	1.3672006
27.707311175128307	1.8341432	1.3543054
27.725363393053787	1.7791148	1.3338346
27.74341631282583	1.8012091	1.3420913
27.7614699349744	1.8549244	1.3619561
27.77952426002968	2.1143098	1.4540666
27.797579288521973	2.2214432	1.4904506
27.815635020981784	2.6563165	1.6298211
27.83369145793979	2.6874394	1.6393411
27.85174859992682	2.4754817	1.5733664
27.869806447473923	2.3052406	1.5183018
27.887865001112267	1.9914933	1.4112028
27.905924261373233	1.896169	1.3770145
27.92398422878836	1.9126753	1.382995
27.94204490388936	1.922737	1.3866279
27.96010628720813	1.9248925	1.3874049
27.978168379276728	1.9172437	1.3846457
27.9962311806274	1.8963871	1.3770937
28.014294691792568	1.9014615	1.3789349
28.0323589133048	1.9151422	1.3838866
28.050423845696887	1.8852657	1.3730497
28.068489489501758	1.8522524	1.3609748
28.086555845252523	1.8309227	1.3531159
28.104622913482487	1.819651	1.3489444
28.122690694725115	1.7973616	1.3406571
28.14075918951405	1.8246436	1.3507937
28.15882839838312	1.838101	1.3557658
28.176898321866304	1.8683896	1.3668904
28.1949689604978	1.8855222	1.3731432
28.213040314811945	1.8971727	1.377379
28.23111238534327	1.933901	1.3906476
28.249185172626493	1.9480177	1.395714
28.267258677196473	1.9390553	1.3924997
28.285332899588294	1.9521317	1.3971871
28.303407840337172	1.9041524	1.3799102
28.321483499978545	1.8905078	1.3749574
28.33955987904799	1.9106963	1.3822794
28.357636978081285	1.9130441	1.3831284
28.37571479761439	1.9298918	1.3892055
28.393793338183425	1.9375825	1.3919708
28.41187260032469	1.9549006	1.3981776
28.429952584574686	1.9084074	1.3814512
28.448033291470065	1.8712585	1.3679395
28.46611472154769	1.9450567	1.3946528
28.484196875344566	2.0246258	1.4228934
28.502279753397914	2.04672	1.4306363
28.52036335624511	2.0422556	1.4290751
28.538447684423716	2.0270152	1.4237329
28.556532738471482	2.0101132	1.4177846
28.574618518926325	2.002657	1.4151527
28.59270502632635	1.985801	1.4091845
28.61079226120985	1.9832951	1.4082952
28.628880224115274	1.977686	1.4063022
28.646968915581287	1.9575129	1.3991115
28.66505833614671	1.9631679	1.4011309
28.68314848635055	2.0530477	1.432846
28.701239366732004	2.1610959	1.4700667
28.71933097783044	2.160728	1.4699415
28.737423320185403	2.1415262	1.4633955
28.75551639433665	2.1876395	1.4790671
28.773610200824074	2.1822593	1.4772472
28.791704740187793	2.1617544	1.4702905
28.80980001296809	2.1606877	1.4699278
28.827896019705413	2.1662438	1.4718165
28.845992760940433	2.1667435	1.4719863
28.86409023721397	2.1122158	1.4533464
28.88218844906704	2.1391501	1.4625834
28.900287397040845	2.1726367	1.4739866
28.918387081676755	2.2744262	1.5081201
28.936487503516343	2.2963276	1.5153638
28.954588663101365	2.3436482	1.5308979
28.97269056097374	2.384221	1.5440923
28.990793197675597	2.385392	1.5444714
29.00889657374923	2.3499157	1.5329435
29.027000689737125	2.3419116	1.5303305
29.04510554618196	2.3249917	1.5247923
29.06321114362659	2.3521483	1.5336715
29.08131748261405	2.3916283	1.546489
29.099424563687567	2.4335706	1.5599905
29.11753238739057	2.4545608	1.5667038
29.13564095426663	2.5288155	1.590225
29.15375026485954	2.5655909	1.6017462
29.171860319713275	2.5877948	1.6086624
29.18997111937199	2.6694746	1.6338527
29.20808266438002	2.7802286	1.6674018
29.226194955281898	2.832543	1.6830161
29.244307992622335	2.8259254	1.6810489
29.26242177694624	2.8022108	1.6739805
29.2805363087987	2.7601974	1.6613842
29.29865158872498	2.758278	1.6608064
29.316767617270557	2.8031466	1.67426
29.334884394981064	2.8642778	1.6924177
29.353001922402367	2.9168494	1.7078786
29.37112020008047	3.0306141	1.740866
29.389239228561596	3.2246287	1.7957251
29.407359008392152	3.4851973	1.8668683
29.42547954011872	3.755812	1.9379917
29.44360082428809	4.3141503	2.0770533
29.46172286144722	5.3200345	2.30652
29.479845652143283	6.78418	2.604646
29.497969196923606	8.6334	2.9382648
29.516093496335728	10.992161	3.3154428
29.5342185509274	13.72615	3.704882
29.55234436124651	15.99731	3.9996636
29.570470927841175	17.203947	4.147764
29.588598251259686	16.868593	4.107139
29.60672633205055	15.625276	3.952882
29.624855170762405	13.694594	3.700621
29.642984767944146	11.308778	3.3628526
29.66111512414481	8.693617	2.948494
29.67924623991366	6.4475513	2.539203
29.697378115800138	4.9928517	2.234469
29.71551075235387	4.1324735	2.0328486
29.733644150124675	3.7407022	1.9340895
29.751778309662576	3.4874158	1.8674624
29.769913231517766	3.344338	1.8287531
29.78804891624066	3.2751544	1.8097388
29.806185364381818	3.2444832	1.8012449
29.82432257649206	3.2707944	1.8085338
29.842460553122333	3.2790244	1.8108077
29.86059929482382	3.3148148	1.8206633
29.878738802147872	3.280526	1.8112222
29.896879075646048	3.2301493	1.7972616
29.915020115870114	3.272688	1.8090572
29.933161923371976	3.2602487	1.8056159
29.951304498703777	3.2035828	1.7898555
29.969447842417857	3.205677	1.7904404
29.987591955066733	3.184636	1.7845548
30.005736837203123	3.1461701	1.7737447
30.023882489379943	3.162892	1.7784522
30.04202891215028	3.1183567	1.7658869
30.060176106067455	3.1122334	1.7641523
30.078324071684946	3.1111188	1.7638364
30.09647280955646	3.1447155	1.7733346
30.114622320235863	3.1451926	1.7734691
30.132772604277257	3.130613	1.7693539
30.1509236622349	3.0917234	1.7583297
30.16907549466328	3.0930462	1.7587059
30.18722810211705	3.087445	1.7571127
30.205381485151097	3.0740213	1.7532887
30.22353564432045	3.0040777	1.7332275
30.241690580180403	2.9698026	1.7233115
30.25984629328638	2.9320848	1.7123332
30.278002784194037	2.903583	1.7039903
30.296160053459246	2.9079988	1.7052855
30.314318101638033	2.9618726	1.7210091
30.332476929286646	2.973095	1.7242665
30.35063653696153	2.9893816	1.7289828
30.368796925219307	2.9512787	1.7179286
30.386958094616844	2.8855143	1.6986802
30.40512004571115	2.8127894	1.6771373
30.423282779059463	2.8232453	1.6802516
30.441446295219233	2.9023695	1.7036343
30.459610594748067	2.9228053	1.7096214
30.47777567820382	2.8566265	1.6901557
30.495941546144504	2.8207474	1.6795081
30.51410819912835	2.844311	1.6865085
30.532275637713795	2.8358216	1.6839898
30.55044386245946	2.804992	1.674811
30.56861287392416	2.772056	1.6649493
30.586782672666956	2.7351718	1.6538355
30.604953259247047	2.7725172	1.6650877
30.623124634223885	2.8389585	1.6849209
30.641296798157075	2.8586683	1.6907597
30.659469751606462	2.8967624	1.7019877
30.677643495132074	2.8852468	1.6986014
30.695818029294152	2.792976	1.6712198
30.713993354653116	2.6970456	1.6422684
30.73216947176962	2.6501153	1.6279174
30.75034638120448	2.6591375	1.6306862
30.768524083518756	2.6902106	1.6401862
30.786702579273673	2.7356598	1.653983
30.80488186903069	2.776266	1.6662132
30.82306195335144	2.844	1.6864164
30.841242832797782	2.98623	1.7280711
30.85942450793176	3.2834888	1.81204
30.877606979315637	3.731988	1.9318354
30.895790247511883	4.069266	2.0172422
30.913974313083134	4.3846807	2.093963
30.932159176592283	4.670107	2.161043
30.95034483860237	4.7825036	2.1868937
30.968531299676698	4.630319	2.1518176
30.98671856037873	4.3545814	2.0867634
31.00490662127215	3.9583538	1.9895612
31.023095482920848	3.5367463	1.8806239
31.04128514588892	3.0916412	1.7583064
31.059475610740662	2.7401783	1.6553484
31.07766687804056	2.5887566	1.6089613
31.09585894835335	2.513661	1.5854529
31.11405182224393	2.5099175	1.5842719
31.132245500277417	2.498356	1.5806189
31.15043998301914	2.4714727	1.5720918
31.168635271034628	2.4464962	1.5641279
31.18683136488964	2.4758406	1.5734804
31.20502826515008	2.4468887	1.5642534
31.223225972382135	2.445423	1.5637848
31.241424487152155	2.4726405	1.5724632
31.259623810026692	2.4504776	1.5654001
31.27782394157253	2.4306765	1.5590627
31.296024882356644	2.4183373	1.5551004
31.314226632946237	2.4332187	1.5598778
31.332429193908684	2.4411805	1.5624278
31.350632565811598	2.453275	1.5662934
31.368836749222787	2.41452	1.5538726
31.387041744710295	2.4816735	1.5753328
31.40524755284232	2.556265	1.5988324
31.423454174187317	2.5795796	1.606107
31.441661609313922	2.6450126	1.6263494
31.459869858791002	2.621196	1.6190108
31.478078923187628	2.4888458	1.5776076
31.496288803073064	2.3908064	1.5462233
31.514499499016807	2.3781288	1.5421183
31.532711011588546	2.3033473	1.5176783
31.550923341358178	2.2254684	1.4918004
31.56913648889584	2.2808533	1.5102494
31.587350454771844	2.2627163	1.5042328
31.605565239556732	2.1822507	1.4772443
31.62378084382127	2.2099216	1.4865805
31.641997268136382	2.2091312	1.4863147
31.660214513073274	2.2042873	1.4846842
31.67843257920331	2.1983564	1.4826856
31.6966514670981	2.2149503	1.4882709
31.71487117732944	2.202051	1.483931
31.733091710469346	2.1806774	1.4767116
31.751313067090052	2.1562533	1.4684186
31.769535247764008	2.2009356	1.4835551
31.787758253063878	2.2605913	1.5035263
31.805982083562526	2.3482184	1.5323898
31.824206739833024	2.3685486	1.539009
31.84243222244869	2.3845985	1.5442145
31.860658531983013	2.3375473	1.528904
31.878885669009737	2.2638283	1.5046023
31.897113634102784	2.261963	1.5039823
31.91534242783632	2.3077714	1.5191351
31.933572050784694	2.26835	1.5061042
31.951802503522508	2.2334633	1.4944776
31.970033786624548	2.1893349	1.4796401
31.988265900665834	2.2052648	1.4850134
32.006498846221575	2.1315577	1.4599855
32.02473262386724	2.157913	1.4689837
32.04296723417845	2.1995575	1.4830905
32.0612026777311	2.1670678	1.4720964
32.07943895510129	2.1250892	1.4577686
32.097676066865304	2.1334548	1.4606351
32.115914013599685	2.0971715	1.4481615
32.13415279588115	2.0731072	1.4398289
32.152392414286666	2.056488	1.434046
32.1706328693934	2.0122483	1.4185374
32.18887416177875	1.9964166	1.4129461
32.20711629202032	2.0555227	1.4337094
32.225359260695924	2.0763936	1.4409697
32.243603068383614	2.0344622	1.4263457
32.26184771566166	2.0418224	1.4289235
32.28009320310852	2.0983512	1.4485687
32.2983395313029	2.121619	1.4565778
32.31658670082372	2.084942	1.4439329
32.33483471225012	2.0710804	1.439125
32.35308356616143	1.9890385	1.4103328
32.371333263137245	2.0701015	1.4387847
32.38958380375734	2.0935411	1.4469074
32.407835188601744	2.139248	1.4626168
32.42608741825067	2.161919	1.4703466
32.444340493284585	2.1201286	1.4560661
32.46259441428416	2.0420606	1.4290068
32.48084918183028	2.0180302	1.4205738
32.49910479650405	2.0223048	1.4220777
32.51736125888683	2.0268204	1.4236645
32.53561856956014	2.0705068	1.4389256
32.5538767291058	2.0354714	1.4266995
32.572135738105764	2.0547903	1.4334539
32.59039559714228	2.0733926	1.4399279
32.608656306797776	2.072028	1.4394541
32.62691786765491	2.021392	1.4217567
32.645180280296586	2.043053	1.4293541
32.663443545305896	2.0336485	1.4260604
32.68170766326619	2.02843	1.4242296
32.69997263476099	2.0496793	1.4316701
32.7182384603741	2.1138198	1.4538982
32.7365051406895	2.0275607	1.4239244
32.75477267629144	1.9573871	1.3990664
32.77304106776434	1.9748	1.4052758
32.79131031569289	2.0533118	1.4329382
32.809580420661966	2.017533	1.420399
32.827851383256714	2.0086455	1.417267
32.84612320406245	1.9948958	1.4124078
32.86439588366476	2.004042	1.4156419
32.88266942264945	2.004201	1.415698
32.9009438216025	1.9963378	1.4129182
32.9192190811102	2.02534	1.4231445
32.937495201758985	1.9738246	1.4049287
32.95577218413556	1.9803995	1.4072666
32.974050028826866	2.0563474	1.433997
32.992328736420035	2.0205615	1.4214646
33.010608307502444	1.9394317	1.3926347
33.02888874266169	1.9402248	1.3929195
33.047170042485604	1.9535664	1.3977004
33.06545220756225	1.9655359	1.4019758
33.083735238479896	2.0075228	1.4168708
33.10201913582707	2.022597	1.4221804
33.12030390019248	1.9724925	1.4044545
33.138589532165135	1.9802324	1.4072073
33.15687603233419	1.9220116	1.3863664
33.17516340128909	1.8679045	1.366713
33.19345163961947	1.8054117	1.3436561
33.211740747915215	1.8525306	1.361077
33.23003072676643	1.9543018	1.3979634
33.248321576763466	2.003732	1.4155324
33.266613298496885	1.9716749	1.4041635
33.28490589255747	1.9227484	1.3866321
33.30319935953626	1.9103743	1.3821629
33.32149370002451	1.990324	1.4107884
33.339788914613706	2.1171458	1.4550415
33.358085003895575	2.0446086	1.4298981
33.376381968462034	1.8885458	1.3742437
33.39467980890529	1.9170065	1.38456
33.41297852581774	1.9985796	1.4137113
33.43127811979204	1.9986176	1.4137248
33.44957859142105	2.0066016	1.4165456
33.467879941297866	1.9350979	1.391078
33.486182170015844	1.8603475	1.3639456
33.50448527816853	1.8699431	1.3674587
33.522789266349754	1.824906	1.3508908
33.541094135153514	1.8161684	1.3476529
33.55939988517411	1.9381698	1.3921816
33.57770651700602	2.0244262	1.4228233
33.59601403124398	1.934146	1.3907357
33.61432242848296	1.7897538	1.3378168
33.632631709318154	1.7771406	1.3330944
33.650941874344994	1.8565441	1.3625506
33.66925292415916	1.8875722	1.3738894
33.68756485935654	1.8875862	1.3738946
33.70587768053328	1.9068024	1.3808702
33.724191388285746	1.8927249	1.3757634
33.74250598321054	1.9030186	1.3794994
33.760821465904506	1.9259511	1.3877864
33.77913783696474	1.952519	1.3973256
33.79745509698852	1.9050224	1.3802255
33.815773246573414	1.96209	1.4007462
33.8340922863172	1.9089307	1.3816406
33.852412216817896	1.8549895	1.36198
33.87073303867377	1.8379834	1.3557224
33.889054752483304	1.9286318	1.3887519
33.907377358845245	2.02721	1.4238013
33.92570085835853	2.0929816	1.446714
33.94402525162239	2.113583	1.4538168
33.96235053923627	2.093136	1.4467674
33.980676721799824	1.976884	1.4060171
33.999003799912984	1.769074	1.3300654
34.01733177417592	1.7777202	1.3333118
34.03566064518901	1.9257857	1.3877268
34.0539904135529	1.9122978	1.3828586
34.07232107986846	1.8581305	1.3631326
34.090652644736785	1.8158249	1.3475255
34.108985108759235	1.841418	1.3569885
34.12731847253742	1.8839147	1.3725578
34.14565273667313	1.8811291	1.3715426
34.16398790176847	1.9452821	1.3947337
34.18232396842574	1.9695396	1.4034029
34.20066093724749	1.9290116	1.3888886
34.21899880883651	1.8861792	1.3733824
34.23733758379583	1.8821074	1.3718991
34.25567726272874	1.9539391	1.3978337
34.27401784623872	2.1149905	1.4543006
34.29235933492957	2.1896574	1.4797491
34.31070172940526	2.0965655	1.4479522
34.32904503027003	2.1172318	1.4550711
34.347389238128386	2.17105	1.4734484
34.36573435358502	2.1295996	1.4593147
34.38408037724492	2.0104313	1.4178967
34.402427309713296	1.9979203	1.4134781
34.42077515159559	2.0358593	1.4268354
34.43912390349752	2.1577933	1.4689429
34.45747356602499	2.1558154	1.4682695
34.47582413978423	2.0625985	1.436175
34.49417562538163	2.0554938	1.4336994
34.51252802342388	2.0656044	1.437221
34.53088133451789	1.938113	1.3921613
34.54923555927084	1.8393941	1.3562427
34.567590698290104	1.7728484	1.3314835
34.58594675218336	1.8848084	1.3728832
34.6043037215585	2.027846	1.4240246
34.62266160702365	1.9582393	1.399371
34.641020409187234	1.9120768	1.3827786
34.65938012865785	1.9686289	1.4030783
34.677740766044394	2.0446575	1.4299152
34.69610232195598	1.9910092	1.4110312
34.714464797002016	1.8996562	1.3782802
34.73282819179208	2.0130405	1.4188166
34.751192506936064	2.1252356	1.4578187
34.76955774304408	2.241122	1.4970378
34.7879239007265	2.1684296	1.4725589
34.80629098059391	1.983479	1.4083604
34.824658983257194	1.9498199	1.3963596
34.843027909327446	1.9846872	1.4087893
34.86139775941603	1.9600531	1.4000189
34.879768534134534	2.0623372	1.4360839
34.89814023409483	1.9792768	1.4068677
34.91651285990901	1.822264	1.3499125
34.93488641218944	1.7686114	1.3298916
34.95326089154871	2.019324	1.4210292
34.97163629859967	2.0191383	1.4209639
34.99001263395542	1.8456988	1.358565
35.00838989822934	1.8089758	1.3449817
35.02676809203499	1.9463066	1.395101
35.04514721598624	1.8897977	1.3746991
35.063527270697215	1.6419615	1.2813904
35.081908256782256	1.65095	1.2848929
35.10029017485597	1.8341554	1.3543099
35.11867302553321	1.9712809	1.4040232
35.137056809429104	2.0664659	1.4375207
35.155441527159006	2.198637	1.4827802
35.173827179338524	2.0960913	1.4477884
35.19221376658354	2.05406	1.4331992
35.21060128951017	2.0808787	1.4425251
35.2289897487348	2.057341	1.4343435
35.24737914487405	2.1296937	1.459347
35.26576947854479	2.2284582	1.4928021
35.28416075036418	2.408839	1.5520434
35.30255296094958	2.592837	1.6102289
35.32094611091867	2.5962734	1.6112956
35.33934020088932	2.1456442	1.4648018
35.35773523147969	1.9347329	1.3909467
35.3761312033082	2.0476835	1.4309729
35.394528116993506	2.121015	1.4563705
35.41292597315452	2.2970042	1.5155871
35.431324772410434	2.5611868	1.6003709
35.449724515380666	2.29698	1.5155791
35.46812520268491	2.0687916	1.4383295
35.486526834943106	2.1079202	1.4518678
35.504929412775454	1.6912866	1.3004948
35.52333293680242	1.7050903	1.305791
35.54173740764471	1.8305078	1.3529626
35.560142825923286	1.5674103	1.2519625
35.5785491922594	1.2046905	1.0975839
35.59695650727454	1.1717187	1.0824596
35.61536477159042	1.5606846	1.2492737
