0.008763373481513119	0.0	0.0
0.026290120649546365	0.0	0.0
0.043816868432600686	0.0	0.0
0.06134361724069026	0.011486674	0.1071759
0.07887036748382949	0.07114802	0.26673588
0.0963971195720331	0.16593617	0.40735263
0.11392387391531617	0.16233528	0.40290853
0.1314506309236943	0.13511617	0.36758152
0.1489773910071836	0.050947826	0.22571625
0.16650415457580078	0.03018328	0.17373335
0.18403092203956356	0.0076905214	0.08769562
0.20155769380849	0.04819946	0.21954376
0.2190844702925996	0.09454566	0.30748278
0.2366112519019124	0.10176542	0.31900692
0.2541380390464497	0.09963971	0.3156576
0.27166483213623416	0.11994791	0.34633496
0.28919163158128947	0.1525229	0.39054182
0.3067184377916406	0.23848131	0.48834547
0.324245251177314	0.20678835	0.45473987
0.34177207214833777	0.23415071	0.48389122
0.3592989011147415	0.1830638	0.42785957
0.37682573848655654	0.1466973	0.38301083
0.39435258467381573	0.13685547	0.3699398
0.41187944008655414	0.14475498	0.3804668
0.42940630513480854	0.1558274	0.3947498
0.446933180228618	0.18744169	0.43294537
0.4644600657780234	0.21364741	0.4622201
0.48198696219306775	0.20758227	0.45561197
0.49951386988379676	0.2077733	0.45582157
0.5170407892602581	0.22004479	0.46908933
0.5345677207325025	0.20856668	0.45669103
0.5520946647105822	0.20603915	0.45391536
0.5696216216045534	0.17368336	0.41675335
0.5871485918244737	0.16339825	0.4042255
0.6046755757804043	0.12811938	0.35793766
0.6222025738824094	0.118431956	0.34413946
0.6397295865405557	0.117315486	0.34251347
0.6572566141649129	0.13279253	0.3644071
0.6747836571655547	0.14788468	0.38455778
0.6923107159525568	0.1655271	0.40685022
0.7098377909359992	0.1764286	0.42003405
0.7273648825259653	0.14412132	0.37963313
0.7448919911325411	0.11690518	0.341914
0.762419117165817	0.12460202	0.35299012
0.7799462610358868	0.15363714	0.39196575
0.7974734231528482	0.18848632	0.43415013
0.8150006039268024	0.19025595	0.4361834
0.8325278037678551	0.18163048	0.4261813
0.8500550230861152	0.16901365	0.4111127
0.8675822622916969	0.1796231	0.42381966
0.8851095217947171	0.19710563	0.4439658
0.9026368020052984	0.20764148	0.45567694
0.9201641033335665	0.19951203	0.4466677
0.9376914261896523	0.1916853	0.4378188
0.9552187709836915	0.18980873	0.43567044
0.9727461381258234	0.20703936	0.45501578
0.990273528026193	0.24564642	0.49562728
1.0078009410949496	0.27688286	0.5261966
1.0253283777422473	0.29558578	0.543678
1.0428558383782454	0.303957	0.55132294
1.0603833234131086	0.2782189	0.52746457
1.0779108332570058	0.32146928	0.5669826
1.0954383683201119	0.33332002	0.57733876
1.112965929012607	0.35173056	0.5930688
1.1304935157446763	0.45730487	0.6762432
1.1480211289265108	0.5035007	0.70957786
1.1655487689683062	1.4719309	1.2132316
1.1830764362802655	1.8408355	1.356774
1.200604131272596	2.1631079	1.4707508
1.2181318543555117	2.3181558	1.5225492
1.235659605939232	2.2791924	1.5096995
1.253187386433982	3.7693396	1.9414787
1.270715196249994	6.1895695	2.4878845
1.2882430357975057	11.786877	3.433202
1.3057709054867608	16.883106	4.108906
1.3232988057280106	22.563513	4.750107
1.3408267369315112	27.12164	5.207844
1.358354699507526	30.586855	5.5305386
1.3758826938663256	34.690514	5.8898654
1.3934107204181858	36.482838	6.0401025
1.410938779573391	37.027473	6.0850205
1.4284668717422309	37.56734	6.1292205
1.4459949973350033	37.285046	6.1061482
1.4635231567620117	37.287056	6.1063128
1.4810513504335687	36.811337	6.0672345
1.4985795787599925	35.93375	5.994477
1.5161078421516088	35.396366	5.9494843
1.5336361410187505	34.334908	5.8595996
1.5511644757717598	34.270824	5.854129
1.5686928468209842	35.03468	5.91901
1.58622125457678	36.062828	6.0052333
1.6037496994495108	37.493443	6.123189
1.621278181849548	37.562187	6.1288
1.6388067021872719	38.25533	6.185089
1.6563352608730693	37.636696	6.1348753
1.673863858317336	36.501858	6.0416765
1.6913924949304753	35.511005	5.959111
1.7089211711228998	34.090485	5.8387055
1.7264498873050296	33.418915	5.7809095
1.7439786438872935	32.677246	5.7164016
1.7615074412801288	31.98519	5.655545
1.779036279893981	31.092663	5.5760794
1.796565160139305	29.926266	5.4704905
1.814094082426564	29.325188	5.4152737
1.8316230471662298	28.731878	5.3602123
1.849152054768784	28.266235	5.3166
1.8666811056447168	27.758818	5.268664
1.8842102002045273	27.12253	5.2079296
1.901739338858724	26.418152	5.139859
1.9192685220178245	25.599276	5.0595727
1.9367977500923557	24.906792	4.9906707
1.9543270234928547	24.375862	4.9371915
1.971856342629867	23.84569	4.883205
1.9893857079139496	23.362185	4.8334446
2.006915119755667	22.780716	4.772915
2.0244445785655945	22.230785	4.7149534
2.0419740847543175	21.936632	4.6836557
2.0595036387324317	21.66646	4.6547246
2.0770332409105414	21.2557	4.61039
2.094562891699263	20.657284	4.5450287
2.1120925915092217	20.07565	4.480586
2.129622340751053	19.654715	4.433364
2.1471521398354043	187.63794	13.6981
2.1646819891729323	444.0262	21.07193
2.182211889174303	440.18552	20.980598
2.1997418402501974	452.78955	21.278852
2.2172718428113023	432.7685	20.80309
2.234801897268317	320.5407	17.90365
2.2523320040319548	16.939734	4.115791
2.269862163512935	16.594244	4.073603
2.287392376121992	16.364452	4.0453
2.304922642269869	16.315527	4.0392485
2.322452962367322	16.09535	4.011901
2.3399833368251164	15.8400135	3.9799514
2.357513766054032	15.665792	3.9580035
2.3750442504648586	15.2305975	3.9026399
2.3925747904683963	14.676681	3.8310156
2.410105386475459	14.28553	3.7796204
2.4276360388968707	14.016565	3.7438703
2.445166748143469	13.907806	3.7293172
2.4626975146261025	13.610039	3.6891787
2.4802283387556323	13.321067	3.6498036
2.4977592209429305	13.119421	3.6220741
2.5152901615988825	12.865454	3.5868444
2.5328211611343865	12.791475	3.576517
2.5503522199603523	12.537851	3.5408828
2.5678833384877024	12.274712	3.5035284
2.5854145171273712	12.04846	3.4710891
2.6029457562903064	11.833896	3.440043
2.620477056387469	11.738501	3.4261496
2.6380084178298326	11.565169	3.4007602
2.655539841028383	11.589558	3.4043438
2.673071326394119	11.314583	3.3637156
2.6906028743380523	11.059872	3.3256385
2.708134485271211	10.856914	3.2949831
2.7256661596046325	10.815655	3.2887163
2.743197897749369	10.6346	3.2610734
2.760729700116486	10.59368	3.2547934
2.778261567117063	10.463242	3.2346935
2.795793499162193	10.379344	3.221699
2.8133254966629817	10.219984	3.196871
2.830857560030551	9.959094	3.1558032
2.8483896896760337	9.673499	3.110225
2.865921886010578	9.467647	3.0769541
2.883454149445347	9.310861	3.0513704
2.9009864803915177	9.2748785	3.0454686
2.91851887926028	9.089996	3.0149622
2.9360513464628384	9.001179	3.0001965
2.953583882410413	8.849596	2.974827
2.9711164875142373	8.913674	2.9855778
2.9886491621855606	8.760377	2.9597933
3.0061819068356455	8.560143	2.9257722
3.023714721875769	8.406179	2.899341
3.041247607717225	8.281911	2.877831
3.0587805647713213	8.327753	2.8857846
3.0763135934493806	8.269104	2.8756049
3.0938466941627407	8.207313	2.8648407
3.1113798673227544	8.035209	2.8346443
3.1289131133407904	7.7826753	2.7897446
3.1464464326282315	7.7371297	2.7815697
3.1639798255964786	7.7275257	2.7798429
3.1815132926569443	7.798847	2.7926416
3.1990468342210603	7.7892466	2.7909222
3.216580450700272	7.6946464	2.7739224
3.2341141425060416	7.56253	2.7500055
3.251647910049847	7.388992	2.71827
3.2691817537431813	7.334475	2.7082236
3.286715673997555	7.215737	2.6862123
3.3042496712244938	7.158544	2.6755455
3.32178374583554	7.025766	2.6506162
3.339317898242251	6.914802	2.6296012
3.3568521288562034	6.7972746	2.6071584
3.3743864380889876	6.6884604	2.5862057
3.3919208263522127	6.553209	2.5599236
3.4094552940575023	6.3676853	2.5234272
3.4269898416164972	6.322297	2.514418
3.444524469440858	6.272304	2.5044568
3.4620591779422587	6.295238	2.5090313
3.479593967532391	6.3415117	2.518236
3.4971288386229658	6.3069406	2.5113623
3.5146637916257086	6.2861204	2.5072136
3.5321988269523628	6.2025595	2.4904938
3.5497339450146903	6.2188287	2.493758
3.5672691462244708	6.296883	2.5093591
3.5848044309934988	6.282405	2.5064726
3.60233979973359	6.3193364	2.513829
3.619875252856575	6.2440343	2.4988065
3.6374107907743034	6.208709	2.491728
3.6549464138986427	6.1684155	2.4836295
3.6724821226414788	6.20819	2.4916239
3.690017917414714	6.3312087	2.5161893
3.7075537986302702	6.3570867	2.5213263
3.7250897667000857	6.380383	2.525942
3.7426258220361235	6.466542	2.5429397
3.7601619650503553	6.761474	2.6002834
3.777698196154779	7.3057823	2.7029212
3.7952345157614067	8.4042015	2.8990002
3.8127709242822716	9.218916	3.0362668
3.830307422129425	11.450078	3.3837965
3.847844009714936	30.363632	5.5103207
3.8653806874508954	97.913	9.8951
3.882917455749409	97.31918	9.865048
3.900454315022606	97.06011	9.851909
3.917991265682631	41.596558	6.449539
3.9355283081416506	11.10512	3.3324344
3.9530654428118495	8.829636	2.9714704
3.970602670105433	7.460174	2.7313318
3.9881399904346244	6.561234	2.5614905
4.005677404211669	6.441015	2.5379155
4.023214911848827	6.2816133	2.5063148
4.0407525137583855	6.1872106	2.4874103
4.058290210352644	6.1152024	2.4728935
4.075828002043927	6.142709	2.4784489
4.0933658892445814	6.1803904	2.4860392
4.110903872366966	6.1430097	2.4785097
4.128441951823468	6.091294	2.4680548
4.145980128026488	6.0299373	2.455593
4.163518401388452	5.9870696	2.4468489
4.181056772321807	6.053526	2.4603915
4.1985952412390155	6.07481	2.4647129
4.216133808552567	6.0681295	2.4633574
4.233672474674966	6.080514	2.46587
4.251211240018741	6.280453	2.5060833
4.268750104996445	6.5882707	2.5667627
4.286289070020643	7.667929	2.7691026
4.303828135503928	9.407106	3.0671008
4.3213673018589125	29.68989	5.448843
4.3389065694982305	90.86312	9.532215
4.356445938834537	165.98398	12.883477
4.3739854102805085	171.51437	13.09635
4.391524984248844	172.4182	13.130811
4.409064661152262	136.39452	11.678806
4.426604441403504	96.41159	9.81894
4.444144325415337	75.23465	8.673791
4.461684313600543	21.156235	4.599591
4.47922440637193	21.773552	4.666214
4.496764604142329	20.213953	4.495993
4.5143049073245916	18.471748	4.2978773
4.531845316331589	16.372452	4.0462885
4.5493858315762195	13.540645	3.6797614
4.566926453471405	11.381677	3.3736742
4.584467182430081	9.343367	3.0566921
4.602008018865218	8.260865	2.8741722
4.619548963189798	7.614335	2.7594085
4.637090015816834	7.014602	2.6485095
4.654631177159353	6.6443367	2.577661
4.672172447630417	6.289157	2.5078192
4.689713827643102	6.1431937	2.4785466
4.7072553176105085	5.956712	2.4406376
4.724796917945764	5.8139153	2.4112062
4.742338629062015	5.730958	2.3939419
4.759880451372434	5.604127	2.3673036
4.777422385290215	5.6017375	2.366799
4.794964431228581	5.639124	2.3746839
4.812506589600768	5.691584	2.385704
4.830048860820047	5.63984	2.3748348
4.847591245299709	5.6499653	2.3769655
4.8651337434530655	5.5853286	2.36333
4.882676355693457	5.6297565	2.3727107
4.900219082434242	5.6422057	2.3753328
4.917761924088813	5.5857854	2.3634267
4.935304881070575	5.5725913	2.3606336
4.952847953792969	5.5644484	2.3589084
4.970391142669449	5.5658903	2.3592138
4.9879344481135055	5.53606	2.3528833
5.005477870538642	5.453276	2.335225
5.023021410358394	5.43062	2.330369
5.040565067986324	5.5051217	2.3462996
5.05810884383601	5.495458	2.3442392
5.075652738321066	5.476178	2.3401237
5.09319675185512	5.3162813	2.3057063
5.110740884851836	5.2545404	2.2922785
5.128285137724894	5.2867546	2.2992945
5.145829510888007	5.3117743	2.3047287
5.163374004754908	5.392565	2.3221896
5.1809186197393595	5.400977	2.3240004
5.198463356255145	5.282146	2.298292
5.216008214716077	5.267547	2.2951138
5.233553195535998	5.2372766	2.2885096
5.251098299128764	5.296539	2.301421
5.268643525908272	5.3223224	2.307016
5.286188876288432	5.302204	2.3026516
5.3037343506831895	5.2269883	2.2862608
5.32127994950651	5.153364	2.2701023
5.3388256731723915	5.126883	2.2642622
5.356371522094851	5.111769	2.2609222
5.373917496687938	5.1606693	2.2717106
5.391463597365729	5.17767	2.2754495
5.40900982454232	5.162071	2.2720191
5.426556178631843	5.1952147	2.2793014
5.444102660048449	5.1285357	2.264627
5.4616492692063225	5.1471047	2.2687232
5.479196006519669	5.2766557	2.2970972
5.496742872402727	5.3503017	2.313072
5.514289867269756	5.3630095	2.315817
5.531836991535049	5.2172203	2.2841234
5.549384245612924	5.0623083	2.2499573
5.566931629917724	5.024522	2.2415445
5.584479144863822	5.005683	2.2373383
5.6020267908656205	4.9629416	2.227766
5.619574568337545	5.0141125	2.2392213
5.637122477694054	4.992329	2.234352
5.654670519349629	5.0411696	2.245255
5.672218693718784	5.09044	2.2562003
5.689767001216059	5.1524973	2.2699113
5.707315442256021	5.167215	2.273151
5.724864017253266	5.140833	2.2673404
5.7424127266224225	5.197709	2.2798486
5.75996157077814	5.172683	2.2743533
5.777510550135105	5.1724887	2.2743106
5.795059665108022	5.1857533	2.277225
5.812608916111639	5.1986055	2.280045
5.830158303560715	5.3102403	2.304396
5.847707827870055	5.3139205	2.3051941
5.86525748945448	5.4386187	2.3320847
5.8828072887288485	5.6497703	2.3769245
5.900357226108044	5.686532	2.384645
5.917907302006979	5.685762	2.3844836
5.9354575168406	6.239517	2.4979026
5.9530078710238765	6.9161754	2.6298623
5.970558364971812	7.4890924	2.7366207
5.988108999099438	7.7664247	2.7868307
6.005659773821818	8.219353	2.8669415
6.023210689554039	7.935883	2.81707
6.040761746711227	8.371913	2.8934257
6.058312945708531	7.811859	2.7949703
6.075864286961132	7.354001	2.711826
6.093415770884244	6.7521396	2.5984879
6.1109673978931065	6.2499638	2.4999928
6.128519168402993	5.577679	2.361711
6.146071082829204	5.4373655	2.331816
6.163623141587075	5.24224	2.289594
6.181175345091969	5.1624565	2.272104
6.198727693759281	5.1067667	2.2598157
6.216280188004435	5.1042557	2.25926
6.233832828242885	5.0958796	2.2574055
6.251385614890126	5.0663996	2.2508664
6.268938548361669	5.04362	2.2458005
6.286491629073067	4.9522753	2.225371
6.304044857439898	4.9677486	2.2288446
6.321598233877777	4.9320025	2.2208111
6.339151758802344	4.9571443	2.2264645
6.356705432629277	5.0032797	2.2368011
6.37425925577428	5.023069	2.2412205
6.391813228653095	5.0150933	2.2394404
6.409367351681486	5.020818	2.2407181
6.426921625275259	4.9710784	2.2295916
6.44447604985025	4.9093647	2.2157087
6.46203062582232	4.85326	2.2030115
6.47958535360737	4.854353	2.2032597
6.497140233621328	4.9370804	2.221954
6.514695266280161	5.0064797	2.2375164
6.532250451999859	5.0262914	2.2419393
6.549805791196454	5.0528374	2.2478516
6.567361284286002	5.098488	2.2579832
6.584916931684597	5.1858087	2.2772372
6.602472733808367	5.12063	2.2628808
6.6200286910734665	5.0814705	2.2542117
6.637584803896092	4.9252462	2.2192895
6.655141072692462	4.9440937	2.2235317
6.672697497878842	5.0043764	2.2370462
6.690254079871514	5.055152	2.2483666
6.707810819086808	5.0042953	2.2370281
6.725367715941078	4.959823	2.227066
6.742924770850719	4.9662547	2.2285094
6.760481984232151	4.9549623	2.2259746
6.778039356501836	4.9347057	2.2214198
6.795596888076266	4.9530454	2.2255437
6.813154579371963	4.935566	2.2216134
6.830712430805492	4.9798803	2.2315645
6.84827044279344	4.974291	2.2303119
6.865828615752445	4.9856195	2.23285
6.883386950099159	4.9632998	2.2278464
6.900945446250287	4.899677	2.2135212
6.918504104622553	4.9374146	2.2220294
6.936062925632727	4.955293	2.2260487
6.953621909697607	5.00193	2.2364995
6.971181057234028	4.9793487	2.2314453
6.988740368658859	4.991366	2.2341366
7.006299844389007	5.084201	2.2548172
7.023859484841407	5.225282	2.2858877
7.041419290433036	5.3010354	2.3023977
7.058979261580902	5.45763	2.336157
7.0765393987020495	5.6569843	2.3784416
7.094099702213559	5.980852	2.445578
7.111660172532549	6.333572	2.5166588
7.129220810076164	6.6697507	2.582586
7.146781615261595	7.3237915	2.7062504
7.16434258850606	7.5873394	2.7545125
7.181903730226821	7.9742827	2.8238773
7.1994650408411704	7.9741783	2.8238587
7.217026520766437	8.0675125	2.8403368
7.234588170419983	8.25935	2.8739085
7.252149990219215	8.323795	2.885099
7.269711980581568	8.269018	2.87559
7.2872741419245175	8.081549	2.8428066
7.304836474665574	7.7574873	2.7852266
7.322398979222286	7.469061	2.7329583
7.339961656012233	7.3200903	2.7055666
7.357524505453039	7.0014043	2.6460166
7.375087527962357	6.61857	2.572658
7.392650723957886	6.274161	2.5048275
7.410214093857353	5.857023	2.4201286
7.427777638078528	5.6989822	2.3872542
7.445341357039213	5.5328784	2.3522072
7.4629052511572525	5.42504	2.3291714
7.480469320850524	5.3479714	2.3125682
7.498033566536948	5.2901597	2.3000348
7.5155979886344735	5.223852	2.285575
7.5331625875610975	5.1074915	2.259976
7.550727363734844	5.1237855	2.263578
7.568292317573788	5.0988584	2.2580652
7.585857449496025	5.1474915	2.2688084
7.603422759919705	5.20315	2.2810414
7.620988249263007	5.2001915	2.280393
7.638553917944147	5.2169285	2.2840598
7.656119766381391	5.160404	2.2716522
7.673685794993023	5.160239	2.271616
7.691252004197388	5.161262	2.271841
7.70881839441285	5.189224	2.2779868
7.726384966057826	5.1799107	2.2759416
7.743951719550762	5.215941	2.2838435
7.761518655310149	5.2293067	2.2867677
7.779085773754511	5.2603073	2.293536
7.796653075302419	5.242267	2.2895997
7.814220560372475	5.309262	2.3041835
7.831788229383323	5.3280354	2.3082538
7.8493560827536495	5.3688564	2.3170793
7.866924120902174	5.379292	2.31933
7.884492344247663	5.371535	2.3176572
7.9020607532089135	5.3281293	2.308274
7.919629348204771	5.2817874	2.298214
7.937198129654115	5.292849	2.3006194
7.954767097975865	5.388252	2.321261
7.972336253588986	5.431826	2.330628
7.989905596912472	5.509544	2.3472419
8.007475128365371	5.5313315	2.3518784
8.025044848366756	5.5696254	2.3600054
8.042614757335754	5.6188474	2.370411
8.060184855691523	5.6486764	2.3766944
8.07775514385327	5.733286	2.394428
8.095325622240228	5.738399	2.3954957
8.112896291271687	5.7423544	2.396321
8.130467151366968	5.769216	2.4019191
8.148038202945436	5.832937	2.4151473
8.165609446426497	5.848106	2.4182858
8.183180882229594	5.912332	2.4315288
8.200752510774217	5.8645554	2.4216845
8.218324332479893	5.8845096	2.4258008
8.235896347766193	5.8712826	2.423073
8.253468557052724	5.921237	2.4333591
8.27104096075914	5.9508677	2.43944
8.288613559305137	5.985883	2.4466064
8.306186353110448	6.0401516	2.4576719
8.32375934259485	6.1134377	2.4725368
8.341332528178162	6.0685296	2.4634385
8.358905910280246	6.091071	2.4680095
8.376479489321003	6.129039	2.4756896
8.394053265720377	6.202591	2.4905002
8.411627239898356	6.2423563	2.4984708
8.42920141227497	6.261901	2.502379
8.44677578327029	6.271044	2.5042052
8.464350353304427	6.2711816	2.5042326
8.48192512279754	6.229684	2.4959335
8.499500092169827	6.103927	2.4706128
8.51707526184153	6.033986	2.4564173
8.534650632232934	6.0791044	2.465584
8.552226203764365	6.1354895	2.4769921
8.569801976856192	6.171956	2.484342
8.587377951928834	6.1483574	2.479588
8.60495412940274	6.2227645	2.494547
8.622530509698416	6.22696	2.4953878
8.6401070932364	6.347045	2.5193343
8.657683880437283	6.408956	2.5315917
8.675260871721695	6.5323734	2.5558507
8.692838067510303	6.7322893	2.5946655
8.710415468223834	6.901834	2.627134
8.727993074283043	7.101348	2.6648355
8.745570886108737	7.129195	2.6700554
8.763148904121765	7.168711	2.677445
8.78072712874302	7.158921	2.675616
8.798305560393441	7.3833885	2.7172391
8.815884199494006	7.58706	2.7544618
8.833463046465745	7.7617207	2.7859864
8.851042101729728	7.9004216	2.8107688
8.86862136570707	8.199714	2.8635142
8.886200838818924	8.354875	2.89048
8.903780521486505	8.474835	2.9111571
8.921360414131055	8.522118	2.9192667
8.938940517173874	8.661424	2.9430296
8.956520831036297	8.7877245	2.9644096
8.97410135613971	9.019789	3.0032964
8.99168209290554	9.144391	3.0239694
9.009263041755265	9.499164	3.0820713
9.026844203110405	9.812158	3.1324363
9.044425577392525	10.07992	3.1748888
9.062007165023239	10.11538	3.1804686
9.079588966424197	10.334135	3.214675
9.097170982017108	10.422821	3.2284393
9.11475321222372	11.466358	3.3862011
9.132335657465825	12.333426	3.5118978
9.149918318165264	12.4712305	3.531463
9.167501194743924	13.101658	3.6196213
9.18508428762374	12.807244	3.578721
9.202667597226693	12.704975	3.564404
9.220251123974803	12.226679	3.496667
9.237834868290143	11.892371	3.4485316
9.255418830594836	11.768546	3.4305315
9.273003011311046	11.213393	3.3486404
9.290587410860985	11.016599	3.3191261
9.308172029666911	10.364372	3.2193744
9.32575686815113	10.087749	3.1761217
9.343341926735997	8.7628145	2.960205
9.360927205843916	8.581947	2.929496
9.378512705897327	8.38388	2.895493
9.396098427318728	8.087508	2.8438544
9.413684370530664	7.981563	2.825166
9.431270535955722	7.891397	2.809163
9.448856924016539	7.935741	2.8170447
9.466443535135806	7.829349	2.7980974
9.484030369736251	7.854462	2.8025813
9.501617428240658	7.805999	2.7939217
9.519204711071852	7.766311	2.7868102
9.536792218652714	7.736858	2.7815208
9.55437995140617	7.730923	2.7804537
9.571967909755191	7.7538652	2.7845764
9.589556094122802	7.7459173	2.7831488
9.60714450493207	7.827682	2.7977996
9.624733142606116	7.875254	2.8062882
9.642322007568108	7.9786024	2.824642
9.659911100241267	8.005292	2.8293624
9.677500421048851	8.00109	2.8286197
9.695089970414175	8.047464	2.8368053
9.712679748760609	8.06605	2.840079
9.730269756511557	8.081354	2.8427722
9.747859994090492	8.068529	2.8405156
9.765450461920915	8.05002	2.8372557
9.78304116042639	8.066964	2.8402402
9.800632090030527	8.033189	2.8342881
9.81822325115699	8.128086	2.8509798
9.835814644229481	8.19637	2.8629303
9.853406269671762	8.298815	2.8807664
9.870998127907646	8.307287	2.8822365
9.888590219360985	8.246807	2.8717256
9.906182544455698	8.146425	2.8541944
9.923775103615734	8.134096	2.8520336
9.941367897265108	8.164188	2.8573043
9.958960925827878	8.19573	2.8628185
9.97655418972816	8.222134	2.8674264
9.994147689390106	8.304953	2.8818314
10.011741425237934	8.358065	2.8910317
10.029335397695904	8.377016	2.8943076
10.04692960718833	8.240051	2.870549
10.06452405413958	8.13634	2.852427
10.082118738974064	8.109543	2.8477259
10.099713662116246	8.170101	2.8583388
10.117308823990651	8.157389	2.8561141
10.134904225021844	8.163299	2.8571486
10.152499865634445	8.220776	2.8671894
10.170095746253125	8.164272	2.857319
10.18769186730261	8.156986	2.8560438
10.205288229207675	8.093672	2.844938
10.222884832393145	8.180662	2.8601856
10.2404816772839	8.173194	2.8588798
10.258078764304868	8.18826	2.8615136
10.275676093881035	8.06535	2.8399558
10.293273666437438	8.067988	2.8404205
10.310871482399158	8.081321	2.8427663
10.32846954219134	8.077427	2.8420815
10.346067846239173	8.077094	2.842023
10.363666394967908	8.007243	2.8297071
10.38126518880283	8.035074	2.8346207
10.398864228169298	8.050579	2.8373542
10.416463513492713	8.112341	2.8482172
10.434063045198531	8.139463	2.8529744
10.451662823712262	8.133368	2.851906
10.469262849459467	8.19364	2.8624535
10.486863122865758	8.129698	2.8512626
10.504463644356806	8.069525	2.8406909
10.522064414358338	7.9610353	2.8215306
10.539665433296118	7.9265575	2.8154142
10.557266701595987	7.8963294	2.8100407
10.574868219683818	7.8857026	2.8081493
10.592469987985552	7.828695	2.7979805
10.610072006927185	7.7291	2.7801259
10.627674276934751	7.5954623	2.7559867
10.64527679843435	7.440837	2.7277896
10.662879571852143	7.2391644	2.6905696
10.680482597614331	7.050267	2.6552339
10.698085876147173	6.951786	2.636624
10.715689407876988	6.9172497	2.6300664
10.733293193230146	6.869785	2.6210275
10.750897232633072	6.8169975	2.610938
10.76850152651225	6.652712	2.5792851
10.786106075294207	6.5637045	2.5619729
10.803710879405534	6.5027895	2.5500567
10.821315939272877	6.416306	2.533043
10.83892125532294	6.32383	2.5147226
10.856526827982472	6.243542	2.498708
10.874132657678285	6.2324586	2.4964893
10.891738744837243	6.201936	2.4903686
10.909345089886271	6.140317	2.4779663
10.926951693252343	6.0885763	2.467504
10.944558555362494	6.039978	2.4576366
10.96216567664381	5.98791	2.4470205
10.979773057523436	5.8968196	2.4283369
10.997380698428573	5.7856154	2.4053307
11.014988599786477	5.7271585	2.3931482
11.032596762024461	5.725705	2.3928447
11.050205185569892	5.711866	2.389951
11.067813870850198	5.634785	2.3737702
11.085422818292859	5.506172	2.3465235
11.10303202832541	5.4543037	2.3354452
11.120641501375454	5.426242	2.3294296
11.138251237870636	5.3765993	2.3187494
11.155861238238671	5.286765	2.2992966
11.173471502907317	5.186867	2.2774694
11.191082032304402	5.12795	2.2644978
11.208692826857805	5.0489945	2.2469969
11.226303886995465	5.031145	2.2430215
11.243915213145371	5.0092635	2.2381384
11.261526805735578	4.9447684	2.2236836
11.279138665194196	4.8329167	2.1983895
11.296750791949393	4.8050623	2.1920452
11.314363186429393	4.806198	2.1923044
11.331975849062479	4.798298	2.1905017
11.34958878027699	4.7156014	2.1715436
11.36720198050133	4.649118	2.1561813
11.384815450163948	4.567158	2.1370912
11.402429189693366	4.466456	2.113399
11.420043199518153	4.4134517	2.1008217
11.437657480066942	63.36246	7.960054
11.455272031768422	85.10226	9.225088
11.472886855051353	107.49961	10.368202
11.490501950344528	99.123215	9.956064
11.508117318076819	84.4826	9.191442
11.52573295867715	45.89016	6.7742276
11.543348872574514	4.208374	2.0514321
11.560965060197946	4.1378436	2.034169
11.57858152197655	4.1287627	2.0319357
11.59619825833949	4.0887227	2.022059
11.613815269715985	4.04326	2.010786
11.631432556535323	38.490616	6.2040806
11.649050119226837	82.98104	9.109393
11.666667958219929	93.41336	9.665059
11.68428607394406	107.71132	10.378407
11.701904466828756	82.57436	9.087044
11.719523137303586	65.42696	8.088694
11.737142085798196	4.620243	2.149475
11.754761312742286	3.7261713	1.9303293
11.772380818565619	3.6801956	1.9183836
11.790000603698015	3.6086385	1.8996416
11.80762066856935	3.577139	1.8913326
11.825241013609572	3.5337477	1.8798265
11.842861639248683	3.537503	1.880825
11.860482545916748	3.488577	1.8677733
11.878103734043883	3.4180326	1.8487922
11.895725204060282	3.4101174	1.8466504
11.91334695639619	3.42193	1.849846
11.930968991481919	3.392187	1.8417891
11.948591309747824	3.321738	1.8225635
11.966213911624347	3.2635896	1.8065408
11.98383679754198	3.2528749	1.8035728
12.001459967931268	3.2504792	1.8029085
12.019083423222835	3.2600055	1.8055485
12.036707163847352	3.2722871	1.8089464
12.05433119023556	3.274634	1.809595
12.071955502818259	3.2345207	1.7984773
12.089580102026313	3.1760163	1.7821381
12.107204988290643	3.1480951	1.7742872
12.12483016204224	3.0991433	1.7604383
12.142455623712152	3.0886135	1.7574452
12.16008137373149	3.0698998	1.752113
12.177707412531431	3.0807953	1.7552195
12.19533374054321	3.0679026	1.7515429
12.212960358198126	3.063339	1.7502397
12.230587265927545	3.0041056	1.7332356
12.248214464162889	3.0156202	1.7365541
12.265841953335649	3.0116618	1.735414
12.283469733877375	3.0332298	1.741617
12.301097806219685	3.0186424	1.7374241
12.31872617079425	3.0354857	1.7422645
12.336354828032825	3.0089447	1.7346311
12.353983778367205	2.9878728	1.7285465
12.371613022229262	2.9813004	1.7266443
12.389242560050928	2.937035	1.713778
12.406872392264201	2.9099715	1.7058638
12.424502519301143	2.88072	1.6972684
12.442132941593874	2.8645172	1.6924884
12.459763659574586	2.8336008	1.6833303
12.477394673675532	2.7989407	1.6730034
12.49502598432903	2.7981968	1.6727811
12.51265759196746	2.7923613	1.671036
12.530289497023267	2.821694	1.6797898
12.547921699928967	2.7870588	1.6694486
12.565554201117134	2.7647386	1.6627502
12.583187001020404	2.7395318	1.655153
12.600820100071486	2.7449427	1.6567868
12.618453498703152	2.7633693	1.6623385
12.636087197348235	2.7819808	1.667927
12.65372119643964	2.7907438	1.6705519
12.671355496410326	2.7954216	1.6719514
12.68899009769333	2.8443747	1.6865274
12.706625000721749	2.8871486	1.6991612
12.724260205928752	2.931772	1.7122418
12.741895713747551	2.9295506	1.711593
12.759531524611454	2.9272425	1.7109187
12.777167638953818	2.940021	1.714649
12.794804057208072	2.9916096	1.729627
12.812440779807702	3.0386565	1.7431742
12.830077807186271	3.2240887	1.7955748
12.847715139777405	3.2352095	1.7986689
12.865352778014795	3.4302788	1.8521012
12.882990722332197	3.5446932	1.8827356
12.90062897316344	3.6861994	1.9199477
12.918267530942412	3.7966573	1.9485013
12.935906396103071	3.6493816	1.9103354
12.953545569079449	3.754076	1.9375437
12.971185050305628	3.5915875	1.8951484
12.988824840215775	3.6411264	1.9081736
13.006464939244115	3.5980284	1.896847
13.024105347824943	3.424068	1.8504237
13.041746066392617	3.4830263	1.8662868
13.05938709538157	3.307341	1.8186097
13.077028435226296	3.3658295	1.8346198
13.094670086361363	3.2988877	1.8162841
13.112312049221401	3.22558	1.79599
13.129954324241112	3.1142309	1.7647184
13.147596911855258	2.882494	1.6977909
13.165239812498685	2.851909	1.6887596
13.182883026606293	2.794823	1.6717724
13.200526554613058	2.7438397	1.656454
13.218170396954017	2.7123039	1.6469073
13.235814554064284	2.7133124	1.6472136
13.253459026379034	2.7196112	1.6491244
13.271103814333523	2.711071	1.646533
13.288748918363058	2.7068598	1.6452538
13.306394338903031	2.693288	1.641124
13.32404007638889	2.675564	1.6357151
13.341686131256164	2.6714716	1.6344637
13.359332503940449	2.6478648	1.6272261
13.376979194877402	2.6347256	1.6231837
13.394626204502751	2.6445189	1.6261977
13.412273533252307	2.6552045	1.6294799
13.429921181561937	2.6557155	1.6296366
13.447569149867581	2.6741498	1.6352828
13.465217438605247	2.6918104	1.6406738
13.482866048211022	2.6889703	1.639808
13.500514979121052	2.6892285	1.6398867
13.518164231771568	2.6582332	1.6304089
13.535813806598844	2.6348023	1.6232074
13.553463704039254	2.631201	1.6220977
13.571113924529229	2.6502995	1.627974
13.588764468505275	2.683087	1.6380131
13.606415336403956	2.7067757	1.6452281
13.624066528661917	2.7254617	1.6508973
13.641718045715882	2.710873	1.6464728
13.659369888002635	2.7357185	1.6540008
13.67702205595903	2.8165798	1.6782669
13.694674550021993	2.926136	1.7105953
13.712327370628532	3.0294917	1.7405435
13.729980518215713	3.0722053	1.7527708
13.747633993220681	3.172705	1.7812089
13.765287796080647	3.2410297	1.800286
13.7829419272329	3.341041	1.8278515
13.800596387114801	3.3466415	1.8293828
13.818251176163775	3.3493161	1.8301136
13.835906294817324	3.3526762	1.8310314
13.853561743513023	3.418041	1.8487945
13.871217522688525	3.458956	1.8598269
13.888873632781538	3.472042	1.8633417
13.906530074229858	3.4616063	1.8605392
13.92418684747135	3.5175023	1.8755006
13.941843952943948	3.5407043	1.881676
13.959501391085665	3.4939492	1.8692108
13.977159162334578	3.41086	1.8468513
13.994817267128846	3.3601205	1.8330631
14.012475705906693	3.2845557	1.8123343
14.030134479106424	3.1744475	1.781698
14.047793587166414	3.1370616	1.7711751
14.065453030525108	3.088864	1.7575165
14.083112809621026	3.0449352	1.7449743
14.100772924892766	2.9731154	1.7242725
14.118433376778997	2.9121628	1.706506
14.136094165718458	2.8411758	1.6855788
14.153755292149969	2.7366776	1.6542907
14.171416756512416	2.6355069	1.6234244
14.189078559244768	2.552048	1.5975131
14.20674070078606	2.5238776	1.5886717
14.224403181575408	2.4831345	1.5757965
14.242066002051999	2.4489405	1.5649091
14.259729162655093	2.4004555	1.5493404
14.277392663824022	2.4089916	1.5520927
14.295056505998208	2.407508	1.5516146
14.312720689617128	2.3937004	1.5471588
14.330385215120348	2.396746	1.5481428
14.348050082947497	2.4151678	1.554081
14.3657152935383	2.4088912	1.5520604
14.383380847332528	2.399572	1.5490552
14.401046744770051	2.3969264	1.548201
14.418712986290798	2.3482347	1.5323951
14.436379572334793	2.3373253	1.5288314
14.454046503342123	2.3719578	1.5401162
14.471713779752946	2.4069624	1.5514388
14.489381402007504	2.4131496	1.5534315
14.507049370546113	2.403032	1.5501716
14.524717685809168	2.4143634	1.5538222
14.542386348237134	2.4332206	1.5598783
14.560055358270553	2.396129	1.5479435
14.577724716350051	2.418182	1.5550505
14.595394422916325	2.4309192	1.5591406
14.61306447841015	2.4747348	1.5731289
14.63073488327237	2.4890428	1.5776701
14.648405637943917	2.5146492	1.5857645
14.6660767428658	2.518267	1.5869048
14.683748198479094	2.535635	1.5923678
14.701420005224954	2.542449	1.5945059
14.719092163544628	2.5956306	1.6110961
14.73676467387942	2.6227021	1.6194758
14.754437536670727	2.6462414	1.6267272
14.772110752360014	2.663159	1.6319188
14.78978432138882	2.6862144	1.6389675
14.807458244198777	2.7036934	1.6442912
14.82513252123159	2.7385	1.6548414
14.842807152929028	2.7532508	1.6592922
14.860482139732962	2.7216318	1.6497369
14.87815748208531	2.6882746	1.6395959
14.8958331804281	2.7199006	1.6492121
14.91350923520342	2.6872249	1.6392757
14.931185646853438	2.6899583	1.6401093
14.948862415820408	2.6543493	1.6292174
14.966539542546656	2.6810243	1.6373833
14.98421702747459	2.662545	1.6317307
15.001894871046696	2.641232	1.6251868
15.019573073705542	2.6291246	1.6214576
15.037251635893766	2.6391246	1.6245383
15.054930558054092	2.6456363	1.6265413
15.072609840629323	2.6869285	1.6391853
15.090289484062351	2.817495	1.6785396
15.107969488796124	3.074819	1.7535162
15.125649855273691	3.417782	1.8487245
15.14333058393817	3.8894362	1.9721653
15.161011675232768	4.9209633	2.2183244
15.17869312960076	6.333656	2.5166755
15.196374947485506	8.186483	2.8612032
15.214057129330447	11.193893	3.3457277
15.231739675579114	15.9282255	3.991018
15.249422586675102	21.093454	4.592761
15.267105863062092	24.438917	4.9435735
15.284789505183847	24.88909	4.988897
15.302473513484218	23.045	4.800521
15.320157888407127	19.413933	4.4061246
15.337842630396578	15.109194	3.8870547
15.355527739896656	11.755155	3.428579
15.37321321735153	9.157771	3.026181
15.39089906320545	6.6095185	2.5708983
15.408585277902748	4.9220104	2.2185605
15.42627186188783	3.7748084	1.9428866
15.443958815605198	3.2149713	1.7930341
15.461646139499424	2.893944	1.7011596
15.479333834015168	2.7429535	1.6561865
15.497021899597165	2.66648	1.632936
15.514710336690234	2.6160514	1.6174213
15.53239914573928	2.5510037	1.5971862
15.550088327189297	2.4801652	1.574854
15.567777881485336	2.483952	1.5760559
15.58546780907256	2.4895403	1.5778277
15.6031581103962	2.5007927	1.5813895
15.620848785901568	2.53583	1.5924289
15.638539836034063	2.52959	1.5904684
15.656231261239173	2.5327713	1.5914683
15.673923061962451	2.4776993	1.5740709
15.691615238649552	2.4538937	1.5664909
15.709307791746202	2.4121602	1.5531131
15.727000721698221	2.4112008	1.5528041
15.744694028951498	2.4106257	1.552619
15.76238771395202	2.3846967	1.5442463
15.780081777145844	2.3521307	1.5336658
15.797776218979125	2.3388326	1.5293243
15.815471039898094	2.3868704	1.54495
15.833166240349064	2.3813646	1.5431671
15.850861820778437	2.383877	1.543981
15.868557781632699	2.3662002	1.5382458
15.886254123358412	2.3582206	1.5356499
15.903950846402232	2.3523977	1.5337528
15.921647951210897	2.371964	1.5401182
15.939345438231225	2.3945296	1.5474268
15.957043307910133	2.4239442	1.5569022
15.974741560694602	2.4112623	1.552824
15.992440197031714	2.3866076	1.5448649
16.01013921736862	2.3918223	1.5465517
16.02783862215259	2.417492	1.5548285
16.045538411830933	2.428803	1.5584618
16.06323858685107	2.3967721	1.5481513
16.080939147660512	2.3883045	1.545414
16.09864009470684	2.3868446	1.5449417
16.11634142843774	2.403299	1.5502578
16.134043149300954	2.4232807	1.556689
16.15174525774433	2.454231	1.5665985
16.169447754215817	2.468939	1.5712858
16.18715063916342	2.4514093	1.5656977
16.204853913035244	2.4719288	1.5722369
16.222557576279478	2.4722877	1.572351
16.240261629344403	22.429386	4.735967
16.257966072678386	42.981956	6.5560627
16.275670906729868	38.067223	6.169864
16.293376131947387	2.496489	1.5800282
16.31108174877957	2.509121	1.5840205
16.328787757675133	2.5630543	1.6009542
16.34649415908287	2.6044223	1.6138222
16.364200953451657	2.6236358	1.6197641
16.38190814123048	2.6258945	1.6204612
16.39961572286839	2.6282032	1.6211734
16.41732369881455	2.6573687	1.6301438
16.43503206951817	2.6753924	1.6356627
16.45274083542859	2.6707983	1.6342577
16.47044999699522	2.7190745	1.6489617
16.488159554667558	2.7831147	1.668267
16.505869508895184	2.8488832	1.6878635
16.523579860127786	2.9040496	1.7041272
16.541290608815117	2.9703178	1.723461
16.559001755407035	2.9900358	1.729172
16.57671330035348	3.0317178	1.7411829
16.59442524410448	3.122663	1.7671058
16.61213758711015	3.2061799	1.7905809
16.629850329820705	3.249235	1.8025634
16.647563472686436	3.319603	1.8219777
16.665277016157724	3.3858175	1.8400592
16.682990960685053	3.4295018	1.8518914
16.70070530671898	3.4453177	1.8561567
16.718420054710155	3.4876819	1.8675337
16.736135205109335	3.5156457	1.8750055
16.753850758367335	3.5836518	1.8930535
16.771566714935087	3.6434827	1.908791
16.789283075263597	3.7126288	1.9268184
16.80699983980398	3.788813	1.9464874
16.82471700900741	3.8243358	1.955591
16.84243458332518	3.8313675	1.9573879
16.860152563208665	3.8754942	1.9686275
16.87787094910932	3.9609258	1.9902074
16.89558974147871	4.021765	2.005434
16.913308940768466	4.1131296	2.0280852
16.931028547430333	4.1827235	2.0451708
16.94874856191613	4.292947	2.0719428
16.966468984677785	4.3536434	2.0865386
16.98418981616729	4.396601	2.0968075
17.00191105683676	4.4185376	2.1020317
17.019632707138374	4.519803	2.1259828
17.03735476752442	4.5401044	2.130752
17.05507723844728	4.529107	2.1281698
17.072800120359403	4.5331035	2.1291087
17.090523413713353	4.527965	2.1279016
17.108247118961785	4.5364366	2.1298912
17.125971236557437	4.5842385	2.1410835
17.143695766953133	4.6491747	2.1561944
17.161420710601806	4.680388	2.1634204
17.179146067956477	4.6695423	2.1609123
17.19687183947025	4.66926	2.160847
17.21459802559634	4.627056	2.1510594
17.232324626788028	4.6027575	2.1454039
17.25005164349871	4.5413575	2.131046
17.267779076181863	4.517775	2.125506
17.285506925291074	4.563667	2.136274
17.30323519127999	4.623727	2.1502852
17.320963874602384	4.627984	2.151275
17.33869297571211	4.5802984	2.1401632
17.356422495063114	4.505301	2.1225693
17.37415243310944	4.5194426	2.1258981
17.391882790305218	4.5103793	2.1237655
17.40961356710468	4.448899	2.1092412
17.42734476396215	4.4178147	2.1018598
17.445076381332044	4.4389534	2.1068823
17.462808419668868	4.486363	2.1181035
17.48054087942723	4.6151567	2.1482916
17.498273761061835	4.8873243	2.2107294
17.51600706502747	5.3078985	2.3038876
17.533740791779024	6.036452	2.4569192
17.551474941771485	7.4244223	2.7247794
17.56920951545993	8.610191	2.9343128
17.586944513299528	10.847936	3.2936203
17.60467993574556	12.591319	3.548425
17.622415783253373	14.4712105	3.8041043
17.64015205627843	15.945125	3.9931347
17.657888755276293	17.023079	4.1259036
17.675625880702604	17.52832	4.1866837
17.69336343301311	17.414719	4.1730947
17.71110141266366	16.57997	4.071851
17.728839820110178	15.518691	3.939377
17.746578655808705	14.544685	3.8137496
17.764317920215372	13.115013	3.6214657
17.7820576137864	11.581483	3.4031577
17.79979773697811	9.460889	3.0758557
17.81753829024692	7.4829865	2.7355049
17.835279274049356	5.769393	2.401956
17.85302068884201	4.7685895	2.18371
17.870762535081607	4.1659665	2.04107
17.888504813224934	3.8847861	1.9709861
17.90624752372891	3.6611426	1.9134113
17.923990667050536	3.5292678	1.8786346
17.941734243646895	3.4688334	1.8624804
17.959478253975185	3.4578698	1.8595349
17.9772226984927	3.4075773	1.8459624
17.994967577656833	3.3685548	1.8353623
18.01271289192506	3.3625605	1.8337286
18.030458641754965	3.363876	1.8340873
18.04820482760425	3.3529913	1.8311175
18.06595144993067	3.3120835	1.819913
18.083698509192125	3.2790565	1.8108165
18.101446005846576	3.2554255	1.8042798
18.119193940352105	3.1791081	1.7830054
18.136942313166887	3.1685095	1.7800307
18.1546911247492	3.1798213	1.7832054
18.1724403755574	3.2140772	1.7927848
18.19019006604997	3.1958315	1.7876889
18.207940196685467	3.181045	1.7835485
18.225690767922575	3.114941	1.7649195
18.243441780220046	3.087373	1.7570922
18.261193234036764	3.055488	1.7479955
18.278945129831676	3.0731006	1.7530261
18.29669746806386	3.046649	1.7454653
18.314450249192483	3.0483272	1.7459459
18.3322034736768	3.046004	1.7452805
18.349957141976184	3.0638852	1.7503958
18.3677112545501	3.0741074	1.7533133
18.385465811858108	3.073173	1.7530468
18.403220814359884	3.067692	1.7514828
18.420976262515172	3.096571	1.7597077
18.43873215678387	3.1087112	1.7631538
18.456488497625923	3.1306171	1.769355
18.474245285501407	3.1945276	1.7873242
18.492002520870486	3.2530892	1.8036323
18.50976020419343	3.3825767	1.8391783
18.527518335930615	3.6664548	1.9147989
18.545276916542516	4.2294602	2.056565
18.563035946489688	4.3401027	2.0832913
18.580795426232832	4.758107	2.1813085
18.598555356232698	4.609717	2.147025
18.616315736950185	4.893635	2.212156
18.63407656884626	4.606871	2.1463623
18.65183785238201	4.8260612	2.1968298
18.669599588018617	4.5823145	2.140634
18.68736177621737	4.5256276	2.1273522
18.705124417439652	4.5022845	2.1218588
18.72288751214696	4.3050995	2.0748734
18.740651060800886	4.4935083	2.1197896
18.758415063863115	4.260814	2.064174
18.77617952179546	4.4491158	2.1092927
18.793944435059814	4.2000785	2.0494094
18.811709804118184	4.1786857	2.0441835
18.829475629432675	4.099005	2.0246
18.8472419114655	3.8866744	1.971465
18.86500865067897	3.9674203	1.9918385
18.88277584753551	3.7175946	1.9281064
18.90054350249763	3.7842329	1.9453105
18.918311616027957	3.5089164	1.8732102
18.936080188589226	3.3928585	1.8419714
18.953849220644265	3.0734768	1.7531334
18.971618712656007	2.9062326	1.7047676
18.9893886650875	2.8566875	1.6901739
19.007159078401887	8.03983	2.8354595
19.024929953062408	32.936966	5.7390738
19.042701289532435	32.864487	5.7327557
19.060473088275405	25.387474	5.0385985
19.07824534975489	2.625211	1.6202503
19.096018074434568	2.6349344	1.6232481
19.113791262778197	2.6426048	1.625609
19.13156491524966	2.6109893	1.6158556
19.149339032312945	2.5677025	1.6024052
19.167113614432136	2.543672	1.5948894
19.184888662071433	2.5638523	1.6012034
19.202664175695123	2.557533	1.5992289
19.220440155767623	2.5143495	1.58567
19.238216602753447	2.5090199	1.5839885
19.2559935171172	2.506933	1.5833297
19.27377089932361	2.542317	1.5944644
19.291548749837514	2.5221517	1.5881283
19.309327069123835	2.517473	1.5866547
19.32710585764763	2.4502196	1.5653177
19.344885115874032	2.4488335	1.5648749
19.362664844268313	2.4700718	1.5716462
19.380445043295822	2.5090811	1.584008
19.39822571342203	2.4914052	1.5784186
19.41600685511252	2.5041187	1.5824407
19.43378846883297	2.5015783	1.5816379
19.451570555049173	2.496782	1.5801209
19.469353114227037	2.453435	1.5663445
19.48713614683254	2.451922	1.5658615
19.50491965333182	2.4957478	1.5797936
19.52270363419109	2.5095954	1.5841702
19.540488089876686	2.4924505	1.5787497
19.55827302085503	2.4699795	1.5716169
19.576058427592674	2.4692502	1.5713848
19.593844310556282	2.463231	1.5694684
19.611630670212598	2.4823642	1.575552
19.629417507028506	2.5165205	1.5863545
19.64720482147098	2.5227098	1.588304
19.6649926140071	2.5130372	1.5852562
19.682780885104084	2.4874778	1.577174
19.70056963522921	2.4784646	1.574314
19.718358864849908	2.4862506	1.5767848
19.7361485744337	2.4882624	1.5774227
19.753938764448215	2.501945	1.5817537
19.771729435361202	2.4851108	1.5764234
19.789520587640506	2.4919248	1.5785831
19.807312221754092	2.5104406	1.584437
19.825104338170043	2.4888737	1.5776165
19.842896937356517	2.5074277	1.583486
19.860690019781824	2.5092862	1.5840727
19.87848358591436	2.5114095	1.5847428
19.896277636222635	2.4853868	1.576511
19.914072171175278	2.4918857	1.5785707
19.931867191241015	2.4633546	1.5695077
19.94966269688869	2.435925	1.560745
19.967458688587264	2.3979373	1.5485275
19.985255166805807	2.4243407	1.5570295
20.00305213201348	2.445291	1.5637426
20.020849584679578	2.4736474	1.5727834
20.038647525273507	2.4969637	1.5801784
20.05644595426477	2.5143087	1.5856572
20.07424487212299	2.5309036	1.5908813
20.092044279317903	2.4910183	1.5782961
20.109844176319353	2.4521508	1.5659345
20.127644563597304	2.4010885	1.5495446
20.145445441621817	2.4085088	1.5519371
20.16324681086307	2.4133224	1.5534872
20.181048671791373	2.4011698	1.5495708
20.198851024877122	2.3677948	1.538764
20.216653870590836	2.3451097	1.531375
20.234457209403146	2.3396368	1.5295871
20.252261041784802	2.3179278	1.5224743
20.270065368206662	2.342892	1.5306509
20.287870189139685	2.396476	1.5480555
20.305675505054968	2.3881514	1.5453645
20.323481316423702	2.3606129	1.5364286
20.341287623717207	2.338216	1.5291226
20.359094427406884	2.3354664	1.5282233
20.376901727964288	2.32092	1.5234566
20.39470952586107	2.2852538	1.5117056
20.41251782156899	2.309356	1.5196565
20.430326615559935	2.3030894	1.5175933
20.448135908305886	2.3050308	1.5182328
20.465945700278965	2.296515	1.5154257
20.483755991951384	2.317199	1.5222349
20.50156678379548	2.3180249	1.5225061
20.519378076283708	2.3229945	1.5241373
20.537189869888635	2.3169355	1.5221484
20.55500216508294	2.3207028	1.5233853
20.572814962339415	2.3126967	1.5207553
20.59062826213098	2.3058558	1.5185045
20.60844206493066	2.3308096	1.526699
20.626256371211593	2.3716373	1.5400121
20.644071181447032	2.380086	1.5427527
20.66188649611036	2.3565445	1.535104
20.67970231567506	2.3118932	1.5204911
20.697518640614742	2.29878	1.5161728
20.715335471403122	2.3045757	1.5180829
20.73315280851404	2.3076017	1.5190792
20.750970652421447	2.3014388	1.5170494
20.768789003599412	2.3018906	1.5171983
20.786607862522136	2.279281	1.5097288
20.8044272296639	2.261488	1.5038245
20.82224710549913	2.287879	1.5125736
20.84006749050237	2.342575	1.5305473
20.857888385148268	3.9076254	1.9767715
20.8757097899116	46.019325	6.7837543
20.893531705267254	64.87321	8.054391
20.911354131690224	83.8846	9.158854
20.92917706965566	69.09081	8.312088
20.94700051963877	50.11791	7.0794
20.96482448211493	29.417627	5.423802
20.982648957559622	4.1754494	2.0433917
21.00047394644843	2.255533	1.5018432
21.01829944925707	2.2056978	1.4851592
21.036125466461375	2.211428	1.487087
21.053951998537297	2.2332938	1.4944209
21.071779045960906	2.271918	1.5072883
21.089606609208378	2.2521603	1.5007199
21.10743468875603	2.241176	1.4970558
21.12526328508028	2.2311394	1.4936999
21.143092398657675	2.2236226	1.4911816
21.16092202996488	2.1859167	1.4784846
21.17875217947867	2.1811838	1.4768832
21.19658284767596	2.15526	1.4680804
21.21441403503377	2.162628	1.4705876
21.232245742029225	2.1763122	1.475233
21.2500779691396	2.173465	1.4742676
21.26791071684227	2.1736245	1.4743217
21.28574398561475	2.166007	1.4717361
21.30357777593465	2.1590898	1.4693842
21.321412088279704	2.1624186	1.4705164
21.339246923127792	2.1725204	1.4739472
21.357082280956888	2.1646023	1.4712588
21.3749181622451	2.1570477	1.4686891
21.392754567470647	2.142021	1.4635645
21.41059149711187	2.1630046	1.4707156
21.42842895164726	2.1499605	1.4662744
21.446266931555378	2.14964	1.4661651
21.464105437314945	2.1264381	1.4582312
21.481944469404798	2.0989196	1.4487649
21.49978402830388	2.1105936	1.4527882
21.51762411449127	2.093656	1.4469471
21.53546472844617	2.1203258	1.4561338
21.553305870647876	2.1260433	1.4580958
21.571147541575865	2.1325119	1.4603122
21.58898974170967	2.1015885	1.4496857
21.60683247152899	2.0720541	1.4394631
21.62467573151363	2.0768037	1.4411119
21.642519522143523	2.0814161	1.4427114
21.660363843898722	2.064589	1.4368678
21.6782086972594	2.0577493	1.4344857
21.696054082705864	2.0568202	1.4341618
21.713900000718535	2.0287168	1.4243304
21.73174645177795	2.0447028	1.429931
21.749593436364794	2.0417173	1.4288868
21.767440954959845	2.0524666	1.4326432
21.785289008044032	2.0255563	1.4232204
21.803137596098388	2.0241199	1.4227157
21.820986719604086	2.0198243	1.4212052
21.838836379042412	2.0183585	1.4206895
21.85668657489478	1.9890604	1.4103405
21.87453730764273	1.9756652	1.4055836
21.892388577767914	1.988885	1.4102783
21.91024038575213	2.011783	1.4183733
21.928092732077285	1.9966345	1.4130231
21.945945617225426	1.9839388	1.4085237
21.963799041678694	1.9919345	1.4113591
21.981653005919398	31.324415	5.596822
21.999507510429943	78.114075	8.838217
22.01736255569286	73.06469	8.547789
22.035218142190818	4.1691437	2.0418482
22.05307427040661	1.9847246	1.4088025
22.07093094082315	2.00044	1.4143691
22.088788153923474	2.0145724	1.4193563
22.106645910190746	2.0142066	1.4192275
22.12450421010827	2.0023315	1.4150376
22.142363054159464	1.9744816	1.4051625
22.16022244282787	1.9891967	1.4103888
22.178082376597164	1.9724028	1.4044226
22.195942855951145	1.9812676	1.407575
22.213803881373742	1.9719479	1.4042606
22.231665453349002	1.9849422	1.4088798
22.24952757236111	1.9733326	1.4047536
22.26739023889438	1.9645836	1.401636
22.28525345343323	1.9476645	1.3955876
22.30311721646225	1.966143	1.4021922
22.320981528466113	1.9684502	1.4030147
22.33884638992964	1.9760101	1.4057063
22.356711801337788	1.9385047	1.3923019
22.37457776317561	1.9475201	1.3955358
22.392444275928337	1.9708558	1.4038718
22.410311340081282	1.9586705	1.399525
22.428178956119904	1.9507142	1.3966798
22.446047124529805	1.9464949	1.3951684
22.46391584579669	1.9543939	1.3979964
22.481785120406414	1.912192	1.3828202
22.49965494884496	1.8991511	1.3780969
22.51752533159841	1.8869225	1.3736529
22.53539626915302	1.9378982	1.3920841
22.553267761995137	1.9651111	1.4018242
22.571139810611264	1.99262	1.4116019
22.589012415488025	1.9638888	1.4013882
22.60688557711216	1.9601928	1.4000689
22.624759295970566	1.9391788	1.392544
22.642633572550263	1.9152607	1.3839295
22.660508407338362	1.9056969	1.3804698
22.67838380082217	1.9227012	1.386615
22.696259753489077	1.9188896	1.38524
22.714136265826614	1.9064325	1.3807362
22.73201333832246	1.9424767	1.3937277
22.74989097146439	1.9885721	1.4101675
22.76776916574035	2.0111344	1.4181447
22.785647921638393	1.9798342	1.4070659
22.803527239646712	1.9419258	1.39353
22.82140712025363	1.9443085	1.3943846
22.839287563947593	1.939032	1.3924912
22.85716857121719	1.9090729	1.381692
22.875050142551135	1.8630122	1.364922
22.892932278438277	1.8979023	1.3776437
22.910814979367604	1.9139369	1.3834511
22.928698245828222	1.9525034	1.3973202
22.946582078309387	1.911097	1.3824244
22.96446647730047	1.8849535	1.3729361
22.98235144329098	1.8789324	1.3707415
23.000236976770562	1.901197	1.378839
23.018123078229	1.9055759	1.3804259
23.03600974815619	1.921876	1.3863174
23.053896987042194	1.8834893	1.3724028
23.071784795377173	1.898264	1.3777751
23.08967317365145	1.9063057	1.3806903
23.10756212235546	1.940097	1.3928736
23.125451641979787	1.9493678	1.3961976
23.143341733015134	1.9496886	1.3963125
23.161232395952357	1.9130843	1.383143
23.179123631282426	1.9298784	1.3892006
23.197015439496468	1.9349136	1.3910117
23.214907821085717	1.9324309	1.390119
23.23280077654157	1.9113137	1.3825027
23.250694306355538	1.9428422	1.3938588
23.268588411019277	1.9655802	1.4019915
23.28648309102458	1.9501874	1.3964912
23.304378346863356	1.9214665	1.3861697
23.322274179027676	1.8838348	1.3725287
23.340170588009723	1.8655106	1.365837
23.358067574301852	1.8535622	1.3614559
23.37596513839651	1.8458332	1.3586144
23.39386328078629	1.8478951	1.3593731
23.411762001963947	1.9090102	1.3816693
23.429661302422353	1.9164566	1.3843614
23.4475611826545	1.9332676	1.39042
23.46546164315356	1.9049292	1.3801917
23.48336268441279	1.9278811	1.3884816
23.501264306925638	1.9248841	1.3874019
23.51916651118564	1.9363049	1.3915118
23.537069297686497	1.9128702	1.3830655
23.554972666922037	1.8770722	1.3700628
23.57287661938623	1.8307317	1.3530453
23.59078115557318	1.8287394	1.3523089
23.608686275977128	1.8527044	1.3611408
23.62659198109246	1.84883	1.3597169
23.6444982714137	1.8743677	1.3690755
23.66240514743549	1.8931369	1.3759131
23.68031260965263	1.9157548	1.384108
23.698220658560068	1.8957536	1.3768637
23.716129294652845	1.9201442	1.3856927
23.7340385184262	1.9196013	1.3854967
23.75194833037546	1.909813	1.3819599
23.769858730996123	1.90139	1.378909
23.78776972078382	1.9148059	1.3837651
23.80568130023431	1.944467	1.3944415
23.823593469843495	1.9633181	1.4011846
23.841506230107424	1.9703994	1.4037092
23.859419581522275	1.9742236	1.4050707
23.87733352458438	1.938833	1.3924198
23.89524805979019	1.9234834	1.3868971
23.913163187636318	1.9158454	1.3841406
23.931078908619508	1.9051008	1.3802539
23.948995223236633	1.9033487	1.379619
23.966912131984735	1.9745142	1.4051741
23.98482963536096	2.0487733	1.4313537
24.002747733862616	2.0363781	1.4270172
24.020666427987155	1.9998852	1.414173
24.038585718232156	1.9660351	1.4021537
24.056505605095353	1.9637544	1.4013402
24.074426089074617	2.0105586	1.4179417
24.092347170667946	2.0609047	1.4355851
24.110268850373515	2.0991378	1.4488401
24.128191128689586	2.079091	1.4419054
24.146114006114626	2.0573921	1.4343612
24.164037483147187	2.0752852	1.440585
24.181961560286005	2.0616276	1.4358369
24.199886238029926	2.0418441	1.4289311
24.21781151687797	2.0321064	1.4255197
24.235737397329274	2.0253093	1.4231336
24.253663879883135	2.0217705	1.4218898
24.271590965038975	2.0427277	1.4292402
24.289518653296376	2.0381653	1.4276433
24.30744694515505	2.047594	1.4309417
24.32537584111486	2.0630045	1.4363163
24.34330534167581	2.0641894	1.4367287
24.361235447338046	2.0531862	1.4328943
24.379166158601876	2.0619178	1.435938
24.39709747596772	2.08026	1.4423107
24.41502939993615	2.065505	1.4371865
24.432961931007917	1.9839385	1.4085236
24.450895069683856	1.9429823	1.393909
24.468828816465	1.9541405	1.3979058
24.4867631718525	1.9841644	1.4086037
24.504698136347656	2.0031145	1.4153143
24.52263371045192	1.974026	1.4050003
24.540569894666874	1.9666257	1.4023644
24.558506689494266	1.9752077	1.4054208
24.57644409543597	1.9685373	1.4030458
24.594382112994012	1.9306439	1.3894762
24.61232074267057	1.9083962	1.3814472
24.630259984967953	1.9565105	1.3987532
24.64819984038863	1.9534863	1.3976717
24.66614030943522	1.9388391	1.392422
24.684081392610462	1.9548625	1.3981639
24.702023090417274	1.9663517	1.4022666
24.7199654033587	1.9981598	1.4135628
24.737908331937927	1.996312	1.412909
24.755851876658305	2.0173695	1.4203414
24.773796038023324	2.0318491	1.4254295
24.79174081653661	2.030947	1.425113
24.809686212701962	2.0362086	1.4269578
24.827632227023294	2.0974495	1.4482574
24.8455788600047	2.1079273	1.4518703
24.8635261121504	2.1217859	1.4566351
24.88147398396475	2.0877714	1.4449122
24.899422475952303	2.1034374	1.4503232
24.917371588617698	2.1183295	1.4554483
24.935321322465768	2.1664796	1.4718966
24.953271678001478	2.2314234	1.4937949
24.97122265572994	2.4237597	1.5568428
24.989174256156414	2.73896	1.6549804
25.00712647978632	3.268323	1.8078504
25.02507932712521	3.840265	1.9596595
25.043032798678798	4.399852	2.0975823
25.060986894952933	5.0011544	2.2363262
25.078941616453637	5.7571926	2.399415
25.096896963687055	6.746702	2.5974414
25.114852937159508	7.8981786	2.8103697
25.132809537377444	8.401753	2.898578
25.150766764847468	8.362728	2.891838
25.168724620076347	7.747378	2.7834113
25.186683103570985	6.6823034	2.585015
25.204642215838426	5.5592146	2.3577986
25.222601957385894	4.2567077	2.063179
25.24056232872074	3.2392197	1.7997832
25.25852333035048	2.6307404	1.6219558
25.276484962782778	2.254645	1.5015476
25.294447226525435	2.0952172	1.4474865
25.312410122086423	2.0511382	1.4321796
25.330373649973843	1.9803175	1.4072375
25.348337810695988	1.9357189	1.3913012
25.366302604761245	1.967638	1.4027252
25.384268032678207	1.9721538	1.404334
25.40223409495558	1.956805	1.3988584
25.420200792102257	1.9507967	1.3967092
25.438168124627246	1.9017172	1.3790276
25.45613609303974	1.8860986	1.373353
25.474104697849057	1.8747082	1.3691999
25.492073939564698	1.9347589	1.3909562
25.510043818696285	1.9157366	1.3841014
25.528014335753614	1.9104526	1.3821912
25.54598549124664	1.9066384	1.3808107
25.56395728568544	1.9205679	1.3858455
25.58192971958028	1.8797622	1.3710442
25.59990279344156	1.8517064	1.3607742
25.617876507779833	1.880977	1.3714871
25.635850863105826	1.857331	1.3628393
25.653825859930386	1.8270389	1.35168
25.671801498764548	1.8226532	1.3500568
25.68977778011949	1.8316038	1.3533676
25.707754704506524	1.8937114	1.3761219
25.725732272437153	1.8815892	1.3717103
25.743710484423012	1.8713963	1.3679899
25.761689340975888	1.8694385	1.3672742
25.77966884260774	1.8553507	1.3621126
25.797648989830662	1.8151704	1.3472826
25.815629783156922	1.832593	1.353733
25.83361122309895	1.783535	1.3354906
25.85159331016929	1.7308433	1.3156152
25.869576044880695	1.7589308	1.3262469
25.887559427746034	1.8326315	1.3537472
25.90554345927836	1.8457698	1.3585911
25.92352813999086	1.8470433	1.3590597
25.94151347039689	1.8904939	1.3749523
25.959499451009965	1.9019703	1.3791194
25.97748608234374	1.9048386	1.3801589
25.995473364912062	1.8897904	1.3746965
26.013461299228904	1.8600532	1.3638377
26.03144988580839	1.8453803	1.3584478
26.04943912516483	1.8429953	1.3575696
26.067429017812675	1.8637457	1.3651907
26.085419564266537	1.8347611	1.3545336
26.103410765041186	1.8742896	1.3690469
26.12140262065155	1.9106783	1.3822728
26.139395131612723	1.9200664	1.3856646
26.157388298439948	1.8726798	1.3684589
26.17538212164861	1.8331286	1.3539308
26.193376601754295	1.8599	1.3637815
26.211371739272714	1.8904915	1.3749515
26.229367534719746	1.8781171	1.3704442
26.247363988611433	1.843228	1.3576553
26.26536110146397	1.7932508	1.3391231
26.283358873793727	1.7833378	1.3354167
26.301357306117204	1.8117656	1.3460184
26.319356398951104	1.8121793	1.3461721
26.33735615281224	1.8183559	1.3484643
26.35535656821762	1.8309315	1.3531191
26.373357645684404	1.7950951	1.3398116
26.39135938572991	1.7908772	1.3382366
26.409361788871614	1.762996	1.3277786
26.427364855627165	1.7908623	1.3382311
26.445368586514352	1.8420982	1.3572392
26.46337298205115	1.8749269	1.3692797
26.48137804275568	1.8797207	1.371029
26.499383769146217	1.8604409	1.3639798
26.517390161741215	1.8327656	1.3537967
26.53539722105928	1.8173151	1.3480783
26.553404947619182	1.8128437	1.3464189
26.571413341939856	1.8108923	1.345694
26.589422404540397	1.8034519	1.3429266
26.60743213594006	1.8198138	1.3490047
26.62544253665827	1.8151543	1.3472767
26.64345360721459	1.8179027	1.3482962
26.66146534812879	1.7847065	1.335929
26.679477759920758	1.7587682	1.3261856
26.69749084311057	1.768492	1.3298466
26.71550459821847	1.7926204	1.3388878
26.733519025764842	1.8121613	1.3461654
26.751534126270258	1.8041668	1.3431928
26.769549900255434	1.760597	1.3268749
26.787566348241267	1.7652756	1.3286368
26.80558347074881	1.7430222	1.3202356
26.823601268299267	1.7472625	1.3218405
26.841619741414036	1.7335516	1.3166441
26.85963889061465	1.7536758	1.3242643
26.877658716422832	1.7823507	1.335047
26.89567921936045	1.8083107	1.3447344
26.913700399949544	1.8349189	1.3545917
26.93172225871233	1.862674	1.3647982
26.949744796171174	1.872062	1.3682332
26.967768012848605	1.8349333	1.3545971
26.98579190926733	1.7837703	1.3355787
27.003816485950225	1.813324	1.3465972
27.021841743420318	1.8330213	1.3538911
27.039867682200814	1.8206571	1.3493173
27.057894302815072	1.8189611	1.3486887
27.07592160578664	1.827034	1.3516783
27.0939495916392	1.7839975	1.3356637
27.111978260896635	1.7632362	1.327869
27.13000761408296	1.7844495	1.3358328
27.148037651722397	1.8342328	1.3543385
27.166068374339304	1.8417811	1.3571224
27.184099782458215	1.8276724	1.3519143
27.20213187660384	1.8061055	1.3439143
27.22016465730105	1.8064584	1.3440455
27.23819812507487	1.7900424	1.3379247
27.256232280450533	1.7822869	1.3350232
27.274267123953383	1.7978394	1.3408353
27.292302656108987	1.8132931	1.3465858
27.31033887744306	1.8144228	1.3470051
27.32837578848146	1.7833244	1.3354117
27.34641338975026	1.7537372	1.3242874
27.364451681775673	1.7413388	1.319598
27.382490665084074	1.7718868	1.3311224
27.400530340202046	1.7532678	1.3241102
27.41857070765629	1.7884761	1.3373392
27.436611767973726	1.7870855	1.3368192
27.454653521681404	1.7734739	1.3317184
27.472695969306564	1.740947	1.3194495
27.490739111376627	1.7572303	1.3256056
27.508782948419153	1.7821821	1.334984
27.526827480961902	1.7796534	1.3340365
27.54487270953279	1.8166876	1.3478456
27.562918634659898	1.8203686	1.3492104
27.580965256871508	1.8272228	1.3517481
27.599012576696026	1.8772306	1.3701206
27.617060594662068	1.8869317	1.3736563
27.63510931129842	1.8629786	1.3649098
27.65315872713401	1.8580279	1.3630949
27.67120884269797	1.9256909	1.3876927
27.68925965851958	1.9347987	1.3909705
27.707311175128307	1.9204977	1.3858203
27.725363393053787	1.8573593	1.3628497
27.74341631282583	1.8111418	1.3457867
27.7614699349744	1.827726	1.3519342
27.77952426002968	1.9867499	1.4095211
27.797579288521973	2.0903058	1.445789
27.815635020981784	2.4836557	1.5759618
27.83369145793979	2.559022	1.5996944
27.85174859992682	2.48971	1.5778816
27.869806447473923	2.3593485	1.5360171
27.887865001112267	2.097829	1.4483885
27.905924261373233	1.9730226	1.4046432
27.92398422878836	1.9562474	1.3986591
27.94204490388936	1.8798753	1.3710854
27.96010628720813	1.8675843	1.3665959
27.978168379276728	1.8961068	1.376992
27.9962311806274	1.8555757	1.3621951
28.014294691792568	1.8248904	1.350885
28.0323589133048	1.8494816	1.3599565
28.050423845696887	1.8702316	1.3675641
28.068489489501758	1.8325939	1.3537333
28.086555845252523	1.8330493	1.3539015
28.104622913482487	1.8436564	1.3578131
28.122690694725115	1.8879342	1.3740212
28.14075918951405	1.8835584	1.3724279
28.15882839838312	1.8952746	1.3766898
28.176898321866304	1.895163	1.3766493
28.1949689604978	1.9362055	1.391476
28.213040314811945	1.9533697	1.3976301
28.23111238534327	1.9424611	1.393722
28.249185172626493	1.9518214	1.397076
28.267258677196473	1.98741	1.4097552
28.285332899588294	2.0091329	1.4174389
28.303407840337172	1.924395	1.3872256
28.321483499978545	1.9062878	1.3806838
28.33955987904799	1.8779359	1.370378
28.357636978081285	1.9272964	1.388271
28.37571479761439	1.9706784	1.4038086
28.393793338183425	1.9924828	1.4115533
28.41187260032469	2.0111773	1.4181598
28.429952584574686	1.9919704	1.4113718
28.448033291470065	1.9321301	1.3900108
28.46611472154769	1.914524	1.3836633
28.484196875344566	1.9379203	1.3920921
28.502279753397914	1.9652631	1.4018785
28.52036335624511	1.9743962	1.405132
28.538447684423716	1.9243628	1.3872141
28.556532738471482	1.8940765	1.3762546
28.574618518926325	1.9688283	1.4031495
28.59270502632635	2.045949	1.4303668
28.61079226120985	2.0396612	1.4281671
28.628880224115274	2.0344007	1.4263242
28.646968915581287	2.0080624	1.4170612
28.66505833614671	1.9715168	1.4041071
28.68314848635055	1.9530364	1.3975108
28.701239366732004	2.021817	1.4219061
28.71933097783044	2.0774875	1.4413491
28.737423320185403	2.1423197	1.4636666
28.75551639433665	2.1151404	1.4543523
28.773610200824074	2.060556	1.4354637
28.791704740187793	2.048969	1.431422
28.80980001296809	2.0463672	1.4305129
28.827896019705413	2.094073	1.4470912
28.845992760940433	2.2276132	1.4925191
28.86409023721397	2.2881446	1.5126615
28.88218844906704	2.2806888	1.5101949
28.900287397040845	2.2473135	1.4991043
28.918387081676755	2.2649016	1.504959
28.936487503516343	2.3036263	1.5177702
28.954588663101365	2.3177316	1.5224098
28.97269056097374	2.337329	1.5288326
28.990793197675597	2.383404	1.5438278
29.00889657374923	2.3998246	1.5491368
29.027000689737125	2.3915372	1.5464596
29.04510554618196	2.4261096	1.5575974
29.06321114362659	2.4237368	1.5568355
29.08131748261405	2.379274	1.5424895
29.099424563687567	2.396244	1.5479807
29.11753238739057	2.488756	1.5775791
29.13564095426663	2.495993	1.5798712
29.15375026485954	2.4985425	1.5806779
29.171860319713275	2.5606093	1.6001904
29.18997111937199	2.6391613	1.6245496
29.20808266438002	2.707418	1.6454233
29.226194955281898	2.8057902	1.6750493
29.244307992622335	2.8303168	1.6823546
29.26242177694624	2.8419156	1.6857982
29.2805363087987	2.8665118	1.6930776
29.29865158872498	2.8908699	1.7002559
29.316767617270557	2.9380982	1.7140882
29.334884394981064	2.925737	1.7104785
29.353001922402367	2.96361	1.7215139
29.37112020008047	3.0538645	1.7475309
29.389239228561596	3.1759553	1.7821211
29.407359008392152	3.3245792	1.8233429
29.42547954011872	3.6376932	1.9072738
29.44360082428809	4.280723	2.068991
29.46172286144722	5.2905564	2.300121
29.479845652143283	6.852376	2.6177044
29.497969196923606	9.006387	3.0010643
29.516093496335728	11.738642	3.42617
29.5342185509274	14.617071	3.823228
29.55234436124651	16.996002	4.1226206
29.570470927841175	18.638792	4.317267
29.588598251259686	18.527948	4.3044105
29.60672633205055	17.158596	4.1422935
29.624855170762405	14.731917	3.838218
29.642984767944146	11.784847	3.4329066
29.66111512414481	8.877128	2.979451
29.67924623991366	6.7183566	2.5919793
29.697378115800138	5.2014	2.2806578
29.71551075235387	4.1955123	2.048295
29.733644150124675	3.6853302	1.9197214
29.751778309662576	3.5428345	1.8822418
29.769913231517766	3.4529092	1.8582006
29.78804891624066	3.4442713	1.8558748
29.806185364381818	3.3741179	1.8368772
29.82432257649206	3.3332057	1.825707
29.842460553122333	3.3159425	1.8209729
29.86059929482382	3.3018606	1.8171022
29.878738802147872	3.2794893	1.810936
29.896879075646048	3.2563367	1.8045323
29.915020115870114	3.2530427	1.8036194
29.933161923371976	3.27694	1.810232
29.951304498703777	3.351713	1.8307683
29.969447842417857	3.3601227	1.8330637
29.987591955066733	3.3391922	1.8273456
30.005736837203123	3.2903247	1.8139253
30.023882489379943	3.2239437	1.7955344
30.04202891215028	3.2714293	1.8087093
30.060176106067455	3.2987514	1.8162465
30.078324071684946	3.2673404	1.8075786
30.09647280955646	3.1588833	1.7773248
30.114622320235863	3.1115217	1.7639506
30.132772604277257	3.1062315	1.7624505
30.1509236622349	3.1170228	1.7655092
30.16907549466328	3.063887	1.7503963
30.18722810211705	3.114403	1.7647672
30.205381485151097	3.1163833	1.765328
30.22353564432045	3.0182428	1.7373091
30.241690580180403	2.9929185	1.7300054
30.25984629328638	2.9575872	1.7197638
30.278002784194037	2.9835382	1.7272922
30.296160053459246	2.9755123	1.7249674
30.314318101638033	2.97077	1.7235922
30.332476929286646	2.9319894	1.7123053
30.35063653696153	2.9062228	1.7047647
30.368796925219307	2.9414518	1.7150661
30.386958094616844	2.959854	1.7204226
30.40512004571115	2.928299	1.7112273
30.423282779059463	2.9566693	1.7194968
30.441446295219233	2.9166374	1.7078166
30.459610594748067	2.8673348	1.6933206
30.47777567820382	2.8391726	1.6849844
30.495941546144504	2.7838655	1.668492
30.51410819912835	2.7635813	1.6624023
30.532275637713795	2.7678802	1.6636947
30.55044386245946	2.8304381	1.6823906
30.56861287392416	2.8261638	1.6811198
30.586782672666956	2.7991087	1.6730537
30.604953259247047	2.8115618	1.6767713
30.623124634223885	2.8137236	1.6774157
30.641296798157075	2.8343966	1.6835667
30.659469751606462	2.806011	1.6751152
30.677643495132074	2.7598472	1.6612787
30.695818029294152	2.7582726	1.6608049
30.713993354653116	2.7647786	1.6627624
30.73216947176962	2.7404392	1.6554272
30.75034638120448	2.7020571	1.6437935
30.768524083518756	2.6933022	1.6411283
30.786702579273673	2.6480772	1.6272914
30.80488186903069	2.6554282	1.6295484
30.82306195335144	2.8366654	1.6842403
30.841242832797782	3.0991788	1.7604485
30.85942450793176	3.4328496	1.8527951
30.877606979315637	3.7874057	1.9461259
30.895790247511883	4.160388	2.039703
30.913974313083134	4.5691795	2.137564
30.932159176592283	4.8560367	2.2036417
30.95034483860237	4.897577	2.213047
30.968531299676698	4.6527996	2.1570349
30.98671856037873	4.290685	2.0713968
31.00490662127215	3.8827045	1.9704579
31.023095482920848	3.5017438	1.8712947
31.04128514588892	3.111845	1.7640423
31.059475610740662	2.7770946	1.6664617
31.07766687804056	2.5882068	1.6087905
31.09585894835335	2.5252688	1.5891094
31.11405182224393	2.5668318	1.6021335
31.132245500277417	2.510688	1.5845151
31.15043998301914	2.480754	1.5750409
31.168635271034628	2.4655437	1.570205
31.18683136488964	2.4468212	1.5642319
31.20502826515008	2.4471917	1.5643502
31.223225972382135	2.4407377	1.562286
31.241424487152155	2.442703	1.5629148
31.259623810026692	2.5137548	1.5854825
31.27782394157253	2.512803	1.5851823
31.296024882356644	2.452336	1.5659937
31.314226632946237	2.4540725	1.566548
31.332429193908684	2.5212295	1.587838
31.350632565811598	2.537761	1.5930351
31.368836749222787	2.5050042	1.5827205
31.387041744710295	2.488824	1.5776007
31.40524755284232	2.5652835	1.6016502
31.423454174187317	2.6210048	1.6189518
31.441661609313922	2.550802	1.597123
31.459869858791002	2.449954	1.5652329
31.478078923187628	2.3751895	1.541165
31.496288803073064	2.2576292	1.502541
31.514499499016807	2.1739645	1.474437
31.532711011588546	2.2286234	1.4928575
31.550923341358178	2.298016	1.5159209
31.56913648889584	2.2989852	1.5162405
31.587350454771844	2.2864544	1.5121026
31.605565239556732	2.2980301	1.5159255
31.62378084382127	2.3111057	1.5202321
31.641997268136382	2.3756387	1.5413107
31.660214513073274	2.4266222	1.5577619
31.67843257920331	2.4805496	1.5749761
31.6966514670981	2.474201	1.5729593
31.71487117732944	2.4221158	1.5563148
31.733091710469346	2.356604	1.5351235
31.751313067090052	2.2949257	1.5149012
31.769535247764008	2.2400002	1.4966631
31.787758253063878	2.2090998	1.486304
31.805982083562526	2.262826	1.5042692
31.824206739833024	2.3256018	1.5249923
31.84243222244869	2.3554502	1.5347476
31.860658531983013	2.3042667	1.5179812
31.878885669009737	2.2197797	1.4898925
31.897113634102784	2.1869016	1.4788176
31.91534242783632	2.185617	1.4783832
31.933572050784694	2.1939905	1.4812125
31.951802503522508	2.183442	1.4776475
31.970033786624548	2.206328	1.4853714
31.988265900665834	2.1907554	1.4801201
32.006498846221575	2.178697	1.4760411
32.02473262386724	2.150553	1.4664764
32.04296723417845	2.2335327	1.4945008
32.0612026777311	2.2826924	1.5108582
32.07943895510129	2.1636372	1.4709307
32.097676066865304	2.0608504	1.4355662
32.115914013599685	2.1652431	1.4714766
32.13415279588115	2.2528083	1.5009358
32.152392414286666	2.15504	1.4680054
32.1706328693934	2.0918953	1.4463387
32.18887416177875	2.0551329	1.4335735
32.20711629202032	2.0848982	1.4439176
32.225359260695924	2.0562766	1.4339724
32.243603068383614	2.0199902	1.4212636
32.26184771566166	2.0396442	1.4281611
32.28009320310852	2.1267235	1.458329
32.2983395313029	2.1855483	1.47836
32.31658670082372	2.1341953	1.4608885
32.33483471225012	2.0787296	1.44178
32.35308356616143	2.0182068	1.420636
32.371333263137245	1.9994485	1.4140186
32.38958380375734	2.0243156	1.4227844
32.407835188601744	2.0477984	1.4310131
32.42608741825067	2.0943313	1.4471805
32.444340493284585	2.0926628	1.4466039
32.46259441428416	2.0341606	1.42624
32.48084918183028	2.1054857	1.4510292
32.49910479650405	2.202744	1.4841644
32.51736125888683	2.1087244	1.4521447
32.53561856956014	1.9723561	1.404406
32.5538767291058	1.9327867	1.390247
32.572135738105764	1.9093742	1.3818011
32.59039559714228	1.9043138	1.3799688
32.608656306797776	1.9828383	1.4081329
32.62691786765491	2.065894	1.4373218
32.645180280296586	2.104647	1.4507401
32.663443545305896	2.0442133	1.4297599
32.68170766326619	1.9454948	1.39481
32.69997263476099	1.9215842	1.3862122
32.7182384603741	1.9779893	1.4064101
32.7365051406895	2.0183308	1.4206797
32.75477267629144	1.9508948	1.3967444
32.77304106776434	1.9189402	1.3852582
32.79131031569289	1.974415	1.4051387
32.809580420661966	2.056233	1.4339571
32.827851383256714	2.0619354	1.4359441
32.84612320406245	1.9974687	1.4133183
32.86439588366476	1.9615849	1.400566
32.88266942264945	1.9705125	1.4037495
32.9009438216025	1.9932917	1.4118398
32.9192190811102	2.0320306	1.4254931
32.937495201758985	2.0222042	1.4220423
32.95577218413556	2.049503	1.4316086
32.974050028826866	2.0911002	1.4460636
32.992328736420035	2.0711007	1.439132
33.010608307502444	1.9940071	1.4120932
33.02888874266169	1.9460404	1.3950055
33.047170042485604	2.0129528	1.4187857
33.06545220756225	2.0644855	1.4368318
33.083735238479896	1.9613044	1.4004658
33.10201913582707	1.8955342	1.376784
33.12030390019248	1.8970914	1.3773494
33.138589532165135	1.9376564	1.3919972
33.15687603233419	1.9901978	1.4107437
33.17516340128909	2.0195036	1.4210924
33.19345163961947	2.055634	1.4337482
33.211740747915215	2.0747194	1.4403887
33.23003072676643	2.0326803	1.4257209
33.248321576763466	2.015991	1.419856
33.266613298496885	1.955674	1.3984542
33.28490589255747	1.9130629	1.3831352
33.30319935953626	1.9438049	1.394204
33.32149370002451	1.9909556	1.4110123
33.339788914613706	1.9805923	1.4073352
33.358085003895575	1.9647536	1.4016967
33.376381968462034	2.0051904	1.4160475
33.39467980890529	2.040663	1.4285178
33.41297852581774	2.0025413	1.4151118
33.43127811979204	1.9866343	1.4094801
33.44957859142105	2.0958552	1.4477069
33.467879941297866	2.0578492	1.4345205
33.486182170015844	1.9352684	1.3911393
33.50448527816853	1.8751501	1.3693612
33.522789266349754	1.9053459	1.3803427
33.541094135153514	1.9673014	1.4026052
33.55939988517411	1.9714696	1.4040903
33.57770651700602	1.907013	1.3809464
33.59601403124398	1.8668802	1.3663383
33.61432242848296	1.9419644	1.3935438
33.632631709318154	1.8840232	1.3725972
33.650941874344994	1.8198597	1.3490218
33.66925292415916	1.8370069	1.3553623
33.68756485935654	1.9369838	1.3917557
33.70587768053328	1.9809004	1.4074446
33.724191388285746	2.0483582	1.4312086
33.74250598321054	2.0125778	1.4186535
33.760821465904506	1.9803121	1.4072356
33.77913783696474	1.9308996	1.3895681
33.79745509698852	1.9225098	1.386546
33.815773246573414	1.8649203	1.3656209
33.8340922863172	1.9413409	1.3933201
33.852412216817896	2.037298	1.4273394
33.87073303867377	1.9464332	1.3951463
33.889054752483304	1.9009624	1.3787539
33.907377358845245	1.9603503	1.4001251
33.92570085835853	1.8756717	1.3695517
33.94402525162239	1.8067268	1.3441454
33.96235053923627	1.7965217	1.3403438
33.980676721799824	1.8981985	1.3777512
33.999003799912984	1.9482447	1.3957953
34.01733177417592	1.8942482	1.3763169
34.03566064518901	1.8773503	1.3701644
34.0539904135529	1.8821788	1.3719252
34.07232107986846	1.9091551	1.3817219
34.090652644736785	1.9476297	1.395575
34.108985108759235	1.9615588	1.4005566
34.12731847253742	1.9271218	1.3882082
34.14565273667313	1.987996	1.4099631
34.16398790176847	2.0692837	1.4385005
34.18232396842574	2.0841732	1.4436666
34.20066093724749	1.9990104	1.4138637
34.21899880883651	2.005288	1.4160819
34.23733758379583	1.96763	1.4027224
34.25567726272874	1.8867488	1.3735898
34.27401784623872	1.8538378	1.3615571
34.29235933492957	1.9441413	1.3943247
34.31070172940526	1.9103104	1.3821398
34.32904503027003	1.7227888	1.3125505
34.347389238128386	1.7639128	1.3281238
34.36573435358502	1.9518272	1.397078
34.38408037724492	1.9671869	1.4025644
34.402427309713296	1.9647374	1.401691
34.42077515159559	2.1106873	1.4528204
34.43912390349752	2.1022646	1.4499189
34.45747356602499	1.9203573	1.3857696
34.47582413978423	1.9010688	1.3787925
34.49417562538163	2.0723417	1.439563
34.51252802342388	2.047098	1.4307683
34.53088133451789	1.9687146	1.403109
34.54923555927084	1.8921849	1.3755671
34.567590698290104	2.0596492	1.4351478
34.58594675218336	2.1701448	1.4731411
34.6043037215585	2.1603615	1.4698168
34.62266160702365	2.0454247	1.4301834
34.641020409187234	2.0254557	1.4231851
34.65938012865785	1.953368	1.3976294
34.677740766044394	1.8614494	1.3643495
34.69610232195598	1.8067062	1.3441377
34.714464797002016	1.7956054	1.3400021
34.73282819179208	1.812472	1.3462808
34.751192506936064	1.8390477	1.3561149
34.76955774304408	1.9031886	1.3795611
34.7879239007265	1.9192659	1.3853757
34.80629098059391	1.9068758	1.3808968
34.824658983257194	1.8954426	1.3767507
34.843027909327446	1.8661656	1.3660767
34.86139775941603	1.9106935	1.3822783
34.879768534134534	1.9114647	1.3825573
34.89814023409483	1.9199184	1.3856112
34.91651285990901	2.019842	1.4212115
34.93488641218944	1.996374	1.412931
34.95326089154871	2.0921721	1.4464343
34.97163629859967	2.1117826	1.4531974
34.99001263395542	1.9380217	1.3921285
35.00838989822934	1.8755449	1.3695054
35.02676809203499	1.9238259	1.3870205
35.04514721598624	1.7668157	1.3292162
35.063527270697215	1.8311942	1.3532162
35.081908256782256	1.9821154	1.4078763
35.10029017485597	2.0182767	1.4206606
35.11867302553321	1.9597002	1.3998929
35.137056809429104	1.8191955	1.3487755
35.155441527159006	1.7788153	1.3337224
35.173827179338524	1.9900935	1.4107068
35.19221376658354	2.0537639	1.4330959
35.21060128951017	1.8377671	1.3556427
35.2289897487348	1.8878211	1.37398
35.24737914487405	2.0465174	1.4305654
35.26576947854479	2.143522	1.4640772
35.28416075036418	1.8149287	1.3471929
35.30255296094958	1.5913035	1.2614688
35.32094611091867	1.6329403	1.2778655
35.33934020088932	1.8103342	1.3454866
35.35773523147969	2.0185518	1.4207575
35.3761312033082	2.2265837	1.4921741
35.394528116993506	2.0747135	1.4403865
35.41292597315452	2.0049012	1.4159453
35.431324772410434	2.142096	1.4635901
35.449724515380666	2.5053678	1.5828353
35.46812520268491	2.3773015	1.54185
35.486526834943106	2.1273725	1.4585515
35.504929412775454	2.3033922	1.517693
35.52333293680242	2.222233	1.4907156
35.54173740764471	2.026309	1.4234848
35.560142825923286	2.1948485	1.4815022
35.5785491922594	2.2803166	1.5100718
35.59695650727454	2.0549707	1.4335169
35.61536477159042	1.6662048	1.2908156
