0.008763373481513119	0.0	0.0
0.026290120649546365	0.11242709	0.3353015
0.043816868432600686	0.17608617	0.41962624
0.06134361724069026	0.23684101	0.48666313
0.07887036748382949	0.2101924	0.45846745
0.0963971195720331	0.09639584	0.3104768
0.11392387391531617	0.14141853	0.37605655
0.1314506309236943	0.17361325	0.41666922
0.1489773910071836	0.15294436	0.391081
0.16650415457580078	0.08144233	0.28538102
0.18403092203956356	0.06457399	0.25411412
0.20155769380849	0.11873506	0.34457955
0.2190844702925996	0.18764465	0.4331797
0.2366112519019124	0.24682197	0.4968118
0.2541380390464497	0.21005188	0.45831418
0.27166483213623416	0.21014133	0.45841175
0.28919163158128947	0.1419234	0.37672722
0.3067184377916406	0.1876262	0.4331584
0.324245251177314	0.23286441	0.48256028
0.34177207214833777	0.28281304	0.5318017
0.3592989011147415	0.256435	0.50639415
0.37682573848655654	0.20118847	0.4485404
0.39435258467381573	0.16457173	0.40567443
0.41187944008655414	0.14410311	0.37960917
0.42940630513480854	0.12151003	0.3485829
0.446933180228618	0.1440127	0.37949005
0.4644600657780234	0.14195281	0.37676626
0.48198696219306775	0.14585787	0.38191342
0.49951386988379676	0.13388687	0.36590555
0.5170407892602581	0.15200867	0.3898829
0.5345677207325025	0.16002035	0.40002543
0.5520946647105822	0.13981351	0.37391645
0.5696216216045534	0.16927767	0.41143367
0.5871485918244737	0.21576092	0.46450073
0.6046755757804043	0.227943	0.47743377
0.6222025738824094	0.21999212	0.46903318
0.6397295865405557	0.21231422	0.46077567
0.6572566141649129	0.1958932	0.44259822
0.6747836571655547	0.17027262	0.41264102
0.6923107159525568	0.13426477	0.36642158
0.7098377909359992	0.120603204	0.34727973
0.7273648825259653	0.12951095	0.3598763
0.7448919911325411	0.15893713	0.39866918
0.762419117165817	0.16919248	0.41133013
0.7799462610358868	0.17620733	0.41977057
0.7974734231528482	0.18728775	0.43276754
0.8150006039268024	0.17496365	0.41828656
0.8325278037678551	0.18509531	0.43022704
0.8500550230861152	0.17769569	0.42153966
0.8675822622916969	0.1796367	0.4238357
0.8851095217947171	0.18928328	0.435067
0.9026368020052984	0.22332752	0.4725754
0.9201641033335665	0.22047105	0.46954346
0.9376914261896523	0.2000228	0.4472391
0.9552187709836915	0.16844794	0.4104241
0.9727461381258234	0.19304615	0.4393702
0.990273528026193	0.22741759	0.4768832
1.0078009410949496	0.24440452	0.49437287
1.0253283777422473	0.23648672	0.486299
1.0428558383782454	0.23142731	0.48106894
1.0603833234131086	0.24449302	0.49446237
1.0779108332570058	0.30575696	0.55295295
1.0954383683201119	0.32661274	0.5715004
1.112965929012607	0.3496677	0.5913271
1.1304935157446763	0.5087535	0.7132696
1.1480211289265108	0.5610872	0.74905753
1.1655487689683062	1.3510395	1.1623423
1.1830764362802655	1.5841179	1.2586174
1.200604131272596	1.949847	1.3963692
1.2181318543555117	2.2854156	1.5117592
1.235659605939232	2.3464081	1.531799
1.253187386433982	3.975475	1.9938593
1.270715196249994	6.4065332	2.5311131
1.2882430357975057	11.832207	3.4397974
1.3057709054867608	16.38996	4.0484514
1.3232988057280106	21.854805	4.6749125
1.3408267369315112	26.361	5.1342964
1.358354699507526	29.877285	5.466012
1.3758826938663256	34.05648	5.835793
1.3934107204181858	36.197464	6.016433
1.410938779573391	36.7053	6.05849
1.4284668717422309	37.64642	6.135668
1.4459949973350033	37.49928	6.1236653
1.4635231567620117	37.319836	6.1089964
1.4810513504335687	36.45325	6.037653
1.4985795787599925	35.47847	5.9563804
1.5161078421516088	35.139507	5.9278584
1.5336361410187505	34.35639	5.8614326
1.5511644757717598	34.082188	5.837995
1.5686928468209842	34.899986	5.907621
1.58622125457678	35.36259	5.9466453
1.6037496994495108	36.62207	6.051617
1.621278181849548	36.284336	6.0236483
1.6388067021872719	36.99292	6.0821805
1.6563352608730693	36.526043	6.043678
1.673863858317336	35.76939	5.9807515
1.6913924949304753	34.742573	5.8942833
1.7089211711228998	33.360676	5.7758703
1.7264498873050296	33.026386	5.7468586
1.7439786438872935	32.595314	5.7092304
1.7615074412801288	31.791782	5.63842
1.779036279893981	30.69622	5.540417
1.796565160139305	29.637499	5.444033
1.814094082426564	29.040472	5.3889213
1.8316230471662298	28.72147	5.3592415
1.849152054768784	28.075407	5.298623
1.8666811056447168	27.487604	5.242862
1.8842102002045273	26.459661	5.1438956
1.901739338858724	25.782763	5.077673
1.9192685220178245	25.117144	5.0117006
1.9367977500923557	24.655632	4.9654436
1.9543270234928547	24.07807	4.906941
1.971856342629867	23.446363	4.8421445
1.9893857079139496	22.751621	4.769866
2.006915119755667	22.379332	4.73068
2.0244445785655945	21.827875	4.672031
2.0419740847543175	21.451845	4.6316137
2.0595036387324317	21.020973	4.5848637
2.0770332409105414	20.449059	4.5220637
2.094562891699263	20.07844	4.4808974
2.1120925915092217	19.686888	4.4369907
2.129622340751053	19.3048	4.393723
2.1471521398354043	187.51398	13.693574
2.1646819891729323	443.79376	21.066414
2.182211889174303	440.02243	20.976711
2.1997418402501974	452.4273	21.270338
2.2172718428113023	432.40613	20.794376
2.234801897268317	320.4227	17.900354
2.2523320040319548	16.884668	4.1090956
2.269862163512935	16.652111	4.0807
2.287392376121992	16.204437	4.0254736
2.304922642269869	15.995302	3.9994128
2.322452962367322	15.7244425	3.9654057
2.3399833368251164	15.438812	3.9292254
2.357513766054032	15.001581	3.8731875
2.3750442504648586	14.841594	3.852479
2.3925747904683963	14.508576	3.8090124
2.410105386475459	14.379351	3.7920115
2.4276360388968707	13.989566	3.7402627
2.445166748143469	13.729136	3.7052848
2.4626975146261025	13.547006	3.6806257
2.4802283387556323	13.358399	3.6549144
2.4977592209429305	13.129184	3.6234217
2.5152901615988825	12.758535	3.5719092
2.5328211611343865	12.498135	3.53527
2.5503522199603523	12.297392	3.5067637
2.5678833384877024	12.206048	3.4937155
2.5854145171273712	12.012628	3.4659238
2.6029457562903064	11.807445	3.4361963
2.620477056387469	11.794382	3.434295
2.6380084178298326	11.606673	3.4068568
2.655539841028383	11.431926	3.381113
2.673071326394119	11.211411	3.3483446
2.6906028743380523	10.876214	3.2979105
2.708134485271211	10.752099	3.2790394
2.7256661596046325	10.563918	3.2502182
2.743197897749369	10.53855	3.2463133
2.760729700116486	10.475391	3.2365708
2.778261567117063	10.206096	3.194698
2.795793499162193	10.0064945	3.1633043
2.8133254966629817	9.781887	3.127601
2.830857560030551	9.666041	3.1090257
2.8483896896760337	9.495941	3.0815485
2.865921886010578	9.414191	3.0682554
2.883454149445347	9.253843	3.042013
2.9009864803915177	9.179681	3.0297987
2.91851887926028	9.120972	3.0200946
2.9360513464628384	9.109686	3.0182257
2.953583882410413	8.924732	2.9874291
2.9711164875142373	8.788444	2.964531
2.9886491621855606	8.643559	2.9399931
3.0061819068356455	8.413879	2.9006689
3.023714721875769	8.318825	2.8842373
3.041247607717225	8.220736	2.8671825
3.0587805647713213	8.09896	2.8458672
3.0763135934493806	8.011772	2.8305075
3.0938466941627407	7.9364696	2.817174
3.1113798673227544	7.909733	2.8124247
3.1289131133407904	7.921884	2.8145843
3.1464464326282315	7.810384	2.7947063
3.1639798255964786	7.630718	2.7623754
3.1815132926569443	7.55371	2.7484014
3.1990468342210603	7.3645196	2.713765
3.216580450700272	7.3178144	2.7051458
3.2341141425060416	7.2092175	2.6849985
3.251647910049847	7.0928597	2.6632423
3.2691817537431813	6.9848685	2.6428902
3.286715673997555	6.846498	2.6165814
3.3042496712244938	6.845325	2.616357
3.32178374583554	6.887846	2.6244707
3.339317898242251	6.960752	2.6383238
3.3568521288562034	6.8086267	2.6093345
3.3743864380889876	6.6478815	2.5783486
3.3919208263522127	6.443446	2.5383945
3.4094552940575023	6.4196687	2.5337064
3.4269898416164972	6.412099	2.5322123
3.444524469440858	6.356567	2.5212233
3.4620591779422587	6.3509026	2.5200996
3.479593967532391	6.3386946	2.5176764
3.4971288386229658	6.3172574	2.5134156
3.5146637916257086	6.3049655	2.510969
3.5321988269523628	6.311402	2.5122504
3.5497339450146903	6.292292	2.508444
3.5672691462244708	6.296014	2.5091858
3.5848044309934988	6.203191	2.4906206
3.60233979973359	6.1690307	2.4837534
3.619875252856575	6.1548457	2.4808962
3.6374107907743034	6.214875	2.4929652
3.6549464138986427	6.1182833	2.4735165
3.6724821226414788	6.166714	2.4832869
3.690017917414714	6.0786605	2.465494
3.7075537986302702	6.1489863	2.4797149
3.7250897667000857	6.242375	2.4984746
3.7426258220361235	6.4518304	2.5400453
3.7601619650503553	6.727877	2.593815
3.777698196154779	7.18602	2.6806753
3.7952345157614067	8.127611	2.8508966
3.8127709242822716	8.916186	2.9859984
3.830307422129425	10.965207	3.3113754
3.847844009714936	12.36868	3.5169134
3.8653806874508954	15.786242	3.9731903
3.882917455749409	15.552244	3.9436333
3.900454315022606	15.66413	3.9577937
3.917991265682631	12.656816	3.5576417
3.9355283081416506	10.783885	3.2838826
3.9530654428118495	8.643887	2.9400487
3.970602670105433	7.3827834	2.7171278
3.9881399904346244	6.479741	2.5455337
4.005677404211669	6.3088098	2.5117345
4.023214911848827	6.3439264	2.5187151
4.0407525137583855	6.3184505	2.5136528
4.058290210352644	6.3265195	2.5152574
4.075828002043927	6.2278595	2.495568
4.0933658892445814	6.1473384	2.4793828
4.110903872366966	6.1298575	2.4758549
4.128441951823468	6.1180024	2.4734597
4.145980128026488	6.0902348	2.4678402
4.163518401388452	6.0671716	2.463163
4.181056772321807	6.0129185	2.4521253
4.1985952412390155	5.9451184	2.4382613
4.216133808552567	5.889535	2.4268365
4.233672474674966	5.9544077	2.4401655
4.251211240018741	6.1053863	2.470908
4.268750104996445	6.355142	2.5209408
4.286289070020643	7.324647	2.7064085
4.303828135503928	9.024736	3.0041199
4.3213673018589125	29.3043	5.413345
4.3389065694982305	90.48064	9.512131
4.356445938834537	165.64659	12.870377
4.3739854102805085	171.32953	13.089291
4.391524984248844	172.2709	13.125201
4.409064661152262	136.46701	11.68191
4.426604441403504	96.74584	9.835946
4.444144325415337	75.770294	8.704614
4.461684313600543	21.714865	4.659921
4.47922440637193	21.96032	4.686184
4.496764604142329	20.169699	4.491069
4.5143049073245916	18.308659	4.278862
4.531845316331589	16.175505	4.0218782
4.5493858315762195	13.448845	3.6672666
4.566926453471405	11.243554	3.3531408
4.584467182430081	9.376416	3.0620935
4.602008018865218	8.140624	2.8531778
4.619548963189798	7.4235406	2.7246175
4.637090015816834	6.848569	2.616977
4.654631177159353	6.668289	2.582303
4.672172447630417	6.4539394	2.5404606
4.689713827643102	6.4723306	2.5440776
4.7072553176105085	6.2309093	2.4961789
4.724796917945764	6.012925	2.4521267
4.742338629062015	5.8165846	2.4117596
4.759880451372434	5.7093773	2.3894303
4.777422385290215	5.631047	2.3729827
4.794964431228581	5.580228	2.3622506
4.812506589600768	5.5447817	2.354736
4.830048860820047	5.5067844	2.346654
4.847591245299709	5.5127106	2.3479161
4.8651337434530655	5.4696	2.3387177
4.882676355693457	5.3611794	2.315422
4.900219082434242	5.2899065	2.2999797
4.917761924088813	5.334907	2.3097417
4.935304881070575	5.391375	2.3219335
4.952847953792969	5.4408264	2.332558
4.970391142669449	5.405016	2.324869
4.9879344481135055	5.378798	2.3192236
5.005477870538642	5.260992	2.2936852
5.023021410358394	5.1882243	2.2777674
5.040565067986324	5.1134067	2.2612844
5.05810884383601	5.0905266	2.2562196
5.075652738321066	5.145816	2.268439
5.09319675185512	5.238638	2.2888072
5.110740884851836	5.3160768	2.305662
5.128285137724894	5.340049	2.3108547
5.145829510888007	5.259284	2.2933128
5.163374004754908	5.2199445	2.2847197
5.1809186197393595	5.1875696	2.2776237
5.198463356255145	5.2044277	2.2813215
5.216008214716077	5.2363954	2.2883172
5.233553195535998	5.19352	2.2789295
5.251098299128764	5.1224046	2.263273
5.268643525908272	5.032619	2.24335
5.286188876288432	4.968968	2.229118
5.3037343506831895	5.014189	2.2392385
5.32127994950651	5.1006117	2.2584534
5.3388256731723915	5.11295	2.2611833
5.356371522094851	5.111734	2.2609143
5.373917496687938	5.109327	2.260382
5.391463597365729	5.104646	2.2593465
5.40900982454232	5.046665	2.2464783
5.426556178631843	5.035833	2.2440662
5.444102660048449	5.0086737	2.2380066
5.4616492692063225	5.032856	2.2434027
5.479196006519669	5.0385933	2.2446811
5.496742872402727	4.982388	2.2321262
5.514289867269756	5.0026946	2.2366705
5.531836991535049	5.022278	2.2410438
5.549384245612924	5.1472626	2.2687578
5.566931629917724	5.155164	2.2704985
5.584479144863822	5.072227	2.2521605
5.6020267908656205	5.0184765	2.2401958
5.619574568337545	4.943235	2.2233386
5.637122477694054	4.9803696	2.2316742
5.654670519349629	5.020877	2.2407312
5.672218693718784	5.0260386	2.2418828
5.689767001216059	5.027277	2.242159
5.707315442256021	5.0518174	2.2476249
5.724864017253266	5.077135	2.25325
5.7424127266224225	5.12846	2.2646103
5.75996157077814	5.106206	2.2596915
5.777510550135105	5.043989	2.2458827
5.795059665108022	5.024902	2.2416294
5.812608916111639	5.0349083	2.2438602
5.830158303560715	5.218351	2.284371
5.847707827870055	5.2625856	2.2940326
5.86525748945448	5.348025	2.3125796
5.8828072887288485	5.398243	2.323412
5.900357226108044	5.456446	2.3359036
5.917907302006979	5.46396	2.3375115
5.9354575168406	5.9725313	2.4438763
5.9530078710238765	6.4945626	2.548443
5.970558364971812	7.0428824	2.653843
5.988108999099438	7.3896527	2.7183917
6.005659773821818	7.865568	2.804562
6.023210689554039	7.6454053	2.7650325
6.040761746711227	8.031453	2.8339818
6.058312945708531	7.500313	2.7386699
6.075864286961132	7.095507	2.6637392
6.093415770884244	6.493603	2.548255
6.1109673978931065	5.968447	2.4430406
6.128519168402993	5.46229	2.3371542
6.146071082829204	5.3587537	2.3148983
6.163623141587075	5.3203998	2.3065991
6.181175345091969	5.2147274	2.2835777
6.198727693759281	5.12884	2.2646942
6.216280188004435	5.076781	2.2531712
6.233832828242885	5.1248755	2.2638187
6.251385614890126	5.1504107	2.2694516
6.268938548361669	5.1322193	2.2654402
6.286491629073067	5.0046697	2.2371118
6.304044857439898	4.939692	2.2225418
6.321598233877777	4.943926	2.223494
6.339151758802344	4.976818	2.2308784
6.356705432629277	4.9335437	2.2211583
6.37425925577428	4.9274354	2.2197828
6.391813228653095	4.8733363	2.2075634
6.409367351681486	4.9178977	2.2176332
6.426921625275259	4.930904	2.220564
6.44447604985025	4.915034	2.2169876
6.46203062582232	4.902359	2.214127
6.47958535360737	4.9187546	2.2178266
6.497140233621328	4.9635587	2.2279046
6.514695266280161	4.884718	2.2101398
6.532250451999859	4.8021264	2.1913755
6.549805791196454	4.82043	2.1955478
6.567361284286002	4.877445	2.208494
6.584916931684597	4.9427366	2.2232265
6.602472733808367	4.9436216	2.2234256
6.6200286910734665	4.930901	2.2205632
6.637584803896092	4.851858	2.2026935
6.655141072692462	4.843306	2.2007513
6.672697497878842	4.815704	2.1944711
6.690254079871514	4.841295	2.2002943
6.707810819086808	4.840458	2.200104
6.725367715941078	4.818587	2.195128
6.742924770850719	4.9034376	2.2143707
6.760481984232151	4.8972154	2.2129653
6.778039356501836	4.908573	2.21553
6.795596888076266	4.8868	2.2106106
6.813154579371963	4.8615556	2.2048936
6.830712430805492	4.922751	2.2187274
6.84827044279344	4.974279	2.2303092
6.865828615752445	4.94817	2.2244482
6.883386950099159	4.93366	2.2211845
6.900945446250287	4.9119234	2.216286
6.918504104622553	4.94241	2.223153
6.936062925632727	5.016107	2.2396667
6.953621909697607	4.98668	2.2330875
6.971181057234028	5.0639324	2.2503183
6.988740368658859	5.043223	2.245712
7.006299844389007	5.129318	2.2647998
7.023859484841407	5.233363	2.2876544
7.041419290433036	5.348118	2.3126
7.058979261580902	5.4743643	2.339736
7.0765393987020495	5.5837464	2.3629951
7.094099702213559	5.9164963	2.432385
7.111660172532549	6.2044683	2.490877
7.129220810076164	6.575462	2.5642664
7.146781615261595	7.300473	2.7019389
7.16434258850606	7.5404873	2.7459948
7.181903730226821	8.04607	2.8365595
7.1994650408411704	8.094537	2.84509
7.217026520766437	8.269912	2.8757455
7.234588170419983	8.487009	2.913247
7.252149990219215	8.383263	2.8953865
7.269711980581568	8.233209	2.8693569
7.2872741419245175	7.9775753	2.8244603
7.304836474665574	7.6173553	2.7599556
7.322398979222286	7.3131924	2.7042916
7.339961656012233	7.0513563	2.655439
7.357524505453039	6.6379232	2.5764167
7.375087527962357	6.33312	2.5165691
7.392650723957886	6.081974	2.4661658
7.410214093857353	5.8637705	2.4215224
7.427777638078528	5.643369	2.3755777
7.445341357039213	5.468009	2.3383775
7.4629052511572525	5.282853	2.2984457
7.480469320850524	5.2082124	2.2821507
7.498033566536948	5.1750016	2.274863
7.5155979886344735	5.1198072	2.2626991
7.5331625875610975	5.0825257	2.2544458
7.550727363734844	5.107477	2.2599728
7.568292317573788	5.0443306	2.2459588
7.585857449496025	5.10071	2.258475
7.603422759919705	5.057813	2.2489583
7.620988249263007	5.06095	2.2496555
7.638553917944147	5.048945	2.2469857
7.656119766381391	5.023643	2.2413485
7.673685794993023	5.0599456	2.2494323
7.691252004197388	5.060283	2.2495074
7.70881839441285	5.0997214	2.2582562
7.726384966057826	5.187776	2.277669
7.743951719550762	5.168274	2.2733839
7.761518655310149	5.1529026	2.2700005
7.779085773754511	5.0987477	2.2580407
7.796653075302419	5.119146	2.262553
7.814220560372475	5.240746	2.2892675
7.831788229383323	5.2195115	2.284625
7.8493560827536495	5.216855	2.2840436
7.866924120902174	5.182627	2.2765384
7.884492344247663	5.1474104	2.2687905
7.9020607532089135	5.172671	2.2743506
7.919629348204771	5.227625	2.2864
7.937198129654115	5.287736	2.2995079
7.954767097975865	5.326107	2.307836
7.972336253588986	5.3225183	2.3070583
7.989905596912472	5.330905	2.3088753
8.007475128365371	5.3490524	2.3128018
8.025044848366756	5.39056	2.321758
8.042614757335754	5.525664	2.350673
8.060184855691523	5.618694	2.3703785
8.07775514385327	5.7825704	2.4046977
8.095325622240228	5.834491	2.4154692
8.112896291271687	5.869961	2.4228003
8.130467151366968	5.9078255	2.4306018
8.148038202945436	5.9653068	2.4423978
8.165609446426497	5.9904485	2.4475393
8.183180882229594	6.0258117	2.454753
8.200752510774217	6.055718	2.460837
8.218324332479893	6.101387	2.4700985
8.235896347766193	6.012801	2.4521015
8.253468557052724	5.969091	2.4431722
8.27104096075914	5.8820453	2.4252927
8.288613559305137	5.86022	2.420789
8.306186353110448	5.944027	2.4380376
8.32375934259485	6.002467	2.4499934
8.341332528178162	6.0374603	2.4571245
8.358905910280246	6.1055527	2.4709415
8.376479489321003	6.0824914	2.4662707
8.394053265720377	6.1658926	2.4831216
8.411627239898356	6.25578	2.5011559
8.42920141227497	6.2128253	2.492554
8.44677578327029	6.128322	2.475545
8.464350353304427	6.0704865	2.4638357
8.48192512279754	6.1246333	2.4747996
8.499500092169827	6.100749	2.4699695
8.51707526184153	6.0499215	2.4596589
8.534650632232934	6.0180006	2.4531612
8.552226203764365	5.9994664	2.4493809
8.569801976856192	6.014418	2.452431
8.587377951928834	6.033708	2.4563608
8.60495412940274	6.11416	2.4726827
8.622530509698416	6.1812067	2.4862032
8.6401070932364	6.315801	2.5131257
8.657683880437283	6.3797593	2.5258186
8.675260871721695	6.5463176	2.5585773
8.692838067510303	6.7938256	2.6064968
8.710415468223834	6.9869843	2.6432905
8.727993074283043	7.1012845	2.6648235
8.745570886108737	7.055089	2.6561418
8.763148904121765	7.0165024	2.648868
8.78072712874302	6.9645057	2.639035
8.798305560393441	7.142847	2.6726105
8.815884199494006	7.3163805	2.704881
8.833463046465745	7.5242133	2.7430298
8.851042101729728	7.7029314	2.7754154
8.86862136570707	8.0216055	2.832244
8.886200838818924	8.254978	2.8731477
8.903780521486505	8.349832	2.8896074
8.921360414131055	8.371074	2.8932807
8.938940517173874	8.408193	2.8996885
8.956520831036297	8.525921	2.919918
8.97410135613971	8.763583	2.960335
8.99168209290554	9.008585	3.0014305
9.009263041755265	9.325033	3.0536916
9.026844203110405	9.62229	3.1019816
9.044425577392525	9.864408	3.1407654
9.062007165023239	9.843105	3.1373723
9.079588966424197	10.041323	3.1688046
9.097170982017108	10.063329	3.172275
9.11475321222372	11.024123	3.3202596
9.132335657465825	11.952457	3.4572327
9.149918318165264	11.98923	3.4625468
9.167501194743924	12.451994	3.5287383
9.18508428762374	12.158641	3.4869242
9.202667597226693	12.240155	3.4985933
9.220251123974803	11.973266	3.4602406
9.237834868290143	11.702884	3.4209478
9.255418830594836	11.523202	3.3945842
9.273003011311046	10.945068	3.3083332
9.290587410860985	10.628745	3.2601757
9.308172029666911	9.993121	3.1611898
9.32575686815113	9.735419	3.1201634
9.343341926735997	8.6381855	2.939079
9.360927205843916	8.411846	2.9003184
9.378512705897327	8.14202	2.8534226
9.396098427318728	7.919582	2.8141751
9.413684370530664	7.7869897	2.7905178
9.431270535955722	7.737684	2.7816691
9.448856924016539	7.7413363	2.7823257
9.466443535135806	7.6491237	2.7657049
9.484030369736251	7.6796126	2.7712114
9.501617428240658	7.632086	2.762623
9.519204711071852	7.6188636	2.7602289
9.536792218652714	7.579138	2.7530234
9.55437995140617	7.611936	2.7589738
9.571967909755191	7.657663	2.7672482
9.589556094122802	7.738909	2.7818894
9.60714450493207	7.830667	2.798333
9.624733142606116	7.9031305	2.8112507
9.642322007568108	7.9150815	2.8133755
9.659911100241267	7.8694973	2.8052623
9.677500421048851	7.850593	2.801891
9.695089970414175	7.808259	2.7943263
9.712679748760609	7.8523993	2.8022132
9.730269756511557	7.860404	2.8036413
9.747859994090492	7.951093	2.8197682
9.765450461920915	8.078921	2.8423443
9.78304116042639	8.187525	2.861385
9.800632090030527	8.178191	2.8597536
9.81822325115699	8.14666	2.8542354
9.835814644229481	8.0826	2.8429914
9.853406269671762	8.063624	2.839652
9.870998127907646	8.130942	2.8514807
9.888590219360985	8.165181	2.8574781
9.906182544455698	8.19079	2.8619556
9.923775103615734	8.139129	2.8529158
9.941367897265108	8.199961	2.8635573
9.958960925827878	8.220642	2.8671663
9.97655418972816	8.202129	2.863936
9.994147689390106	8.11643	2.848935
10.011741425237934	8.044052	2.8362038
10.029335397695904	8.019361	2.8318477
10.04692960718833	8.025295	2.8328953
10.06452405413958	8.037572	2.835061
10.082118738974064	8.060481	2.8390987
10.099713662116246	8.091477	2.8445523
10.117308823990651	8.149512	2.8547351
10.134904225021844	8.22189	2.867384
10.152499865634445	8.208595	2.8650646
10.170095746253125	8.142637	2.8535306
10.18769186730261	8.017808	2.8315735
10.205288229207675	7.930334	2.8160849
10.222884832393145	7.913679	2.8131263
10.2404816772839	7.941237	2.81802
10.258078764304868	7.9201255	2.8142717
10.275676093881035	7.903868	2.8113818
10.293273666437438	7.951374	2.819818
10.310871482399158	7.996593	2.8278248
10.32846954219134	8.017531	2.8315246
10.346067846239173	8.034972	2.8346026
10.363666394967908	7.9556932	2.8205838
10.38126518880283	7.9327207	2.8165085
10.398864228169298	7.9259806	2.815312
10.416463513492713	7.993368	2.8272545
10.434063045198531	8.048779	2.8370368
10.451662823712262	8.071518	2.8410418
10.469262849459467	8.038977	2.835309
10.486863122865758	7.9434137	2.8184063
10.504463644356806	7.9610267	2.8215292
10.522064414358338	8.005795	2.8294513
10.539665433296118	7.9395742	2.817725
10.557266701595987	7.8514786	2.802049
10.574868219683818	7.6966705	2.7742875
10.592469987985552	7.555883	2.7487967
10.610072006927185	7.4479403	2.7290914
10.627674276934751	7.370448	2.7148569
10.64527679843435	7.297336	2.701358
10.662879571852143	7.163025	2.6763828
10.680482597614331	7.06844	2.6586537
10.698085876147173	6.9511013	2.6364942
10.715689407876988	6.8285584	2.613151
10.733293193230146	6.6658406	2.5818288
10.750897232633072	6.614046	2.5717788
10.76850152651225	6.576485	2.5644658
10.786106075294207	6.507181	2.5509176
10.803710879405534	6.401196	2.5300584
10.821315939272877	6.346793	2.5192842
10.83892125532294	6.2024126	2.4904644
10.856526827982472	6.094677	2.46874
10.874132657678285	6.059807	2.4616675
10.891738744837243	6.0753984	2.4648323
10.909345089886271	6.0763555	2.4650264
10.926951693252343	6.0418577	2.458019
10.944558555362494	5.957713	2.4408426
10.96216567664381	5.884662	2.4258323
10.979773057523436	5.787406	2.4057028
10.997380698428573	5.6932974	2.386063
11.014988599786477	5.6404333	2.3749597
11.032596762024461	5.6119475	2.368955
11.050205185569892	5.591379	2.3646097
11.067813870850198	5.5661182	2.3592622
11.085422818292859	5.465168	2.33777
11.10303202832541	5.3768454	2.3188026
11.120641501375454	5.3598146	2.3151274
11.138251237870636	5.28159	2.298171
11.155861238238671	5.2533326	2.292015
11.173471502907317	5.166456	2.272984
11.191082032304402	5.150026	2.2693667
11.208692826857805	5.0879536	2.2556493
11.226303886995465	4.9622517	2.2276113
11.243915213145371	4.863932	2.2054324
11.261526805735578	4.830657	2.1978755
11.279138665194196	4.8444304	2.2010067
11.296750791949393	4.8068156	2.192445
11.314363186429393	4.7472596	2.1788206
11.331975849062479	4.6946616	2.1667168
11.34958878027699	4.6307783	2.1519244
11.36720198050133	4.5649247	2.1365685
11.384815450163948	4.496954	2.1206024
11.402429189693366	4.483217	2.1173608
11.420043199518153	4.4317074	2.1051621
11.437657480066942	63.405613	7.9627643
11.455272031768422	85.1378	9.227015
11.472886855051353	107.52419	10.369388
11.490501950344528	99.10854	9.955327
11.508117318076819	84.4389	9.189064
11.52573295867715	45.827255	6.769583
11.543348872574514	4.139975	2.0346928
11.560965060197946	4.074677	2.0185828
11.57858152197655	4.008406	2.0021005
11.59619825833949	3.9682627	1.9920498
11.613815269715985	3.9629855	1.9907249
11.631432556535323	38.443253	6.200262
11.649050119226837	82.94663	9.107504
11.666667958219929	93.34729	9.66164
11.68428607394406	107.61522	10.3737755
11.701904466828756	82.48252	9.081989
11.719523137303586	65.39581	8.086768
11.737142085798196	4.6165237	2.1486096
11.754761312742286	3.6671922	1.9149915
11.772380818565619	3.5867922	1.8938829
11.790000603698015	3.556232	1.8857974
11.80762066856935	3.551132	1.8844447
11.825241013609572	3.5005603	1.8709785
11.842861639248683	3.4438999	1.8557748
11.860482545916748	3.4070678	1.8458244
11.878103734043883	3.3900461	1.8412077
11.895725204060282	3.3545938	1.831555
11.91334695639619	3.3133028	1.820248
11.930968991481919	3.3526049	1.831012
11.948591309747824	3.3914745	1.8415956
11.966213911624347	3.3448443	1.8288915
11.98383679754198	3.2424376	1.800677
12.001459967931268	3.1912	1.786393
12.019083423222835	3.1871111	1.7852482
12.036707163847352	3.207768	1.7910243
12.05433119023556	3.1868548	1.7851764
12.071955502818259	3.165808	1.7792717
12.089580102026313	3.0776832	1.7543327
12.107204988290643	3.0537949	1.747511
12.12483016204224	3.056471	1.7482766
12.142455623712152	3.0605907	1.7494544
12.16008137373149	3.0631313	1.7501804
12.177707412531431	3.0508304	1.7466626
12.19533374054321	2.9869347	1.7282751
12.212960358198126	2.9588807	1.7201397
12.230587265927545	2.953061	1.7184473
12.248214464162889	2.9757285	1.72503
12.265841953335649	2.9709141	1.723634
12.283469733877375	2.977913	1.7256631
12.301097806219685	2.948386	1.7170864
12.31872617079425	2.9478848	1.7169405
12.336354828032825	2.923133	1.7097172
12.353983778367205	2.9454145	1.716221
12.371613022229262	2.9260306	1.7105644
12.389242560050928	2.8952174	1.7015338
12.406872392264201	2.882665	1.6978413
12.424502519301143	2.8472242	1.687372
12.442132941593874	2.8536675	1.6892802
12.459763659574586	2.8207047	1.6794953
12.477394673675532	2.8191133	1.6790215
12.49502598432903	2.794075	1.6715487
12.51265759196746	2.7893798	1.6701436
12.530289497023267	2.754406	1.6596403
12.547921699928967	2.7745416	1.6656955
12.565554201117134	2.7242312	1.6505245
12.583187001020404	2.741411	1.6557207
12.600820100071486	2.736586	1.654263
12.618453498703152	2.7291117	1.6520023
12.636087197348235	2.7015522	1.6436399
12.65372119643964	2.713719	1.647337
12.671355496410326	2.718816	1.6488832
12.68899009769333	2.7627723	1.662159
12.706625000721749	2.784098	1.6685616
12.724260205928752	2.8662884	1.6930116
12.741895713747551	2.8945284	1.7013314
12.759531524611454	2.9627597	1.7212669
12.777167638953818	2.949843	1.7175107
12.794804057208072	2.941556	1.7150965
12.812440779807702	2.9834044	1.7272534
12.830077807186271	3.1388292	1.7716742
12.847715139777405	3.1976578	1.7881997
12.865352778014795	3.3681607	1.8352549
12.882990722332197	3.419932	1.8493057
12.90062897316344	3.4714954	1.863195
12.918267530942412	3.5587158	1.8864559
12.935906396103071	3.459134	1.8598747
12.953545569079449	3.6062598	1.8990155
12.971185050305628	3.4134347	1.8475484
12.988824840215775	3.4600506	1.8601211
13.006464939244115	3.51632	1.8751854
13.024105347824943	3.368622	1.8353807
13.041746066392617	3.4403293	1.8548125
13.05938709538157	3.2192962	1.7942398
13.077028435226296	3.2723968	1.8089768
13.094670086361363	3.205918	1.7905078
13.112312049221401	3.1151404	1.764976
13.129954324241112	3.0301712	1.7407386
13.147596911855258	2.846647	1.6872009
13.165239812498685	2.8233738	1.6802897
13.182883026606293	2.7520373	1.6589265
13.200526554613058	2.721155	1.6495924
13.218170396954017	2.6976416	1.6424499
13.235814554064284	2.6670978	1.6331252
13.253459026379034	2.6562	1.6297853
13.271103814333523	2.6750324	1.6355526
13.288748918363058	2.7037032	1.6442941
13.306394338903031	2.6646323	1.6323701
13.32404007638889	2.5937886	1.6105243
13.341686131256164	2.5991454	1.6121866
13.359332503940449	2.596623	1.6114041
13.376979194877402	2.6541955	1.6291702
13.394626204502751	2.6925917	1.6409118
13.412273533252307	2.7097876	1.6461432
13.429921181561937	2.7126048	1.6469988
13.447569149867581	2.6868212	1.6391526
13.465217438605247	2.6802266	1.6371398
13.482866048211022	2.6466632	1.6268568
13.500514979121052	2.6700149	1.6340181
13.518164231771568	2.6338801	1.6229234
13.535813806598844	2.6226048	1.6194458
13.553463704039254	2.582483	1.6070106
13.571113924529229	2.6017203	1.6129849
13.588764468505275	2.6573846	1.6301486
13.606415336403956	2.6785882	1.6366392
13.624066528661917	2.6967332	1.6421733
13.641718045715882	2.713622	1.6473075
13.659369888002635	2.7972984	1.6725127
13.67702205595903	2.87115	1.6944468
13.694674550021993	2.9155116	1.707487
13.712327370628532	2.9839835	1.727421
13.729980518215713	3.0635452	1.7502986
13.747633993220681	3.1753054	1.7819387
13.765287796080647	3.2284207	1.7967807
13.7829419272329	3.2645738	1.8068131
13.800596387114801	3.2495537	1.8026519
13.818251176163775	3.2209713	1.7947065
13.835906294817324	3.2559521	1.8044257
13.853561743513023	3.3157084	1.8209087
13.871217522688525	3.3758314	1.8373436
13.888873632781538	3.4295008	1.8518912
13.906530074229858	3.462289	1.8607228
13.92418684747135	3.4720414	1.8633415
13.941843952943948	3.4196558	1.8492311
13.959501391085665	3.3832178	1.8393526
13.977159162334578	3.3196836	1.8219999
13.994817267128846	3.2570243	1.8047228
14.012475705906693	3.1908143	1.786285
14.030134479106424	3.1163585	1.7653211
14.047793587166414	3.0764081	1.7539693
14.065453030525108	3.0717359	1.7526368
14.083112809621026	3.0141308	1.7361252
14.100772924892766	2.9327254	1.7125202
14.118433376778997	2.8545413	1.6895388
14.136094165718458	2.792265	1.6710072
14.153755292149969	2.7606394	1.6615173
14.171416756512416	2.6777105	1.6363711
14.189078559244768	2.5851326	1.6078347
14.20674070078606	2.533355	1.5916517
14.224403181575408	2.4997876	1.5810716
14.242066002051999	2.472657	1.5724684
14.259729162655093	2.4423764	1.5628104
14.277392663824022	2.4460068	1.5639715
14.295056505998208	2.4513927	1.5656924
14.312720689617128	2.4179752	1.554984
14.330385215120348	2.3687217	1.5390652
14.348050082947497	2.3438616	1.5309675
14.3657152935383	2.3591044	1.5359377
14.383380847332528	2.3376338	1.5289322
14.401046744770051	2.3330657	1.5274377
14.418712986290798	2.3527412	1.5338649
14.436379572334793	2.3730247	1.5404625
14.454046503342123	2.4105082	1.5525811
14.471713779752946	2.4235377	1.5567715
14.489381402007504	2.448603	1.5648012
14.507049370546113	2.4666142	1.5705458
14.524717685809168	2.427984	1.5581989
14.542386348237134	2.365171	1.5379112
14.560055358270553	2.349994	1.532969
14.577724716350051	2.4053524	1.5509199
14.595394422916325	2.4590921	1.5681493
14.61306447841015	2.4743967	1.5730215
14.63073488327237	2.4605756	1.5686222
14.648405637943917	2.451423	1.5657021
14.6660767428658	2.4188385	1.5552616
14.683748198479094	2.4575577	1.56766
14.701420005224954	2.4860342	1.5767163
14.719092163544628	2.4960454	1.5798877
14.73676467387942	2.5477197	1.5961578
14.754437536670727	2.591157	1.6097071
14.772110752360014	2.6695518	1.6338763
14.78978432138882	2.6642742	1.6322604
14.807458244198777	2.6766634	1.6360512
14.82513252123159	2.637638	1.6240807
14.842807152929028	2.6399395	1.6247891
14.860482139732962	2.6302505	1.6218047
14.87815748208531	2.622586	1.6194401
14.8958331804281	2.6426082	1.6256101
14.91350923520342	2.6099079	1.615521
14.931185646853438	2.64721	1.6270249
14.948862415820408	2.6090782	1.615264
14.966539542546656	2.587425	1.6085474
14.98421702747459	2.586762	1.6083413
15.001894871046696	2.6022017	1.6131341
15.019573073705542	2.6172194	1.6177822
15.037251635893766	2.6185157	1.6181829
15.054930558054092	2.6374338	1.6240178
15.072609840629323	2.686851	1.6391617
15.090289484062351	2.785801	1.6690719
15.107969488796124	2.919829	1.7087507
15.125649855273691	3.113732	1.764577
15.14333058393817	3.5016205	1.8712617
15.161011675232768	4.138185	2.034253
15.17869312960076	4.7952905	2.1898153
15.196374947485506	5.519236	2.3493054
15.214057129330447	6.8552413	2.6182516
15.231739675579114	8.992583	2.9987636
15.249422586675102	13.437356	3.6657
15.267105863062092	17.78665	4.217422
15.284789505183847	24.557274	4.9555297
15.302473513484218	28.984	5.383679
15.320157888407127	32.833378	5.7300415
15.337842630396578	31.804483	5.6395464
15.355527739896656	29.120003	5.396295
15.37321321735153	22.752342	4.7699413
15.39089906320545	15.598933	3.9495485
15.408585277902748	10.096684	3.1775281
15.42627186188783	6.401693	2.5301566
15.443958815605198	4.6315093	2.1520941
15.461646139499424	3.8080971	1.9514346
15.479333834015168	3.3561454	1.8319786
15.497021899597165	3.073453	1.7531266
15.514710336690234	2.8171914	1.6784492
15.53239914573928	2.6582022	1.6303993
15.550088327189297	2.5481875	1.5963043
15.567777881485336	2.522504	1.5882393
15.58546780907256	2.5218465	1.5880322
15.6031581103962	2.5236382	1.5885963
15.620848785901568	2.4896774	1.5778712
15.638539836034063	2.4557302	1.5670769
15.656231261239173	2.4316714	1.5593817
15.673923061962451	2.4449987	1.5636492
15.691615238649552	2.4538472	1.566476
15.709307791746202	2.4278796	1.5581654
15.727000721698221	2.4041138	1.5505205
15.744694028951498	2.3935492	1.54711
15.76238771395202	2.3920817	1.5466356
15.780081777145844	2.4224045	1.5564076
15.797776218979125	2.426497	1.5577217
15.815471039898094	2.4349217	1.5604236
15.833166240349064	2.437624	1.5612892
15.850861820778437	2.4251323	1.5572836
15.868557781632699	2.4562287	1.5672361
15.886254123358412	2.4746265	1.5730946
15.903950846402232	2.4725015	1.572419
15.921647951210897	2.4404838	1.5622048
15.939345438231225	2.4511132	1.5656031
15.957043307910133	2.4533403	1.5663142
15.974741560694602	2.4498858	1.5652112
15.992440197031714	2.4613361	1.5688646
16.01013921736862	2.5073617	1.5834651
16.02783862215259	2.4632964	1.5694892
16.045538411830933	2.4212334	1.5560313
16.06323858685107	2.3804328	1.5428652
16.080939147660512	2.4156566	1.5542382
16.09864009470684	2.4248679	1.5571988
16.11634142843774	2.439883	1.5620124
16.134043149300954	2.4451685	1.5637034
16.15174525774433	2.4696105	1.5714995
16.169447754215817	2.4468253	1.5642331
16.18715063916342	2.424634	1.5571237
16.204853913035244	2.4315984	1.5593584
16.222557576279478	2.41283	1.5533288
16.240261629344403	22.381815	4.7309422
16.257966072678386	42.909763	6.5505543
16.275670906729868	38.04168	6.1677938
16.293376131947387	2.4770334	1.5738593
16.31108174877957	2.5087647	1.5839081
16.328787757675133	2.548353	1.5963562
16.34649415908287	2.5336368	1.5917401
16.364200953451657	2.5445108	1.5951523
16.38190814123048	2.559777	1.5999303
16.39961572286839	2.6001263	1.6124907
16.41732369881455	2.5973587	1.6116323
16.43503206951817	2.6464767	1.6267996
16.45274083542859	2.6940098	1.641344
16.47044999699522	2.7615736	1.6617982
16.488159554667558	2.8277571	1.6815937
16.505869508895184	2.9121459	1.706501
16.523579860127786	2.9668114	1.7224435
16.541290608815117	2.9948976	1.7305772
16.559001755407035	3.0447507	1.7449214
16.57671330035348	3.1491477	1.7745838
16.59442524410448	3.2643752	1.8067582
16.61213758711015	3.4019833	1.8444467
16.629850329820705	3.4357634	1.8535812
16.647563472686436	3.458342	1.8596618
16.665277016157724	3.4359396	1.8536288
16.682990960685053	3.4692187	1.8625839
16.70070530671898	3.4888968	1.8678589
16.718420054710155	3.518224	1.875693
16.736135205109335	3.4958377	1.8697159
16.753850758367335	3.4951167	1.8695232
16.771566714935087	3.5926585	1.8954309
16.789283075263597	3.7367382	1.9330645
16.80699983980398	3.8393333	1.9594216
16.82471700900741	3.849185	1.961934
16.84243458332518	3.8357332	1.9585028
16.860152563208665	3.9214535	1.980266
16.87787094910932	3.9803355	1.9950778
16.89558974147871	4.024235	2.0060496
16.913308940768466	4.0977197	2.0242825
16.931028547430333	4.2002935	2.0494618
16.94874856191613	4.2583327	2.063573
16.966468984677785	4.318104	2.0780048
16.98418981616729	4.31709	2.077761
17.00191105683676	4.34887	2.0853944
17.019632707138374	4.3561764	2.0871456
17.03735476752442	4.41429	2.101021
17.05507723844728	4.4693065	2.1140735
17.072800120359403	4.5717573	2.138167
17.090523413713353	4.595618	2.1437392
17.108247118961785	4.5991683	2.1445673
17.125971236557437	4.5557227	2.134414
17.143695766953133	4.5769315	2.1393764
17.161420710601806	4.628488	2.1513922
17.179146067956477	4.6360893	2.153158
17.19687183947025	4.604371	2.1457798
17.21459802559634	4.582765	2.1407394
17.232324626788028	4.591949	2.1428833
17.25005164349871	4.5953307	2.1436722
17.267779076181863	4.6088533	2.1468241
17.285506925291074	4.5509562	2.133297
17.30323519127999	4.4662657	2.1133542
17.320963874602384	4.44314	2.1078758
17.33869297571211	4.437243	2.1064765
17.356422495063114	4.4624286	2.112446
17.37415243310944	4.4789414	2.116351
17.391882790305218	4.49469	2.1200683
17.40961356710468	4.5287747	2.1280918
17.42734476396215	4.513372	2.1244698
17.445076381332044	4.5211353	2.126296
17.462808419668868	4.5130925	2.124404
17.48054087942723	4.611764	2.1475017
17.498273761061835	4.7497454	2.1793911
17.51600706502747	5.125797	2.2640224
17.533740791779024	5.802015	2.4087372
17.551474941771485	6.747366	2.5975692
17.56920951545993	8.698396	2.9493043
17.586944513299528	9.876897	3.1427531
17.60467993574556	12.541534	3.5414028
17.622415783253373	14.992013	3.871952
17.64015205627843	17.647243	4.2008624
17.657888755276293	19.936625	4.465045
17.675625880702604	21.345943	4.6201673
17.69336343301311	19.96941	4.4687147
17.71110141266366	17.803171	4.2193804
17.728839820110178	15.236681	3.9034193
17.746578655808705	12.242702	3.4989572
17.764317920215372	10.198885	3.1935694
17.7820576137864	8.511056	2.9173715
17.79979773697811	7.125174	2.6693022
17.81753829024692	5.9170256	2.4324937
17.835279274049356	5.1183333	2.2623734
17.85302068884201	4.4878716	2.1184597
17.870762535081607	4.106338	2.02641
17.888504813224934	3.8293827	1.9568808
17.90624752372891	3.6217806	1.9030976
17.923990667050536	3.542289	1.882097
17.941734243646895	3.4849176	1.8667934
17.959478253975185	3.4710374	1.863072
17.9772226984927	3.4380953	1.8542101
17.994967577656833	3.460827	1.8603299
18.01271289192506	3.41283	1.8473847
18.030458641754965	3.340329	1.8276566
18.04820482760425	3.3209982	1.8223606
18.06595144993067	3.3067791	1.8184551
18.083698509192125	3.2755294	1.8098423
18.101446005846576	3.2030919	1.7897184
18.119193940352105	3.1743445	1.781669
18.136942313166887	3.1604967	1.7777786
18.1546911247492	3.170326	1.780541
18.1724403755574	3.171252	1.7808009
18.19019006604997	3.1572964	1.7768782
18.207940196685467	3.1273863	1.7684418
18.225690767922575	3.073207	1.7530564
18.243441780220046	3.0515194	1.7468599
18.261193234036764	3.053246	1.747354
18.278945129831676	3.0244575	1.7390968
18.29669746806386	3.0255885	1.7394218
18.314450249192483	3.0140038	1.7360886
18.3322034736768	2.9916575	1.7296408
18.349957141976184	2.9400108	1.714646
18.3677112545501	2.8876982	1.6993228
18.385465811858108	2.937157	1.7138135
18.403220814359884	2.9809718	1.7265491
18.420976262515172	3.0489855	1.7461344
18.43873215678387	3.0847318	1.7563405
18.456488497625923	3.1283317	1.7687091
18.474245285501407	3.1808531	1.7834946
18.492002520870486	3.2362585	1.7989604
18.50976020419343	3.3220563	1.8226509
18.527518335930615	3.601464	1.8977524
18.545276916542516	4.132021	2.0327373
18.563035946489688	4.294142	2.072231
18.580795426232832	4.7360783	2.1762533
18.598555356232698	4.674377	2.1620307
18.616315736950185	5.007467	2.237737
18.63407656884626	4.6677437	2.1604962
18.65183785238201	4.8313603	2.1980355
18.669599588018617	4.601501	2.1451108
18.68736177621737	4.596906	2.1440396
18.705124417439652	4.57306	2.1384714
18.72288751214696	4.3546386	2.086777
18.740651060800886	4.537136	2.1300554
18.758415063863115	4.2569413	2.0632358
18.77617952179546	4.3833227	2.0936387
18.793944435059814	4.1298804	2.0322108
18.811709804118184	4.1673627	2.0414119
18.829475629432675	4.114835	2.0285056
18.8472419114655	3.9006996	1.9750189
18.86500865067897	4.009127	2.0022805
18.88277584753551	3.7235348	1.9296463
18.90054350249763	3.704113	1.9246073
18.918311616027957	3.355114	1.831697
18.936080188589226	3.2908726	1.8140762
18.953849220644265	3.0167084	1.7368674
18.971618712656007	2.8280993	1.6816953
18.9893886650875	2.7376463	1.6545835
19.007159078401887	7.9709167	2.8232813
19.024929953062408	32.89943	5.7358027
19.042701289532435	32.84185	5.730781
19.060473088275405	25.354012	5.035277
19.07824534975489	2.626174	1.6205474
19.096018074434568	2.6052334	1.6140735
19.113791262778197	2.5923982	1.6100926
19.13156491524966	2.5888686	1.6089962
19.149339032312945	2.5914035	1.6097836
19.167113614432136	2.5909	1.6096272
19.184888662071433	2.550743	1.5971045
19.202664175695123	2.52212	1.5881184
19.220440155767623	2.5355217	1.5923321
19.238216602753447	2.542861	1.594635
19.2559935171172	2.53494	1.5921495
19.27377089932361	2.4956906	1.5797755
19.291548749837514	2.4815967	1.5753084
19.309327069123835	2.4412963	1.5624648
19.32710585764763	2.4443145	1.5634303
19.344885115874032	2.4300869	1.5588735
19.362664844268313	2.4355817	1.560635
19.380445043295822	2.4267025	1.5577877
19.39822571342203	2.4311204	1.559205
19.41600685511252	2.4358566	1.5607231
19.43378846883297	2.4215612	1.5561366
19.451570555049173	2.4021409	1.5498842
19.469353114227037	2.4105008	1.5525787
19.48713614683254	2.421871	1.5562361
19.50491965333182	2.4419532	1.562675
19.52270363419109	2.428849	1.5584764
19.540488089876686	2.4565885	1.5673507
19.55827302085503	2.4712474	1.5720202
19.576058427592674	2.4702098	1.5716901
19.593844310556282	2.466766	1.5705942
19.611630670212598	2.468073	1.5710101
19.629417507028506	2.4875739	1.5772045
19.64720482147098	2.451146	1.5656136
19.6649926140071	2.4573276	1.5675865
19.682780885104084	2.4331574	1.5598582
19.70056963522921	2.4675043	1.5708292
19.718358864849908	2.4593866	1.5682431
19.7361485744337	2.4707744	1.5718697
19.753938764448215	2.4553301	1.5669492
19.771729435361202	2.449061	1.5649476
19.789520587640506	2.4704316	1.5717607
19.807312221754092	2.5053666	1.582835
19.825104338170043	2.5271542	1.5897026
19.842896937356517	2.5270517	1.5896703
19.860690019781824	2.504231	1.5824763
19.87848358591436	2.486913	1.5769949
19.896277636222635	2.4882882	1.5774308
19.914072171175278	2.473677	1.5727928
19.931867191241015	2.451642	1.565772
19.94966269688869	2.444541	1.5635028
19.967458688587264	2.4232938	1.5566932
19.985255166805807	2.439261	1.5618134
20.00305213201348	2.4332874	1.5598998
20.020849584679578	2.4462855	1.5640606
20.038647525273507	2.4311147	1.5592033
20.05644595426477	2.4004421	1.5493361
20.07424487212299	2.3717158	1.5400376
20.092044279317903	2.3743608	1.540896
20.109844176319353	2.4076962	1.5516753
20.127644563597304	2.4160063	1.5543507
20.145445441621817	2.4445443	1.5635039
20.16324681086307	2.4180937	1.5550221
20.181048671791373	2.4010801	1.549542
20.198851024877122	2.3520863	1.5336514
20.216653870590836	2.310782	1.5201256
20.234457209403146	2.3032258	1.5176382
20.252261041784802	2.3171525	1.5222195
20.270065368206662	2.3438213	1.5309544
20.287870189139685	2.3450658	1.5313607
20.305675505054968	2.3430767	1.5307112
20.323481316423702	2.3423703	1.5304804
20.341287623717207	2.3488002	1.5325795
20.359094427406884	2.3337755	1.5276699
20.376901727964288	2.3197384	1.5230688
20.39470952586107	2.3239686	1.5244569
20.41251782156899	2.3439355	1.5309917
20.430326615559935	2.3202755	1.5232451
20.448135908305886	2.2989492	1.5162287
20.465945700278965	2.2694337	1.506464
20.483755991951384	2.2725008	1.5074816
20.50156678379548	2.2622302	1.5040712
20.519378076283708	2.3004315	1.5167173
20.537189869888635	2.3183882	1.5226254
20.55500216508294	2.309221	1.5196121
20.572814962339415	2.2623446	1.5041093
20.59062826213098	2.3103008	1.5199673
20.60844206493066	2.3369174	1.528698
20.626256371211593	2.3538496	1.5342261
20.644071181447032	2.32097	1.523473
20.66188649611036	2.323728	1.524378
20.67970231567506	2.3117425	1.5204415
20.697518640614742	2.3007967	1.5168377
20.715335471403122	2.3067813	1.5188092
20.73315280851404	2.2887933	1.5128758
20.750970652421447	2.3035784	1.5177544
20.768789003599412	2.3024092	1.5173692
20.786607862522136	2.284501	1.5114566
20.8044272296639	2.2439528	1.4979829
20.82224710549913	2.240683	1.4968911
20.84006749050237	2.261513	1.5038328
20.857888385148268	3.8363378	1.9586571
20.8757097899116	45.93958	6.777874
20.893531705267254	64.76471	8.047652
20.911354131690224	83.762794	9.152202
20.92917706965566	68.981255	8.305495
20.94700051963877	50.030384	7.073216
20.96482448211493	29.303434	5.4132648
20.982648957559622	4.0309157	2.007714
21.00047394644843	2.1715558	1.4736199
21.01829944925707	2.1708598	1.4733838
21.036125466461375	2.1564326	1.4684798
21.053951998537297	2.123551	1.4572408
21.071779045960906	2.0922248	1.4464525
21.089606609208378	2.1371744	1.4619077
21.10743468875603	2.172002	1.4737713
21.12526328508028	2.2036233	1.4844606
21.143092398657675	2.180662	1.4767064
21.16092202996488	2.1801891	1.4765464
21.17875217947867	2.1579635	1.4690008
21.19658284767596	2.1519287	1.4669454
21.21441403503377	2.140158	1.4629278
21.232245742029225	2.1476974	1.4655025
21.2500779691396	2.166902	1.47204
21.26791071684227	2.1883397	1.4793038
21.28574398561475	2.2010486	1.4835931
21.30357777593465	2.1534123	1.467451
21.321412088279704	2.1173644	1.4551166
21.339246923127792	2.112653	1.4534968
21.357082280956888	2.1577578	1.4689308
21.3749181622451	2.1470826	1.4652927
21.392754567470647	2.1437192	1.4641445
21.41059149711187	2.1131375	1.4536635
21.42842895164726	2.102008	1.4498304
21.446266931555378	2.0917764	1.4462975
21.464105437314945	2.1094427	1.4523921
21.481944469404798	2.1233974	1.4571881
21.49978402830388	2.1556559	1.4682152
21.51762411449127	2.1298003	1.4593835
21.53546472844617	2.1034296	1.4503205
21.553305870647876	2.07795	1.4415096
21.571147541575865	2.1049337	1.4508389
21.58898974170967	2.0945468	1.4472549
21.60683247152899	2.048574	1.4312841
21.62467573151363	2.0056875	1.4162229
21.642519522143523	1.9863731	1.4093875
21.660363843898722	1.9971092	1.4131911
21.6782086972594	2.012932	1.4187784
21.696054082705864	1.9983797	1.4136406
21.713900000718535	1.978932	1.4067452
21.73174645177795	1.9956614	1.4126788
21.749593436364794	2.0202239	1.4213458
21.767440954959845	2.0247476	1.4229363
21.785289008044032	2.0212076	1.4216918
21.803137596098388	1.991209	1.411102
21.820986719604086	1.9802704	1.4072208
21.838836379042412	1.9836357	1.408416
21.85668657489478	2.005044	1.4159957
21.87453730764273	2.0085614	1.4172373
21.892388577767914	2.0061636	1.416391
21.91024038575213	1.977987	1.4064093
21.928092732077285	1.9559008	1.3985353
21.945945617225426	1.9401668	1.3928987
21.963799041678694	1.9534713	1.3976663
21.981653005919398	31.288456	5.5936084
21.999507510429943	78.09364	8.837061
22.01736255569286	73.03798	8.546226
22.035218142190818	4.120926	2.0300064
22.05307427040661	1.9194229	1.3854324
22.07093094082315	1.9426006	1.3937721
22.088788153923474	1.9344684	1.3908517
22.106645910190746	1.9779367	1.4063914
22.12450421010827	1.9701594	1.4036237
22.142363054159464	1.968114	1.4028949
22.16022244282787	1.9546626	1.3980925
22.178082376597164	1.9842577	1.4086368
22.195942855951145	1.9762758	1.4058008
22.213803881373742	1.997609	1.413368
22.231665453349002	1.987942	1.4099439
22.24952757236111	1.9615769	1.4005631
22.26739023889438	1.9224858	1.3865373
22.28525345343323	1.8931628	1.3759226
22.30311721646225	1.8818568	1.3718078
22.320981528466113	1.898193	1.3777492
22.33884638992964	1.9558568	1.3985195
22.356711801337788	1.9704669	1.4037331
22.37457776317561	1.9422338	1.3936405
22.392444275928337	1.9190884	1.3853116
22.410311340081282	1.903333	1.3796133
22.428178956119904	1.921713	1.3862586
22.446047124529805	1.8989643	1.3780291
22.46391584579669	1.889832	1.3747116
22.481785120406414	1.8862821	1.3734199
22.49965494884496	1.9016539	1.3790047
22.51752533159841	1.9122168	1.3828293
22.53539626915302	1.9051716	1.3802795
22.553267761995137	1.9059461	1.38056
22.571139810611264	1.9426047	1.3937736
22.589012415488025	1.9679537	1.4028378
22.60688557711216	1.9858478	1.4092011
22.624759295970566	1.9956161	1.4126627
22.642633572550263	1.9898875	1.4106337
22.660508407338362	1.9423238	1.3936728
22.67838380082217	1.9081308	1.3813511
22.696259753489077	1.899343	1.3781666
22.714136265826614	1.8936152	1.376087
22.73201333832246	1.8947108	1.376485
22.74989097146439	1.9374069	1.3919077
22.76776916574035	1.9327685	1.3902404
22.785647921638393	1.9618574	1.4006633
22.803527239646712	1.950054	1.3964434
22.82140712025363	1.954404	1.398
22.839287563947593	1.9523532	1.3972664
22.85716857121719	1.9345288	1.3908734
22.875050142551135	1.915427	1.3839895
22.892932278438277	1.9260361	1.387817
22.910814979367604	1.9235644	1.3869263
22.928698245828222	1.9207087	1.3858963
22.946582078309387	1.9024516	1.3792939
22.96446647730047	1.9008297	1.3787057
22.98235144329098	1.8222255	1.3498983
23.000236976770562	1.7885306	1.3373595
23.018123078229	1.8319836	1.3535079
23.03600974815619	1.8772631	1.3701324
23.053896987042194	1.8807353	1.371399
23.071784795377173	1.8405147	1.3566557
23.08967317365145	1.8607805	1.3641043
23.10756212235546	1.8842927	1.3726954
23.125451641979787	1.9269118	1.3881325
23.143341733015134	1.9239584	1.3870683
23.161232395952357	1.922263	1.386457
23.179123631282426	1.9130976	1.3831477
23.197015439496468	1.931685	1.3898507
23.214907821085717	1.923858	1.3870322
23.23280077654157	1.9235829	1.386933
23.250694306355538	1.9353824	1.3911802
23.268588411019277	1.9476677	1.3955886
23.28648309102458	1.9638588	1.4013774
23.304378346863356	1.927506	1.3883464
23.322274179027676	1.8818151	1.3717927
23.340170588009723	1.8555174	1.3621738
23.358067574301852	1.8861456	1.3733702
23.37596513839651	1.9192472	1.385369
23.39386328078629	1.9267012	1.3880566
23.411762001963947	1.9371209	1.3918049
23.429661302422353	1.9545193	1.3980412
23.4475611826545	1.9311029	1.3896413
23.46546164315356	1.938462	1.3922867
23.48336268441279	1.921031	1.3860127
23.501264306925638	1.8995076	1.3782263
23.51916651118564	1.8391446	1.3561506
23.537069297686497	1.8175311	1.3481584
23.554972666922037	1.8349231	1.3545934
23.57287661938623	1.8833193	1.3723408
23.59078115557318	1.9206496	1.3858751
23.608686275977128	1.9286276	1.3887504
23.62659198109246	1.9411359	1.3932465
23.6444982714137	1.9269798	1.388157
23.66240514743549	1.9202595	1.3857343
23.68031260965263	1.9052258	1.3802992
23.698220658560068	1.842316	1.3573195
23.716129294652845	1.8543799	1.3617562
23.7340385184262	1.8873129	1.373795
23.75194833037546	1.8950418	1.3766052
23.769858730996123	1.8704836	1.3676562
23.78776972078382	1.867019	1.366389
23.80568130023431	1.9320406	1.3899786
23.823593469843495	1.9209055	1.3859674
23.841506230107424	1.8622235	1.3646331
23.859419581522275	1.8557466	1.362258
23.87733352458438	1.8910807	1.3751657
23.89524805979019	1.9440153	1.3942795
23.913163187636318	1.9208106	1.3859332
23.931078908619508	1.9264686	1.3879728
23.948995223236633	1.9494038	1.3962106
23.966912131984735	1.9944389	1.412246
23.98482963536096	2.0536892	1.4330698
24.002747733862616	2.0543425	1.4332978
24.020666427987155	2.0318508	1.42543
24.038585718232156	2.0046277	1.4158487
24.056505605095353	1.9951187	1.4124867
24.074426089074617	2.0241632	1.4227309
24.092347170667946	2.016712	1.4201099
24.110268850373515	2.0251224	1.4230679
24.128191128689586	2.0004077	1.4143577
24.146114006114626	1.9838419	1.4084892
24.164037483147187	1.9853606	1.4090283
24.181961560286005	2.0127926	1.4187292
24.199886238029926	1.985783	1.4091781
24.21781151687797	2.0031474	1.4153259
24.235737397329274	2.0352676	1.426628
24.253663879883135	2.047683	1.4309727
24.271590965038975	2.0717797	1.4393678
24.289518653296376	2.075615	1.4406995
24.30744694515505	2.0513887	1.432267
24.32537584111486	2.0335922	1.4260408
24.34330534167581	2.0512733	1.4322267
24.361235447338046	2.0591908	1.434988
24.379166158601876	2.0508165	1.4320673
24.39709747596772	2.0197577	1.4211818
24.41502939993615	1.9926021	1.4115956
24.432961931007917	1.9809936	1.4074777
24.450895069683856	1.9750683	1.4053712
24.468828816465	1.9601865	1.4000666
24.4867631718525	1.9473236	1.3954654
24.504698136347656	1.9412618	1.3932917
24.52263371045192	1.9050555	1.3802375
24.540569894666874	1.8954804	1.3767644
24.558506689494266	1.9217433	1.3862696
24.57644409543597	1.9296027	1.3891014
24.594382112994012	1.9223452	1.3864866
24.61232074267057	1.9020646	1.3791536
24.630259984967953	1.9429338	1.3938916
24.64819984038863	1.9587317	1.399547
24.66614030943522	1.9865957	1.4094665
24.684081392610462	1.9768933	1.4060204
24.702023090417274	1.9748001	1.4052758
24.7199654033587	2.0157802	1.4197818
24.737908331937927	1.9885364	1.4101547
24.755851876658305	1.9815933	1.4076908
24.773796038023324	2.0128703	1.4187566
24.79174081653661	2.0753145	1.4405951
24.809686212701962	2.0583062	1.4346799
24.827632227023294	2.0537302	1.4330841
24.8455788600047	2.0747447	1.4403974
24.8635261121504	2.0853055	1.4440587
24.88147398396475	2.1085792	1.4520948
24.899422475952303	2.1102283	1.4526625
24.917371588617698	2.102627	1.4500438
24.935321322465768	2.1502168	1.4663618
24.953271678001478	2.2994285	1.5163866
24.97122265572994	2.528779	1.5902135
24.989174256156414	2.8689632	1.6938014
25.00712647978632	3.4388273	1.8544075
25.02507932712521	4.332594	2.0814884
25.043032798678798	5.862136	2.4211848
25.060986894952933	7.452405	2.7299094
25.078941616453637	8.91062	2.9850662
25.096896963687055	9.682817	3.1117225
25.114852937159508	10.428288	3.229286
25.132809537377444	10.317671	3.2121131
25.150766764847468	9.773734	3.1262972
25.168724620076347	8.46878	2.9101167
25.186683103570985	7.2484393	2.6922927
25.204642215838426	5.8830733	2.4255047
25.222601957385894	4.7099686	2.1702461
25.24056232872074	3.6273396	1.9045576
25.25852333035048	2.882041	1.6976575
25.276484962782778	2.421544	1.5561311
25.294447226525435	2.1573322	1.468786
25.312410122086423	2.0683525	1.4381768
25.330373649973843	1.9815115	1.4076617
25.348337810695988	1.9483123	1.3958195
25.366302604761245	1.9400443	1.3928547
25.384268032678207	1.951249	1.3968711
25.40223409495558	1.9542781	1.397955
25.420200792102257	1.8954521	1.3767542
25.438168124627246	1.8877809	1.3739654
25.45613609303974	1.869343	1.3672392
25.474104697849057	1.8553	1.3620939
25.492073939564698	1.8240031	1.3505566
25.510043818696285	1.8275009	1.351851
25.528014335753614	1.8461972	1.3587484
25.54598549124664	1.8602424	1.363907
25.56395728568544	1.8593802	1.363591
25.58192971958028	1.8935446	1.3760612
25.59990279344156	1.8587991	1.3633778
25.617876507779833	1.8080208	1.3446267
25.635850863105826	1.745015	1.3209902
25.653825859930386	1.7498446	1.3228168
25.671801498764548	1.7726221	1.3313986
25.68977778011949	1.7884078	1.3373137
25.707754704506524	1.8205959	1.3492945
25.725732272437153	1.8455783	1.3585206
25.743710484423012	1.8755504	1.3695073
25.761689340975888	1.8574798	1.3628939
25.77966884260774	1.8123139	1.346222
25.797648989830662	1.8092315	1.3450768
25.815629783156922	1.8127599	1.3463877
25.83361122309895	1.8632845	1.3650218
25.85159331016929	1.90646	1.3807462
25.869576044880695	1.9468415	1.3952926
25.887559427746034	1.8943169	1.3763418
25.90554345927836	1.841346	1.3569621
25.92352813999086	1.7931746	1.3390948
25.94151347039689	1.7779102	1.333383
25.959499451009965	1.8200414	1.3490891
25.97748608234374	1.8958957	1.3769153
25.995473364912062	1.8946676	1.3764693
26.013461299228904	1.8484684	1.359584
26.03144988580839	1.8519634	1.3608686
26.04943912516483	1.8286974	1.3522934
26.067429017812675	1.7833118	1.335407
26.085419564266537	1.7854177	1.3361952
26.103410765041186	1.8232177	1.3502659
26.12140262065155	1.8442454	1.35803
26.139395131612723	1.8407936	1.3567585
26.157388298439948	1.8241223	1.3506007
26.17538212164861	1.8125353	1.3463043
26.193376601754295	1.8362985	1.3551009
26.211371739272714	1.8164	1.3477389
26.229367534719746	1.8292922	1.3525133
26.247363988611433	1.8320109	1.353518
26.26536110146397	1.8118312	1.3460428
26.283358873793727	1.8357999	1.3549169
26.301357306117204	1.8453155	1.3584238
26.319356398951104	1.8138824	1.3468045
26.33735615281224	1.8193678	1.3488394
26.35535656821762	1.8383303	1.3558503
26.373357645684404	1.7914633	1.3384556
26.39135938572991	1.7349557	1.3171772
26.409361788871614	1.783778	1.3355815
26.427364855627165	1.7906497	1.3381516
26.445368586514352	1.7988405	1.3412086
26.46337298205115	1.8066418	1.3441137
26.48137804275568	1.8340551	1.3542728
26.499383769146217	1.8204997	1.3492589
26.517390161741215	1.7992433	1.3413588
26.53539722105928	1.7836461	1.3355322
26.553404947619182	1.761627	1.327263
26.571413341939856	1.7660023	1.3289102
26.589422404540397	1.7867186	1.336682
26.60743213594006	1.7876159	1.3370175
26.62544253665827	1.7462488	1.3214571
26.64345360721459	1.772122	1.3312107
26.66146534812879	1.7583845	1.3260409
26.679477759920758	1.7976558	1.3407669
26.69749084311057	1.843512	1.35776
26.71550459821847	1.8792232	1.3708476
26.733519025764842	1.8735299	1.3687695
26.751534126270258	1.8326329	1.3537477
26.769549900255434	1.791015	1.3382881
26.787566348241267	1.785174	1.336104
26.80558347074881	1.7789582	1.3337759
26.823601268299267	1.7615095	1.3272188
26.841619741414036	1.7653295	1.328657
26.85963889061465	1.8037497	1.3430375
26.877658716422832	1.8516538	1.3607548
26.89567921936045	1.8829556	1.3722082
26.913700399949544	1.8654317	1.365808
26.93172225871233	1.8515693	1.3607239
26.949744796171174	1.816368	1.347727
26.967768012848605	1.7977873	1.3408159
26.98579190926733	1.7836848	1.3355466
27.003816485950225	1.7988353	1.3412067
27.021841743420318	1.807594	1.3444679
27.039867682200814	1.7837926	1.335587
27.057894302815072	1.7391645	1.3187739
27.07592160578664	1.7660837	1.3289409
27.0939495916392	1.7912459	1.3383744
27.111978260896635	1.7777336	1.3333168
27.13000761408296	1.7654557	1.3287045
27.148037651722397	1.7455382	1.3211882
27.166068374339304	1.7758372	1.3326054
27.184099782458215	1.8230082	1.3501883
27.20213187660384	1.8795869	1.3709803
27.22016465730105	1.8292032	1.3524804
27.23819812507487	1.7504157	1.3230327
27.256232280450533	1.73253	1.316256
27.274267123953383	1.7949911	1.3397728
27.292302656108987	1.8233705	1.3503224
27.31033887744306	1.8315334	1.3533416
27.32837578848146	1.7810607	1.3345639
27.34641338975026	1.7609346	1.327002
27.364451681775673	1.777154	1.3330994
27.382490665084074	1.8440132	1.3579445
27.400530340202046	1.8700044	1.367481
27.41857070765629	1.8535928	1.3614671
27.436611767973726	1.8042142	1.3432105
27.454653521681404	1.771666	1.3310394
27.472695969306564	1.7352476	1.3172879
27.490739111376627	1.7211977	1.3119442
27.508782948419153	1.7588658	1.3262224
27.526827480961902	1.7858362	1.3363519
27.54487270953279	1.7848885	1.3359972
27.562918634659898	1.8173846	1.3481041
27.580965256871508	1.8180629	1.3483557
27.599012576696026	1.787897	1.3371227
27.617060594662068	1.7734793	1.3317205
27.63510931129842	1.8185176	1.3485242
27.65315872713401	1.8344946	1.3544352
27.67120884269797	1.8382428	1.3558182
27.68925965851958	1.7902322	1.3379955
27.707311175128307	1.7681729	1.3297266
27.725363393053787	1.7694682	1.3302135
27.74341631282583	1.8198195	1.3490069
27.7614699349744	1.8331265	1.35393
27.77952426002968	2.07374	1.4400486
27.797579288521973	2.14065	1.463096
27.815635020981784	2.574944	1.6046633
27.83369145793979	2.6414127	1.6252424
27.85174859992682	2.5116653	1.5848235
27.869806447473923	2.392447	1.5467536
27.887865001112267	2.0529413	1.4328089
27.905924261373233	1.8907136	1.3750322
27.92398422878836	1.9146153	1.3836962
27.94204490388936	1.9615934	1.400569
27.96010628720813	1.9576167	1.3991486
27.978168379276728	1.8808242	1.3714315
27.9962311806274	1.8324559	1.3536823
28.014294691792568	1.8031431	1.3428117
28.0323589133048	1.8639635	1.3652705
28.050423845696887	1.8989528	1.3780249
28.068489489501758	1.8440379	1.3579535
28.086555845252523	1.8038565	1.3430773
28.104622913482487	1.8268821	1.351622
28.122690694725115	1.9122376	1.3828368
28.14075918951405	1.9425285	1.3937463
28.15882839838312	1.9610776	1.4003848
28.176898321866304	1.914127	1.3835198
28.1949689604978	1.896849	1.3772614
28.213040314811945	1.9301517	1.389299
28.23111238534327	1.9314835	1.3897783
28.249185172626493	1.8847345	1.3728564
28.267258677196473	1.8650507	1.3656685
28.285332899588294	1.8900216	1.3747805
28.303407840337172	1.9100631	1.3820504
28.321483499978545	1.9464158	1.39514
28.33955987904799	1.9749668	1.4053351
28.357636978081285	1.950282	1.3965249
28.37571479761439	1.952767	1.3974144
28.393793338183425	1.9537773	1.3977759
28.41187260032469	1.909478	1.3818386
28.429952584574686	1.9282516	1.388615
28.448033291470065	2.0326421	1.4257076
28.46611472154769	2.03241	1.4256262
28.484196875344566	2.0138197	1.4190911
28.502279753397914	2.0212271	1.4216987
28.52036335624511	1.9511957	1.396852
28.538447684423716	1.885589	1.3731675
28.556532738471482	1.8937515	1.3761364
28.574618518926325	1.8820293	1.3718708
28.59270502632635	1.9153947	1.3839779
28.61079226120985	1.9348482	1.3909882
28.628880224115274	1.9692293	1.4032923
28.646968915581287	1.9488968	1.3960289
28.66505833614671	2.0117729	1.4183698
28.68314848635055	2.0821075	1.442951
28.701239366732004	2.0763566	1.4409568
28.71933097783044	2.0730574	1.4398116
28.737423320185403	2.1104102	1.452725
28.75551639433665	2.1295557	1.4592997
28.773610200824074	2.0754077	1.4406276
28.791704740187793	2.0894158	1.4454812
28.80980001296809	2.1135302	1.4537985
28.827896019705413	2.1242158	1.457469
28.845992760940433	2.1088321	1.4521818
28.86409023721397	2.1671782	1.4721339
28.88218844906704	2.1872265	1.4789275
28.900287397040845	2.172759	1.4740282
28.918387081676755	2.1835008	1.4776673
28.936487503516343	2.2497778	1.499926
28.954588663101365	2.3094335	1.519682
28.97269056097374	2.340783	1.5299618
28.990793197675597	2.3815553	1.5432289
29.00889657374923	2.3912463	1.5463655
29.027000689737125	2.424041	1.5569332
29.04510554618196	2.4251044	1.5572747
29.06321114362659	2.411071	1.5527624
29.08131748261405	2.441495	1.5625284
29.099424563687567	2.5223744	1.5881984
29.11753238739057	2.4974332	1.5803269
29.13564095426663	2.4946895	1.5794586
29.15375026485954	2.5604424	1.6001383
29.171860319713275	2.623087	1.6195947
29.18997111937199	2.6615362	1.6314216
29.20808266438002	2.7347195	1.6536987
29.226194955281898	2.7849808	1.6688262
29.244307992622335	2.788023	1.6697375
29.26242177694624	2.7527092	1.659129
29.2805363087987	2.8026228	1.6741036
29.29865158872498	2.8898008	1.6999414
29.316767617270557	2.9425554	1.7153878
29.334884394981064	3.012391	1.7356241
29.353001922402367	3.0581985	1.7487706
29.37112020008047	3.048899	1.7461096
29.389239228561596	3.1108754	1.7637674
29.407359008392152	3.3272302	1.8240697
29.42547954011872	3.563703	1.8877773
29.44360082428809	4.0712633	2.0177372
29.46172286144722	4.9584956	2.226768
29.479845652143283	6.6124897	2.5714762
29.497969196923606	9.361811	3.0597076
29.516093496335728	13.367081	3.656102
29.5342185509274	17.102869	4.1355615
29.55234436124651	20.196323	4.494032
29.570470927841175	21.374792	4.623288
29.588598251259686	21.207088	4.6051154
29.60672633205055	19.499498	4.4158235
29.624855170762405	16.373713	4.0464444
29.642984767944146	12.817476	3.5801504
29.66111512414481	9.518516	3.0852091
29.67924623991366	7.0676494	2.6585052
29.697378115800138	5.2727427	2.2962453
29.71551075235387	4.2614636	2.0643313
29.733644150124675	3.737869	1.9333569
29.751778309662576	3.536639	1.8805953
29.769913231517766	3.4203188	1.8494104
29.78804891624066	3.378303	1.838016
29.806185364381818	3.3676994	1.8351293
29.82432257649206	3.3689167	1.8354609
29.842460553122333	3.3455536	1.8290855
29.86059929482382	3.3287237	1.824479
29.878738802147872	3.3094034	1.8191766
29.896879075646048	3.3010895	1.8168901
29.915020115870114	3.2401905	1.8000529
29.933161923371976	3.2117436	1.7921338
29.951304498703777	3.283195	1.8119589
29.969447842417857	3.313154	1.8202071
29.987591955066733	3.2334635	1.7981834
30.005736837203123	3.1820412	1.7838277
30.023882489379943	3.1852298	1.7847213
30.04202891215028	3.1974986	1.7881551
30.060176106067455	3.1501298	1.7748605
30.078324071684946	3.1208944	1.7666054
30.09647280955646	3.1228268	1.7671522
30.114622320235863	3.147871	1.774224
30.132772604277257	3.1402168	1.7720656
30.1509236622349	3.155163	1.7762779
30.16907549466328	3.140588	1.7721704
30.18722810211705	3.0580926	1.7487403
30.205381485151097	3.087637	1.7571673
30.22353564432045	3.0668597	1.7512451
30.241690580180403	3.0092583	1.7347214
30.25984629328638	2.96286	1.7212961
30.278002784194037	2.982702	1.7270501
30.296160053459246	2.950249	1.7176288
30.314318101638033	2.927286	1.7109313
30.332476929286646	2.9668748	1.7224618
30.35063653696153	2.9579198	1.7198604
30.368796925219307	2.9532678	1.7185074
30.386958094616844	2.944149	1.7158523
30.40512004571115	2.9045823	1.7042835
30.423282779059463	2.8630915	1.6920673
30.441446295219233	2.9059865	1.7046955
30.459610594748067	2.86118	1.6915023
30.47777567820382	2.8057272	1.6750305
30.495941546144504	2.84302	1.6861258
30.51410819912835	2.789846	1.6702832
30.532275637713795	2.7714043	1.6647536
30.55044386245946	2.8207862	1.6795197
30.56861287392416	2.7915878	1.6708045
30.586782672666956	2.7567313	1.6603407
30.604953259247047	2.7495947	1.6581901
30.623124634223885	2.8280973	1.6816947
30.641296798157075	2.8121562	1.6769484
30.659469751606462	2.6924329	1.6408634
30.677643495132074	2.6377988	1.6241301
30.695818029294152	2.6910415	1.6404394
30.713993354653116	2.7678595	1.6636885
30.73216947176962	2.7462225	1.657173
30.75034638120448	2.726945	1.6513464
30.768524083518756	2.7260673	1.6510806
30.786702579273673	2.712168	1.6468661
30.80488186903069	2.8553982	1.6897924
30.82306195335144	3.0430038	1.7444208
30.841242832797782	3.2213607	1.794815
30.85942450793176	3.486808	1.8672997
30.877606979315637	3.8316262	1.957454
30.895790247511883	4.205015	2.0506134
30.913974313083134	4.718782	2.1722758
30.932159176592283	5.152683	2.269952
30.95034483860237	5.401339	2.324078
30.968531299676698	5.427061	2.3296053
30.98671856037873	5.1875205	2.277613
31.00490662127215	4.8133025	2.193924
31.023095482920848	4.3946013	2.0963304
31.04128514588892	3.8559184	1.9636493
31.059475610740662	3.3093064	1.8191499
31.07766687804056	2.809522	1.6761628
31.09585894835335	2.5111678	1.5846665
31.11405182224393	2.4284992	1.5583643
31.132245500277417	2.4577346	1.5677164
31.15043998301914	2.4524755	1.5660381
31.168635271034628	2.4541156	1.5665617
31.18683136488964	2.50147	1.5816036
31.20502826515008	2.5534139	1.5979406
31.223225972382135	2.4882927	1.5774323
31.241424487152155	2.433455	1.5599536
31.259623810026692	2.322597	1.5240068
31.27782394157253	2.3165436	1.5220196
31.296024882356644	2.3798027	1.542661
31.314226632946237	2.4511156	1.5656039
31.332429193908684	2.4663503	1.5704619
31.350632565811598	2.4160123	1.5543526
31.368836749222787	2.37974	1.5426406
31.387041744710295	2.398481	1.548703
31.40524755284232	2.3687563	1.5390764
31.423454174187317	2.3557868	1.5348573
31.441661609313922	2.3874762	1.545146
31.459869858791002	2.331934	1.5270671
31.478078923187628	2.3092306	1.5196153
31.496288803073064	2.312107	1.5205615
31.514499499016807	2.271993	1.5073131
31.532711011588546	2.291801	1.5138695
31.550923341358178	2.3768075	1.5416898
31.56913648889584	2.4696233	1.5715035
31.587350454771844	2.437784	1.5613405
31.605565239556732	2.356363	1.535045
31.62378084382127	2.3438923	1.5309776
31.641997268136382	2.3304482	1.5265806
31.660214513073274	2.3101873	1.51993
31.67843257920331	2.3540394	1.5342879
31.6966514670981	2.3528798	1.5339099
31.71487117732944	2.2968938	1.5155506
31.733091710469346	2.2205577	1.4901536
31.751313067090052	2.2181668	1.4893512
31.769535247764008	2.2997155	1.5164813
31.787758253063878	2.2757175	1.5085481
31.805982083562526	2.2748504	1.5082607
31.824206739833024	2.2933745	1.5143892
31.84243222244869	2.3494697	1.5327979
31.860658531983013	2.3180165	1.5225034
31.878885669009737	2.2773285	1.509082
31.897113634102784	2.1515076	1.4668019
31.91534242783632	2.1183562	1.4554574
31.933572050784694	2.1641724	1.4711126
31.951802503522508	2.1926687	1.4807663
31.970033786624548	2.1587865	1.469281
31.988265900665834	2.1475441	1.4654502
32.006498846221575	2.1425195	1.4637347
32.02473262386724	2.1842992	1.4779375
32.04296723417845	2.238727	1.4962376
32.0612026777311	2.2524717	1.5008236
32.07943895510129	2.1952355	1.4816327
32.097676066865304	2.1429658	1.4638872
32.115914013599685	2.1429675	1.4638878
32.13415279588115	2.1077652	1.4518144
32.152392414286666	2.0478833	1.4310427
32.1706328693934	2.0748541	1.4404354
32.18887416177875	2.15109	1.4666594
32.20711629202032	2.1647441	1.4713069
32.225359260695924	2.1461785	1.4649842
32.243603068383614	2.1694453	1.4729037
32.26184771566166	2.081782	1.4428382
32.28009320310852	1.9692883	1.4033134
32.2983395313029	1.9740639	1.4050138
32.31658670082372	2.0455751	1.4302361
32.33483471225012	2.130559	1.4596435
32.35308356616143	2.1475072	1.4654375
32.371333263137245	2.1390462	1.4625479
32.38958380375734	2.1650245	1.4714023
32.407835188601744	2.1730506	1.474127
32.42608741825067	2.12435	1.457515
32.444340493284585	2.0815446	1.4427559
32.46259441428416	2.0292122	1.4245042
32.48084918183028	2.045186	1.4301
32.49910479650405	1.9875515	1.4098054
32.51736125888683	1.9320512	1.3899825
32.53561856956014	2.0072875	1.4167877
32.5538767291058	2.0748692	1.4404407
32.572135738105764	2.0669444	1.4376872
32.59039559714228	1.9526291	1.3973651
32.608656306797776	1.9408213	1.3931336
32.62691786765491	1.9475594	1.3955499
32.645180280296586	2.013522	1.4189862
32.663443545305896	2.0757408	1.4407431
32.68170766326619	2.0424778	1.4291528
32.69997263476099	1.9749366	1.4053243
32.7182384603741	1.9401878	1.3929062
32.7365051406895	1.9296489	1.3891181
32.75477267629144	1.8953847	1.3767297
32.77304106776434	1.9470555	1.3953693
32.79131031569289	1.9623785	1.4008492
32.809580420661966	1.9972887	1.4132546
32.827851383256714	1.9488641	1.3960172
32.84612320406245	1.9672037	1.4025704
32.86439588366476	2.0189717	1.4209052
32.88266942264945	1.9874173	1.4097579
32.9009438216025	1.9346364	1.390912
32.9192190811102	1.925561	1.3876458
32.937495201758985	1.9368681	1.3917141
32.95577218413556	2.0298374	1.4247236
32.974050028826866	2.0352948	1.4266375
32.992328736420035	1.9296532	1.3891196
33.010608307502444	1.891047	1.3751534
33.02888874266169	1.8776954	1.3702903
33.047170042485604	1.8684047	1.366896
33.06545220756225	1.9083654	1.381436
33.083735238479896	1.9876311	1.4098337
33.10201913582707	2.005146	1.4160318
33.12030390019248	2.0229738	1.4223129
33.138589532165135	2.027376	1.4238595
33.15687603233419	1.966608	1.402358
33.17516340128909	1.9015005	1.378949
33.19345163961947	1.9000094	1.3784083
33.211740747915215	2.001767	1.4148381
33.23003072676643	2.0865943	1.4445049
33.248321576763466	2.0705092	1.4389265
33.266613298496885	2.0260458	1.4233924
33.28490589255747	1.9596729	1.3998832
33.30319935953626	2.0204504	1.4214255
33.32149370002451	2.0684853	1.438223
33.339788914613706	2.0444674	1.4298488
33.358085003895575	1.9483426	1.3958304
33.376381968462034	1.9973063	1.4132609
33.39467980890529	1.9690915	1.4032432
33.41297852581774	1.979092	1.406802
33.43127811979204	2.1069984	1.4515504
33.44957859142105	2.1790123	1.4761478
33.467879941297866	2.1449277	1.4645572
33.486182170015844	2.012892	1.4187642
33.50448527816853	1.9348329	1.3909827
33.522789266349754	1.9687562	1.4031237
33.541094135153514	1.9268965	1.388127
33.55939988517411	1.8914094	1.3752851
33.57770651700602	1.8613237	1.3643034
33.59601403124398	1.8444159	1.3580928
33.61432242848296	1.8724667	1.368381
33.632631709318154	1.9858031	1.4091853
33.650941874344994	2.0838153	1.4435426
33.66925292415916	2.0922315	1.4464548
33.68756485935654	2.002551	1.4151152
33.70587768053328	1.9618357	1.4006555
33.724191388285746	2.0079978	1.4170383
33.74250598321054	1.8972006	1.3773891
33.760821465904506	1.8084754	1.3447957
33.77913783696474	1.9408618	1.3931482
33.79745509698852	2.0687995	1.4383322
33.815773246573414	2.0225751	1.4221727
33.8340922863172	1.9821417	1.4078856
33.852412216817896	1.9580747	1.3993123
33.87073303867377	1.8981652	1.3777392
33.889054752483304	1.8203158	1.3491908
33.907377358845245	1.8561602	1.3624097
33.92570085835853	1.9859272	1.4092293
33.94402525162239	1.9555086	1.3983951
33.96235053923627	1.9046899	1.380105
33.980676721799824	1.9384667	1.3922883
33.999003799912984	1.8884112	1.3741947
34.01733177417592	1.7773483	1.3331723
34.03566064518901	1.7733127	1.3316579
34.0539904135529	1.8486966	1.3596678
34.07232107986846	1.8617235	1.3644499
34.090652644736785	1.8391644	1.3561579
34.108985108759235	1.8684906	1.3669274
34.12731847253742	1.9164249	1.38435
34.14565273667313	2.0272155	1.4238032
34.16398790176847	2.019933	1.4212434
34.18232396842574	1.9189371	1.385257
34.20066093724749	1.9422649	1.3936516
34.21899880883651	1.9959013	1.4127637
34.23733758379583	1.9053179	1.3803326
34.25567726272874	1.8632156	1.3649966
34.27401784623872	1.8142561	1.3469433
34.29235933492957	1.8545132	1.3618051
34.31070172940526	1.918684	1.3851657
34.32904503027003	1.8867942	1.3736063
34.347389238128386	1.9034089	1.3796408
34.36573435358502	1.9235486	1.3869206
34.38408037724492	1.8042966	1.3432411
34.402427309713296	1.8050952	1.3435383
34.42077515159559	1.9231641	1.3867819
34.43912390349752	2.0623746	1.436097
34.45747356602499	2.0894876	1.445506
34.47582413978423	2.0894988	1.4455099
34.49417562538163	2.079387	1.4420079
34.51252802342388	1.9898511	1.4106208
34.53088133451789	1.8050041	1.3435044
34.54923555927084	1.7453089	1.3211014
34.567590698290104	1.8456328	1.3585407
34.58594675218336	1.9488698	1.3960192
34.6043037215585	1.9010745	1.3787946
34.62266160702365	1.9627655	1.4009873
34.641020409187234	1.8572406	1.3628061
34.65938012865785	1.7733966	1.3316894
34.677740766044394	1.9441575	1.3943305
34.69610232195598	2.0757685	1.4407527
34.714464797002016	1.8808432	1.3714384
34.73282819179208	1.8184401	1.3484955
34.751192506936064	1.8620498	1.3645694
34.76955774304408	2.1077821	1.4518203
34.7879239007265	2.202059	1.4839337
34.80629098059391	2.1875074	1.4790225
34.824658983257194	2.2064605	1.4854159
34.843027909327446	2.1252682	1.45783
34.86139775941603	1.8065019	1.3440617
34.879768534134534	1.7900562	1.3379298
34.89814023409483	1.9849634	1.4088873
34.91651285990901	2.131346	1.459913
34.93488641218944	1.9161007	1.3842329
34.95326089154871	1.7730554	1.3315613
34.97163629859967	1.9003578	1.3785347
34.99001263395542	2.053034	1.4328413
35.00838989822934	2.1024334	1.449977
35.02676809203499	2.1344614	1.4609796
35.04514721598624	1.9822575	1.4079267
35.063527270697215	1.8640132	1.3652887
35.081908256782256	1.9579189	1.3992566
35.10029017485597	1.8185188	1.3485247
35.11867302553321	1.7482301	1.3222065
35.137056809429104	2.0769897	1.4411765
35.155441527159006	2.256967	1.5023205
35.173827179338524	2.0932715	1.4468143
35.19221376658354	2.045617	1.4302508
35.21060128951017	2.1884372	1.4793367
35.2289897487348	2.345236	1.5314164
35.24737914487405	2.1868305	1.4787936
35.26576947854479	2.095314	1.4475199
35.28416075036418	2.1583035	1.4691166
35.30255296094958	2.0515938	1.4323386
35.32094611091867	2.0010817	1.414596
35.33934020088932	1.9320748	1.3899909
35.35773523147969	1.8466393	1.358911
35.3761312033082	1.8888272	1.3743461
35.394528116993506	1.8778055	1.3703305
35.41292597315452	1.7643661	1.3282944
35.431324772410434	1.7002027	1.3039182
35.449724515380666	1.6750468	1.294236
35.46812520268491	1.9208353	1.385942
35.486526834943106	2.4507976	1.5655023
35.504929412775454	2.476278	1.5736194
35.52333293680242	2.0534773	1.4329959
35.54173740764471	2.247284	1.4990944
35.560142825923286	2.2868373	1.5122292
35.5785491922594	1.9453934	1.3947736
35.59695650727454	1.7720467	1.3311825
35.61536477159042	1.8569168	1.3626873
