0.008763373481513119	0.051685803	0.22734512
0.026290120649546365	0.47682703	0.6905266
0.043816868432600686	0.43501323	0.6595553
0.06134361724069026	0.3416789	0.58453304
0.07887036748382949	0.20177679	0.4491957
0.0963971195720331	0.15968022	0.39960006
0.11392387391531617	0.1307115	0.36154044
0.1314506309236943	0.13156167	0.3627143
0.1489773910071836	0.18970683	0.4355535
0.16650415457580078	0.18703438	0.43247473
0.18403092203956356	0.17570026	0.41916615
0.20155769380849	0.13780825	0.37122533
0.2190844702925996	0.11117428	0.33342808
0.2366112519019124	0.13160105	0.3627686
0.2541380390464497	0.1002895	0.31668517
0.27166483213623416	0.11575855	0.3402331
0.28919163158128947	0.17561135	0.41906008
0.3067184377916406	0.20707934	0.4550597
0.324245251177314	0.16616832	0.40763748
0.34177207214833777	0.14899014	0.3859924
0.3592989011147415	0.20039076	0.44765025
0.37682573848655654	0.21005706	0.45831984
0.39435258467381573	0.21388625	0.46247837
0.41187944008655414	0.18938231	0.43518078
0.42940630513480854	0.14539348	0.38130495
0.446933180228618	0.14452907	0.3801698
0.4644600657780234	0.15253429	0.3905564
0.48198696219306775	0.2041789	0.4518616
0.49951386988379676	0.20250678	0.45000753
0.5170407892602581	0.14993234	0.38721097
0.5345677207325025	0.11398154	0.33761153
0.5520946647105822	0.15722135	0.39651147
0.5696216216045534	0.20612212	0.45400673
0.5871485918244737	0.2109556	0.45929903
0.6046755757804043	0.15819333	0.39773527
0.6222025738824094	0.11638278	0.3411492
0.6397295865405557	0.12444872	0.3527729
0.6572566141649129	0.13243341	0.363914
0.6747836571655547	0.17612518	0.4196727
0.6923107159525568	0.14740153	0.38392907
0.7098377909359992	0.12878555	0.35886705
0.7273648825259653	0.12698273	0.35634637
0.7448919911325411	0.198083	0.44506517
0.762419117165817	0.23773779	0.48758364
0.7799462610358868	0.19960378	0.4467704
0.7974734231528482	0.19311	0.43944284
0.8150006039268024	0.1716322	0.41428518
0.8325278037678551	0.19129893	0.43737733
0.8500550230861152	0.19765349	0.44458237
0.8675822622916969	0.20082112	0.4481307
0.8851095217947171	0.20693943	0.45490596
0.9026368020052984	0.22818287	0.47768492
0.9201641033335665	0.23824242	0.48810083
0.9376914261896523	0.24833947	0.4983367
0.9552187709836915	0.24454314	0.49451303
0.9727461381258234	0.24374561	0.493706
0.990273528026193	0.26324004	0.5130692
1.0078009410949496	0.23380698	0.48353592
1.0253283777422473	0.2556099	0.50557876
1.0428558383782454	0.28123724	0.5303181
1.0603833234131086	0.28474748	0.5336174
1.0779108332570058	0.31184307	0.5584291
1.0954383683201119	0.34126273	0.58417696
1.112965929012607	0.38356593	0.619327
1.1304935157446763	0.4993703	0.7066614
1.1480211289265108	0.5253917	0.7248391
1.1655487689683062	1.3440174	1.1593176
1.1830764362802655	1.6527346	1.2855873
1.200604131272596	2.0314333	1.4252836
1.2181318543555117	2.3559976	1.5349259
1.235659605939232	2.4066541	1.5513395
1.253187386433982	3.9764843	1.9941124
1.270715196249994	6.3552804	2.5209682
1.2882430357975057	11.6812105	3.4177785
1.3057709054867608	16.44895	4.0557303
1.3232988057280106	22.337992	4.7263083
1.3408267369315112	27.425447	5.2369313
1.358354699507526	31.058283	5.5729957
1.3758826938663256	34.870083	5.9050894
1.3934107204181858	36.323147	6.026869
1.410938779573391	36.61605	6.05112
1.4284668717422309	37.373833	6.1134143
1.4459949973350033	37.360737	6.112343
1.4635231567620117	37.55439	6.128164
1.4810513504335687	36.72029	6.059727
1.4985795787599925	35.976063	5.998005
1.5161078421516088	35.19356	5.932416
1.5336361410187505	34.66235	5.887474
1.5511644757717598	34.68561	5.889449
1.5686928468209842	35.441616	5.953286
1.58622125457678	36.116974	6.00974
1.6037496994495108	37.595234	6.1314955
1.621278181849548	37.60389	6.132201
1.6388067021872719	38.229313	6.182986
1.6563352608730693	37.54347	6.1272726
1.673863858317336	36.579155	6.0480704
1.6913924949304753	35.981354	5.998446
1.7089211711228998	34.83249	5.9019055
1.7264498873050296	33.87737	5.820427
1.7439786438872935	32.87667	5.733818
1.7615074412801288	31.75294	5.6349745
1.779036279893981	30.846378	5.5539517
1.796565160139305	29.77755	5.456881
1.814094082426564	29.515007	5.4327717
1.8316230471662298	29.402191	5.4223785
1.849152054768784	28.76568	5.3633647
1.8666811056447168	28.114752	5.302335
1.8842102002045273	27.266386	5.2217226
1.901739338858724	26.584717	5.156037
1.9192685220178245	25.797295	5.079104
1.9367977500923557	24.791813	4.979138
1.9543270234928547	24.218353	4.9212146
1.971856342629867	23.628454	4.860911
1.9893857079139496	23.31727	4.828796
2.006915119755667	23.130743	4.809443
2.0244445785655945	22.764711	4.771238
2.0419740847543175	22.483774	4.741706
2.0595036387324317	21.578377	4.645253
2.0770332409105414	20.95377	4.577529
2.094562891699263	20.283537	4.5037246
2.1120925915092217	19.953503	4.466934
2.129622340751053	19.673748	4.4355097
2.1471521398354043	188.08084	13.714257
2.1646819891729323	444.6521	21.086775
2.182211889174303	440.80475	20.99535
2.1997418402501974	452.9868	21.283485
2.2172718428113023	432.8487	20.805016
2.234801897268317	320.7841	17.910446
2.2523320040319548	17.395653	4.1708097
2.269862163512935	17.008043	4.124081
2.287392376121992	16.715235	4.088427
2.304922642269869	16.470884	4.0584335
2.322452962367322	16.107595	4.013427
2.3399833368251164	15.807079	3.9758117
2.357513766054032	15.519444	3.9394727
2.3750442504648586	15.174821	3.8954873
2.3925747904683963	14.860682	3.8549554
2.410105386475459	14.600903	3.8211126
2.4276360388968707	14.186079	3.766441
2.445166748143469	13.971073	3.7377899
2.4626975146261025	13.59454	3.6870773
2.4802283387556323	13.314033	3.64884
2.4977592209429305	13.096279	3.6188781
2.5152901615988825	12.828859	3.5817397
2.5328211611343865	12.631889	3.554137
2.5503522199603523	12.399932	3.5213537
2.5678833384877024	12.435173	3.526354
2.5854145171273712	12.348327	3.5140185
2.6029457562903064	12.188762	3.4912407
2.620477056387469	11.794819	3.4343586
2.6380084178298326	11.702366	3.4208722
2.655539841028383	11.493833	3.3902555
2.673071326394119	11.373647	3.3724837
2.6906028743380523	11.115783	3.334034
2.708134485271211	10.913935	3.3036244
2.7256661596046325	10.905328	3.3023217
2.743197897749369	10.607063	3.2568486
2.760729700116486	10.483223	3.2377806
2.778261567117063	10.384904	3.2225616
2.795793499162193	10.280176	3.2062714
2.8133254966629817	10.118896	3.1810212
2.830857560030551	10.023488	3.1659892
2.8483896896760337	9.9083	3.1477454
2.865921886010578	9.794848	3.1296723
2.883454149445347	9.633169	3.1037347
2.9009864803915177	9.391134	3.0644958
2.91851887926028	9.226294	3.0374815
2.9360513464628384	9.24595	3.0407152
2.953583882410413	9.178878	3.0296662
2.9711164875142373	9.026284	3.0043776
2.9886491621855606	8.787736	2.9644115
3.0061819068356455	8.4988575	2.91528
3.023714721875769	8.352665	2.8900979
3.041247607717225	8.244162	2.8712647
3.0587805647713213	8.090482	2.8443773
3.0763135934493806	7.9332232	2.8165977
3.0938466941627407	7.914656	2.8133
3.1113798673227544	7.910353	2.812535
3.1289131133407904	7.9025683	2.8111508
3.1464464326282315	7.7750187	2.788372
3.1639798255964786	7.5301156	2.7441056
3.1815132926569443	7.5104766	2.7405248
3.1990468342210603	7.4576087	2.7308624
3.216580450700272	7.472815	2.733645
3.2341141425060416	7.45127	2.7297015
3.251647910049847	7.3607755	2.713075
3.2691817537431813	7.2721033	2.6966836
3.286715673997555	7.1648088	2.676716
3.3042496712244938	7.049269	2.655046
3.32178374583554	6.9954147	2.6448846
3.339317898242251	6.938457	2.6340952
3.3568521288562034	6.9118233	2.6290348
3.3743864380889876	6.7775826	2.603379
3.3919208263522127	6.6787605	2.5843298
3.4094552940575023	6.5236654	2.5541468
3.4269898416164972	6.545642	2.5584452
3.444524469440858	6.451986	2.540076
3.4620591779422587	6.432024	2.5361435
3.479593967532391	6.4650607	2.5426483
3.4971288386229658	6.3818183	2.526226
3.5146637916257086	6.480999	2.5457807
3.5321988269523628	6.308025	2.511578
3.5497339450146903	6.2120237	2.4923933
3.5672691462244708	6.1720815	2.4843674
3.5848044309934988	6.1615844	2.4822538
3.60233979973359	6.222008	2.4943953
3.619875252856575	6.219679	2.4939284
3.6374107907743034	6.2989516	2.5097713
3.6549464138986427	6.3462005	2.5191667
3.6724821226414788	6.3553896	2.52099
3.690017917414714	6.315201	2.5130062
3.7075537986302702	6.4079723	2.5313973
3.7250897667000857	6.507088	2.5508995
3.7426258220361235	6.551489	2.5595877
3.7601619650503553	6.7178316	2.591878
3.777698196154779	7.200535	2.6833813
3.7952345157614067	8.359399	2.8912625
3.8127709242822716	9.185059	3.0306861
3.830307422129425	11.485807	3.3890717
3.847844009714936	30.285946	5.503267
3.8653806874508954	97.86416	9.892632
3.882917455749409	97.105835	9.854229
3.900454315022606	96.89277	9.843412
3.917991265682631	41.42512	6.436235
3.9355283081416506	11.048308	3.3238995
3.9530654428118495	8.840657	2.9733243
3.970602670105433	7.5541587	2.748483
3.9881399904346244	6.613088	2.5715926
4.005677404211669	6.365569	2.5230079
4.023214911848827	6.308635	2.5116997
4.0407525137583855	6.397393	2.529307
4.058290210352644	6.3895745	2.5277607
4.075828002043927	6.3630333	2.5225053
4.0933658892445814	6.2763963	2.5052736
4.110903872366966	6.298294	2.5096402
4.128441951823468	6.3344693	2.5168371
4.145980128026488	6.277322	2.5054584
4.163518401388452	6.116126	2.4730804
4.181056772321807	6.086144	2.4670112
4.1985952412390155	6.0846562	2.4667096
4.216133808552567	6.1552663	2.4809809
4.233672474674966	6.272131	2.5044222
4.251211240018741	6.502043	2.5499103
4.268750104996445	6.703092	2.5890331
4.286289070020643	7.624653	2.7612774
4.303828135503928	9.227638	3.0377028
4.3213673018589125	29.465397	5.428204
4.3389065694982305	90.61393	9.5191345
4.356445938834537	165.87825	12.879373
4.3739854102805085	171.64896	13.101487
4.391524984248844	172.56473	13.13639
4.409064661152262	136.68172	11.691095
4.426604441403504	96.87072	9.842293
4.444144325415337	75.89868	8.711985
4.461684313600543	21.836344	4.6729374
4.47922440637193	22.360601	4.7286997
4.496764604142329	20.564672	4.5348287
4.5143049073245916	18.877787	4.3448577
4.531845316331589	16.814445	4.100542
4.5493858315762195	13.885673	3.7263484
4.566926453471405	11.535381	3.3963776
4.584467182430081	9.402806	3.0663996
4.602008018865218	8.249014	2.8721097
4.619548963189798	7.5072794	2.7399416
4.637090015816834	6.929619	2.632417
4.654631177159353	6.7222505	2.5927303
4.672172447630417	6.4036884	2.530551
4.689713827643102	6.2371073	2.49742
4.7072553176105085	6.057126	2.461123
4.724796917945764	6.0650253	2.4627273
4.742338629062015	6.0069904	2.4509163
4.759880451372434	5.8279448	2.4141138
4.777422385290215	5.59882	2.3661826
4.794964431228581	5.52284	2.3500724
4.812506589600768	5.568778	2.3598258
4.830048860820047	5.614288	2.369449
4.847591245299709	5.5958624	2.3655574
4.8651337434530655	5.581105	2.3624363
4.882676355693457	5.539033	2.353515
4.900219082434242	5.5283337	2.3512409
4.917761924088813	5.53468	2.35259
4.935304881070575	5.5359974	2.35287
4.952847953792969	5.50045	2.3453038
4.970391142669449	5.4237165	2.3288875
4.9879344481135055	5.3499484	2.3129954
5.005477870538642	5.3160353	2.3056529
5.023021410358394	5.483698	2.3417296
5.040565067986324	5.5101047	2.3473613
5.05810884383601	5.4680915	2.338395
5.075652738321066	5.432309	2.3307314
5.09319675185512	5.3591127	2.3149757
5.110740884851836	5.3864064	2.3208632
5.128285137724894	5.447143	2.3339117
5.145829510888007	5.4572563	2.3360772
5.163374004754908	5.4571223	2.3360484
5.1809186197393595	5.321466	2.3068302
5.198463356255145	5.29056	2.3001218
5.216008214716077	5.2034125	2.281099
5.233553195535998	5.1923203	2.2786663
5.251098299128764	5.1737146	2.27458
5.268643525908272	5.225634	2.2859645
5.286188876288432	5.242997	2.2897592
5.3037343506831895	5.30274	2.302768
5.32127994950651	5.223922	2.28559
5.3388256731723915	5.2417736	2.289492
5.356371522094851	5.1893754	2.2780201
5.373917496687938	5.1749563	2.274853
5.391463597365729	5.2425003	2.2896507
5.40900982454232	5.2019496	2.2807782
5.426556178631843	5.1872587	2.2775555
5.444102660048449	5.1626124	2.2721384
5.4616492692063225	5.2205524	2.2848527
5.479196006519669	5.2566633	2.2927415
5.496742872402727	5.336998	2.3101943
5.514289867269756	5.240455	2.2892041
5.531836991535049	5.247451	2.2907314
5.549384245612924	5.158246	2.2711773
5.566931629917724	5.1933193	2.2788856
5.584479144863822	5.2109256	2.2827451
5.6020267908656205	5.2479715	2.2908452
5.619574568337545	5.2033978	2.2810957
5.637122477694054	5.1404223	2.26725
5.654670519349629	5.0829725	2.254545
5.672218693718784	5.068086	2.251241
5.689767001216059	5.131651	2.2653148
5.707315442256021	5.096142	2.2574637
5.724864017253266	5.050737	2.2473845
5.7424127266224225	5.0585933	2.2491317
5.75996157077814	5.0885224	2.2557755
5.777510550135105	5.174955	2.2748528
5.795059665108022	5.1517773	2.2697527
5.812608916111639	5.1356874	2.2662055
5.830158303560715	5.240955	2.289313
5.847707827870055	5.2956595	2.30123
5.86525748945448	5.3089943	2.3041255
5.8828072887288485	5.442746	2.3329694
5.900357226108044	5.5003815	2.3452892
5.917907302006979	5.7032146	2.3881404
5.9354575168406	6.294216	2.5088277
5.9530078710238765	6.873091	2.621658
5.970558364971812	7.400347	2.720358
5.988108999099438	7.711369	2.776935
6.005659773821818	8.173965	2.8590147
6.023210689554039	7.926267	2.8153627
6.040761746711227	8.362315	2.8917668
6.058312945708531	7.7558336	2.7849298
6.075864286961132	7.27088	2.696457
6.093415770884244	6.585245	2.5661733
6.1109673978931065	5.971041	2.4435713
6.128519168402993	5.411245	2.3262084
6.146071082829204	5.3385406	2.3105283
6.163623141587075	5.2827725	2.2984283
6.181175345091969	5.261722	2.2938445
6.198727693759281	5.2657814	2.294729
6.216280188004435	5.254438	2.292256
6.233832828242885	5.2626877	2.2940547
6.251385614890126	5.270341	2.2957222
6.268938548361669	5.2098203	2.2825031
6.286491629073067	5.0667567	2.2509458
6.304044857439898	5.083023	2.2545562
6.321598233877777	5.023645	2.241349
6.339151758802344	5.0354004	2.2439697
6.356705432629277	5.027463	2.2422004
6.37425925577428	4.9928117	2.23446
6.391813228653095	4.999299	2.2359111
6.409367351681486	5.014663	2.2393444
6.426921625275259	5.0438123	2.2458434
6.44447604985025	5.030606	2.242901
6.46203062582232	5.0370493	2.244337
6.47958535360737	5.0554934	2.2484424
6.497140233621328	5.0277276	2.2422595
6.514695266280161	5.012381	2.2388349
6.532250451999859	5.028739	2.242485
6.549805791196454	5.0960655	2.2574468
6.567361284286002	5.093969	2.2569823
6.584916931684597	5.077159	2.2532551
6.602472733808367	5.020231	2.2405872
6.6200286910734665	5.0167823	2.2398174
6.637584803896092	4.9968047	2.2353535
6.655141072692462	5.015511	2.2395337
6.672697497878842	5.00602	2.2374136
6.690254079871514	5.0266633	2.242022
6.707810819086808	5.071605	2.2520225
6.725367715941078	5.092575	2.2566733
6.742924770850719	5.0491304	2.247027
6.760481984232151	5.0289564	2.2425334
6.778039356501836	5.020211	2.2405827
6.795596888076266	5.0094376	2.2381773
6.813154579371963	5.0176725	2.2400162
6.830712430805492	4.970779	2.2295244
6.84827044279344	4.9682775	2.2289634
6.865828615752445	4.96145	2.2274313
6.883386950099159	4.967095	2.228698
6.900945446250287	4.9751377	2.2305017
6.918504104622553	4.981965	2.2320316
6.936062925632727	4.9989014	2.2358222
6.953621909697607	5.0199485	2.240524
6.971181057234028	5.0653563	2.2506347
6.988740368658859	5.1368504	2.266462
7.006299844389007	5.1835732	2.2767463
7.023859484841407	5.206485	2.2817724
7.041419290433036	5.2924485	2.3005323
7.058979261580902	5.3852196	2.3206077
7.0765393987020495	5.584054	2.3630602
7.094099702213559	5.9577365	2.4408474
7.111660172532549	6.3989725	2.529619
7.129220810076164	6.8354273	2.614465
7.146781615261595	7.4697714	2.7330883
7.16434258850606	7.5675707	2.7509217
7.181903730226821	8.024412	2.8327394
7.1994650408411704	8.163247	2.8571396
7.217026520766437	8.323741	2.8850894
7.234588170419983	8.567638	2.9270527
7.252149990219215	8.583742	2.9298024
7.269711980581568	8.499551	2.9153988
7.2872741419245175	8.26171	2.874319
7.304836474665574	7.795534	2.7920485
7.322398979222286	7.4304066	2.7258773
7.339961656012233	7.178443	2.6792617
7.357524505453039	6.854225	2.6180575
7.375087527962357	6.5793285	2.56502
7.392650723957886	6.282802	2.5065517
7.410214093857353	5.9888873	2.4472203
7.427777638078528	5.749881	2.3978908
7.445341357039213	5.6014647	2.3667414
7.4629052511572525	5.4713955	2.3391013
7.480469320850524	5.377858	2.319021
7.498033566536948	5.3470206	2.3123627
7.5155979886344735	5.318223	2.3061273
7.5331625875610975	5.280528	2.29794
7.550727363734844	5.21611	2.2838805
7.568292317573788	5.206711	2.2818217
7.585857449496025	5.149158	2.2691755
7.603422759919705	5.101561	2.2586637
7.620988249263007	5.054978	2.2483277
7.638553917944147	5.0750327	2.2527833
7.656119766381391	5.122758	2.263351
7.673685794993023	5.18867	2.2778652
7.691252004197388	5.2210927	2.284971
7.70881839441285	5.200992	2.2805684
7.726384966057826	5.1348596	2.266023
7.743951719550762	5.146843	2.2686656
7.761518655310149	5.210582	2.2826698
7.779085773754511	5.3006516	2.3023143
7.796653075302419	5.359852	2.3151355
7.814220560372475	5.405665	2.3250086
7.831788229383323	5.39923	2.3236244
7.8493560827536495	5.432622	2.3307986
7.866924120902174	5.4187174	2.3278139
7.884492344247663	5.42087	2.3282762
7.9020607532089135	5.4262676	2.329435
7.919629348204771	5.3683133	2.316962
7.937198129654115	5.3500247	2.3130121
7.954767097975865	5.3474083	2.3124464
7.972336253588986	5.421931	2.328504
7.989905596912472	5.435567	2.3314302
8.007475128365371	5.4383254	2.3320217
8.025044848366756	5.4514356	2.334831
8.042614757335754	5.5064545	2.3465836
8.060184855691523	5.6290865	2.3725696
8.07775514385327	5.767928	2.4016511
8.095325622240228	5.852575	2.4192095
8.112896291271687	5.8431435	2.4172595
8.130467151366968	5.902896	2.4295876
8.148038202945436	5.9325256	2.4356778
8.165609446426497	5.936962	2.4365883
8.183180882229594	5.981472	2.4457047
8.200752510774217	5.9736996	2.4441154
8.218324332479893	5.996801	2.4488366
8.235896347766193	5.969884	2.4433346
8.253468557052724	5.9958677	2.448646
8.27104096075914	5.97345	2.4440644
8.288613559305137	5.983037	2.4460247
8.306186353110448	6.103277	2.4704812
8.32375934259485	6.230644	2.496126
8.341332528178162	6.347209	2.5193667
8.358905910280246	6.333623	2.516669
8.376479489321003	6.300341	2.5100482
8.394053265720377	6.3296843	2.5158863
8.411627239898356	6.297031	2.5093884
8.42920141227497	6.2460876	2.4992173
8.44677578327029	6.189349	2.4878402
8.464350353304427	6.15047	2.480014
8.48192512279754	6.080766	2.465921
8.499500092169827	6.076081	2.4649708
8.51707526184153	6.1089797	2.471635
8.534650632232934	6.201792	2.4903398
8.552226203764365	6.216968	2.4933848
8.569801976856192	6.2438307	2.498766
8.587377951928834	6.2842426	2.5068393
8.60495412940274	6.295718	2.509127
8.622530509698416	6.353817	2.5206778
8.6401070932364	6.4590755	2.541471
8.657683880437283	6.6119065	2.5713627
8.675260871721695	6.7935514	2.6064441
8.692838067510303	6.885448	2.6240137
8.710415468223834	6.9787226	2.6417272
8.727993074283043	7.0799093	2.66081
8.745570886108737	7.0803714	2.6608968
8.763148904121765	7.1385837	2.6718128
8.78072712874302	7.126344	2.6695213
8.798305560393441	7.421579	2.7242575
8.815884199494006	7.619282	2.7603047
8.833463046465745	7.8203673	2.7964919
8.851042101729728	7.9317217	2.8163311
8.86862136570707	8.185014	2.8609464
8.886200838818924	8.334058	2.8868768
8.903780521486505	8.383202	2.895376
8.921360414131055	8.483223	2.9125972
8.938940517173874	8.620836	2.936126
8.956520831036297	8.779738	2.9630623
8.97410135613971	9.03439	3.0057263
8.99168209290554	9.215984	3.035784
9.009263041755265	9.456272	3.0751052
9.026844203110405	9.724094	3.1183481
9.044425577392525	9.843371	3.1374147
9.062007165023239	9.905617	3.147319
9.079588966424197	10.178364	3.1903548
9.097170982017108	10.369129	3.2201133
9.11475321222372	11.45418	3.3844025
9.132335657465825	12.283904	3.5048401
9.149918318165264	12.320894	3.5101132
9.167501194743924	12.864766	3.5867486
9.18508428762374	12.547651	3.5422664
9.202667597226693	12.572604	3.5457869
9.220251123974803	12.139382	3.4841616
9.237834868290143	11.861085	3.4439926
9.255418830594836	11.587805	3.4040866
9.273003011311046	11.110109	3.333183
9.290587410860985	10.977372	3.3132117
9.308172029666911	10.489344	3.2387257
9.32575686815113	10.277353	3.205831
9.343341926735997	8.844584	2.9739847
9.360927205843916	8.568568	2.9272118
9.378512705897327	8.39533	2.8974698
9.396098427318728	8.292972	2.879752
9.413684370530664	8.198999	2.8633895
9.431270535955722	8.064098	2.8397355
9.448856924016539	7.9382057	2.8174822
9.466443535135806	7.795227	2.7919934
9.484030369736251	7.6656585	2.7686925
9.501617428240658	7.627935	2.7618716
9.519204711071852	7.572926	2.751895
9.536792218652714	7.6953044	2.7740412
9.55437995140617	7.708354	2.7763922
9.571967909755191	7.7717013	2.7877772
9.589556094122802	7.841055	2.8001883
9.60714450493207	7.9204116	2.8143225
9.624733142606116	7.937847	2.8174186
9.642322007568108	7.9394336	2.8177001
9.659911100241267	7.9173837	2.8137846
9.677500421048851	7.9556103	2.820569
9.695089970414175	8.000707	2.828552
9.712679748760609	8.068378	2.8404891
9.730269756511557	8.054715	2.838083
9.747859994090492	8.108903	2.8476136
9.765450461920915	8.114967	2.848678
9.78304116042639	8.204118	2.864283
9.800632090030527	8.254158	2.8730052
9.81822325115699	8.357772	2.8909812
9.835814644229481	8.347421	2.8891904
9.853406269671762	8.3451395	2.8887956
9.870998127907646	8.280916	2.8776581
9.888590219360985	8.2319355	2.869135
9.906182544455698	8.255271	2.8731987
9.923775103615734	8.250586	2.8723834
9.941367897265108	8.184792	2.8609076
9.958960925827878	8.203176	2.8641186
9.97655418972816	8.240815	2.870682
9.994147689390106	8.303758	2.8816242
10.011741425237934	8.267386	2.8753064
10.029335397695904	8.21661	2.866463
10.04692960718833	8.15628	2.85592
10.06452405413958	8.196019	2.862869
10.082118738974064	8.157682	2.8561656
10.099713662116246	8.179156	2.8599224
10.117308823990651	8.2337475	2.8694508
10.134904225021844	8.182662	2.8605354
10.152499865634445	8.157864	2.8561974
10.170095746253125	8.119871	2.8495388
10.18769186730261	8.108444	2.847533
10.205288229207675	8.091286	2.8445184
10.222884832393145	8.042074	2.835855
10.2404816772839	8.074366	2.8415427
10.258078764304868	8.065235	2.8399358
10.275676093881035	8.148615	2.8545778
10.293273666437438	8.161292	2.8567975
10.310871482399158	8.202229	2.8639534
10.32846954219134	8.208737	2.8650894
10.346067846239173	8.203261	2.8641336
10.363666394967908	8.1878605	2.8614438
10.38126518880283	8.131657	2.851606
10.398864228169298	8.184387	2.8608367
10.416463513492713	8.226163	2.8681288
10.434063045198531	8.2763815	2.8768702
10.451662823712262	8.285356	2.8784294
10.469262849459467	8.260217	2.8740592
10.486863122865758	8.218173	2.8667357
10.504463644356806	8.209817	2.8652778
10.522064414358338	8.073945	2.8414688
10.539665433296118	7.983337	2.82548
10.557266701595987	7.8746934	2.8061883
10.574868219683818	7.789038	2.7908847
10.592469987985552	7.669666	2.769416
10.610072006927185	7.584148	2.7539332
10.627674276934751	7.5066695	2.7398303
10.64527679843435	7.448793	2.7292476
10.662879571852143	7.294996	2.7009249
10.680482597614331	7.1706185	2.6778011
10.698085876147173	7.040283	2.6533532
10.715689407876988	6.8884907	2.6245935
10.733293193230146	6.826555	2.6127677
10.750897232633072	6.86979	2.6210284
10.76850152651225	6.869326	2.62094
10.786106075294207	6.767954	2.6015291
10.803710879405534	6.6530766	2.579356
10.821315939272877	6.4869576	2.5469506
10.83892125532294	6.3882847	2.5275056
10.856526827982472	6.259077	2.5018148
10.874132657678285	6.1953864	2.4890532
10.891738744837243	6.138664	2.4776328
10.909345089886271	6.0958714	2.468982
10.926951693252343	6.0570927	2.461116
10.944558555362494	6.005356	2.4505827
10.96216567664381	5.940152	2.4372427
10.979773057523436	5.874434	2.4237232
10.997380698428573	5.785426	2.4052913
11.014988599786477	5.69644	2.3867216
11.032596762024461	5.625054	2.3717196
11.050205185569892	5.5680585	2.3596735
11.067813870850198	5.5435643	2.3544774
11.085422818292859	5.4786763	2.3406572
11.10303202832541	5.433811	2.3310537
11.120641501375454	5.3698435	2.3172922
11.138251237870636	5.3269353	2.3080153
11.155861238238671	5.318068	2.3060937
11.173471502907317	5.240932	2.289308
11.191082032304402	5.19055	2.2782779
11.208692826857805	5.131123	2.2651982
11.226303886995465	5.030257	2.2428236
11.243915213145371	4.962608	2.2276912
11.261526805735578	4.8784695	2.2087257
11.279138665194196	4.8650355	2.2056825
11.296750791949393	4.844941	2.2011228
11.314363186429393	4.7975945	2.1903412
11.331975849062479	4.698477	2.167597
11.34958878027699	4.661212	2.158984
11.36720198050133	4.672915	2.1616926
11.384815450163948	4.6256876	2.150741
11.402429189693366	4.5081697	2.123245
11.420043199518153	4.4863043	2.1180897
11.437657480066942	63.481277	7.967514
11.455272031768422	85.22149	9.231548
11.472886855051353	107.63959	10.37495
11.490501950344528	99.20396	9.960118
11.508117318076819	84.55197	9.195214
11.52573295867715	45.901855	6.7750907
11.543348872574514	4.1475525	2.036554
11.560965060197946	4.0491934	2.0122607
11.57858152197655	4.0321875	2.0080307
11.59619825833949	4.043476	2.0108397
11.613815269715985	4.0216346	2.0054014
11.631432556535323	38.51111	6.205732
11.649050119226837	83.0302	9.112091
11.666667958219929	93.44292	9.666588
11.68428607394406	107.69868	10.377797
11.701904466828756	82.50732	9.083354
11.719523137303586	65.33733	8.083151
11.737142085798196	4.577149	2.1394272
11.754761312742286	3.7285004	1.9309325
11.772380818565619	3.7324	1.931942
11.790000603698015	3.691962	1.9214479
11.80762066856935	3.6797955	1.9182793
11.825241013609572	3.622154	1.9031957
11.842861639248683	3.580776	1.8922938
11.860482545916748	3.51794	1.8756173
11.878103734043883	3.5149772	1.8748273
11.895725204060282	3.5205584	1.8763151
11.91334695639619	3.4836156	1.8664447
11.930968991481919	3.385191	1.8398888
11.948591309747824	3.2703443	1.8084093
11.966213911624347	3.2601905	1.8055998
11.98383679754198	3.3308043	1.8250492
12.001459967931268	3.3470829	1.8295034
12.019083423222835	3.3300283	1.8248365
12.036707163847352	3.2196875	1.7943487
12.05433119023556	3.156099	1.7765414
12.071955502818259	3.1267853	1.7682718
12.089580102026313	3.1268623	1.7682936
12.107204988290643	3.136901	1.7711298
12.12483016204224	3.1385558	1.7715969
12.142455623712152	3.1011236	1.7610008
12.16008137373149	3.086624	1.756879
12.177707412531431	3.1039102	1.7617917
12.19533374054321	3.1195939	1.7662373
12.212960358198126	3.079064	1.7547262
12.230587265927545	2.994042	1.73033
12.248214464162889	2.9607675	1.7206881
12.265841953335649	2.9354675	1.7133206
12.283469733877375	2.9388797	1.7143161
12.301097806219685	2.9242158	1.7100339
12.31872617079425	2.9170623	1.7079409
12.336354828032825	2.8954294	1.7015961
12.353983778367205	2.907395	1.7051085
12.371613022229262	2.8968742	1.7020206
12.389242560050928	2.89963	1.7028301
12.406872392264201	2.8911905	1.7003502
12.424502519301143	2.9119709	1.7064497
12.442132941593874	2.893592	1.7010561
12.459763659574586	2.8732169	1.6950566
12.477394673675532	2.8059993	1.6751118
12.49502598432903	2.790052	1.6703448
12.51265759196746	2.776119	1.6661689
12.530289497023267	2.8124588	1.6770387
12.547921699928967	2.789246	1.6701037
12.565554201117134	2.758885	1.6609892
12.583187001020404	2.7685556	1.6638978
12.600820100071486	2.770118	1.6643672
12.618453498703152	2.754447	1.6596527
12.636087197348235	2.7491968	1.6580702
12.65372119643964	2.7788806	1.6669974
12.671355496410326	2.781998	1.6679323
12.68899009769333	2.7799602	1.6673212
12.706625000721749	2.8431697	1.6861701
12.724260205928752	2.9443843	1.7159208
12.741895713747551	3.0139117	1.7360622
12.759531524611454	3.0242922	1.7390492
12.777167638953818	2.997482	1.7313238
12.794804057208072	3.0135593	1.7359606
12.812440779807702	3.043119	1.7444538
12.830077807186271	3.2343817	1.7984387
12.847715139777405	3.2690196	1.808043
12.865352778014795	3.4782197	1.8649986
12.882990722332197	3.5602355	1.8868586
12.90062897316344	3.6030657	1.8981743
12.918267530942412	3.650499	1.910628
12.935906396103071	3.4978452	1.8702527
12.953545569079449	3.6949062	1.9222139
12.971185050305628	3.5335686	1.8797789
12.988824840215775	3.588498	1.8943331
13.006464939244115	3.609454	1.8998563
13.024105347824943	3.4817424	1.8659427
13.041746066392617	3.570728	1.889637
13.05938709538157	3.3543346	1.8314843
13.077028435226296	3.3921475	1.8417784
13.094670086361363	3.3102117	1.8193988
13.112312049221401	3.2215593	1.7948703
13.129954324241112	3.120908	1.7666092
13.147596911855258	2.9463341	1.7164888
13.165239812498685	2.8986201	1.7025335
13.182883026606293	2.8283434	1.681768
13.200526554613058	2.756474	1.6602632
13.218170396954017	2.770114	1.6643659
13.235814554064284	2.766515	1.6632844
13.253459026379034	2.7532072	1.6592791
13.271103814333523	2.6970818	1.6422795
13.288748918363058	2.6929495	1.6410209
13.306394338903031	2.6803281	1.6371708
13.32404007638889	2.6769965	1.636153
13.341686131256164	2.6748059	1.6354834
13.359332503940449	2.6406064	1.6249943
13.376979194877402	2.644765	1.6262733
13.394626204502751	2.6701794	1.6340684
13.412273533252307	2.684563	1.6384636
13.429921181561937	2.7254257	1.6508863
13.447569149867581	2.7749221	1.6658098
13.465217438605247	2.8105283	1.676463
13.482866048211022	2.7678716	1.6636921
13.500514979121052	2.7501066	1.6583445
13.518164231771568	2.7160378	1.6480405
13.535813806598844	2.7290547	1.651985
13.553463704039254	2.7036605	1.6442811
13.571113924529229	2.6825173	1.6378392
13.588764468505275	2.6557431	1.6296451
13.606415336403956	2.7082396	1.645673
13.624066528661917	2.71544	1.6478592
13.641718045715882	2.78405	1.6685473
13.659369888002635	2.8369997	1.6843395
13.67702205595903	2.9091632	1.705627
13.694674550021993	2.9479394	1.7169564
13.712327370628532	2.9943583	1.7304214
13.729980518215713	3.08914	1.757595
13.747633993220681	3.168519	1.7800335
13.765287796080647	3.1973367	1.7881098
13.7829419272329	3.2569373	1.8046987
13.800596387114801	3.3137064	1.8203589
13.818251176163775	3.353072	1.8311396
13.835906294817324	3.3548226	1.8316175
13.853561743513023	3.3458195	1.8291582
13.871217522688525	3.3741617	1.8368891
13.888873632781538	3.432948	1.8528217
13.906530074229858	3.4836497	1.8664538
13.92418684747135	3.4959705	1.8697515
13.941843952943948	3.4778779	1.8649069
13.959501391085665	3.4426558	1.8554395
13.977159162334578	3.358103	1.8325127
13.994817267128846	3.3017294	1.8170662
14.012475705906693	3.2206905	1.7946283
14.030134479106424	3.1849232	1.7846353
14.047793587166414	3.1100788	1.7635416
14.065453030525108	3.0079076	1.7343321
14.083112809621026	2.9700658	1.7233878
14.100772924892766	2.8961787	1.7018163
14.118433376778997	2.865403	1.6927501
14.136094165718458	2.778067	1.6667534
14.153755292149969	2.7573354	1.6605226
14.171416756512416	2.718491	1.6487848
14.189078559244768	2.6866858	1.6391113
14.20674070078606	2.5853863	1.6079136
14.224403181575408	2.5179195	1.5867953
14.242066002051999	2.466292	1.5704433
14.259729162655093	2.4726703	1.5724727
14.277392663824022	2.481154	1.5751679
14.295056505998208	2.4838386	1.5760199
14.312720689617128	2.4596298	1.5683206
14.330385215120348	2.442527	1.5628586
14.348050082947497	2.3828876	1.5436604
14.3657152935383	2.33907	1.5294019
14.383380847332528	2.300823	1.5168464
14.401046744770051	2.3549714	1.5345916
14.418712986290798	2.388238	1.5453925
14.436379572334793	2.4078712	1.5517317
14.454046503342123	2.4003923	1.54932
14.471713779752946	2.3846986	1.5442469
14.489381402007504	2.3700259	1.5394888
14.507049370546113	2.379883	1.5426869
14.524717685809168	2.402053	1.5498558
14.542386348237134	2.4196095	1.5555094
14.560055358270553	2.4016614	1.5497295
14.577724716350051	2.4137063	1.5536107
14.595394422916325	2.4181085	1.5550269
14.61306447841015	2.4569163	1.5674554
14.63073488327237	2.4878035	1.5772772
14.648405637943917	2.5225785	1.5882627
14.6660767428658	2.5185432	1.5869919
14.683748198479094	2.5265145	1.5895014
14.701420005224954	2.5404594	1.5938818
14.719092163544628	2.5946877	1.6108035
14.73676467387942	2.6040099	1.6136944
14.754437536670727	2.6429894	1.6257273
14.772110752360014	2.677884	1.6364242
14.78978432138882	2.6800258	1.6370784
14.807458244198777	2.6807106	1.6372876
14.82513252123159	2.6478968	1.6272359
14.842807152929028	2.6788914	1.636732
14.860482139732962	2.6640983	1.6322066
14.87815748208531	2.622856	1.6195234
14.8958331804281	2.607631	1.6148161
14.91350923520342	2.6244695	1.6200215
14.931185646853438	2.6959345	1.6419301
14.948862415820408	2.684207	1.6383549
14.966539542546656	2.6894867	1.6399654
14.98421702747459	2.6838286	1.6382395
15.001894871046696	2.7179642	1.6486249
15.019573073705542	2.667462	1.6332366
15.037251635893766	2.6337585	1.6228858
15.054930558054092	2.6282396	1.6211846
15.072609840629323	2.725654	1.6509554
15.090289484062351	2.8611925	1.691506
15.107969488796124	3.170313	1.7805372
15.125649855273691	3.5840664	1.8931631
15.14333058393817	4.1214685	2.03014
15.161011675232768	5.1716485	2.2741258
15.17869312960076	6.518667	2.553168
15.196374947485506	8.290276	2.879284
15.214057129330447	11.369154	3.3718176
15.231739675579114	16.09668	4.012067
15.249422586675102	21.118267	4.5954614
15.267105863062092	24.185314	4.9178567
15.284789505183847	24.47052	4.9467688
15.302473513484218	22.510366	4.744509
15.320157888407127	18.919174	4.3496175
15.337842630396578	14.551178	3.8146007
15.355527739896656	11.22095	3.3497686
15.37321321735153	8.693637	2.9484973
15.39089906320545	6.4387703	2.5374732
15.408585277902748	4.8403373	2.2000766
15.42627186188783	3.7622585	1.9396542
15.443958815605198	3.213372	1.7925881
15.461646139499424	2.9293568	1.7115364
15.479333834015168	2.776222	1.6661999
15.497021899597165	2.7536302	1.6594065
15.514710336690234	2.6795187	1.6369236
15.53239914573928	2.6091049	1.6152724
15.550088327189297	2.5607	1.6002188
15.567777881485336	2.5386004	1.5932986
15.58546780907256	2.5478086	1.5961857
15.6031581103962	2.5270283	1.5896629
15.620848785901568	2.534954	1.5921539
15.638539836034063	2.5184903	1.5869752
15.656231261239173	2.4925005	1.5787655
15.673923061962451	2.4914615	1.5784364
15.691615238649552	2.448686	1.5648278
15.709307791746202	2.4173367	1.5547787
15.727000721698221	2.412477	1.553215
15.744694028951498	2.4115794	1.5529261
15.76238771395202	2.4099774	1.5524102
15.780081777145844	2.4375565	1.5612676
15.797776218979125	2.4420135	1.5626943
15.815471039898094	2.4219706	1.5562682
15.833166240349064	2.3576	1.5354478
15.850861820778437	2.3578327	1.5355235
15.868557781632699	2.360542	1.5364056
15.886254123358412	2.3648095	1.5377938
15.903950846402232	2.3319893	1.5270852
15.921647951210897	2.3161228	1.5218813
15.939345438231225	2.304734	1.5181351
15.957043307910133	2.3385115	1.5292193
15.974741560694602	2.3704426	1.5396242
15.992440197031714	2.3593888	1.5360302
16.01013921736862	2.321304	1.5235827
16.02783862215259	2.3331273	1.5274578
16.045538411830933	2.3296444	1.5263172
16.06323858685107	2.3438647	1.5309685
16.080939147660512	2.3608427	1.5365034
16.09864009470684	2.3798192	1.5426662
16.11634142843774	2.3890347	1.5456502
16.134043149300954	2.4223824	1.5564004
16.15174525774433	2.459331	1.5682254
16.169447754215817	2.4827495	1.5756743
16.18715063916342	2.4584649	1.5679493
16.204853913035244	2.4389582	1.5617164
16.222557576279478	2.426971	1.5578738
16.240261629344403	22.400473	4.732914
16.257966072678386	42.952522	6.5538173
16.275670906729868	38.0829	6.1711345
16.293376131947387	2.5136766	1.5854579
16.31108174877957	2.5137768	1.5854894
16.328787757675133	2.5087242	1.5838952
16.34649415908287	2.4996567	1.5810302
16.364200953451657	2.5234957	1.5885514
16.38190814123048	2.5579972	1.599374
16.39961572286839	2.6380794	1.6242166
16.41732369881455	2.6899874	1.6401181
16.43503206951817	2.6945379	1.6415048
16.45274083542859	2.714593	1.6476022
16.47044999699522	2.759569	1.661195
16.488159554667558	2.8386083	1.684817
16.505869508895184	2.8821578	1.6976919
16.523579860127786	2.9223182	1.709479
16.541290608815117	2.9690309	1.7230875
16.559001755407035	3.003346	1.7330165
16.57671330035348	3.0537844	1.747508
16.59442524410448	3.1105943	1.7636877
16.61213758711015	3.177494	1.7825527
16.629850329820705	3.2311544	1.7975413
16.647563472686436	3.3279448	1.8242655
16.665277016157724	3.3759341	1.8373715
16.682990960685053	3.3853352	1.839928
16.70070530671898	3.4011698	1.8442261
16.718420054710155	3.4431837	1.8555818
16.736135205109335	3.519384	1.8760021
16.753850758367335	3.585375	1.8935087
16.771566714935087	3.635232	1.9066285
16.789283075263597	3.6678138	1.9151537
16.80699983980398	3.682701	1.9190365
16.82471700900741	3.7568398	1.9382569
16.84243458332518	3.86682	1.9664232
16.860152563208665	3.9417748	1.9853903
16.87787094910932	4.0256286	2.006397
16.89558974147871	4.088249	2.021942
16.913308940768466	4.1774917	2.0438912
16.931028547430333	4.267357	2.0657582
16.94874856191613	4.3617325	2.0884762
16.966468984677785	4.3989673	2.0973716
16.98418981616729	4.392572	2.0958464
17.00191105683676	4.385244	2.0940974
17.019632707138374	4.463118	2.1126094
17.03735476752442	4.543285	2.1314983
17.05507723844728	4.607961	2.1466162
17.072800120359403	4.6467624	2.155635
17.090523413713353	4.6705766	2.1611516
17.108247118961785	4.682782	2.1639738
17.125971236557437	4.648447	2.1560256
17.143695766953133	4.6582317	2.1582937
17.161420710601806	4.692633	2.1662486
17.179146067956477	4.7027884	2.1685913
17.19687183947025	4.655677	2.1577017
17.21459802559634	4.608048	2.1466365
17.232324626788028	4.613928	2.1480055
17.25005164349871	4.5902886	2.1424959
17.267779076181863	4.588404	2.142056
17.285506925291074	4.6234846	2.150229
17.30323519127999	4.6951923	2.1668394
17.320963874602384	4.709996	2.1702526
17.33869297571211	4.6757565	2.1623497
17.356422495063114	4.6130342	2.1477976
17.37415243310944	4.5626016	2.1360247
17.391882790305218	4.4745183	2.1153057
17.40961356710468	4.440788	2.1073177
17.42734476396215	4.438366	2.1067429
17.445076381332044	4.471483	2.1145883
17.462808419668868	4.574088	2.1387117
17.48054087942723	4.708574	2.1699247
17.498273761061835	4.9633684	2.227862
17.51600706502747	5.387853	2.3211749
17.533740791779024	6.1230927	2.4744883
17.551474941771485	7.5816407	2.753478
17.56920951545993	8.743609	2.9569595
17.586944513299528	10.932845	3.3064854
17.60467993574556	12.650623	3.5567715
17.622415783253373	14.372884	3.7911587
17.64015205627843	15.706415	3.963132
17.657888755276293	16.730465	4.090289
17.675625880702604	17.153042	4.141623
17.69336343301311	16.987162	4.1215487
17.71110141266366	16.130709	4.0163054
17.728839820110178	15.264763	3.9070146
17.746578655808705	14.348162	3.7878966
17.764317920215372	12.986521	3.6036816
17.7820576137864	11.51663	3.3936162
17.79979773697811	9.559946	3.0919163
17.81753829024692	7.6152925	2.759582
17.835279274049356	5.8746896	2.423776
17.85302068884201	4.8240404	2.19637
17.870762535081607	4.228232	2.0562665
17.888504813224934	3.9337234	1.9833616
17.90624752372891	3.7389388	1.9336336
17.923990667050536	3.6240575	1.9036957
17.941734243646895	3.5480182	1.8836184
17.959478253975185	3.50298	1.871625
17.9772226984927	3.4417388	1.8551924
17.994967577656833	3.4046555	1.8451709
18.01271289192506	3.3743536	1.8369414
18.030458641754965	3.3819902	1.8390188
18.04820482760425	3.3698504	1.8357152
18.06595144993067	3.338215	1.8270783
18.083698509192125	3.3175707	1.82142
18.101446005846576	3.2778432	1.8104815
18.119193940352105	3.2238195	1.7954998
18.136942313166887	3.210668	1.7918338
18.1546911247492	3.1679332	1.7798688
18.1724403755574	3.1722941	1.7810935
18.19019006604997	3.159314	1.7774459
18.207940196685467	3.129176	1.7689477
18.225690767922575	3.0902402	1.7579079
18.243441780220046	3.0608373	1.7495248
18.261193234036764	3.0317862	1.7412025
18.278945129831676	3.015515	1.7365239
18.29669746806386	2.9811823	1.7266101
18.314450249192483	2.9771266	1.7254351
18.3322034736768	2.998056	1.7314895
18.349957141976184	2.974654	1.7247186
18.3677112545501	2.9689665	1.723069
18.385465811858108	2.9884846	1.7287234
18.403220814359884	3.022362	1.7384942
18.420976262515172	3.089605	1.7577273
18.43873215678387	3.0630183	1.750148
18.456488497625923	3.0999072	1.7606553
18.474245285501407	3.191218	1.786398
18.492002520870486	3.2932105	1.8147205
18.50976020419343	3.3770087	1.8376639
18.527518335930615	3.6467621	1.9096497
18.545276916542516	4.2046657	2.050528
18.563035946489688	4.3623385	2.0886211
18.580795426232832	4.8218365	2.195868
18.598555356232698	4.722253	2.1730745
18.616315736950185	4.990603	2.2339656
18.63407656884626	4.671678	2.1614065
18.65183785238201	4.8618226	2.2049541
18.669599588018617	4.6736236	2.1618564
18.68736177621737	4.659544	2.1585977
18.705124417439652	4.6334605	2.1525474
18.72288751214696	4.4508276	2.1096985
18.740651060800886	4.564617	2.1364965
18.758415063863115	4.30057	2.0737815
18.77617952179546	4.482517	2.1171956
18.793944435059814	4.2382493	2.0587008
18.811709804118184	4.2283826	2.056303
18.829475629432675	4.167351	2.041409
18.8472419114655	3.957488	1.9893436
18.86500865067897	4.0565176	2.0140798
18.88277584753551	3.6927383	1.9216499
18.90054350249763	3.7116177	1.9265559
18.918311616027957	3.3869019	1.8403537
18.936080188589226	3.3117766	1.8198287
18.953849220644265	3.029923	1.7406673
18.971618712656007	2.8816545	1.6975436
18.9893886650875	2.8667953	1.6931614
19.007159078401887	8.053318	2.8378367
19.024929953062408	32.8937	5.735303
19.042701289532435	32.815994	5.7285247
19.060473088275405	25.363295	5.0361986
19.07824534975489	2.6497777	1.6278138
19.096018074434568	2.6324267	1.6224755
19.113791262778197	2.6505175	1.628041
19.13156491524966	2.6056895	1.6142148
19.149339032312945	2.548509	1.596405
19.167113614432136	2.5225403	1.5882508
19.184888662071433	2.5213566	1.587878
19.202664175695123	2.5533934	1.5979341
19.220440155767623	2.5604382	1.6001369
19.238216602753447	2.5344136	1.5919842
19.2559935171172	2.4945734	1.5794219
19.27377089932361	2.4884229	1.5774735
19.291548749837514	2.4976454	1.580394
19.309327069123835	2.521636	1.587966
19.32710585764763	2.5273786	1.589773
19.344885115874032	2.5220647	1.5881009
19.362664844268313	2.522384	1.5882015
19.380445043295822	2.4963174	1.5799738
19.39822571342203	2.469292	1.5713981
19.41600685511252	2.452932	1.5661838
19.43378846883297	2.4542508	1.5666049
19.451570555049173	2.4623668	1.569193
19.469353114227037	2.4748254	1.5731578
19.48713614683254	2.4980628	1.5805261
19.50491965333182	2.478654	1.5743741
19.52270363419109	2.4591053	1.5681535
19.540488089876686	2.4600728	1.5684619
19.55827302085503	2.4453537	1.5637627
19.576058427592674	2.4482589	1.5646913
19.593844310556282	2.4674497	1.5708117
19.611630670212598	2.4840379	1.5760831
19.629417507028506	2.480017	1.5748069
19.64720482147098	2.501807	1.5817101
19.6649926140071	2.4937952	1.5791755
19.682780885104084	2.4882898	1.5774314
19.70056963522921	2.4993265	1.5809258
19.718358864849908	2.4881785	1.5773962
19.7361485744337	2.4913669	1.5784065
19.753938764448215	2.4795704	1.5746652
19.771729435361202	2.5072296	1.5834234
19.789520587640506	2.5205402	1.587621
19.807312221754092	2.5176678	1.586716
19.825104338170043	2.5221677	1.5881335
19.842896937356517	2.5325704	1.5914052
19.860690019781824	2.5318065	1.5911652
19.87848358591436	2.5248444	1.5889759
19.896277636222635	2.5505164	1.5970336
19.914072171175278	2.5617807	1.6005564
19.931867191241015	2.5551326	1.5984782
19.94966269688869	2.5539412	1.5981055
19.967458688587264	2.516702	1.5864116
19.985255166805807	2.4753478	1.5733238
20.00305213201348	2.4280787	1.5582293
20.020849584679578	2.4168081	1.5546087
20.038647525273507	2.4229648	1.5565876
20.05644595426477	2.3983235	1.5486522
20.07424487212299	2.4190028	1.5553144
20.092044279317903	2.413565	1.5535653
20.109844176319353	2.460048	1.568454
20.127644563597304	2.442968	1.5629996
20.145445441621817	2.4189346	1.5552925
20.16324681086307	2.4046838	1.5507044
20.181048671791373	2.3935435	1.547108
20.198851024877122	2.3897655	1.5458866
20.216653870590836	2.4025185	1.5500059
20.234457209403146	2.4087842	1.5520258
20.252261041784802	2.39298	1.546926
20.270065368206662	2.3901231	1.5460023
20.287870189139685	2.3453772	1.5314624
20.305675505054968	2.3169193	1.522143
20.323481316423702	2.310158	1.5199203
20.341287623717207	2.3355422	1.5282481
20.359094427406884	2.3348498	1.5280216
20.376901727964288	2.3596225	1.5361062
20.39470952586107	2.3730018	1.5404551
20.41251782156899	2.3467145	1.531899
20.430326615559935	2.293994	1.5145936
20.448135908305886	2.2571445	1.5023795
20.465945700278965	2.2549582	1.5016518
20.483755991951384	2.2955153	1.5150958
20.50156678379548	2.300241	1.5166545
20.519378076283708	2.2820926	1.5106597
20.537189869888635	2.2635267	1.5045022
20.55500216508294	2.2613642	1.5037833
20.572814962339415	2.285071	1.5116451
20.59062826213098	2.3273566	1.5255677
20.60844206493066	2.3502238	1.533044
20.626256371211593	2.316179	1.5218998
20.644071181447032	2.3355458	1.5282493
20.66188649611036	2.359878	1.5361894
20.67970231567506	2.3418303	1.530304
20.697518640614742	2.3306131	1.5266346
20.715335471403122	2.3416562	1.5302471
20.73315280851404	2.319458	1.5229766
20.750970652421447	2.3028388	1.5175108
20.768789003599412	2.2857115	1.511857
20.786607862522136	2.250646	1.5002154
20.8044272296639	2.2485826	1.4995275
20.82224710549913	2.2889588	1.5129305
20.84006749050237	2.3341436	1.5277904
20.857888385148268	3.9157736	1.9788314
20.8757097899116	46.015255	6.7834544
20.893531705267254	64.83901	8.052267
20.911354131690224	83.87319	9.158231
20.92917706965566	69.09984	8.312632
20.94700051963877	50.09588	7.077844
20.96482448211493	29.359564	5.4184465
20.982648957559622	4.114262	2.0283644
21.00047394644843	2.248332	1.4994439
21.01829944925707	2.2411408	1.4970441
21.036125466461375	2.2351844	1.4950533
21.053951998537297	2.284957	1.5116074
21.071779045960906	2.309609	1.5197397
21.089606609208378	2.2918656	1.5138909
21.10743468875603	2.255566	1.5018542
21.12526328508028	2.2127051	1.4875164
21.143092398657675	2.1829405	1.4774778
21.16092202996488	2.2192674	1.4897206
21.17875217947867	2.2336762	1.4945488
21.19658284767596	2.2189837	1.4896253
21.21441403503377	2.1819327	1.4771366
21.232245742029225	2.1943405	1.4813306
21.2500779691396	2.1885834	1.4793861
21.26791071684227	2.1708496	1.4733803
21.28574398561475	2.121718	1.4566118
21.30357777593465	2.1285894	1.4589686
21.321412088279704	2.1444428	1.4643916
21.339246923127792	2.1283445	1.4588847
21.357082280956888	2.103232	1.4502524
21.3749181622451	2.0733023	1.4398966
21.392754567470647	2.0890803	1.4453651
21.41059149711187	2.0961218	1.447799
21.42842895164726	2.0976417	1.4483237
21.446266931555378	2.078082	1.4415554
21.464105437314945	2.0974922	1.4482721
21.481944469404798	2.0913079	1.4461355
21.49978402830388	2.0763419	1.4409517
21.51762411449127	2.0349495	1.4265165
21.53546472844617	2.031355	1.4252561
21.553305870647876	2.0388858	1.4278955
21.571147541575865	2.0437531	1.4295989
21.58898974170967	2.0614316	1.4357686
21.60683247152899	2.0887096	1.4452369
21.62467573151363	2.088984	1.4453318
21.642519522143523	2.061526	1.4358015
21.660363843898722	2.0304966	1.4249549
21.6782086972594	2.0281336	1.4241256
21.696054082705864	2.041228	1.4287155
21.713900000718535	2.047137	1.430782
21.73174645177795	2.052693	1.4327222
21.749593436364794	2.0238526	1.4226217
21.767440954959845	1.9752377	1.4054315
21.785289008044032	1.9973356	1.4132712
21.803137596098388	2.010662	1.4179782
21.820986719604086	2.0289738	1.4244205
21.838836379042412	1.9999039	1.4141796
21.85668657489478	2.0069778	1.4166784
21.87453730764273	1.9903318	1.4107912
21.892388577767914	2.0003462	1.414336
21.91024038575213	1.9971989	1.4132229
21.928092732077285	1.9903681	1.410804
21.945945617225426	2.0007558	1.4144808
21.963799041678694	2.0049627	1.4159671
21.981653005919398	31.325216	5.5968933
21.999507510429943	78.113846	8.838203
22.01736255569286	73.0355	8.546081
22.035218142190818	4.1244817	2.030882
22.05307427040661	1.9976528	1.4133835
22.07093094082315	2.0182285	1.4206437
22.088788153923474	2.0016067	1.4147815
22.106645910190746	1.9373856	1.3919
22.12450421010827	1.9145225	1.3836627
22.142363054159464	1.9437326	1.3941782
22.16022244282787	1.9900862	1.4107041
22.178082376597164	1.9806437	1.4073534
22.195942855951145	1.9900639	1.4106963
22.213803881373742	2.0042326	1.4157093
22.231665453349002	1.9784904	1.4065882
22.24952757236111	1.9944375	1.4122455
22.26739023889438	2.0172453	1.4202976
22.28525345343323	2.031843	1.4254273
22.30311721646225	1.9942656	1.4121847
22.320981528466113	1.9653969	1.4019262
22.33884638992964	1.9487679	1.3959827
22.356711801337788	1.9511471	1.3968346
22.37457776317561	1.9819906	1.4078319
22.392444275928337	1.9840184	1.4085519
22.410311340081282	2.0096035	1.4176048
22.428178956119904	1.9970611	1.4131742
22.446047124529805	1.9436876	1.3941619
22.46391584579669	1.8971581	1.3773737
22.481785120406414	1.8975494	1.3775157
22.49965494884496	1.9308103	1.389536
22.51752533159841	1.9529362	1.3974749
22.53539626915302	1.976875	1.4060138
22.553267761995137	1.993775	1.412011
22.571139810611264	1.9895627	1.4105186
22.589012415488025	1.954533	1.3980461
22.60688557711216	1.9362569	1.3914945
22.624759295970566	1.9266016	1.3880208
22.642633572550263	1.9279045	1.38849
22.660508407338362	1.9086971	1.381556
22.67838380082217	1.9170475	1.3845749
22.696259753489077	1.9189454	1.3852601
22.714136265826614	1.9032029	1.3795662
22.73201333832246	1.8619862	1.3645462
22.74989097146439	1.8780012	1.3704019
22.76776916574035	1.9193891	1.3854202
22.785647921638393	1.9331843	1.3903899
22.803527239646712	1.9116532	1.3826255
22.82140712025363	1.8520699	1.3609077
22.839287563947593	1.8576546	1.3629581
22.85716857121719	1.9076835	1.3811891
22.875050142551135	1.9410107	1.3932016
22.892932278438277	1.9292713	1.3889822
22.910814979367604	1.9016694	1.3790103
22.928698245828222	1.8415663	1.3570433
22.946582078309387	1.8344086	1.3544034
22.96446647730047	1.8447772	1.3582258
22.98235144329098	1.8838161	1.3725218
23.000236976770562	1.8915141	1.3753233
23.018123078229	1.9030575	1.3795135
23.03600974815619	1.9127358	1.383017
23.053896987042194	1.9223181	1.3864769
23.071784795377173	1.9132638	1.3832078
23.08967317365145	1.9248011	1.387372
23.10756212235546	1.9169784	1.3845499
23.125451641979787	1.9237957	1.3870096
23.143341733015134	1.9345269	1.3908727
23.161232395952357	1.9469249	1.3953226
23.179123631282426	1.9455565	1.3948321
23.197015439496468	1.965419	1.401934
23.214907821085717	1.9640669	1.4014517
23.23280077654157	1.918513	1.385104
23.250694306355538	1.9037567	1.379767
23.268588411019277	1.9289337	1.3888606
23.28648309102458	1.972476	1.4044486
23.304378346863356	1.9745607	1.4051906
23.322274179027676	1.9509659	1.3967698
23.340170588009723	1.9355944	1.3912565
23.358067574301852	1.942037	1.3935698
23.37596513839651	1.9692159	1.4032875
23.39386328078629	1.9889723	1.4103093
23.411762001963947	1.9833378	1.4083103
23.429661302422353	1.925854	1.3877515
23.4475611826545	1.9032189	1.379572
23.46546164315356	1.8979344	1.3776554
23.48336268441279	1.9268577	1.388113
23.501264306925638	1.9122759	1.3828506
23.51916651118564	1.8961126	1.376994
23.537069297686497	1.8681196	1.3667917
23.554972666922037	1.8830172	1.3722308
23.57287661938623	1.9192103	1.3853557
23.59078115557318	1.9276564	1.3884007
23.608686275977128	1.9183494	1.3850449
23.62659198109246	1.931666	1.389844
23.6444982714137	1.9250693	1.3874687
23.66240514743549	1.9389758	1.3924711
23.68031260965263	1.9049629	1.380204
23.698220658560068	1.8989928	1.3780395
23.716129294652845	1.874661	1.3691826
23.7340385184262	1.8880153	1.3740507
23.75194833037546	1.8653471	1.3657771
23.769858730996123	1.8618873	1.3645099
23.78776972078382	1.8828307	1.3721628
23.80568130023431	1.908152	1.3813587
23.823593469843495	1.9314867	1.3897793
23.841506230107424	1.9346155	1.3909045
23.859419581522275	1.9288479	1.3888297
23.87733352458438	1.9041395	1.3799056
23.89524805979019	1.8574886	1.3628972
23.913163187636318	1.8518485	1.3608264
23.931078908619508	1.9380888	1.3921525
23.948995223236633	2.0190344	1.4209273
23.966912131984735	2.0179641	1.4205506
23.98482963536096	2.0242631	1.422766
24.002747733862616	2.0605676	1.4354677
24.020666427987155	2.0747736	1.4404074
24.038585718232156	2.074743	1.4403968
24.056505605095353	2.0084186	1.4171869
24.074426089074617	2.0293486	1.4245521
24.092347170667946	2.0431895	1.4294018
24.110268850373515	2.0900626	1.4457049
24.128191128689586	2.0597816	1.4351939
24.146114006114626	2.0176084	1.4204254
24.164037483147187	2.0145297	1.4193413
24.181961560286005	2.072095	1.4394773
24.199886238029926	2.0545382	1.4333661
24.21781151687797	1.980225	1.4072046
24.235737397329274	1.9686931	1.4031012
24.253663879883135	2.0018773	1.4148772
24.271590965038975	2.0470822	1.4307628
24.289518653296376	2.0550723	1.4335524
24.30744694515505	2.0796826	1.4421104
24.32537584111486	2.1030612	1.4501935
24.34330534167581	2.0673723	1.4378359
24.361235447338046	2.0337944	1.4261116
24.379166158601876	2.0561178	1.4339169
24.39709747596772	2.0615687	1.4358164
24.41502939993615	2.02959	1.4246367
24.432961931007917	2.0037591	1.415542
24.450895069683856	2.0142546	1.4192444
24.468828816465	1.9997742	1.4141338
24.4867631718525	1.9749849	1.4053415
24.504698136347656	1.9769896	1.4060546
24.52263371045192	2.0047023	1.4158751
24.540569894666874	2.0046053	1.4158409
24.558506689494266	1.9655176	1.4019692
24.57644409543597	1.9453743	1.3947667
24.594382112994012	1.9220238	1.3863708
24.61232074267057	1.9320861	1.389995
24.630259984967953	1.9501654	1.3964832
24.64819984038863	1.947605	1.3955662
24.66614030943522	1.9032658	1.379589
24.684081392610462	1.9132805	1.3832139
24.702023090417274	1.964436	1.4015834
24.7199654033587	1.997421	1.4133015
24.737908331937927	2.0131962	1.4188715
24.755851876658305	1.9774218	1.4062083
24.773796038023324	1.990229	1.4107548
24.79174081653661	2.006041	1.4163477
24.809686212701962	2.0489635	1.4314201
24.827632227023294	2.1049163	1.450833
24.8455788600047	2.128872	1.4590654
24.8635261121504	2.1288967	1.4590739
24.88147398396475	2.104506	1.4506916
24.899422475952303	2.1199381	1.4560007
24.917371588617698	2.1257765	1.4580044
24.935321322465768	2.1602945	1.469794
24.953271678001478	2.26073	1.5035725
24.97122265572994	2.4884243	1.577474
24.989174256156414	2.794182	1.6715807
25.00712647978632	3.236871	1.7991307
25.02507932712521	3.7792504	1.9440295
25.043032798678798	4.38474	2.093977
25.060986894952933	5.04138	2.2453017
25.078941616453637	5.7118335	2.3899443
25.096896963687055	6.604071	2.5698388
25.114852937159508	7.743453	2.782706
25.132809537377444	8.273439	2.8763587
25.150766764847468	8.370745	2.893224
25.168724620076347	7.8293343	2.7980947
25.186683103570985	6.86336	2.6198015
25.204642215838426	5.680926	2.3834693
25.222601957385894	4.2712398	2.0666978
25.24056232872074	3.219022	1.7941633
25.25852333035048	2.6347692	1.6231972
25.276484962782778	2.253019	1.501006
25.294447226525435	2.0846586	1.4438347
25.312410122086423	1.9935201	1.4119208
25.330373649973843	1.9863594	1.4093826
25.348337810695988	1.9568806	1.3988855
25.366302604761245	1.925836	1.3877449
25.384268032678207	1.8799769	1.3711225
25.40223409495558	1.8896123	1.3746316
25.420200792102257	1.904012	1.3798594
25.438168124627246	1.9229126	1.3866912
25.45613609303974	1.9080988	1.3813396
25.474104697849057	1.8889943	1.3744069
25.492073939564698	1.8571117	1.3627589
25.510043818696285	1.8365637	1.3551987
25.528014335753614	1.8138856	1.3468057
25.54598549124664	1.8748158	1.3692391
25.56395728568544	1.8804897	1.3713095
25.58192971958028	1.9358692	1.3913552
25.59990279344156	1.9350674	1.391067
25.617876507779833	1.9392693	1.3925765
25.635850863105826	1.9146082	1.3836937
25.653825859930386	1.8775249	1.370228
25.671801498764548	1.8437256	1.3578385
25.68977778011949	1.8316721	1.3533928
25.707754704506524	1.8510545	1.3605347
25.725732272437153	1.8014482	1.3421804
25.743710484423012	1.8022896	1.3424938
25.761689340975888	1.8502121	1.360225
25.77966884260774	1.9083831	1.3814424
25.797648989830662	1.8831038	1.3722624
25.815629783156922	1.8179853	1.3483268
25.83361122309895	1.7994114	1.3414214
25.85159331016929	1.8471929	1.3591148
25.869576044880695	1.9278427	1.3884678
25.887559427746034	1.9254829	1.3876177
25.90554345927836	1.900035	1.3784176
25.92352813999086	1.8938177	1.3761605
25.94151347039689	1.8519464	1.3608624
25.959499451009965	1.8291047	1.3524439
25.97748608234374	1.8196789	1.3489548
25.995473364912062	1.8300252	1.3527843
26.013461299228904	1.8015493	1.342218
26.03144988580839	1.7993323	1.3413919
26.04943912516483	1.825974	1.351286
26.067429017812675	1.843752	1.3578483
26.085419564266537	1.8539629	1.361603
26.103410765041186	1.8553904	1.3621272
26.12140262065155	1.8631963	1.3649895
26.139395131612723	1.8648716	1.365603
26.157388298439948	1.8775858	1.3702502
26.17538212164861	1.8984421	1.3778397
26.193376601754295	1.8642956	1.3653921
26.211371739272714	1.8499451	1.3601269
26.229367534719746	1.8585566	1.3632889
26.247363988611433	1.8693981	1.3672594
26.26536110146397	1.8749464	1.3692868
26.283358873793727	1.7956375	1.340014
26.301357306117204	1.761938	1.3273801
26.319356398951104	1.7889996	1.3375349
26.33735615281224	1.7806655	1.3344158
26.35535656821762	1.7482357	1.3222086
26.373357645684404	1.8021665	1.3424479
26.39135938572991	1.8303725	1.3529125
26.409361788871614	1.8208871	1.3494025
26.427364855627165	1.7851434	1.3360926
26.445368586514352	1.7598544	1.3265951
26.46337298205115	1.749822	1.3228084
26.48137804275568	1.7507917	1.3231748
26.499383769146217	1.7887545	1.3374432
26.517390161741215	1.7941767	1.3394688
26.53539722105928	1.7958045	1.3400763
26.553404947619182	1.7785231	1.3336128
26.571413341939856	1.7779961	1.3334152
26.589422404540397	1.7803963	1.334315
26.60743213594006	1.8162701	1.3476907
26.62544253665827	1.8297454	1.3526808
26.64345360721459	1.8128543	1.3464228
26.66146534812879	1.8138068	1.3467765
26.679477759920758	1.7893751	1.3376752
26.69749084311057	1.7824162	1.3350716
26.71550459821847	1.795491	1.3399593
26.733519025764842	1.775189	1.3323622
26.751534126270258	1.7877196	1.3370563
26.769549900255434	1.8016049	1.3422388
26.787566348241267	1.7535813	1.3242285
26.80558347074881	1.759653	1.3265191
26.823601268299267	1.7508688	1.323204
26.841619741414036	1.7870206	1.3367949
26.85963889061465	1.8173085	1.3480759
26.877658716422832	1.8583506	1.3632133
26.89567921936045	1.8155544	1.3474251
26.913700399949544	1.78217	1.3349794
26.93172225871233	1.8287501	1.3523129
26.949744796171174	1.8375717	1.3555707
26.967768012848605	1.8288366	1.3523449
26.98579190926733	1.7857254	1.3363104
27.003816485950225	1.7842398	1.3357544
27.021841743420318	1.7757475	1.3325717
27.039867682200814	1.7846599	1.3359116
27.057894302815072	1.7866877	1.3366704
27.07592160578664	1.7799474	1.3341467
27.0939495916392	1.8331769	1.3539486
27.111978260896635	1.8538134	1.3615482
27.13000761408296	1.8429743	1.357562
27.148037651722397	1.795351	1.339907
27.166068374339304	1.7893455	1.3376642
27.184099782458215	1.7924145	1.3388109
27.20213187660384	1.8022681	1.3424858
27.22016465730105	1.7912959	1.338393
27.23819812507487	1.7916543	1.338527
27.256232280450533	1.8008693	1.3419647
27.274267123953383	1.7807907	1.3344626
27.292302656108987	1.7679626	1.3296475
27.31033887744306	1.7567338	1.3254184
27.32837578848146	1.7736149	1.3317714
27.34641338975026	1.7928011	1.3389553
27.364451681775673	1.8214822	1.349623
27.382490665084074	1.7720636	1.3311888
27.400530340202046	1.7329267	1.3164067
27.41857070765629	1.7786945	1.333677
27.436611767973726	1.7604189	1.3268077
27.454653521681404	1.7646258	1.3283921
27.472695969306564	1.7835504	1.3354963
27.490739111376627	1.8084878	1.3448002
27.508782948419153	1.7606831	1.3269073
27.526827480961902	1.7389628	1.3186973
27.54487270953279	1.7693434	1.3301667
27.562918634659898	1.8413866	1.356977
27.580965256871508	1.8393975	1.356244
27.599012576696026	1.8217922	1.3497379
27.617060594662068	1.8102343	1.3454494
27.63510931129842	1.8397384	1.3563695
27.65315872713401	1.8348877	1.3545803
27.67120884269797	1.792233	1.3387431
27.68925965851958	1.7888919	1.3374946
27.707311175128307	1.7821491	1.3349715
27.725363393053787	1.8124487	1.3462721
27.74341631282583	1.8483298	1.359533
27.7614699349744	1.8837602	1.3725015
27.77952426002968	2.0741916	1.4402053
27.797579288521973	2.1283967	1.4589026
27.815635020981784	2.5022438	1.5818483
27.83369145793979	2.5481622	1.5962964
27.85174859992682	2.4318166	1.5594283
27.869806447473923	2.3216414	1.5236933
27.887865001112267	2.0180938	1.4205962
27.905924261373233	1.9212556	1.3860936
27.92398422878836	1.9201372	1.3856901
27.94204490388936	1.8744744	1.3691145
27.96010628720813	1.8771019	1.3700737
27.978168379276728	1.8911488	1.3751905
27.9962311806274	1.8434074	1.3577214
28.014294691792568	1.7977555	1.3408041
28.0323589133048	1.7944396	1.339567
28.050423845696887	1.8649426	1.365629
28.068489489501758	1.9344901	1.3908595
28.086555845252523	1.8986639	1.3779202
28.104622913482487	1.8612195	1.3642652
28.122690694725115	1.903855	1.3798025
28.14075918951405	1.8936237	1.37609
28.15882839838312	1.8557775	1.3622693
28.176898321866304	1.8526402	1.3611172
28.1949689604978	1.8880033	1.3740463
28.213040314811945	1.9170772	1.3845856
28.23111238534327	1.8958932	1.3769144
28.249185172626493	1.9072428	1.3810296
28.267258677196473	1.89837	1.3778135
28.285332899588294	1.9051045	1.3802552
28.303407840337172	1.8887537	1.3743193
28.321483499978545	1.9682783	1.4029534
28.33955987904799	1.9830184	1.4081968
28.357636978081285	2.018906	1.4208821
28.37571479761439	2.004563	1.415826
28.393793338183425	1.9782104	1.4064887
28.41187260032469	1.9555556	1.3984118
28.429952584574686	1.9400296	1.3928494
28.448033291470065	1.9017861	1.3790526
28.46611472154769	1.911358	1.3825188
28.484196875344566	1.9439379	1.3942517
28.502279753397914	1.9564525	1.3987324
28.52036335624511	1.9602362	1.4000844
28.538447684423716	1.9878919	1.4099262
28.556532738471482	2.025715	1.4232762
28.574618518926325	2.0088558	1.4173411
28.59270502632635	1.9249792	1.3874362
28.61079226120985	1.929843	1.3891879
28.628880224115274	1.9622495	1.4008032
28.646968915581287	2.030774	1.4250523
28.66505833614671	2.0891948	1.4454048
28.68314848635055	2.0729764	1.4397835
28.701239366732004	2.042742	1.4292452
28.71933097783044	2.059693	1.4351631
28.737423320185403	2.1014097	1.449624
28.75551639433665	2.1329517	1.4604628
28.773610200824074	2.180208	1.4765527
28.791704740187793	2.1404347	1.4630225
28.80980001296809	2.1347666	1.461084
28.827896019705413	2.1406527	1.463097
28.845992760940433	2.2048817	1.4848844
28.86409023721397	2.2097774	1.486532
28.88218844906704	2.1949317	1.4815302
28.900287397040845	2.2001019	1.483274
28.918387081676755	2.258485	1.5028257
28.936487503516343	2.255442	1.5018128
28.954588663101365	2.313356	1.520972
28.97269056097374	2.3324106	1.5272231
28.990793197675597	2.3518088	1.5335609
29.00889657374923	2.3307998	1.5266957
29.027000689737125	2.3443468	1.531126
29.04510554618196	2.3773203	1.5418562
29.06321114362659	2.365221	1.5379275
29.08131748261405	2.3615928	1.5367475
29.099424563687567	2.4388735	1.5616894
29.11753238739057	2.5087388	1.5838999
29.13564095426663	2.534407	1.591982
29.15375026485954	2.5420344	1.5943758
29.171860319713275	2.609474	1.6153866
29.18997111937199	2.666699	1.633003
29.20808266438002	2.7333121	1.6532731
29.226194955281898	2.7837434	1.6684554
29.244307992622335	2.804573	1.674686
29.26242177694624	2.8609312	1.6914288
29.2805363087987	2.8586872	1.6907653
29.29865158872498	2.8355565	1.6839111
29.316767617270557	2.870069	1.6941278
29.334884394981064	2.9230008	1.7096785
29.353001922402367	2.9669824	1.722493
29.37112020008047	3.0413878	1.7439575
29.389239228561596	3.0931437	1.7587335
29.407359008392152	3.2620356	1.8061106
29.42547954011872	3.6500916	1.9105213
29.44360082428809	4.286779	2.070454
29.46172286144722	5.28417	2.2987323
29.479845652143283	6.8280034	2.6130447
29.497969196923606	8.883541	2.980527
29.516093496335728	11.468824	3.3865652
29.5342185509274	14.282441	3.7792118
29.55234436124651	16.67202	4.0831385
29.570470927841175	18.197172	4.2658143
29.588598251259686	17.950937	4.2368546
29.60672633205055	16.539793	4.0669146
29.624855170762405	14.336298	3.7863305
29.642984767944146	11.649777	3.413177
29.66111512414481	8.925195	2.9875064
29.67924623991366	6.7116313	2.5906816
29.697378115800138	5.17578	2.275034
29.71551075235387	4.1756015	2.043429
29.733644150124675	3.7170427	1.9279634
29.751778309662576	3.477689	1.8648562
29.769913231517766	3.29759	1.8159268
29.78804891624066	3.2730618	1.8091605
29.806185364381818	3.2797682	1.811013
29.82432257649206	3.3030233	1.8174222
29.842460553122333	3.240073	1.8000202
29.86059929482382	3.2804334	1.8111967
29.878738802147872	3.3335	1.8257874
29.896879075646048	3.343862	1.8286229
29.915020115870114	3.3347306	1.8261244
29.933161923371976	3.274607	1.8095875
29.951304498703777	3.223758	1.7954826
29.969447842417857	3.215477	1.7931751
29.987591955066733	3.2312372	1.7975643
30.005736837203123	3.218818	1.7941065
30.023882489379943	3.1950583	1.7874726
30.04202891215028	3.188535	1.7856469
30.060176106067455	3.2184176	1.7939949
30.078324071684946	3.2398424	1.7999562
30.09647280955646	3.1232708	1.7672778
30.114622320235863	3.0466478	1.7454649
30.132772604277257	3.0775337	1.7542901
30.1509236622349	3.109834	1.7634721
30.16907549466328	3.146426	1.7738168
30.18722810211705	3.1868424	1.7851729
30.205381485151097	3.1027389	1.7614594
30.22353564432045	3.0368335	1.7426513
30.241690580180403	3.055687	1.7480524
30.25984629328638	3.0433123	1.7445092
30.278002784194037	3.0456219	1.7451711
30.296160053459246	3.017444	1.7370791
30.314318101638033	2.926144	1.7105975
30.332476929286646	2.9731011	1.7242683
30.35063653696153	2.9811676	1.7266058
30.368796925219307	2.9780083	1.7256907
30.386958094616844	2.9215612	1.7092575
30.40512004571115	2.828564	1.6818335
30.423282779059463	2.7992358	1.6730917
30.441446295219233	2.8381054	1.6846677
30.459610594748067	2.869057	1.693829
30.47777567820382	2.859745	1.6910781
30.495941546144504	2.8940933	1.7012035
30.51410819912835	2.8683214	1.693612
30.532275637713795	2.806066	1.6751317
30.55044386245946	2.8222387	1.679952
30.56861287392416	2.853448	1.6892152
30.586782672666956	2.8060608	1.6751301
30.604953259247047	2.7607832	1.6615604
30.623124634223885	2.732496	1.6530263
30.641296798157075	2.7546928	1.6597267
30.659469751606462	2.749072	1.6580325
30.677643495132074	2.7406106	1.655479
30.695818029294152	2.7437382	1.6564233
30.713993354653116	2.8150003	1.6777962
30.73216947176962	2.7706904	1.6645391
30.75034638120448	2.7484407	1.6578422
30.768524083518756	2.7390823	1.6550174
30.786702579273673	2.7423534	1.6560053
30.80488186903069	2.7505393	1.658475
30.82306195335144	2.873053	1.6950083
30.841242832797782	3.1198516	1.7663102
30.85942450793176	3.3805013	1.838614
30.877606979315637	3.691504	1.9213287
30.895790247511883	4.116596	2.0289397
30.913974313083134	4.5079536	2.1231942
30.932159176592283	4.814162	2.19412
30.95034483860237	4.779588	2.1862268
30.968531299676698	4.5665793	2.1369557
30.98671856037873	4.2979865	2.0731585
31.00490662127215	3.860668	1.9648583
31.023095482920848	3.4068615	1.8457686
31.04128514588892	3.092588	1.7585756
31.059475610740662	2.8086169	1.6758928
31.07766687804056	2.6102867	1.6156381
31.09585894835335	2.5339768	1.591847
31.11405182224393	2.5489333	1.596538
31.132245500277417	2.524269	1.5887948
31.15043998301914	2.4165452	1.5545241
31.168635271034628	2.3287535	1.5260254
31.18683136488964	2.394572	1.5474405
31.20502826515008	2.4413161	1.5624712
31.223225972382135	2.439349	1.5618415
31.241424487152155	2.4261878	1.5576224
31.259623810026692	2.3978076	1.5484856
31.27782394157253	2.4189181	1.5552871
31.296024882356644	2.440545	1.5622244
31.314226632946237	2.4731722	1.5726322
31.332429193908684	2.4317887	1.5594194
31.350632565811598	2.4108758	1.5526996
31.368836749222787	2.433986	1.5601237
31.387041744710295	2.505536	1.5828885
31.40524755284232	2.5781558	1.6056637
31.423454174187317	2.6007545	1.6126854
31.441661609313922	2.6039515	1.6136764
31.459869858791002	2.5864127	1.6082327
31.478078923187628	2.5658598	1.6018301
31.496288803073064	2.4879909	1.5773367
31.514499499016807	2.3515527	1.5334773
31.532711011588546	2.2747006	1.508211
31.550923341358178	2.340813	1.5299716
31.56913648889584	2.3636572	1.537419
31.587350454771844	2.2913427	1.5137181
31.605565239556732	2.2368925	1.4956244
31.62378084382127	2.3022745	1.5173248
31.641997268136382	2.3056598	1.5184399
31.660214513073274	2.275209	1.5083796
31.67843257920331	2.3064811	1.5187104
31.6966514670981	2.3456612	1.5315552
31.71487117732944	2.3122396	1.520605
31.733091710469346	2.326775	1.525377
31.751313067090052	2.3955905	1.5477695
31.769535247764008	2.3984673	1.5486985
31.787758253063878	2.3332248	1.5274897
31.805982083562526	2.3251004	1.524828
31.824206739833024	2.353221	1.5340211
31.84243222244869	2.354022	1.5342822
31.860658531983013	2.3432944	1.5307822
31.878885669009737	2.3286114	1.5259788
31.897113634102784	2.2538614	1.5012866
31.91534242783632	2.2149963	1.4882864
31.933572050784694	2.2203634	1.4900883
31.951802503522508	2.2454789	1.4984922
31.970033786624548	2.2217336	1.4905481
31.988265900665834	2.1847606	1.4780935
32.006498846221575	2.1909423	1.4801832
32.02473262386724	2.1494246	1.4660916
32.04296723417845	2.2444017	1.4981327
32.0612026777311	2.2641392	1.5047057
32.07943895510129	2.2324357	1.4941337
32.097676066865304	2.2018838	1.4838746
32.115914013599685	2.2156303	1.4884993
32.13415279588115	2.153519	1.4674873
32.152392414286666	2.1622026	1.470443
32.1706328693934	2.226459	1.4921324
32.18887416177875	2.200285	1.4833357
32.20711629202032	2.1317253	1.460043
32.225359260695924	2.0923977	1.4465122
32.243603068383614	2.1298819	1.4594115
32.26184771566166	2.1546974	1.4678887
32.28009320310852	2.1570063	1.468675
32.2983395313029	2.1158853	1.4546083
32.31658670082372	2.0619814	1.43596
32.33483471225012	2.1007957	1.4494122
32.35308356616143	2.1148746	1.4542608
32.371333263137245	2.0677238	1.4379582
32.38958380375734	2.080751	1.4424808
32.407835188601744	2.0492	1.4315027
32.42608741825067	2.100238	1.4492198
32.444340493284585	2.1381814	1.4622521
32.46259441428416	2.0884829	1.4451584
32.48084918183028	2.033365	1.4259611
32.49910479650405	1.9537427	1.3977635
32.51736125888683	2.002919	1.4152452
32.53561856956014	2.066824	1.4376453
32.5538767291058	1.9900492	1.410691
32.572135738105764	1.9418888	1.3935167
32.59039559714228	2.0573049	1.4343308
32.608656306797776	2.164471	1.471214
32.62691786765491	2.1886091	1.4793948
32.645180280296586	2.1324782	1.4603007
32.663443545305896	2.0924873	1.4465432
32.68170766326619	2.031244	1.4252172
32.69997263476099	1.9960889	1.4128301
32.7182384603741	1.9872669	1.4097046
32.7365051406895	1.9984254	1.4136567
32.75477267629144	1.9917573	1.4112964
32.77304106776434	1.9830457	1.4082066
32.79131031569289	1.9769522	1.4060413
32.809580420661966	1.9601969	1.4000703
32.827851383256714	1.8920323	1.3755116
32.84612320406245	1.8341482	1.3543073
32.86439588366476	1.8318573	1.3534613
32.88266942264945	1.9030083	1.3794957
32.9009438216025	1.9381912	1.3921894
32.9192190811102	1.924167	1.3871435
32.937495201758985	1.9428463	1.3938602
32.95577218413556	1.9235028	1.386904
32.974050028826866	1.8874912	1.37386
32.992328736420035	1.8669751	1.366373
33.010608307502444	1.797172	1.3405864
33.02888874266169	1.9085578	1.3815056
33.047170042485604	2.0162122	1.4199339
33.06545220756225	2.0750258	1.440495
33.083735238479896	2.0224297	1.4221215
33.10201913582707	1.987462	1.4097737
33.12030390019248	1.9453175	1.3947464
33.138589532165135	1.9841461	1.4085972
33.15687603233419	2.0020237	1.4149289
33.17516340128909	1.9968706	1.4131067
33.19345163961947	1.9263934	1.3879458
33.211740747915215	1.8756132	1.3695303
33.23003072676643	1.8674543	1.3665483
33.248321576763466	1.9173583	1.3846871
33.266613298496885	1.975864	1.4056543
33.28490589255747	2.0330176	1.4258393
33.30319935953626	2.0276136	1.423943
33.32149370002451	2.0264335	1.4235286
33.339788914613706	1.9713509	1.4040481
33.358085003895575	1.9531509	1.3975518
33.376381968462034	2.0003786	1.4143474
33.39467980890529	2.0061834	1.416398
33.41297852581774	1.965655	1.4020182
33.43127811979204	1.8748624	1.3692561
33.44957859142105	1.7813705	1.33468
33.467879941297866	1.7708972	1.3307506
33.486182170015844	1.843824	1.3578749
33.50448527816853	1.8660736	1.3660431
33.522789266349754	1.820424	1.3492309
33.541094135153514	1.8957806	1.3768735
33.55939988517411	1.9626807	1.4009571
33.57770651700602	1.9056811	1.3804641
33.59601403124398	1.9243933	1.387225
33.61432242848296	2.0061061	1.4163707
33.632631709318154	2.0669816	1.4377
33.650941874344994	2.07356	1.4399861
33.66925292415916	1.9985774	1.4137105
33.68756485935654	1.8572695	1.3628168
33.70587768053328	1.8844113	1.3727386
33.724191388285746	1.980908	1.4074473
33.74250598321054	1.9906406	1.4109006
33.760821465904506	1.9575737	1.3991332
33.77913783696474	1.8987774	1.3779613
33.79745509698852	1.9309937	1.389602
33.815773246573414	1.9509468	1.396763
33.8340922863172	1.8579956	1.3630831
33.852412216817896	1.8700149	1.3674849
33.87073303867377	1.9359409	1.3913809
33.889054752483304	1.9882886	1.4100668
33.907377358845245	1.9263712	1.3879378
33.92570085835853	1.9011003	1.378804
33.94402525162239	1.9732529	1.4047252
33.96235053923627	2.031289	1.425233
33.980676721799824	2.076962	1.4411669
33.999003799912984	2.0818985	1.4428785
34.01733177417592	2.068946	1.4383831
34.03566064518901	1.8705795	1.3676913
34.0539904135529	1.7600253	1.3266594
34.07232107986846	1.8350353	1.3546348
34.090652644736785	1.903012	1.379497
34.108985108759235	1.9406799	1.3930829
34.12731847253742	2.0063758	1.416466
34.14565273667313	2.0162401	1.4199437
34.16398790176847	2.0114229	1.4182464
34.18232396842574	2.0448246	1.4299736
34.20066093724749	1.9626443	1.4009441
34.21899880883651	1.9079273	1.3812774
34.23733758379583	1.9602007	1.4000716
34.25567726272874	2.0352175	1.4266105
34.27401784623872	1.9596958	1.3998914
34.29235933492957	1.8273609	1.3517991
34.31070172940526	1.8346314	1.3544856
34.32904503027003	1.9091719	1.3817279
34.347389238128386	1.9825575	1.4080333
34.36573435358502	1.9695046	1.4033904
34.38408037724492	2.0088115	1.4173255
34.402427309713296	2.0224624	1.4221331
34.42077515159559	1.9339427	1.3906627
34.43912390349752	1.9084772	1.3814764
34.45747356602499	1.9735311	1.4048243
34.47582413978423	2.0473888	1.4308699
34.49417562538163	1.9674108	1.4026443
34.51252802342388	1.8615739	1.364395
34.53088133451789	1.8025438	1.3425884
34.54923555927084	1.8220853	1.3498464
34.567590698290104	1.9145775	1.3836826
34.58594675218336	1.8675871	1.3665969
34.6043037215585	1.7988847	1.3412251
34.62266160702365	1.9045006	1.3800365
34.641020409187234	1.829734	1.3526766
34.65938012865785	1.7662662	1.3290095
34.677740766044394	1.8208479	1.349388
34.69610232195598	1.8143334	1.346972
34.714464797002016	1.8709481	1.367826
34.73282819179208	1.9767145	1.4059567
34.751192506936064	1.9749824	1.4053407
34.76955774304408	1.9427612	1.3938297
34.7879239007265	1.9127795	1.3830327
34.80629098059391	1.9734335	1.4047894
34.824658983257194	2.095724	1.4476616
34.843027909327446	1.9987212	1.4137614
34.86139775941603	2.1011822	1.4495455
34.879768534134534	2.1752777	1.4748822
34.89814023409483	2.2372234	1.495735
34.91651285990901	2.0944974	1.4472378
34.93488641218944	1.9706109	1.4037845
34.95326089154871	2.0399826	1.4282796
34.97163629859967	1.985724	1.4091572
34.99001263395542	1.9394959	1.3926579
35.00838989822934	1.9307816	1.3895257
35.02676809203499	1.7818638	1.3348647
35.04514721598624	1.8885128	1.3742317
35.063527270697215	2.0955184	1.4475906
35.081908256782256	2.0472264	1.4308132
35.10029017485597	1.8240573	1.3505766
35.11867302553321	1.8049945	1.3435009
35.137056809429104	1.874628	1.3691705
35.155441527159006	1.8061333	1.3439245
35.173827179338524	1.6323478	1.2776337
35.19221376658354	1.8641605	1.3653426
35.21060128951017	2.1105886	1.4527864
35.2289897487348	2.2216678	1.490526
35.24737914487405	2.1147666	1.4542238
35.26576947854479	2.220162	1.4900208
35.28416075036418	2.2491753	1.4997251
35.30255296094958	2.1813576	1.476942
35.32094611091867	2.3740058	1.5407809
35.33934020088932	2.5031	1.5821187
35.35773523147969	2.1923	1.4806417
35.3761312033082	1.8195449	1.3489051
35.394528116993506	2.0491815	1.4314963
35.41292597315452	2.1731014	1.4741443
35.431324772410434	1.8959701	1.3769423
35.449724515380666	1.7091365	1.3073394
35.46812520268491	1.754681	1.3246437
35.486526834943106	2.0822031	1.4429841
35.504929412775454	2.1781702	1.4758625
35.52333293680242	2.1559322	1.4683093
35.54173740764471	1.932639	1.3901938
35.560142825923286	1.6279242	1.2759013
35.5785491922594	1.0450444	1.0222741
35.59695650727454	0.8482248	0.92099124
35.61536477159042	0.6149216	0.7841694
