0.008763373481513119	0.0	0.0
0.026290120649546365	0.0	0.0
0.043816868432600686	0.0	0.0
0.06134361724069026	0.04474922	0.21154012
0.07887036748382949	0.06983978	0.26427218
0.0963971195720331	0.057742476	0.24029665
0.11392387391531617	0.16337541	0.40419725
0.1314506309236943	0.13605677	0.36885872
0.1489773910071836	0.14838511	0.38520786
0.16650415457580078	0.089133695	0.29855266
0.18403092203956356	0.10823171	0.32898587
0.20155769380849	0.13112347	0.36210975
0.2190844702925996	0.11040478	0.33227214
0.2366112519019124	0.13247211	0.36396718
0.2541380390464497	0.098212115	0.3133881
0.27166483213623416	0.15269214	0.39075842
0.28919163158128947	0.12677017	0.356048
0.3067184377916406	0.12255891	0.35008416
0.324245251177314	0.0915871	0.3026336
0.34177207214833777	0.107598685	0.3280224
0.3592989011147415	0.11990324	0.34627047
0.37682573848655654	0.13410667	0.36620578
0.39435258467381573	0.11511998	0.33929336
0.41187944008655414	0.15359205	0.39190823
0.42940630513480854	0.15349819	0.39178845
0.446933180228618	0.15124623	0.3889039
0.4644600657780234	0.11101125	0.3331835
0.48198696219306775	0.12151688	0.34859273
0.49951386988379676	0.15705785	0.39630526
0.5170407892602581	0.19780542	0.4447532
0.5345677207325025	0.21325018	0.46179017
0.5520946647105822	0.17873304	0.4227683
0.5696216216045534	0.1400133	0.37418354
0.5871485918244737	0.14878722	0.38572946
0.6046755757804043	0.16876808	0.41081393
0.6222025738824094	0.20228738	0.4497637
0.6397295865405557	0.20265843	0.450176
0.6572566141649129	0.16286667	0.40356743
0.6747836571655547	0.15382707	0.39220795
0.6923107159525568	0.13347785	0.3653462
0.7098377909359992	0.1449528	0.38072667
0.7273648825259653	0.16636726	0.40788144
0.7448919911325411	0.15399602	0.39242327
0.762419117165817	0.15979938	0.39974916
0.7799462610358868	0.16412637	0.4051251
0.7974734231528482	0.15875106	0.39843577
0.8150006039268024	0.17244384	0.41526356
0.8325278037678551	0.18477201	0.42985114
0.8500550230861152	0.19465649	0.44119892
0.8675822622916969	0.18756963	0.4330931
0.8851095217947171	0.19990398	0.44710624
0.9026368020052984	0.20011027	0.44733685
0.9201641033335665	0.1925772	0.4388362
0.9376914261896523	0.17501652	0.41834977
0.9552187709836915	0.1756137	0.41906288
0.9727461381258234	0.1883274	0.43396705
0.990273528026193	0.2052367	0.4530306
1.0078009410949496	0.23267376	0.4823627
1.0253283777422473	0.26159513	0.5114637
1.0428558383782454	0.27764416	0.5269195
1.0603833234131086	0.29944995	0.54722023
1.0779108332570058	0.33674765	0.5802996
1.0954383683201119	0.33951148	0.5826761
1.112965929012607	0.3910267	0.62532127
1.1304935157446763	0.4857176	0.6969344
1.1480211289265108	0.5040366	0.70995533
1.1655487689683062	1.3834141	1.1761863
1.1830764362802655	1.7228924	1.31259
1.200604131272596	2.098246	1.4485323
1.2181318543555117	2.3611898	1.5366163
1.235659605939232	2.3383682	1.5291724
1.253187386433982	3.9610932	1.9902495
1.270715196249994	6.276525	2.5052993
1.2882430357975057	11.624507	3.4094732
1.3057709054867608	16.31566	4.0392647
1.3232988057280106	22.051678	4.6959214
1.3408267369315112	26.960236	5.1923246
1.358354699507526	30.413166	5.5148134
1.3758826938663256	33.92592	5.824596
1.3934107204181858	35.71492	5.9761963
1.410938779573391	36.26072	6.0216875
1.4284668717422309	36.781513	6.0647764
1.4459949973350033	36.527576	6.0438046
1.4635231567620117	36.692722	6.0574517
1.4810513504335687	36.037342	6.003111
1.4985795787599925	35.33513	5.944336
1.5161078421516088	34.852005	5.9035587
1.5336361410187505	34.125504	5.841704
1.5511644757717598	33.907055	5.8229766
1.5686928468209842	34.421978	5.8670244
1.58622125457678	34.99402	5.915574
1.6037496994495108	36.48888	6.0406027
1.621278181849548	36.366405	6.0304565
1.6388067021872719	37.154415	6.0954423
1.6563352608730693	36.542294	6.045022
1.673863858317336	35.47087	5.955743
1.6913924949304753	34.607212	5.8827896
1.7089211711228998	33.529015	5.7904243
1.7264498873050296	33.13234	5.7560697
1.7439786438872935	32.329628	5.685915
1.7615074412801288	31.431227	5.606356
1.779036279893981	30.554482	5.527611
1.796565160139305	29.71172	5.4508457
1.814094082426564	29.249477	5.4082785
1.8316230471662298	28.537733	5.342072
1.849152054768784	27.575205	5.2512097
1.8666811056447168	26.797403	5.176621
1.8842102002045273	26.006214	5.099629
1.901739338858724	25.527704	5.052495
1.9192685220178245	25.01467	5.0014668
1.9367977500923557	24.2914	4.928631
1.9543270234928547	23.582233	4.856154
1.971856342629867	22.911472	4.786593
1.9893857079139496	22.60727	4.75471
2.006915119755667	22.215694	4.7133527
2.0244445785655945	21.510515	4.637943
2.0419740847543175	21.075514	4.5908074
2.0595036387324317	20.427313	4.5196586
2.0770332409105414	20.116625	4.485156
2.094562891699263	19.91571	4.4627023
2.1120925915092217	19.56093	4.422774
2.129622340751053	19.217066	4.3837276
2.1471521398354043	187.13197	13.679619
2.1646819891729323	443.48285	21.059032
2.182211889174303	439.6028	20.966707
2.1997418402501974	452.00522	21.260414
2.2172718428113023	431.89706	20.782133
2.234801897268317	319.81552	17.883387
2.2523320040319548	16.34634	4.043061
2.269862163512935	16.088753	4.011079
2.287392376121992	15.935697	3.991954
2.304922642269869	15.795294	3.9743295
2.322452962367322	15.410452	3.9256148
2.3399833368251164	15.045496	3.8788524
2.357513766054032	14.69039	3.8328044
2.3750442504648586	14.39045	3.7934747
2.3925747904683963	14.245314	3.7742965
2.410105386475459	14.055234	3.749031
2.4276360388968707	13.905475	3.7290046
2.445166748143469	13.841289	3.7203882
2.4626975146261025	13.719438	3.703976
2.4802283387556323	13.349309	3.6536705
2.4977592209429305	13.00552	3.6063166
2.5152901615988825	12.620417	3.5525227
2.5328211611343865	12.547876	3.542298
2.5503522199603523	12.347348	3.5138793
2.5678833384877024	12.062668	3.4731352
2.5854145171273712	11.925404	3.4533179
2.6029457562903064	11.679406	3.4175146
2.620477056387469	11.561578	3.400232
2.6380084178298326	11.402232	3.3767192
2.655539841028383	11.231157	3.351292
2.673071326394119	10.940885	3.3077009
2.6906028743380523	10.603235	3.2562609
2.708134485271211	10.350148	3.2171645
2.7256661596046325	10.245109	3.200798
2.743197897749369	10.2059555	3.1946762
2.760729700116486	10.070596	3.1734202
2.778261567117063	9.845766	3.1377964
2.795793499162193	9.861278	3.1402671
2.8133254966629817	9.775815	3.12663
2.830857560030551	9.664982	3.1088555
2.8483896896760337	9.515296	3.0846872
2.865921886010578	9.402352	3.0663254
2.883454149445347	9.309796	3.0511959
2.9009864803915177	9.172607	3.0286312
2.91851887926028	8.919396	2.9865358
2.9360513464628384	8.856315	2.9759562
2.953583882410413	8.871533	2.978512
2.9711164875142373	8.700941	2.9497359
2.9886491621855606	8.484987	2.9129002
3.0061819068356455	8.23677	2.8699772
3.023714721875769	8.076883	2.8419857
3.041247607717225	7.9800835	2.8249042
3.0587805647713213	7.989543	2.826578
3.0763135934493806	8.05986	2.8389893
3.0938466941627407	7.9088836	2.8122737
3.1113798673227544	7.8020687	2.7932184
3.1289131133407904	7.685216	2.7722223
3.1464464326282315	7.5593953	2.7494354
3.1639798255964786	7.456937	2.7307394
3.1815132926569443	7.41692	2.7234023
3.1990468342210603	7.4830723	2.7355204
3.216580450700272	7.437139	2.7271118
3.2341141425060416	7.352953	2.711633
3.251647910049847	7.212337	2.6855795
3.2691817537431813	7.071823	2.65929
3.286715673997555	6.947572	2.6358247
3.3042496712244938	6.9718122	2.640419
3.32178374583554	6.894632	2.6257632
3.339317898242251	6.912229	2.6291118
3.3568521288562034	6.7864585	2.6050832
3.3743864380889876	6.6625543	2.5811925
3.3919208263522127	6.518293	2.5530949
3.4094552940575023	6.461651	2.5419776
3.4269898416164972	6.474541	2.544512
3.444524469440858	6.530785	2.55554
3.4620591779422587	6.400648	2.5299501
3.479593967532391	6.201911	2.4903636
3.4971288386229658	6.206056	2.4911957
3.5146637916257086	6.193271	2.4886284
3.5321988269523628	6.239535	2.4979062
3.5497339450146903	6.2367134	2.4973412
3.5672691462244708	6.1392646	2.4777539
3.5848044309934988	6.1024785	2.4703195
3.60233979973359	6.0241046	2.454405
3.619875252856575	6.0791917	2.4656017
3.6374107907743034	6.094915	2.4687881
3.6549464138986427	6.13193	2.4762733
3.6724821226414788	6.1348033	2.4768536
3.690017917414714	6.1372657	2.4773505
3.7075537986302702	6.185778	2.4871225
3.7250897667000857	6.2852054	2.5070312
3.7426258220361235	6.4320893	2.5361564
3.7601619650503553	6.6506042	2.5788765
3.777698196154779	7.1888943	2.6812112
3.7952345157614067	8.162359	2.8569844
3.8127709242822716	8.979201	2.9965315
3.830307422129425	11.095468	3.330986
3.847844009714936	29.819836	5.460754
3.8653806874508954	97.235725	9.860818
3.882917455749409	96.54834	9.825901
3.900454315022606	96.40797	9.818756
3.917991265682631	41.050434	6.407061
3.9355283081416506	10.693505	3.2700925
3.9530654428118495	8.478586	2.911801
3.970602670105433	7.1808624	2.679713
3.9881399904346244	6.3647847	2.5228524
4.005677404211669	6.273247	2.504645
4.023214911848827	6.3563724	2.5211847
4.0407525137583855	6.4998446	2.5494792
4.058290210352644	6.493485	2.5482318
4.075828002043927	6.3860483	2.5270631
4.0933658892445814	6.1954093	2.489058
4.110903872366966	6.0668564	2.463099
4.128441951823468	6.011223	2.4517796
4.145980128026488	5.985254	2.446478
4.163518401388452	5.9539595	2.4400737
4.181056772321807	5.9361777	2.4364274
4.1985952412390155	5.9820776	2.4458287
4.216133808552567	6.05961	2.4616275
4.233672474674966	6.1887574	2.4877214
4.251211240018741	6.395816	2.528995
4.268750104996445	6.587866	2.5666838
4.286289070020643	7.5518913	2.7480705
4.303828135503928	9.175457	3.0291016
4.3213673018589125	29.451803	5.4269514
4.3389065694982305	90.61048	9.518953
4.356445938834537	165.78453	12.875734
4.3739854102805085	171.36632	13.090695
4.391524984248844	172.23111	13.123685
4.409064661152262	136.23563	11.672002
4.426604441403504	96.39762	9.818229
4.444144325415337	75.19627	8.671578
4.461684313600543	21.199152	4.604254
4.47922440637193	21.560863	4.643368
4.496764604142329	20.073133	4.480305
4.5143049073245916	18.230442	4.269712
4.531845316331589	16.128891	4.016079
4.5493858315762195	13.214071	3.6351163
4.566926453471405	10.9147625	3.3037498
4.584467182430081	8.96127	2.9935381
4.602008018865218	7.8905077	2.8090048
4.619548963189798	7.3482337	2.7107625
4.637090015816834	6.901785	2.6271248
4.654631177159353	6.6297274	2.5748258
4.672172447630417	6.267097	2.503417
4.689713827643102	6.004915	2.4504929
4.7072553176105085	5.7263837	2.3929863
4.724796917945764	5.5829086	2.362818
4.742338629062015	5.510468	2.3474386
4.759880451372434	5.4662185	2.3379946
4.777422385290215	5.4548597	2.3355641
4.794964431228581	5.530681	2.3517401
4.812506589600768	5.517407	2.348916
4.830048860820047	5.509487	2.3472297
4.847591245299709	5.4962096	2.3443997
4.8651337434530655	5.4913173	2.343356
4.882676355693457	5.4398365	2.3323457
4.900219082434242	5.4122057	2.3264148
4.917761924088813	5.361002	2.3153837
4.935304881070575	5.355581	2.3142128
4.952847953792969	5.359904	2.3151467
4.970391142669449	5.3373857	2.3102782
4.9879344481135055	5.3470054	2.3123593
5.005477870538642	5.360013	2.3151703
5.023021410358394	5.306906	2.3036723
5.040565067986324	5.2813454	2.2981179
5.05810884383601	5.211152	2.2827947
5.075652738321066	5.3315306	2.3090107
5.09319675185512	5.398979	2.3235703
5.110740884851836	5.4259276	2.3293622
5.128285137724894	5.389469	2.321523
5.145829510888007	5.309289	2.3041894
5.163374004754908	5.31529	2.3054912
5.1809186197393595	5.237958	2.2886586
5.198463356255145	5.226402	2.2861326
5.216008214716077	5.232053	2.287368
5.233553195535998	5.2305784	2.2870457
5.251098299128764	5.195348	2.2793305
5.268643525908272	5.1321692	2.2654293
5.286188876288432	5.158455	2.2712233
5.3037343506831895	5.127022	2.2642927
5.32127994950651	5.1254086	2.2639365
5.3388256731723915	5.0602136	2.249492
5.356371522094851	5.14737	2.2687817
5.373917496687938	5.2549677	2.2923715
5.391463597365729	5.2649746	2.2945533
5.40900982454232	5.183726	2.2767797
5.426556178631843	5.051984	2.2476618
5.444102660048449	4.9861374	2.232966
5.4616492692063225	4.9557595	2.2261536
5.479196006519669	4.9684167	2.2289946
5.496742872402727	5.0389185	2.2447536
5.514289867269756	4.9831204	2.2322905
5.531836991535049	4.9478927	2.224386
5.549384245612924	4.933594	2.2211695
5.566931629917724	4.957112	2.2264574
5.584479144863822	4.9813337	2.2318902
5.6020267908656205	5.079948	2.253874
5.619574568337545	5.0949016	2.2571888
5.637122477694054	5.120501	2.2628524
5.654670519349629	5.0889206	2.2558637
5.672218693718784	5.0344443	2.2437568
5.689767001216059	5.0352864	2.2439444
5.707315442256021	4.950282	2.224923
5.724864017253266	4.96832	2.228973
5.7424127266224225	4.9670153	2.2286801
5.75996157077814	4.9955287	2.2350678
5.777510550135105	5.0675807	2.2511287
5.795059665108022	5.0943747	2.2570722
5.812608916111639	5.166018	2.2728877
5.830158303560715	5.211572	2.2828867
5.847707827870055	5.146184	2.26852
5.86525748945448	5.1671743	2.2731419
5.8828072887288485	5.253088	2.2919617
5.900357226108044	5.403053	2.3244467
5.917907302006979	5.5732126	2.3607652
5.9354575168406	6.2003255	2.4900453
5.9530078710238765	6.685535	2.5856402
5.970558364971812	7.1147127	2.667342
5.988108999099438	7.3437924	2.7099433
6.005659773821818	7.76703	2.7869391
6.023210689554039	7.538283	2.7455933
6.040761746711227	7.900152	2.810721
6.058312945708531	7.3698545	2.7147477
6.075864286961132	7.0051994	2.6467338
6.093415770884244	6.4591455	2.5414848
6.1109673978931065	5.971723	2.443711
6.128519168402993	5.461496	2.3369844
6.146071082829204	5.298359	2.3018165
6.163623141587075	5.1282816	2.264571
6.181175345091969	4.9703565	2.2294297
6.198727693759281	4.951915	2.2252898
6.216280188004435	5.0018954	2.2364917
6.233832828242885	5.1197667	2.26269
6.251385614890126	5.1160274	2.2618637
6.268938548361669	5.018005	2.2400904
6.286491629073067	4.999205	2.2358902
6.304044857439898	4.9510264	2.2250903
6.321598233877777	4.9216113	2.2184706
6.339151758802344	4.858273	2.204149
6.356705432629277	4.882682	2.2096791
6.37425925577428	4.9101443	2.2158844
6.391813228653095	4.936276	2.2217731
6.409367351681486	4.905267	2.2147837
6.426921625275259	4.838664	2.1996963
6.44447604985025	4.8233166	2.1962051
6.46203062582232	4.8229218	2.1961153
6.47958535360737	4.8644257	2.2055442
6.497140233621328	4.878328	2.2086937
6.514695266280161	4.876018	2.2081707
6.532250451999859	4.839215	2.1998215
6.549805791196454	4.849971	2.202265
6.567361284286002	4.8495693	2.2021737
6.584916931684597	4.8789077	2.2088249
6.602472733808367	4.9141564	2.2167897
6.6200286910734665	5.007982	2.237852
6.637584803896092	5.002277	2.236577
6.655141072692462	5.0087495	2.2380235
6.672697497878842	4.960385	2.2271922
6.690254079871514	4.9257917	2.2194126
6.707810819086808	4.9220715	2.2185743
6.725367715941078	4.880596	2.209207
6.742924770850719	4.86343	2.2053187
6.760481984232151	4.8507357	2.2024386
6.778039356501836	4.9074993	2.2152877
6.795596888076266	4.9507427	2.2250264
6.813154579371963	4.914714	2.2169154
6.830712430805492	4.794253	2.1895783
6.84827044279344	4.7781005	2.1858866
6.865828615752445	4.8200884	2.1954699
6.883386950099159	4.899235	2.2134216
6.900945446250287	4.843333	2.2007573
6.918504104622553	4.8328066	2.1983645
6.936062925632727	4.8302503	2.197783
6.953621909697607	4.9369617	2.2219274
6.971181057234028	5.0192075	2.2403588
6.988740368658859	5.076004	2.2529988
7.006299844389007	5.090997	2.2563238
7.023859484841407	5.164063	2.2724574
7.041419290433036	5.28848	2.2996695
7.058979261580902	5.3835855	2.3202555
7.0765393987020495	5.5570207	2.3573334
7.094099702213559	5.936188	2.4364295
7.111660172532549	6.334931	2.516929
7.129220810076164	6.69072	2.5866427
7.146781615261595	7.2466283	2.6919563
7.16434258850606	7.395894	2.7195394
7.181903730226821	7.787944	2.7906888
7.1994650408411704	7.8429303	2.8005233
7.217026520766437	7.944395	2.8185804
7.234588170419983	8.214441	2.8660846
7.252149990219215	8.293883	2.8799102
7.269711980581568	8.312787	2.8831904
7.2872741419245175	8.1099615	2.8477993
7.304836474665574	7.596793	2.756228
7.322398979222286	7.2746124	2.697149
7.339961656012233	7.006116	2.6469069
7.357524505453039	6.7609825	2.600189
7.375087527962357	6.506319	2.5507488
7.392650723957886	6.2475047	2.499501
7.410214093857353	5.926249	2.4343889
7.427777638078528	5.676079	2.3824522
7.445341357039213	5.4498553	2.3344924
7.4629052511572525	5.277919	2.297372
7.480469320850524	5.209072	2.282339
7.498033566536948	5.138062	2.2667294
7.5155979886344735	5.086675	2.2553658
7.5331625875610975	5.0762005	2.2530425
7.550727363734844	5.048244	2.2468297
7.568292317573788	5.157716	2.2710605
7.585857449496025	5.168413	2.2734144
7.603422759919705	5.1891403	2.2779684
7.620988249263007	5.141661	2.267523
7.638553917944147	5.090012	2.2561054
7.656119766381391	5.050127	2.247249
7.673685794993023	5.034671	2.2438073
7.691252004197388	5.020377	2.24062
7.70881839441285	5.070168	2.2517033
7.726384966057826	5.1031327	2.2590115
7.743951719550762	5.103278	2.2590437
7.761518655310149	5.0596466	2.2493658
7.779085773754511	5.033412	2.2435267
7.796653075302419	5.011502	2.2386384
7.814220560372475	4.9930563	2.2345147
7.831788229383323	5.048121	2.2468023
7.8493560827536495	5.1583834	2.2712076
7.866924120902174	5.215665	2.283783
7.884492344247663	5.2584863	2.293139
7.9020607532089135	5.221747	2.2851143
7.919629348204771	5.261526	2.2938018
7.937198129654115	5.322182	2.3069856
7.954767097975865	5.316644	2.305785
7.972336253588986	5.3063474	2.303551
7.989905596912472	5.319455	2.3063943
8.007475128365371	5.341882	2.3112512
8.025044848366756	5.358927	2.3149357
8.042614757335754	5.48953	2.3429747
8.060184855691523	5.505813	2.346447
8.07775514385327	5.7364955	2.3950982
8.095325622240228	5.7616606	2.400346
8.112896291271687	5.756075	2.399182
8.130467151366968	5.775728	2.4032745
8.148038202945436	5.792436	2.406748
8.165609446426497	5.804661	2.4092863
8.183180882229594	5.805625	2.4094865
8.200752510774217	5.8215914	2.4127975
8.218324332479893	5.8100595	2.4104066
8.235896347766193	5.8275557	2.4140332
8.253468557052724	5.836053	2.4157925
8.27104096075914	5.8369584	2.4159799
8.288613559305137	5.8752894	2.4238997
8.306186353110448	5.934121	2.436005
8.32375934259485	6.0008707	2.4496675
8.341332528178162	6.0517297	2.4600263
8.358905910280246	6.1343813	2.4767683
8.376479489321003	6.2560635	2.5012124
8.394053265720377	6.323294	2.514616
8.411627239898356	6.3157425	2.5131142
8.42920141227497	6.2470737	2.4994147
8.44677578327029	6.18805	2.487579
8.464350353304427	6.118262	2.473512
8.48192512279754	6.125519	2.4749784
8.499500092169827	6.038829	2.457403
8.51707526184153	5.979516	2.4453049
8.534650632232934	5.945255	2.4382894
8.552226203764365	5.9655027	2.442438
8.569801976856192	6.0295396	2.455512
8.587377951928834	6.0893946	2.46767
8.60495412940274	6.136552	2.4772065
8.622530509698416	6.1554213	2.481012
8.6401070932364	6.188485	2.4876666
8.657683880437283	6.305274	2.5110304
8.675260871721695	6.5016155	2.5498266
8.692838067510303	6.7181354	2.5919366
8.710415468223834	6.8867626	2.6242642
8.727993074283043	6.994062	2.644629
8.745570886108737	6.981257	2.642207
8.763148904121765	6.963733	2.6388886
8.78072712874302	6.9938073	2.6445808
8.798305560393441	7.185245	2.6805308
8.815884199494006	7.334341	2.7081988
8.833463046465745	7.5035515	2.7392612
8.851042101729728	7.653672	2.7665272
8.86862136570707	7.952136	2.8199532
8.886200838818924	8.177679	2.8596642
8.903780521486505	8.273077	2.8762958
8.921360414131055	8.345181	2.8888028
8.938940517173874	8.364312	2.892112
8.956520831036297	8.435705	2.9044285
8.97410135613971	8.722124	2.9533243
8.99168209290554	8.938751	2.9897745
9.009263041755265	9.305235	3.0504484
9.026844203110405	9.613336	3.100538
9.044425577392525	9.804141	3.1311564
9.062007165023239	9.863565	3.1406314
9.079588966424197	10.080063	3.1749115
9.097170982017108	10.1649275	3.1882484
9.11475321222372	11.13442	3.336828
9.132335657465825	11.99573	3.4634852
9.149918318165264	12.118108	3.4811072
9.167501194743924	12.692013	3.562585
9.18508428762374	12.334608	3.5120661
9.202667597226693	12.391931	3.5202174
9.220251123974803	12.1069355	3.4795022
9.237834868290143	11.818132	3.437751
9.255418830594836	11.426212	3.380268
9.273003011311046	10.894457	3.3006752
9.290587410860985	10.664832	3.2657053
9.308172029666911	10.104081	3.1786916
9.32575686815113	9.862767	3.1405044
9.343341926735997	8.680312	2.9462368
9.360927205843916	8.485474	2.9129837
9.378512705897327	8.254207	2.8730135
9.396098427318728	8.006921	2.8296504
9.413684370530664	7.8938394	2.8095977
9.431270535955722	7.792414	2.7914896
9.448856924016539	7.71037	2.7767553
9.466443535135806	7.559122	2.7493858
9.484030369736251	7.5968432	2.7562373
9.501617428240658	7.5797324	2.7531314
9.519204711071852	7.6061482	2.7579246
9.536792218652714	7.65808	2.7673237
9.55437995140617	7.7176785	2.778071
9.571967909755191	7.8061733	2.793953
9.589556094122802	7.8076982	2.794226
9.60714450493207	7.6902547	2.773131
9.624733142606116	7.5897546	2.754951
9.642322007568108	7.5757747	2.7524126
9.659911100241267	7.6849375	2.772172
9.677500421048851	7.8185077	2.7961595
9.695089970414175	7.851258	2.8020096
9.712679748760609	7.9234343	2.8148596
9.730269756511557	7.919406	2.814144
9.747859994090492	8.027932	2.8333607
9.765450461920915	8.035785	2.834746
9.78304116042639	8.095789	2.84531
9.800632090030527	8.112201	2.8481925
9.81822325115699	8.104343	2.846813
9.835814644229481	8.063224	2.8395817
9.853406269671762	8.112492	2.8482437
9.870998127907646	8.124842	2.8504107
9.888590219360985	8.153322	2.8554022
9.906182544455698	8.152516	2.855261
9.923775103615734	8.200053	2.8635736
9.941367897265108	8.120885	2.8497167
9.958960925827878	8.111425	2.8480563
9.97655418972816	8.132655	2.8517811
9.994147689390106	8.155124	2.8557177
10.011741425237934	8.09013	2.8443153
10.029335397695904	8.011114	2.8303912
10.04692960718833	8.012132	2.830571
10.06452405413958	8.070901	2.840933
10.082118738974064	8.126642	2.8507266
10.099713662116246	8.102663	2.8465178
10.117308823990651	8.017902	2.8315902
10.134904225021844	8.009397	2.8300877
10.152499865634445	8.064593	2.8398228
10.170095746253125	8.1462755	2.8541682
10.18769186730261	8.14302	2.8535976
10.205288229207675	8.042371	2.8359075
10.222884832393145	7.918736	2.814025
10.2404816772839	7.8595934	2.8034966
10.258078764304868	7.8578386	2.8031836
10.275676093881035	7.82163	2.7967176
10.293273666437438	7.8103323	2.7946973
10.310871482399158	7.789097	2.7908955
10.32846954219134	7.8157825	2.7956722
10.346067846239173	7.8738174	2.8060324
10.363666394967908	7.8887553	2.808693
10.38126518880283	7.940985	2.8179753
10.398864228169298	7.95058	2.8196774
10.416463513492713	7.9897857	2.8266208
10.434063045198531	7.9808345	2.825037
10.451662823712262	7.928533	2.8157651
10.469262849459467	7.944649	2.8186255
10.486863122865758	7.879867	2.80711
10.504463644356806	7.870853	2.805504
10.522064414358338	7.833715	2.7988775
10.539665433296118	7.7924404	2.7914944
10.557266701595987	7.706288	2.77602
10.574868219683818	7.647203	2.7653577
10.592469987985552	7.55707	2.7490125
10.610072006927185	7.413813	2.7228317
10.627674276934751	7.2933574	2.7006216
10.64527679843435	7.1744857	2.678523
10.662879571852143	7.091768	2.6630373
10.680482597614331	7.0477133	2.654753
10.698085876147173	6.9366283	2.633748
10.715689407876988	6.823721	2.6122253
10.733293193230146	6.7395844	2.596071
10.750897232633072	6.6248283	2.5738742
10.76850152651225	6.503819	2.5502586
10.786106075294207	6.4230413	2.534372
10.803710879405534	6.339061	2.517749
10.821315939272877	6.3151565	2.5129974
10.83892125532294	6.2038994	2.4907627
10.856526827982472	6.208574	2.491701
10.874132657678285	6.17116	2.4841821
10.891738744837243	6.1455636	2.4790246
10.909345089886271	6.0268645	2.4549673
10.926951693252343	5.9124613	2.4315553
10.944558555362494	5.879554	2.4247792
10.96216567664381	5.814301	2.411286
10.979773057523436	5.7112722	2.3898268
10.997380698428573	5.6984806	2.387149
11.014988599786477	5.634466	2.373703
11.032596762024461	5.609819	2.3685057
11.050205185569892	5.510363	2.3474162
11.067813870850198	5.457067	2.3360367
11.085422818292859	5.3706927	2.3174756
11.10303202832541	5.300806	2.302348
11.120641501375454	5.286552	2.2992504
11.138251237870636	5.271883	2.2960582
11.155861238238671	5.200179	2.28039
11.173471502907317	5.1581097	2.2711473
11.191082032304402	5.073736	2.2524955
11.208692826857805	5.0765805	2.2531269
11.226303886995465	5.0476665	2.2467012
11.243915213145371	4.9325976	2.2209451
11.261526805735578	4.8058167	2.1922174
11.279138665194196	4.709941	2.17024
11.296750791949393	4.657787	2.1581907
11.314363186429393	4.6514764	2.1567283
11.331975849062479	4.7031355	2.1686714
11.34958878027699	4.6397758	2.1540139
11.36720198050133	4.5423903	2.1312885
11.384815450163948	4.43145	2.1051009
11.402429189693366	4.4013495	2.0979393
11.420043199518153	4.3803844	2.0929368
11.437657480066942	63.327175	7.957837
11.455272031768422	85.01176	9.220182
11.472886855051353	107.352806	10.36112
11.490501950344528	98.940994	9.946909
11.508117318076819	84.290565	9.180989
11.52573295867715	45.73565	6.7628136
11.543348872574514	4.0351057	2.0087574
11.560965060197946	3.9919086	1.9979761
11.57858152197655	3.90514	1.9761426
11.59619825833949	3.9020143	1.9753517
11.613815269715985	3.9045608	1.9759961
11.631432556535323	38.462906	6.201847
11.649050119226837	82.98078	9.109379
11.666667958219929	93.35666	9.662125
11.68428607394406	107.64987	10.375445
11.701904466828756	82.52952	9.084576
11.719523137303586	65.34832	8.083831
11.737142085798196	4.5378537	2.1302238
11.754761312742286	3.6413167	1.9082234
11.772380818565619	3.6323404	1.90587
11.790000603698015	3.624402	1.9037862
11.80762066856935	3.593956	1.8957732
11.825241013609572	3.5679593	1.8889042
11.842861639248683	3.527443	1.8781488
11.860482545916748	3.4621246	1.8606786
11.878103734043883	3.3991468	1.8436775
11.895725204060282	3.3408656	1.8278035
11.91334695639619	3.3145754	1.8205975
11.930968991481919	3.3154309	1.8208325
11.948591309747824	3.2910242	1.814118
11.966213911624347	3.3166456	1.821166
11.98383679754198	3.3304808	1.8249605
12.001459967931268	3.3216443	1.8225379
12.019083423222835	3.2542489	1.8039536
12.036707163847352	3.2081554	1.7911325
12.05433119023556	3.1733818	1.7813989
12.071955502818259	3.1660569	1.7793417
12.089580102026313	3.1643555	1.7788635
12.107204988290643	3.16301	1.7784853
12.12483016204224	3.1240358	1.7674942
12.142455623712152	3.0584228	1.7488347
12.16008137373149	3.0492249	1.746203
12.177707412531431	3.049285	1.7462202
12.19533374054321	3.0431871	1.7444733
12.212960358198126	3.010272	1.7350136
12.230587265927545	2.9514592	1.7179811
12.248214464162889	2.9466145	1.7165706
12.265841953335649	2.9508667	1.7178087
12.283469733877375	2.9458268	1.7163411
12.301097806219685	2.9507558	1.7177764
12.31872617079425	2.9477472	1.7169005
12.336354828032825	2.927734	1.7110622
12.353983778367205	2.8378997	1.6846067
12.371613022229262	2.7974598	1.6725608
12.389242560050928	2.740577	1.6554688
12.406872392264201	2.7613628	1.6617348
12.424502519301143	2.791535	1.6707888
12.442132941593874	2.8025014	1.6740674
12.459763659574586	2.7881606	1.6697786
12.477394673675532	2.745782	1.6570401
12.49502598432903	2.7616808	1.6618305
12.51265759196746	2.793648	1.6714209
12.530289497023267	2.8039815	1.6745093
12.547921699928967	2.7660258	1.6631373
12.565554201117134	2.7861114	1.6691649
12.583187001020404	2.7764103	1.6662564
12.600820100071486	2.7917886	1.6708646
12.618453498703152	2.7590125	1.6610276
12.636087197348235	2.7584805	1.6608675
12.65372119643964	2.7269173	1.651338
12.671355496410326	2.7498903	1.6582793
12.68899009769333	2.7978745	1.6726848
12.706625000721749	2.8741455	1.6953305
12.724260205928752	2.903441	1.7039486
12.741895713747551	2.8640628	1.6923542
12.759531524611454	2.8503938	1.688311
12.777167638953818	2.8845758	1.698404
12.794804057208072	2.9540286	1.7187288
12.812440779807702	2.9969199	1.7311615
12.830077807186271	3.1418881	1.7725372
12.847715139777405	3.192821	1.7868466
12.865352778014795	3.4013796	1.844283
12.882990722332197	3.481049	1.865757
12.90062897316344	3.529262	1.878633
12.918267530942412	3.6310415	1.9055291
12.935906396103071	3.5007336	1.8710247
12.953545569079449	3.6741965	1.9168193
12.971185050305628	3.4806783	1.8656576
12.988824840215775	3.5267577	1.8779664
13.006464939244115	3.579604	1.8919841
13.024105347824943	3.4476252	1.8567781
13.041746066392617	3.5185142	1.8757703
13.05938709538157	3.3208315	1.8223149
13.077028435226296	3.3314795	1.825234
13.094670086361363	3.227449	1.7965102
13.112312049221401	3.1100175	1.7635242
13.129954324241112	3.0023124	1.7327182
13.147596911855258	2.8139198	1.6774743
13.165239812498685	2.7936978	1.6714358
13.182883026606293	2.732807	1.6531204
13.200526554613058	2.7127118	1.6470312
13.218170396954017	2.662132	1.6316041
13.235814554064284	2.6014314	1.6128954
13.253459026379034	2.5933824	1.6103982
13.271103814333523	2.6328363	1.6226017
13.288748918363058	2.678752	1.6366893
13.306394338903031	2.65763	1.6302239
13.32404007638889	2.6105597	1.6157227
13.341686131256164	2.629118	1.6214556
13.359332503940449	2.617616	1.6179048
13.376979194877402	2.6448903	1.6263119
13.394626204502751	2.6848502	1.6385512
13.412273533252307	2.7101517	1.6462538
13.429921181561937	2.6576445	1.6302284
13.447569149867581	2.6490264	1.627583
13.465217438605247	2.6923726	1.6408451
13.482866048211022	2.7078567	1.6455567
13.500514979121052	2.6958373	1.6419005
13.518164231771568	2.6564777	1.6298704
13.535813806598844	2.655386	1.6295356
13.553463704039254	2.6265543	1.6206647
13.571113924529229	2.5858934	1.6080713
13.588764468505275	2.5611906	1.6003721
13.606415336403956	2.5954437	1.6110381
13.624066528661917	2.6500335	1.6278924
13.641718045715882	2.722056	1.6498654
13.659369888002635	2.7917056	1.6708398
13.67702205595903	2.8437636	1.6863462
13.694674550021993	2.9429991	1.7155172
13.712327370628532	2.9698255	1.7233182
13.729980518215713	3.0272887	1.7399105
13.747633993220681	3.0566523	1.7483284
13.765287796080647	3.0843518	1.7562323
13.7829419272329	3.1423562	1.7726692
13.800596387114801	3.170029	1.7804575
13.818251176163775	3.2448955	1.8013593
13.835906294817324	3.3187687	1.8217489
13.853561743513023	3.3837166	1.8394881
13.871217522688525	3.4435058	1.8556685
13.888873632781538	3.4540677	1.8585123
13.906530074229858	3.465101	1.8614782
13.92418684747135	3.4589782	1.8598329
13.941843952943948	3.466321	1.8618058
13.959501391085665	3.4448187	1.8560222
13.977159162334578	3.3620548	1.8335907
13.994817267128846	3.325507	1.8235972
14.012475705906693	3.2391825	1.7997729
14.030134479106424	3.1768472	1.7823713
14.047793587166414	3.1034513	1.7616615
14.065453030525108	3.0301619	1.740736
14.083112809621026	2.9388115	1.7142962
14.100772924892766	2.880079	1.6970795
14.118433376778997	2.8556163	1.6898569
14.136094165718458	2.829725	1.6821786
14.153755292149969	2.7859082	1.669104
14.171416756512416	2.7149253	1.647703
14.189078559244768	2.6301186	1.6217641
14.20674070078606	2.559527	1.5998522
14.224403181575408	2.5135925	1.5854313
14.242066002051999	2.4434521	1.5631546
14.259729162655093	2.3893874	1.5457643
14.277392663824022	2.352812	1.5338879
14.295056505998208	2.3470256	1.5320005
14.312720689617128	2.3349857	1.528066
14.330385215120348	2.346772	1.5319177
14.348050082947497	2.354296	1.5343715
14.3657152935383	2.336355	1.528514
14.383380847332528	2.3349664	1.5280597
14.401046744770051	2.3347838	1.5279999
14.418712986290798	2.3738892	1.5407431
14.436379572334793	2.3765414	1.5416036
14.454046503342123	2.362968	1.5371948
14.471713779752946	2.3537037	1.5341785
14.489381402007504	2.3522565	1.5337068
14.507049370546113	2.3700113	1.5394841
14.524717685809168	2.375548	1.5412812
14.542386348237134	2.3720489	1.5401458
14.560055358270553	2.3454483	1.5314857
14.577724716350051	2.3494592	1.5327946
14.595394422916325	2.3473961	1.5321214
14.61306447841015	2.4027185	1.5500705
14.63073488327237	2.411249	1.5528196
14.648405637943917	2.4535213	1.566372
14.6660767428658	2.4508765	1.5655276
14.683748198479094	2.454596	1.566715
14.701420005224954	2.5012498	1.581534
14.719092163544628	2.604859	1.6139576
14.73676467387942	2.6189258	1.6183095
14.754437536670727	2.5922656	1.6100514
14.772110752360014	2.5911891	1.6097171
14.78978432138882	2.6293297	1.6215208
14.807458244198777	2.6760235	1.6358556
14.82513252123159	2.6322203	1.6224118
14.842807152929028	2.648961	1.6275629
14.860482139732962	2.6282077	1.6211748
14.87815748208531	2.6003802	1.6125695
14.8958331804281	2.6122696	1.6162517
14.91350923520342	2.5753374	1.6047858
14.931185646853438	2.6402597	1.6248876
14.948862415820408	2.6242228	1.6199453
14.966539542546656	2.6165564	1.6175773
14.98421702747459	2.5851777	1.6078488
15.001894871046696	2.6123774	1.6162851
15.019573073705542	2.617397	1.6178372
15.037251635893766	2.5793073	1.6060222
15.054930558054092	2.5456161	1.5954987
15.072609840629323	2.5529697	1.5978016
15.090289484062351	2.6887224	1.6397324
15.107969488796124	2.8331804	1.6832054
15.125649855273691	3.077998	1.7544224
15.14333058393817	3.4485066	1.8570155
15.161011675232768	4.0230803	2.0057619
15.17869312960076	4.646985	2.1556866
15.196374947485506	5.3295174	2.3085747
15.214057129330447	6.695034	2.5874765
15.231739675579114	8.907455	2.9845362
15.249422586675102	13.514757	3.6762424
15.267105863062092	17.944096	4.2360473
15.284789505183847	24.948788	4.994876
15.302473513484218	29.750938	5.454442
15.320157888407127	33.981537	5.8293686
15.337842630396578	33.06846	5.7505183
15.355527739896656	30.290098	5.503644
15.37321321735153	23.522173	4.849966
15.39089906320545	15.985042	3.9981298
15.408585277902748	10.24264	3.2004125
15.42627186188783	6.420151	2.5338018
15.443958815605198	4.56574	2.1367593
15.461646139499424	3.7810798	1.9444999
15.479333834015168	3.3138766	1.8204056
15.497021899597165	3.0060558	1.7337981
15.514710336690234	2.76158	1.6618003
15.53239914573928	2.616135	1.617447
15.550088327189297	2.5383506	1.5932202
15.567777881485336	2.5198228	1.587395
15.58546780907256	2.5006962	1.5813589
15.6031581103962	2.5008264	1.5814002
15.620848785901568	2.477593	1.5740372
15.638539836034063	2.466361	1.5704652
15.656231261239173	2.4231548	1.5566486
15.673923061962451	2.3884838	1.545472
15.691615238649552	2.3540893	1.5343041
15.709307791746202	2.361493	1.536715
15.727000721698221	2.4017808	1.549768
15.744694028951498	2.4101512	1.5524662
15.76238771395202	2.3959663	1.5478909
15.780081777145844	2.3295736	1.5262941
15.797776218979125	2.335843	1.5283465
15.815471039898094	2.3632517	1.5372871
15.833166240349064	2.4004457	1.5493371
15.850861820778437	2.427967	1.5581936
15.868557781632699	2.4410772	1.5623947
15.886254123358412	2.400442	1.549336
15.903950846402232	2.3759181	1.5414014
15.921647951210897	2.3881435	1.545362
15.939345438231225	2.4588017	1.5680567
15.957043307910133	2.5150197	1.5858814
15.974741560694602	2.5013952	1.5815799
15.992440197031714	2.4538217	1.5664679
16.01013921736862	2.439363	1.561846
16.02783862215259	2.4511714	1.5656217
16.045538411830933	2.4471753	1.564345
16.06323858685107	2.4062407	1.5512062
16.080939147660512	2.3883717	1.5454358
16.09864009470684	2.3805254	1.5428951
16.11634142843774	2.3822513	1.5434543
16.134043149300954	2.373033	1.5404652
16.15174525774433	2.3942354	1.5473317
16.169447754215817	2.3749049	1.5410726
16.18715063916342	2.3709674	1.5397946
16.204853913035244	2.371362	1.5399227
16.222557576279478	2.4293683	1.5586431
16.240261629344403	22.404024	4.733289
16.257966072678386	42.947624	6.553444
16.275670906729868	38.039352	6.167605
16.293376131947387	2.4743671	1.5730121
16.31108174877957	2.4963453	1.5799826
16.328787757675133	2.5159054	1.5861605
16.34649415908287	2.5481308	1.5962865
16.364200953451657	2.5848396	1.6077436
16.38190814123048	2.6130059	1.6164795
16.39961572286839	2.6573715	1.6301446
16.41732369881455	2.7233264	1.6502504
16.43503206951817	2.6932857	1.6411233
16.45274083542859	2.7008464	1.6434252
16.47044999699522	2.721018	1.6495509
16.488159554667558	2.7881315	1.6697699
16.505869508895184	2.8381224	1.6846728
16.523579860127786	2.9281447	1.7111822
16.541290608815117	3.0015306	1.7324926
16.559001755407035	3.0524147	1.7471161
16.57671330035348	3.1180792	1.7658083
16.59442524410448	3.2348754	1.798576
16.61213758711015	3.3920124	1.8417417
16.629850329820705	3.4478106	1.8568281
16.647563472686436	3.4998596	1.8707912
16.665277016157724	3.4116752	1.8470721
16.682990960685053	3.3798726	1.8384429
16.70070530671898	3.3565197	1.8320807
16.718420054710155	3.4008884	1.8441498
16.736135205109335	3.4420924	1.8552877
16.753850758367335	3.4661503	1.86176
16.771566714935087	3.51924	1.8759637
16.789283075263597	3.6384037	1.90746
16.80699983980398	3.7407582	1.934104
16.82471700900741	3.8030608	1.9501438
16.84243458332518	3.8152394	1.9532638
16.860152563208665	3.8889856	1.9720511
16.87787094910932	3.9825888	1.9956424
16.89558974147871	4.088471	2.0219967
16.913308940768466	4.188207	2.046511
16.931028547430333	4.229883	2.056668
16.94874856191613	4.286606	2.070412
16.966468984677785	4.3018694	2.0740948
16.98418981616729	4.2734375	2.0672295
17.00191105683676	4.2682223	2.0659676
17.019632707138374	4.268894	2.0661302
17.03735476752442	4.2874765	2.0706222
17.05507723844728	4.363278	2.088846
17.072800120359403	4.474434	2.1152859
17.090523413713353	4.5117803	2.1240952
17.108247118961785	4.527823	2.1278682
17.125971236557437	4.5507026	2.1332376
17.143695766953133	4.6031203	2.1454883
17.161420710601806	4.6020737	2.1452444
17.179146067956477	4.611865	2.1475253
17.19687183947025	4.600923	2.1449761
17.21459802559634	4.628257	2.1513383
17.232324626788028	4.6160808	2.1485066
17.25005164349871	4.613158	2.1478264
17.267779076181863	4.54013	2.130758
17.285506925291074	4.4937425	2.119845
17.30323519127999	4.4807477	2.1167777
17.320963874602384	4.5040092	2.122265
17.33869297571211	4.474066	2.1151989
17.356422495063114	4.4219236	2.102837
17.37415243310944	4.4352174	2.1059957
17.391882790305218	4.438505	2.106776
17.40961356710468	4.4367905	2.106369
17.42734476396215	4.4138336	2.1009126
17.445076381332044	4.441575	2.1075044
17.462808419668868	4.517154	2.1253598
17.48054087942723	4.590482	2.1425412
17.498273761061835	4.766908	2.183325
17.51600706502747	5.116823	2.2620397
17.533740791779024	5.7742157	2.4029598
17.551474941771485	6.7081566	2.590011
17.56920951545993	8.663008	2.9432988
17.586944513299528	9.883879	3.1438637
17.60467993574556	12.699873	3.563688
17.622415783253373	15.29697	3.9111342
17.64015205627843	18.044294	4.2478576
17.657888755276293	20.32141	4.5079274
17.675625880702604	21.708214	4.6592073
17.69336343301311	20.184187	4.4926815
17.71110141266366	18.097235	4.2540846
17.728839820110178	15.521917	3.9397864
17.746578655808705	12.4948015	3.5347986
17.764317920215372	10.375773	3.2211447
17.7820576137864	8.612554	2.9347153
17.79979773697811	7.2343903	2.6896822
17.81753829024692	5.8765945	2.4241688
17.835279274049356	5.076256	2.2530549
17.85302068884201	4.398579	2.097279
17.870762535081607	4.09859	2.0244975
17.888504813224934	3.9059916	1.9763582
17.90624752372891	3.7589078	1.9387903
17.923990667050536	3.6181836	1.9021524
17.941734243646895	3.4889374	1.8678697
17.959478253975185	3.4244063	1.8505151
17.9772226984927	3.4085681	1.8462307
17.994967577656833	3.39821	1.8434235
18.01271289192506	3.3531098	1.8311498
18.030458641754965	3.2788174	1.8107505
18.04820482760425	3.2626183	1.8062719
18.06595144993067	3.2420096	1.8005581
18.083698509192125	3.2340944	1.7983588
18.101446005846576	3.2116902	1.7921189
18.119193940352105	3.19613	1.7877724
18.136942313166887	3.1948035	1.7874013
18.1546911247492	3.1739118	1.7815475
18.1724403755574	3.1225483	1.7670734
18.19019006604997	3.043062	1.7444375
18.207940196685467	3.0535805	1.7474498
18.225690767922575	3.053614	1.7474593
18.243441780220046	3.0679274	1.75155
18.261193234036764	3.0577693	1.7486478
18.278945129831676	3.0449228	1.7449707
18.29669746806386	3.0284104	1.7402328
18.314450249192483	2.9946613	1.7305089
18.3322034736768	2.9535635	1.7185935
18.349957141976184	2.940457	1.7147762
18.3677112545501	2.9872656	1.7283708
18.385465811858108	3.0363216	1.7425044
18.403220814359884	3.0338311	1.7417896
18.420976262515172	3.0191784	1.7375783
18.43873215678387	3.0454447	1.7451203
18.456488497625923	3.1077006	1.7628671
18.474245285501407	3.179099	1.7830029
18.492002520870486	3.2419167	1.8005323
18.50976020419343	3.2961555	1.8155317
18.527518335930615	3.5662265	1.8884455
18.545276916542516	4.0996246	2.024753
18.563035946489688	4.2874966	2.0706272
18.580795426232832	4.688982	2.1654058
18.598555356232698	4.598822	2.1444864
18.616315736950185	4.89272	2.2119493
18.63407656884626	4.5653615	2.1366706
18.65183785238201	4.7687035	2.183736
18.669599588018617	4.5545177	2.1341317
18.68736177621737	4.545416	2.131998
18.705124417439652	4.5404487	2.130833
18.72288751214696	4.352166	2.0861845
18.740651060800886	4.455115	2.1107142
18.758415063863115	4.161443	2.0399616
18.77617952179546	4.3104267	2.0761566
18.793944435059814	4.1154194	2.0286496
18.811709804118184	4.082752	2.0205822
18.829475629432675	4.0202756	2.0050626
18.8472419114655	3.8201134	1.954511
18.86500865067897	3.9383838	1.9845362
18.88277584753551	3.6992013	1.9233308
18.90054350249763	3.7363858	1.9329733
18.918311616027957	3.4164598	1.8483667
18.936080188589226	3.3016596	1.817047
18.953849220644265	2.9851804	1.7277675
18.971618712656007	2.8303158	1.6823542
18.9893886650875	2.7662807	1.663214
19.007159078401887	7.9856586	2.8258908
19.024929953062408	32.90306	5.736119
19.042701289532435	32.844566	5.731018
19.060473088275405	25.38464	5.038317
19.07824534975489	2.654746	1.6293391
19.096018074434568	2.6158893	1.6173711
19.113791262778197	2.5908778	1.6096203
19.13156491524966	2.5584803	1.599525
19.149339032312945	2.5540736	1.5981469
19.167113614432136	2.546321	1.5957196
19.184888662071433	2.4878488	1.5772916
19.202664175695123	2.457176	1.5675381
19.220440155767623	2.4571087	1.5675167
19.238216602753447	2.5347726	1.5920969
19.2559935171172	2.52184	1.5880302
19.27377089932361	2.5006275	1.5813372
19.291548749837514	2.4436984	1.5632334
19.309327069123835	2.4430394	1.5630225
19.32710585764763	2.4513347	1.5656738
19.344885115874032	2.4729495	1.5725615
19.362664844268313	2.4903252	1.5780765
19.380445043295822	2.4847941	1.576323
19.39822571342203	2.4538302	1.5664706
19.41600685511252	2.442573	1.5628734
19.43378846883297	2.463044	1.5694088
19.451570555049173	2.456042	1.5671765
19.469353114227037	2.4302995	1.5589418
19.48713614683254	2.4137864	1.5536366
19.50491965333182	2.4441574	1.5633801
19.52270363419109	2.4659233	1.5703259
19.540488089876686	2.488358	1.577453
19.55827302085503	2.4421394	1.5627346
19.576058427592674	2.4455388	1.5638218
19.593844310556282	2.3998532	1.5491459
19.611630670212598	2.4193888	1.5554384
19.629417507028506	2.4366918	1.5609907
19.64720482147098	2.4959235	1.5798492
19.6649926140071	2.523757	1.5886337
19.682780885104084	2.5343406	1.5919613
19.70056963522921	2.4532263	1.5662779
19.718358864849908	2.4102354	1.5524933
19.7361485744337	2.3904169	1.5460973
19.753938764448215	2.4425156	1.562855
19.771729435361202	2.4684918	1.5711435
19.789520587640506	2.4623458	1.5691863
19.807312221754092	2.4371898	1.5611502
19.825104338170043	2.4145105	1.5538695
19.842896937356517	2.457822	1.5677443
19.860690019781824	2.4854133	1.5765194
19.87848358591436	2.4958687	1.5798318
19.896277636222635	2.4985483	1.5806797
19.914072171175278	2.491164	1.5783422
19.931867191241015	2.4968166	1.5801319
19.94966269688869	2.5202436	1.5875275
19.967458688587264	2.4926143	1.5788015
19.985255166805807	2.419943	1.5556166
20.00305213201348	2.3663485	1.5382941
20.020849584679578	2.3557136	1.5348334
20.038647525273507	2.3922114	1.5466776
20.05644595426477	2.3912761	1.5463752
20.07424487212299	2.3914714	1.5464383
20.092044279317903	2.4142044	1.553771
20.109844176319353	2.4858117	1.5766457
20.127644563597304	2.4701202	1.5716616
20.145445441621817	2.441137	1.5624138
20.16324681086307	2.4021163	1.5498762
20.181048671791373	2.4532194	1.5662756
20.198851024877122	2.4396472	1.561937
20.216653870590836	2.394855	1.547532
20.234457209403146	2.3598714	1.5361873
20.252261041784802	2.3521163	1.5336611
20.270065368206662	2.3259869	1.5251186
20.287870189139685	2.300358	1.5166931
20.305675505054968	2.2950165	1.5149312
20.323481316423702	2.2940214	1.5146027
20.341287623717207	2.2985811	1.5161072
20.359094427406884	2.3132803	1.5209472
20.376901727964288	2.3321233	1.527129
20.39470952586107	2.3549118	1.5345722
20.41251782156899	2.3464184	1.5318023
20.430326615559935	2.3136187	1.5210584
20.448135908305886	2.2727768	1.5075731
20.465945700278965	2.3168337	1.5221149
20.483755991951384	2.3270702	1.5254738
20.50156678379548	2.30172	1.517142
20.519378076283708	2.260289	1.5034257
20.537189869888635	2.2706835	1.5068787
20.55500216508294	2.2784507	1.5094538
20.572814962339415	2.2921746	1.5139929
20.59062826213098	2.276786	1.5089023
20.60844206493066	2.2743318	1.5080888
20.626256371211593	2.2816937	1.5105276
20.644071181447032	2.3023698	1.5173562
20.66188649611036	2.3016663	1.5171243
20.67970231567506	2.3147767	1.521439
20.697518640614742	2.3180325	1.5225086
20.715335471403122	2.283264	1.5110472
20.73315280851404	2.268871	1.5062772
20.750970652421447	2.2203913	1.4900978
20.768789003599412	2.211462	1.4870986
20.786607862522136	2.2296968	1.4932169
20.8044272296639	2.297319	1.5156909
20.82224710549913	2.289082	1.5129713
20.84006749050237	2.2714562	1.5071352
20.857888385148268	3.8323119	1.9576292
20.8757097899116	45.913174	6.775926
20.893531705267254	64.76001	8.04736
20.911354131690224	83.78499	9.153414
20.92917706965566	69.059204	8.310186
20.94700051963877	50.122643	7.079735
20.96482448211493	29.388773	5.421141
20.982648957559622	4.0797896	2.0198488
21.00047394644843	2.1736994	1.4743471
21.01829944925707	2.1725898	1.4739708
21.036125466461375	2.2095401	1.4864522
21.053951998537297	2.2167902	1.4888889
21.071779045960906	2.2003865	1.48337
21.089606609208378	2.2030334	1.4842619
21.10743468875603	2.1738017	1.4743818
21.12526328508028	2.1419752	1.4635488
21.143092398657675	2.1164038	1.4547865
21.16092202996488	2.1342487	1.4609069
21.17875217947867	2.1611223	1.4700756
21.19658284767596	2.1196644	1.4559067
21.21441403503377	2.0987601	1.4487098
21.232245742029225	2.130738	1.4597048
21.2500779691396	2.1507635	1.4665482
21.26791071684227	2.137491	1.4620161
21.28574398561475	2.129734	1.4593608
21.30357777593465	2.156914	1.4686435
21.321412088279704	2.1780837	1.4758332
21.339246923127792	2.1858263	1.478454
21.357082280956888	2.161536	1.4702163
21.3749181622451	2.134045	1.460837
21.392754567470647	2.1098144	1.45252
21.41059149711187	2.1046064	1.4507262
21.42842895164726	2.0893538	1.4454597
21.446266931555378	2.0719404	1.4394237
21.464105437314945	2.0965486	1.4479463
21.481944469404798	2.1498935	1.4662515
21.49978402830388	2.1405196	1.4630514
21.51762411449127	2.1181116	1.4553734
21.53546472844617	2.0746856	1.4403769
21.553305870647876	2.0564225	1.4340231
21.571147541575865	2.0327685	1.4257519
21.58898974170967	2.0442576	1.4297754
21.60683247152899	2.0486097	1.4312965
21.62467573151363	2.041356	1.4287603
21.642519522143523	2.0330276	1.4258428
21.660363843898722	2.0289729	1.4244202
21.6782086972594	2.0392835	1.4280349
21.696054082705864	2.0066392	1.416559
21.713900000718535	1.991722	1.4112839
21.73174645177795	1.9947224	1.4123464
21.749593436364794	2.0119843	1.4184444
21.767440954959845	2.0268574	1.4236774
21.785289008044032	2.0285246	1.4242629
21.803137596098388	2.0138535	1.419103
21.820986719604086	1.9641858	1.4014941
21.838836379042412	1.9468814	1.395307
21.85668657489478	1.9701664	1.4036262
21.87453730764273	1.9864758	1.409424
21.892388577767914	1.9898162	1.4106084
21.91024038575213	1.9852418	1.4089861
21.928092732077285	1.9745952	1.4052029
21.945945617225426	1.9497689	1.3963412
21.963799041678694	1.957149	1.3989815
21.981653005919398	31.274673	5.592376
21.999507510429943	78.0401	8.834031
22.01736255569286	72.98318	8.543019
22.035218142190818	4.117104	2.029065
22.05307427040661	1.9711807	1.4039874
22.07093094082315	1.9749895	1.4053432
22.088788153923474	1.9523752	1.3972741
22.106645910190746	1.968049	1.4028717
22.12450421010827	1.9735727	1.404839
22.142363054159464	1.9363893	1.3915421
22.16022244282787	1.9002057	1.3784795
22.178082376597164	1.8961875	1.3770213
22.195942855951145	1.9116819	1.3826358
22.213803881373742	1.9459704	1.3949804
22.231665453349002	1.9612976	1.4004633
22.24952757236111	1.9930413	1.4117512
22.26739023889438	1.9826268	1.4080578
22.28525345343323	1.9523691	1.397272
22.30311721646225	1.9220881	1.3863939
22.320981528466113	1.9503552	1.3965511
22.33884638992964	1.9945233	1.4122759
22.356711801337788	1.9953512	1.412569
22.37457776317561	1.9702932	1.4036713
22.392444275928337	1.9586859	1.3995306
22.410311340081282	1.970419	1.4037162
22.428178956119904	1.9474254	1.3955019
22.446047124529805	1.9052807	1.3803191
22.46391584579669	1.8781307	1.3704491
22.481785120406414	1.9067899	1.3808657
22.49965494884496	1.9167781	1.3844775
22.51752533159841	1.9365611	1.3916038
22.53539626915302	1.9478779	1.395664
22.553267761995137	1.9679129	1.4028232
22.571139810611264	1.9425229	1.3937442
22.589012415488025	1.9229776	1.3867147
22.60688557711216	1.9046985	1.3801081
22.624759295970566	1.9088565	1.3816137
22.642633572550263	1.9198029	1.3855696
22.660508407338362	1.9176441	1.3847903
22.67838380082217	1.9649483	1.4017662
22.696259753489077	1.9795347	1.4069594
22.714136265826614	1.951455	1.3969449
22.73201333832246	1.903471	1.3796633
22.74989097146439	1.9454259	1.3947853
22.76776916574035	1.9554788	1.3983843
22.785647921638393	1.9078285	1.3812417
22.803527239646712	1.8585311	1.3632796
22.82140712025363	1.8607674	1.3640995
22.839287563947593	1.8813301	1.3716159
22.85716857121719	1.8806896	1.3713824
22.875050142551135	1.8982756	1.3777792
22.892932278438277	1.8739482	1.3689222
22.910814979367604	1.8634235	1.3650727
22.928698245828222	1.8331237	1.3539289
22.946582078309387	1.8579484	1.3630658
22.96446647730047	1.8912232	1.3752176
22.98235144329098	1.8872243	1.3737628
23.000236976770562	1.8641831	1.3653508
23.018123078229	1.8752049	1.3693812
23.03600974815619	1.8666457	1.3662524
23.053896987042194	1.8564754	1.3625253
23.071784795377173	1.8353412	1.3547477
23.08967317365145	1.833161	1.3539428
23.10756212235546	1.8288404	1.3523463
23.125451641979787	1.8583285	1.3632052
23.143341733015134	1.9251112	1.3874837
23.161232395952357	1.9411385	1.3932475
23.179123631282426	1.9153609	1.3839656
23.197015439496468	1.8935622	1.3760676
23.214907821085717	1.9086697	1.3815461
23.23280077654157	1.9379306	1.3920958
23.250694306355538	1.9575146	1.3991121
23.268588411019277	1.9354348	1.3911991
23.28648309102458	1.9263396	1.3879263
23.304378346863356	1.9287186	1.3887831
23.322274179027676	1.9040864	1.3798864
23.340170588009723	1.8957834	1.3768746
23.358067574301852	1.8824449	1.3720222
23.37596513839651	1.9075141	1.3811278
23.39386328078629	1.9252435	1.3875314
23.411762001963947	1.8902707	1.3748711
23.429661302422353	1.8677844	1.366669
23.4475611826545	1.8836241	1.3724519
23.46546164315356	1.8736435	1.368811
23.48336268441279	1.8841282	1.3726355
23.501264306925638	1.8902808	1.3748748
23.51916651118564	1.9107985	1.3823164
23.537069297686497	1.8867809	1.3736014
23.554972666922037	1.89668	1.3772
23.57287661938623	1.9080075	1.3813064
23.59078115557318	1.9412097	1.393273
23.608686275977128	1.8843673	1.3727226
23.62659198109246	1.8801122	1.3711718
23.6444982714137	1.8901263	1.3748187
23.66240514743549	1.911287	1.382493
23.68031260965263	1.9243313	1.3872027
23.698220658560068	1.9353975	1.3911856
23.716129294652845	1.9174174	1.3847084
23.7340385184262	1.8407906	1.3567574
23.75194833037546	1.8299388	1.3527523
23.769858730996123	1.8862633	1.373413
23.78776972078382	1.9215153	1.3861873
23.80568130023431	1.90807	1.381329
23.823593469843495	1.9080964	1.3813386
23.841506230107424	1.8879651	1.3740324
23.859419581522275	1.9061785	1.3806442
23.87733352458438	1.9378619	1.3920711
23.89524805979019	1.9597843	1.399923
23.913163187636318	1.9580916	1.3993182
23.931078908619508	1.974575	1.4051957
23.948995223236633	1.9849069	1.4088672
23.966912131984735	1.9774884	1.406232
23.98482963536096	1.9620755	1.4007411
24.002747733862616	1.9883643	1.4100938
24.020666427987155	2.012444	1.4186064
24.038585718232156	2.0420508	1.4290035
24.056505605095353	2.0493507	1.4315554
24.074426089074617	2.085184	1.4440167
24.092347170667946	2.0895615	1.4455316
24.110268850373515	2.0597804	1.4351935
24.128191128689586	2.0382085	1.4276584
24.146114006114626	2.030981	1.4251249
24.164037483147187	2.0178518	1.4205111
24.181961560286005	2.033383	1.4259673
24.199886238029926	2.0052319	1.4160621
24.21781151687797	2.0138133	1.4190888
24.235737397329274	2.0154479	1.4196647
24.253663879883135	1.9896014	1.4105324
24.271590965038975	1.9870592	1.4096309
24.289518653296376	2.0061343	1.4163806
24.30744694515505	2.0345285	1.426369
24.32537584111486	2.0149295	1.4194821
24.34330534167581	2.0245972	1.4228834
24.361235447338046	2.0258076	1.4233087
24.379166158601876	2.0087771	1.4173133
24.39709747596772	2.0015454	1.4147599
24.41502939993615	1.9686668	1.4030919
24.432961931007917	1.9552765	1.398312
24.450895069683856	1.9427283	1.3938179
24.468828816465	1.9636391	1.4012991
24.4867631718525	1.975984	1.405697
24.504698136347656	1.9812264	1.4075605
24.52263371045192	1.9740297	1.4050016
24.540569894666874	1.9741272	1.4050363
24.558506689494266	1.9706141	1.4037856
24.57644409543597	1.9491888	1.3961335
24.594382112994012	1.9513428	1.3969047
24.61232074267057	1.930261	1.3893384
24.630259984967953	1.9164684	1.3843657
24.64819984038863	1.9329387	1.3903017
24.66614030943522	1.9130578	1.3831333
24.684081392610462	1.8927256	1.3757637
24.702023090417274	1.9116464	1.382623
24.7199654033587	1.9563893	1.3987099
24.737908331937927	2.005333	1.4160978
24.755851876658305	2.0689025	1.438368
24.773796038023324	2.1070485	1.4515676
24.79174081653661	2.1138756	1.4539174
24.809686212701962	2.0855892	1.4441569
24.827632227023294	2.070862	1.439049
24.8455788600047	2.0498915	1.4317442
24.8635261121504	2.0548146	1.4334625
24.88147398396475	2.066554	1.4375514
24.899422475952303	2.103233	1.4502528
24.917371588617698	2.1243935	1.4575299
24.935321322465768	2.178888	1.4761057
24.953271678001478	2.2602596	1.503416
24.97122265572994	2.432668	1.5597012
24.989174256156414	2.7947772	1.6717587
25.00712647978632	3.4123356	1.8472508
25.02507932712521	4.4185038	2.1020238
25.043032798678798	5.916014	2.4322858
25.060986894952933	7.5917706	2.7553167
25.078941616453637	9.040993	3.0068243
25.096896963687055	9.878285	3.142974
25.114852937159508	10.562445	3.2499914
25.132809537377444	10.414601	3.2271662
25.150766764847468	9.697287	3.1140466
25.168724620076347	8.305962	2.8820064
25.186683103570985	7.020389	2.6496017
25.204642215838426	5.6316333	2.3731062
25.222601957385894	4.5308495	2.1285791
25.24056232872074	3.5853827	1.8935107
25.25852333035048	2.9109404	1.7061478
25.276484962782778	2.4785104	1.5743285
25.294447226525435	2.2334914	1.494487
25.312410122086423	2.0777314	1.4414338
25.330373649973843	1.9906428	1.4109014
25.348337810695988	1.9458883	1.394951
25.366302604761245	1.9157294	1.3840988
25.384268032678207	1.8964952	1.377133
25.40223409495558	1.8709153	1.3678141
25.420200792102257	1.863574	1.3651278
25.438168124627246	1.8781049	1.3704396
25.45613609303974	1.9020681	1.3791549
25.474104697849057	1.8792511	1.3708578
25.492073939564698	1.8425847	1.3574184
25.510043818696285	1.8357216	1.3548881
25.528014335753614	1.8346976	1.3545101
25.54598549124664	1.8527231	1.3611478
25.56395728568544	1.8831086	1.372264
25.58192971958028	1.9275436	1.38836
25.59990279344156	1.8982196	1.3777589
25.617876507779833	1.9039345	1.3798313
25.635850863105826	1.9005756	1.3786137
25.653825859930386	1.9277397	1.3884307
25.671801498764548	1.8990828	1.3780721
25.68977778011949	1.882139	1.3719107
25.707754704506524	1.8658978	1.3659787
25.725732272437153	1.8980571	1.3777
25.743710484423012	1.911612	1.3826106
25.761689340975888	1.8726676	1.3684545
25.77966884260774	1.8523463	1.3610092
25.797648989830662	1.853606	1.361472
25.815629783156922	1.8752611	1.3694017
25.83361122309895	1.8465838	1.3588907
25.85159331016929	1.8395215	1.3562896
25.869576044880695	1.8557673	1.3622655
25.887559427746034	1.8130769	1.3465054
25.90554345927836	1.7759583	1.3326509
25.92352813999086	1.8383198	1.3558465
25.94151347039689	1.9163507	1.3843232
25.959499451009965	1.8557996	1.3622774
25.97748608234374	1.818754	1.3486118
25.995473364912062	1.8196942	1.3489604
26.013461299228904	1.8353056	1.3547345
26.03144988580839	1.8095677	1.3452017
26.04943912516483	1.7453828	1.3211293
26.067429017812675	1.7401376	1.3191427
26.085419564266537	1.7368572	1.3178988
26.103410765041186	1.8152499	1.3473121
26.12140262065155	1.8255446	1.3511271
26.139395131612723	1.8518889	1.3608413
26.157388298439948	1.8578072	1.363014
26.17538212164861	1.8561418	1.3624029
26.193376601754295	1.8498306	1.3600848
26.211371739272714	1.8318725	1.3534669
26.229367534719746	1.870901	1.3678088
26.247363988611433	1.8665417	1.3662144
26.26536110146397	1.8619462	1.3645315
26.283358873793727	1.8769528	1.3700193
26.301357306117204	1.8972514	1.3774074
26.319356398951104	1.9036622	1.3797326
26.33735615281224	1.8654432	1.3658123
26.35535656821762	1.80167	1.342263
26.373357645684404	1.8266171	1.351524
26.39135938572991	1.8337079	1.3541447
26.409361788871614	1.8051509	1.343559
26.427364855627165	1.8151947	1.3472916
26.445368586514352	1.8129094	1.3464432
26.46337298205115	1.7746739	1.3321689
26.48137804275568	1.7320222	1.3160632
26.499383769146217	1.7799593	1.3341511
26.517390161741215	1.8527625	1.3611622
26.53539722105928	1.8232946	1.3502942
26.553404947619182	1.782482	1.3350962
26.571413341939856	1.7670121	1.32929
26.589422404540397	1.8363075	1.3551042
26.60743213594006	1.8590418	1.3634669
26.62544253665827	1.854099	1.3616531
26.64345360721459	1.8125472	1.3463087
26.66146534812879	1.8068058	1.3441747
26.679477759920758	1.7814525	1.3347106
26.69749084311057	1.7712225	1.3308728
26.71550459821847	1.7891271	1.3375826
26.733519025764842	1.8279529	1.3520181
26.751534126270258	1.8130479	1.3464947
26.769549900255434	1.8122342	1.3461925
26.787566348241267	1.7961066	1.340189
26.80558347074881	1.8051934	1.3435749
26.823601268299267	1.8209741	1.3494347
26.841619741414036	1.8216654	1.3496909
26.85963889061465	1.7730527	1.3315603
26.877658716422832	1.7720121	1.3311695
26.89567921936045	1.7763833	1.3328103
26.913700399949544	1.7994024	1.341418
26.93172225871233	1.7857131	1.3363057
26.949744796171174	1.7887521	1.3374424
26.967768012848605	1.7929685	1.3390177
26.98579190926733	1.8230282	1.3501956
27.003816485950225	1.7909132	1.33825
27.021841743420318	1.7862366	1.3365016
27.039867682200814	1.8042123	1.3432097
27.057894302815072	1.8337916	1.3541756
27.07592160578664	1.833285	1.3539885
27.0939495916392	1.866651	1.3662544
27.111978260896635	1.8700042	1.367481
27.13000761408296	1.8450348	1.3583206
27.148037651722397	1.7927018	1.3389182
27.166068374339304	1.7382865	1.3184409
27.184099782458215	1.7236903	1.3128939
27.20213187660384	1.7778296	1.3333528
27.22016465730105	1.8120655	1.3461298
27.23819812507487	1.7891572	1.3375938
27.256232280450533	1.7474233	1.3219014
27.274267123953383	1.6945653	1.3017547
27.292302656108987	1.7222937	1.3123618
27.31033887744306	1.7392588	1.3188096
27.32837578848146	1.7555233	1.3249617
27.34641338975026	1.778036	1.3334302
27.364451681775673	1.7900605	1.3379314
27.382490665084074	1.8051517	1.3435594
27.400530340202046	1.7692859	1.3301451
27.41857070765629	1.7452508	1.3210794
27.436611767973726	1.7271023	1.3141927
27.454653521681404	1.7174389	1.310511
27.472695969306564	1.7755164	1.3324851
27.490739111376627	1.8407066	1.3567264
27.508782948419153	1.8250809	1.3509555
27.526827480961902	1.7832974	1.3354017
27.54487270953279	1.804738	1.3434054
27.562918634659898	1.8449055	1.358273
27.580965256871508	1.8194454	1.3488681
27.599012576696026	1.7594656	1.3264484
27.617060594662068	1.7435331	1.3204292
27.63510931129842	1.7543728	1.3245274
27.65315872713401	1.7606894	1.3269097
27.67120884269797	1.8223177	1.3499324
27.68925965851958	1.8676388	1.3666158
27.707311175128307	1.9028934	1.379454
27.725363393053787	1.8802967	1.3712391
27.74341631282583	1.8667965	1.3663076
27.7614699349744	1.8470067	1.3590462
27.77952426002968	2.0507674	1.4320501
27.797579288521973	2.1627738	1.4706372
27.815635020981784	2.5841947	1.607543
27.83369145793979	2.6470063	1.6269623
27.85174859992682	2.5112464	1.5846913
27.869806447473923	2.3786485	1.5422868
27.887865001112267	2.100952	1.4494661
27.905924261373233	1.9851347	1.4089481
27.92398422878836	1.9489062	1.3960323
27.94204490388936	1.9496343	1.396293
27.96010628720813	1.9538351	1.3977965
27.978168379276728	1.915518	1.3840225
27.9962311806274	1.838622	1.355958
28.014294691792568	1.7963928	1.3402958
28.0323589133048	1.8087322	1.3448911
28.050423845696887	1.8236191	1.3504144
28.068489489501758	1.811299	1.3458451
28.086555845252523	1.805639	1.3437407
28.104622913482487	1.8643935	1.365428
28.122690694725115	1.8480278	1.3594218
28.14075918951405	1.8601648	1.3638786
28.15882839838312	1.8605286	1.364012
28.176898321866304	1.9085374	1.3814982
28.1949689604978	1.9903413	1.4107946
28.213040314811945	1.9853762	1.4090338
28.23111238534327	1.9303448	1.3893685
28.249185172626493	1.920678	1.3858852
28.267258677196473	1.924464	1.3872505
28.285332899588294	1.9101299	1.3820745
28.303407840337172	1.888557	1.3742478
28.321483499978545	1.8785673	1.3706083
28.33955987904799	1.9238899	1.3870436
28.357636978081285	2.0092652	1.4174855
28.37571479761439	1.9815172	1.4076637
28.393793338183425	1.9627572	1.4009844
28.41187260032469	1.9667505	1.4024088
28.429952584574686	1.978601	1.4066275
28.448033291470065	1.985701	1.409149
28.46611472154769	1.9823266	1.4079512
28.484196875344566	2.022649	1.4221987
28.502279753397914	2.020047	1.4212836
28.52036335624511	2.0675764	1.437907
28.538447684423716	2.0482974	1.4311874
28.556532738471482	2.02952	1.4246123
28.574618518926325	2.00994	1.4177235
28.59270502632635	2.027985	1.4240735
28.61079226120985	2.0474453	1.4308897
28.628880224115274	2.0141551	1.4192094
28.646968915581287	2.0201187	1.4213088
28.66505833614671	2.0087917	1.4173185
28.68314848635055	2.0227566	1.4222364
28.701239366732004	2.0764222	1.4409796
28.71933097783044	2.1036925	1.4504112
28.737423320185403	2.083347	1.4433805
28.75551639433665	2.1118836	1.4532322
28.773610200824074	2.1257737	1.4580033
28.791704740187793	2.1596866	1.4695872
28.80980001296809	2.1912959	1.4803026
28.827896019705413	2.145112	1.4646201
28.845992760940433	2.1314044	1.459933
28.86409023721397	2.2080843	1.4859624
28.88218844906704	2.2579904	1.5026611
28.900287397040845	2.2077198	1.4858397
28.918387081676755	2.1750362	1.4748003
28.936487503516343	2.1732092	1.4741808
28.954588663101365	2.2207005	1.4902015
28.97269056097374	2.276381	1.5087681
28.990793197675597	2.3218572	1.5237641
29.00889657374923	2.344939	1.5313194
29.027000689737125	2.3196826	1.5230504
29.04510554618196	2.3444552	1.5311614
29.06321114362659	2.4010844	1.5495433
29.08131748261405	2.4296842	1.5587444
29.099424563687567	2.430163	1.558898
29.11753238739057	2.4266558	1.5577726
29.13564095426663	2.4241045	1.5569535
29.15375026485954	2.4756248	1.5734118
29.171860319713275	2.5760336	1.6050026
29.18997111937199	2.6441298	1.626078
29.20808266438002	2.6213243	1.6190504
29.226194955281898	2.6479769	1.6272606
29.244307992622335	2.7488594	1.6579684
29.26242177694624	2.8751566	1.6956286
29.2805363087987	2.9099412	1.705855
29.29865158872498	2.9254675	1.7103997
29.316767617270557	2.8782659	1.6965452
29.334884394981064	2.9285345	1.7112962
29.353001922402367	2.9733553	1.724342
29.37112020008047	3.0641742	1.7504783
29.389239228561596	3.1375258	1.7713063
29.407359008392152	3.324562	1.8233382
29.42547954011872	3.647148	1.9097507
29.44360082428809	4.1162896	2.0288641
29.46172286144722	4.9624705	2.2276604
29.479845652143283	6.6674786	2.5821462
29.497969196923606	9.373413	3.061603
29.516093496335728	13.20841	3.6343377
29.5342185509274	16.844357	4.1041875
29.55234436124651	20.01041	4.4732995
29.570470927841175	21.41452	4.6275826
29.588598251259686	21.316984	4.617032
29.60672633205055	19.626	4.4301243
29.624855170762405	16.406775	4.0505276
29.642984767944146	12.754915	3.5714023
29.66111512414481	9.470744	3.0774574
29.67924623991366	6.971213	2.6403055
29.697378115800138	5.225519	2.2859395
29.71551075235387	4.3349166	2.0820463
29.733644150124675	3.8502717	1.9622109
29.751778309662576	3.6106355	1.9001672
29.769913231517766	3.5171382	1.8754035
29.78804891624066	3.4157941	1.8481867
29.806185364381818	3.319499	1.8219492
29.82432257649206	3.3003983	1.8166999
29.842460553122333	3.2869961	1.8130075
29.86059929482382	3.3177943	1.8214813
29.878738802147872	3.3421519	1.8281553
29.896879075646048	3.313351	1.8202612
29.915020115870114	3.226083	1.7961301
29.933161923371976	3.208494	1.791227
29.951304498703777	3.1541593	1.7759953
29.969447842417857	3.130347	1.7692786
29.987591955066733	3.2235708	1.7954305
30.005736837203123	3.2111654	1.7919725
30.023882489379943	3.147787	1.7742004
30.04202891215028	3.1721811	1.7810618
30.060176106067455	3.1390777	1.7717443
30.078324071684946	3.1002991	1.7607666
30.09647280955646	3.134884	1.7705604
30.114622320235863	3.1718156	1.7809592
30.132772604277257	3.1350365	1.7706034
30.1509236622349	3.0846114	1.7563062
30.16907549466328	3.1012304	1.761031
30.18722810211705	3.0961158	1.7595783
30.205381485151097	3.0161428	1.7367046
30.22353564432045	3.0128913	1.7357682
30.241690580180403	3.0368237	1.7426485
30.25984629328638	3.0045247	1.7333565
30.278002784194037	2.9222822	1.7094684
30.296160053459246	2.909785	1.7058092
30.314318101638033	2.9385207	1.7142113
30.332476929286646	2.9796722	1.7261727
30.35063653696153	3.0356927	1.7423239
30.368796925219307	2.9891963	1.7289293
30.386958094616844	2.8959486	1.7017487
30.40512004571115	2.8146648	1.6776963
30.423282779059463	2.8188193	1.678934
30.441446295219233	2.8207684	1.6795143
30.459610594748067	2.8294873	1.682108
30.47777567820382	2.8824174	1.6977683
30.495941546144504	2.824627	1.6806626
30.51410819912835	2.8072126	1.6754738
30.532275637713795	2.8399577	1.6852174
30.55044386245946	2.7754612	1.6659715
30.56861287392416	2.7400281	1.655303
30.586782672666956	2.7470078	1.65741
30.604953259247047	2.7214801	1.6496909
30.623124634223885	2.7825096	1.6680856
30.641296798157075	2.8282135	1.6817293
30.659469751606462	2.8020992	1.6739472
30.677643495132074	2.7809002	1.6676031
30.695818029294152	2.7665243	1.6632872
30.713993354653116	2.7311745	1.6526265
30.73216947176962	2.6519692	1.6284868
30.75034638120448	2.6578841	1.6303018
30.768524083518756	2.799946	1.673304
30.786702579273673	2.9168007	1.7078644
30.80488186903069	2.935804	1.7134187
30.82306195335144	2.9962287	1.7309618
30.841242832797782	3.1983604	1.788396
30.85942450793176	3.5786748	1.8917385
30.877606979315637	4.00476	2.0011897
30.895790247511883	4.334864	2.0820336
30.913974313083134	4.69844	2.1675885
30.932159176592283	5.0557036	2.2484891
30.95034483860237	5.3754435	2.3185003
30.968531299676698	5.4016566	2.3241465
30.98671856037873	5.242836	2.289724
31.00490662127215	4.821508	2.1957932
31.023095482920848	4.2440615	2.060112
31.04128514588892	3.653136	1.9113178
31.059475610740662	3.1510231	1.7751122
31.07766687804056	2.773671	1.6654341
31.09585894835335	2.6187418	1.6182526
31.11405182224393	2.5803456	1.6063454
31.132245500277417	2.574981	1.6046747
31.15043998301914	2.5251627	1.589076
31.168635271034628	2.4852715	1.5764744
31.18683136488964	2.4446225	1.5635289
31.20502826515008	2.4105828	1.5526052
31.223225972382135	2.4197779	1.5555636
31.241424487152155	2.4440384	1.5633421
31.259623810026692	2.4247098	1.557148
31.27782394157253	2.4284425	1.558346
31.296024882356644	2.4654806	1.5701848
31.314226632946237	2.4581835	1.5678595
31.332429193908684	2.3946905	1.5474788
31.350632565811598	2.3578556	1.535531
31.368836749222787	2.370361	1.5395977
31.387041744710295	2.4508717	1.565526
31.40524755284232	2.576628	1.6051878
31.423454174187317	2.579206	1.6059906
31.441661609313922	2.4850423	1.5764017
31.459869858791002	2.4251852	1.5573006
31.478078923187628	2.4152756	1.5541157
31.496288803073064	2.3936956	1.5471573
31.514499499016807	2.3709009	1.539773
31.532711011588546	2.3251328	1.5248387
31.550923341358178	2.2309744	1.4936447
31.56913648889584	2.1821518	1.4772108
31.587350454771844	2.2507842	1.5002613
31.605565239556732	2.3601847	1.5362892
31.62378084382127	2.4149485	1.5540104
31.641997268136382	2.3686755	1.5390502
31.660214513073274	2.3092108	1.5196087
31.67843257920331	2.3141348	1.5212281
31.6966514670981	2.3661778	1.5382385
31.71487117732944	2.3150306	1.5215224
31.733091710469346	2.3132572	1.5209396
31.751313067090052	2.3532872	1.5340427
31.769535247764008	2.324424	1.5246062
31.787758253063878	2.289831	1.5132188
31.805982083562526	2.38945	1.5457846
31.824206739833024	2.3230488	1.5241551
31.84243222244869	2.214903	1.488255
31.860658531983013	2.2971776	1.5156443
31.878885669009737	2.331982	1.5270828
31.897113634102784	2.2625704	1.5041842
31.91534242783632	2.2008317	1.48352
31.933572050784694	2.2057524	1.4851775
31.951802503522508	2.206428	1.485405
31.970033786624548	2.2515619	1.5005206
31.988265900665834	2.3111575	1.5202491
32.006498846221575	2.2900958	1.5133063
32.02473262386724	2.199839	1.4831854
32.04296723417845	2.1058662	1.4511603
32.0612026777311	2.1363928	1.4616405
32.07943895510129	2.1299846	1.4594467
32.097676066865304	2.1435852	1.4640988
32.115914013599685	2.1494098	1.4660865
32.13415279588115	2.2460694	1.4986893
32.152392414286666	2.2282796	1.4927423
32.1706328693934	2.1619549	1.4703587
32.18887416177875	2.1792612	1.476232
32.20711629202032	2.1367059	1.4617475
32.225359260695924	2.1510198	1.4666356
32.243603068383614	2.127468	1.4585843
32.26184771566166	2.0977309	1.4483545
32.28009320310852	2.0191975	1.4209846
32.2983395313029	2.0474486	1.4308908
32.31658670082372	2.1516335	1.4668448
32.33483471225012	2.1984096	1.4827034
32.35308356616143	2.1286669	1.4589951
32.371333263137245	2.0832942	1.4433621
32.38958380375734	2.2152793	1.4883815
32.407835188601744	2.217089	1.4889892
32.42608741825067	2.1389163	1.4625034
32.444340493284585	2.1359866	1.4615015
32.46259441428416	2.0744455	1.4402936
32.48084918183028	2.0084827	1.4172095
32.49910479650405	1.9987273	1.4137635
32.51736125888683	1.994066	1.412114
32.53561856956014	2.03048	1.424949
32.5538767291058	2.0463998	1.4305243
32.572135738105764	2.0703394	1.4388674
32.59039559714228	2.140426	1.4630195
32.608656306797776	2.1354728	1.4613256
32.62691786765491	2.0598633	1.4352224
32.645180280296586	1.9642966	1.4015336
32.663443545305896	1.9283859	1.3886633
32.68170766326619	1.9815146	1.4076627
32.69997263476099	2.0022519	1.4150095
32.7182384603741	2.0275626	1.423925
32.7365051406895	1.973641	1.4048634
32.75477267629144	1.864243	1.3653729
32.77304106776434	1.8193562	1.3488351
32.79131031569289	1.9267132	1.3880609
32.809580420661966	2.0824935	1.4430847
32.827851383256714	2.0593529	1.4350445
32.84612320406245	1.9873478	1.4097333
32.86439588366476	1.9510856	1.3968127
32.88266942264945	1.9980032	1.4135075
32.9009438216025	1.9771602	1.4061153
32.9192190811102	1.926751	1.3880745
32.937495201758985	1.8961186	1.3769963
32.95577218413556	1.8552823	1.3620875
32.974050028826866	1.856317	1.3624673
32.992328736420035	1.9096122	1.3818872
33.010608307502444	1.9477684	1.3956248
33.02888874266169	2.0086832	1.4172802
33.047170042485604	2.0894926	1.4455078
33.06545220756225	2.0537162	1.4330792
33.083735238479896	2.009522	1.4175761
33.10201913582707	2.0362444	1.4269704
33.12030390019248	1.9851592	1.4089568
33.138589532165135	1.969002	1.4032114
33.15687603233419	2.0184712	1.4207292
33.17516340128909	2.0422556	1.4290751
33.19345163961947	1.9854923	1.409075
33.211740747915215	1.951833	1.3970802
33.23003072676643	1.9851367	1.4089488
33.248321576763466	1.9806306	1.4073488
33.266613298496885	1.9659767	1.4021329
33.28490589255747	1.9082948	1.3814105
33.30319935953626	1.9271756	1.3882275
33.32149370002451	1.9625882	1.4009241
33.339788914613706	2.0525353	1.4326673
33.358085003895575	2.0939126	1.4470358
33.376381968462034	1.9947106	1.4123422
33.39467980890529	1.9916391	1.4112544
33.41297852581774	2.008849	1.4173387
33.43127811979204	2.0824018	1.4430529
33.44957859142105	1.9892095	1.4103934
33.467879941297866	1.9444275	1.3944273
33.486182170015844	1.9830354	1.4082029
33.50448527816853	1.972686	1.4045234
33.522789266349754	1.9737366	1.4048973
33.541094135153514	2.0128098	1.4187353
33.55939988517411	1.9396697	1.3927202
33.57770651700602	1.8670747	1.3664094
33.59601403124398	1.8581784	1.3631501
33.61432242848296	1.8950083	1.376593
33.632631709318154	1.8883432	1.3741701
33.650941874344994	1.8448727	1.3582609
33.66925292415916	1.9182384	1.3850049
33.68756485935654	1.9480404	1.3957222
33.70587768053328	1.9221449	1.3864144
33.724191388285746	1.9739295	1.404966
33.74250598321054	2.085475	1.4441173
33.760821465904506	2.1046975	1.4507575
33.77913783696474	1.9747927	1.4052732
33.79745509698852	1.918934	1.3852559
33.815773246573414	2.0353208	1.4266467
33.8340922863172	2.1202552	1.4561096
33.852412216817896	2.0455515	1.4302278
33.87073303867377	1.978182	1.4064785
33.889054752483304	1.9540304	1.3978664
33.907377358845245	2.0338957	1.4261472
33.92570085835853	2.0426815	1.4292241
33.94402525162239	1.9835572	1.4083881
33.96235053923627	1.950311	1.3965353
33.980676721799824	2.0716636	1.4393275
33.999003799912984	2.1276162	1.4586351
34.01733177417592	2.10604	1.4512202
34.03566064518901	2.0377874	1.427511
34.0539904135529	1.951194	1.3968514
34.07232107986846	1.8680571	1.3667688
34.090652644736785	1.9503677	1.3965557
34.108985108759235	1.95176	1.3970541
34.12731847253742	1.8722606	1.3683057
34.14565273667313	1.878461	1.3705696
34.16398790176847	1.9091583	1.3817229
34.18232396842574	1.8663503	1.3661443
34.20066093724749	1.7894388	1.337699
34.21899880883651	1.8660078	1.366019
34.23733758379583	1.8583171	1.363201
34.25567726272874	1.8321658	1.3535752
34.27401784623872	1.872936	1.3685526
34.29235933492957	1.9447713	1.3945506
34.31070172940526	1.9226446	1.3865947
34.32904503027003	1.8525354	1.3610787
34.347389238128386	1.8756483	1.3695431
34.36573435358502	2.010363	1.4178728
34.38408037724492	1.967601	1.402712
34.402427309713296	1.8256456	1.3511646
34.42077515159559	1.801792	1.3423085
34.43912390349752	1.8805692	1.3713385
34.45747356602499	1.8611501	1.3642398
34.47582413978423	1.803745	1.3430357
34.49417562538163	1.9270605	1.3881861
34.51252802342388	2.0162306	1.4199404
34.53088133451789	2.0048556	1.4159292
34.54923555927084	2.010319	1.4178572
34.567590698290104	1.8818283	1.3717974
34.58594675218336	1.8320882	1.3535465
34.6043037215585	1.8363068	1.355104
34.62266160702365	1.8002415	1.3417308
34.641020409187234	1.7018204	1.3045384
34.65938012865785	1.8047282	1.3434017
34.677740766044394	1.8714852	1.3680223
34.69610232195598	1.8722322	1.3682953
34.714464797002016	1.8143055	1.3469616
34.73282819179208	1.8529059	1.3612149
34.751192506936064	1.993755	1.4120039
34.76955774304408	1.9706244	1.4037893
34.7879239007265	2.0635285	1.4364988
34.80629098059391	2.1672862	1.4721706
34.824658983257194	2.0229352	1.4222993
34.843027909327446	1.870617	1.367705
34.86139775941603	1.7558331	1.3250785
34.879768534134534	1.7043505	1.3055078
34.89814023409483	1.6699885	1.2922803
34.91651285990901	1.7662299	1.3289958
34.93488641218944	1.7430936	1.3202627
34.95326089154871	1.6323096	1.2776186
34.97163629859967	1.5599023	1.2489605
34.99001263395542	1.6611255	1.2888466
35.00838989822934	1.8375235	1.3555528
35.02676809203499	1.9777473	1.406324
35.04514721598624	1.9380035	1.3921219
35.063527270697215	1.8123449	1.3462336
35.081908256782256	1.7246063	1.3132427
35.10029017485597	1.7920125	1.3386607
35.11867302553321	1.7764304	1.3328279
35.137056809429104	1.8167713	1.3478765
35.155441527159006	1.9572619	1.3990217
35.173827179338524	2.0599616	1.4352566
35.19221376658354	1.9893937	1.4104587
35.21060128951017	1.9735518	1.4048315
35.2289897487348	1.9181736	1.3849814
35.24737914487405	1.8136088	1.3467029
35.26576947854479	1.792655	1.3389007
35.28416075036418	1.9016523	1.3790041
35.30255296094958	2.3069828	1.5188755
35.32094611091867	2.3905902	1.5461533
35.33934020088932	2.1061332	1.4512523
35.35773523147969	1.8950465	1.3766068
35.3761312033082	2.0130944	1.4188356
35.394528116993506	2.2821636	1.5106832
35.41292597315452	2.147147	1.4653146
35.431324772410434	2.045015	1.4300402
35.449724515380666	2.4163132	1.5544494
35.46812520268491	2.6851034	1.6386285
35.486526834943106	2.1947656	1.4814742
35.504929412775454	1.7973603	1.3406566
35.52333293680242	1.7201136	1.3115311
35.54173740764471	1.84503	1.3583188
35.560142825923286	1.8679547	1.3667314
35.5785491922594	1.2969722	1.1388469
35.59695650727454	0.68828106	0.82962704
35.61536477159042	0.8177855	0.90431494
