0.008763373481513119	0.0	0.0
0.026290120649546365	0.0	0.0
0.043816868432600686	0.0	0.0
0.06134361724069026	0.0	0.0
0.07887036748382949	0.04673819	0.21619017
0.0963971195720331	0.160948	0.40118325
0.11392387391531617	0.19515179	0.44175988
0.1314506309236943	0.17018048	0.41252938
0.1489773910071836	0.057612527	0.2400261
0.16650415457580078	0.017768482	0.13329847
0.18403092203956356	0.072974205	0.27013737
0.20155769380849	0.09723189	0.31182027
0.2190844702925996	0.12506847	0.3536502
0.2366112519019124	0.091309644	0.30217487
0.2541380390464497	0.14383706	0.37925857
0.27166483213623416	0.16576727	0.40714526
0.28919163158128947	0.19590013	0.44260606
0.3067184377916406	0.15904482	0.39880425
0.324245251177314	0.17066284	0.4131136
0.34177207214833777	0.12720393	0.35665658
0.3592989011147415	0.12860529	0.3586158
0.37682573848655654	0.110809945	0.33288127
0.39435258467381573	0.13947949	0.37346953
0.41187944008655414	0.13769649	0.37107477
0.42940630513480854	0.15000978	0.38731095
0.446933180228618	0.13979267	0.37388858
0.4644600657780234	0.16391322	0.404862
0.48198696219306775	0.1732839	0.41627383
0.49951386988379676	0.1914979	0.43760473
0.5170407892602581	0.20250016	0.4500002
0.5345677207325025	0.2375255	0.48736587
0.5520946647105822	0.23115927	0.48079026
0.5696216216045534	0.24663158	0.49662015
0.5871485918244737	0.21288104	0.46139035
0.6046755757804043	0.19652091	0.4433068
0.6222025738824094	0.1651507	0.4063874
0.6397295865405557	0.13951828	0.37352145
0.6572566141649129	0.14438717	0.37998313
0.6747836571655547	0.1720623	0.41480392
0.6923107159525568	0.17991225	0.42416066
0.7098377909359992	0.18324046	0.42806596
0.7273648825259653	0.15854813	0.39818102
0.7448919911325411	0.12985462	0.36035347
0.762419117165817	0.1255968	0.3543964
0.7799462610358868	0.12456467	0.3529372
0.7974734231528482	0.12263313	0.35019013
0.8150006039268024	0.17374991	0.4168332
0.8325278037678551	0.18832321	0.43396223
0.8500550230861152	0.20027635	0.44752246
0.8675822622916969	0.18888068	0.43460405
0.8851095217947171	0.18927684	0.43505958
0.9026368020052984	0.19454615	0.44107386
0.9201641033335665	0.21874282	0.4676995
0.9376914261896523	0.20813642	0.4562197
0.9552187709836915	0.2328945	0.48259145
0.9727461381258234	0.23189195	0.4815516
0.990273528026193	0.26140335	0.5112762
1.0078009410949496	0.26909816	0.51874673
1.0253283777422473	0.28566253	0.5344741
1.0428558383782454	0.2789596	0.52816623
1.0603833234131086	0.25854445	0.5084727
1.0779108332570058	0.29902944	0.54683584
1.0954383683201119	0.29353523	0.54178894
1.112965929012607	0.3283728	0.5730382
1.1304935157446763	0.43319932	0.6581788
1.1480211289265108	0.47188485	0.68693876
1.1655487689683062	1.391347	1.1795537
1.1830764362802655	1.7188106	1.3110342
1.200604131272596	2.0720625	1.439466
1.2181318543555117	2.251966	1.5006552
1.235659605939232	2.1888375	1.479472
1.253187386433982	4.0519776	2.0129526
1.270715196249994	6.5825706	2.5656521
1.2882430357975057	12.112769	3.4803405
1.3057709054867608	16.772612	4.095438
1.3232988057280106	22.402502	4.733128
1.3408267369315112	27.130009	5.2086477
1.358354699507526	30.69064	5.539913
1.3758826938663256	35.077526	5.9226284
1.3934107204181858	36.957523	6.07927
1.410938779573391	37.374977	6.1135077
1.4284668717422309	38.073673	6.170387
1.4459949973350033	37.7754	6.146169
1.4635231567620117	37.846684	6.1519656
1.4810513504335687	37.315483	6.10864
1.4985795787599925	36.3236	6.0269065
1.5161078421516088	35.677063	5.973028
1.5336361410187505	34.80593	5.8996553
1.5511644757717598	34.64523	5.8860197
1.5686928468209842	35.476974	5.956255
1.58622125457678	35.910862	5.992567
1.6037496994495108	37.414124	6.1167088
1.621278181849548	37.347862	6.1112895
1.6388067021872719	38.142372	6.175951
1.6563352608730693	37.5523	6.127993
1.673863858317336	36.516808	6.042914
1.6913924949304753	35.57584	5.9645486
1.7089211711228998	34.71643	5.892065
1.7264498873050296	33.847416	5.817853
1.7439786438872935	32.940254	5.73936
1.7615074412801288	31.671883	5.6277776
1.779036279893981	31.113781	5.577973
1.796565160139305	30.155657	5.4914165
1.814094082426564	29.614943	5.4419613
1.8316230471662298	28.746874	5.361611
1.849152054768784	28.096296	5.300594
1.8666811056447168	27.731388	5.26606
1.8842102002045273	27.3072	5.2256293
1.901739338858724	26.729755	5.1700826
1.9192685220178245	26.02423	5.1013947
1.9367977500923557	24.851736	4.985152
1.9543270234928547	24.209429	4.9203076
1.971856342629867	23.555998	4.853452
1.9893857079139496	23.499958	4.8476753
2.006915119755667	23.059649	4.8020463
2.0244445785655945	22.5939	4.753304
2.0419740847543175	21.915268	4.6813745
2.0595036387324317	21.46175	4.632683
2.0770332409105414	20.911638	4.5729246
2.094562891699263	20.601337	4.53887
2.1120925915092217	20.192762	4.4936357
2.129622340751053	20.006327	4.472843
2.1471521398354043	188.07927	13.7142
2.1646819891729323	444.4317	21.081549
2.182211889174303	440.3418	20.984324
2.1997418402501974	452.6052	21.274519
2.2172718428113023	432.53455	20.797464
2.234801897268317	320.5111	17.902824
2.2523320040319548	17.073914	4.132059
2.269862163512935	16.720644	4.0890884
2.287392376121992	16.50264	4.062344
2.304922642269869	15.996825	3.999603
2.322452962367322	15.734772	3.966708
2.3399833368251164	15.392972	3.9233878
2.357513766054032	15.010833	3.8743815
2.3750442504648586	14.728131	3.8377247
2.3925747904683963	14.542723	3.8134923
2.410105386475459	14.63753	3.8259025
2.4276360388968707	14.426765	3.7982583
2.445166748143469	14.1847105	3.7662594
2.4626975146261025	13.800857	3.7149503
2.4802283387556323	13.503223	3.6746733
2.4977592209429305	13.271501	3.643007
2.5152901615988825	12.9937935	3.6046906
2.5328211611343865	12.909903	3.5930352
2.5503522199603523	12.711084	3.565261
2.5678833384877024	12.47099	3.5314288
2.5854145171273712	12.33561	3.5122087
2.6029457562903064	12.128473	3.4825957
2.620477056387469	11.966056	3.4591987
2.6380084178298326	11.674696	3.4168255
2.655539841028383	11.576811	3.4024713
2.673071326394119	11.45455	3.384457
2.6906028743380523	11.215762	3.3489943
2.708134485271211	10.997414	3.3162348
2.7256661596046325	10.800305	3.2863817
2.743197897749369	10.646428	3.2628865
2.760729700116486	10.513949	3.242522
2.778261567117063	10.426076	3.2289436
2.795793499162193	10.325161	3.2132788
2.8133254966629817	10.19243	3.1925585
2.830857560030551	9.9752	3.158354
2.8483896896760337	9.769412	3.1256058
2.865921886010578	9.652604	3.106864
2.883454149445347	9.679514	3.1111917
2.9009864803915177	9.627769	3.1028647
2.91851887926028	9.384821	3.0634656
2.9360513464628384	9.112843	3.0187485
2.953583882410413	8.993827	2.998971
2.9711164875142373	8.922091	2.9869869
2.9886491621855606	8.91371	2.9855835
3.0061819068356455	8.7625	2.960152
3.023714721875769	8.790259	2.964837
3.041247607717225	8.66949	2.9443998
3.0587805647713213	8.546775	2.9234867
3.0763135934493806	8.352345	2.8900425
3.0938466941627407	8.198843	2.863362
3.1113798673227544	8.126617	2.8507223
3.1289131133407904	8.009228	2.8300579
3.1464464326282315	7.830154	2.7982411
3.1639798255964786	7.7563167	2.7850165
3.1815132926569443	7.5815926	2.7534692
3.1990468342210603	7.5008006	2.738759
3.216580450700272	7.414755	2.7230048
3.2341141425060416	7.3152986	2.704681
3.251647910049847	7.202087	2.6836705
3.2691817537431813	7.067956	2.6585627
3.286715673997555	7.051464	2.6554594
3.3042496712244938	7.026702	2.6507926
3.32178374583554	7.0284524	2.6511228
3.339317898242251	6.9816914	2.642289
3.3568521288562034	6.908291	2.6283627
3.3743864380889876	6.8801627	2.6230063
3.3919208263522127	6.911082	2.6288936
3.4094552940575023	6.8502116	2.617291
3.4269898416164972	6.6523085	2.579207
3.444524469440858	6.5482216	2.5589492
3.4620591779422587	6.372519	2.524385
3.479593967532391	6.3347073	2.5168843
3.4971288386229658	6.373012	2.5244825
3.5146637916257086	6.43219	2.5361762
3.5321988269523628	6.426943	2.5351415
3.5497339450146903	6.404972	2.5308046
3.5672691462244708	6.349804	2.5198817
3.5848044309934988	6.2855463	2.5070992
3.60233979973359	6.102389	2.4703014
3.619875252856575	6.0255857	2.454707
3.6374107907743034	6.0935526	2.4685123
3.6549464138986427	6.1850533	2.4869769
3.6724821226414788	6.1835976	2.486684
3.690017917414714	6.1440935	2.4787283
3.7075537986302702	6.3073153	2.511437
3.7250897667000857	6.4955773	2.5486422
3.7426258220361235	6.5803323	2.5652158
3.7601619650503553	6.845376	2.6163669
3.777698196154779	7.324193	2.7063246
3.7952345157614067	8.437859	2.9047992
3.8127709242822716	9.232118	3.03844
3.830307422129425	11.404511	3.3770566
3.847844009714936	30.161526	5.491951
3.8653806874508954	97.61317	9.879937
3.882917455749409	96.95157	9.846398
3.900454315022606	96.68337	9.83277
3.917991265682631	41.36602	6.431642
3.9355283081416506	10.943019	3.3080235
3.9530654428118495	8.770029	2.9614234
3.970602670105433	7.525928	2.7433424
3.9881399904346244	6.66596	2.581852
4.005677404211669	6.6337376	2.5756042
4.023214911848827	6.6027894	2.5695894
4.0407525137583855	6.589152	2.5669343
4.058290210352644	6.6251626	2.573939
4.075828002043927	6.567333	2.562681
4.0933658892445814	6.4171357	2.5332067
4.110903872366966	6.3234553	2.5146482
4.128441951823468	6.246339	2.4992676
4.145980128026488	6.1805673	2.4860747
4.163518401388452	6.1037292	2.4705727
4.181056772321807	6.138777	2.4776554
4.1985952412390155	6.169442	2.4838362
4.216133808552567	6.1710763	2.4841652
4.233672474674966	6.2088904	2.4917645
4.251211240018741	6.3338523	2.5167146
4.268750104996445	6.6331835	2.5754967
4.286289070020643	7.5669203	2.7508035
4.303828135503928	9.245564	3.040652
4.3213673018589125	29.593838	5.440022
4.3389065694982305	90.76392	9.52701
4.356445938834537	165.98898	12.883671
4.3739854102805085	171.2369	13.085752
4.391524984248844	172.174	13.121509
4.409064661152262	136.17932	11.66959
4.426604441403504	96.62	9.829548
4.444144325415337	75.74836	8.703353
4.461684313600543	21.814573	4.6706076
4.47922440637193	22.29724	4.7219954
4.496764604142329	20.519653	4.5298624
4.5143049073245916	18.680876	4.322138
4.531845316331589	16.478296	4.0593467
4.5493858315762195	13.40955	3.6619053
4.566926453471405	11.075227	3.3279464
4.584467182430081	9.028572	3.0047584
4.602008018865218	8.030113	2.8337455
4.619548963189798	7.411908	2.722482
4.637090015816834	6.9847374	2.6428654
4.654631177159353	6.8343935	2.6142673
4.672172447630417	6.570812	2.5633595
4.689713827643102	6.384722	2.5268009
4.7072553176105085	6.19942	2.4898634
4.724796917945764	6.089202	2.4676309
4.742338629062015	6.0397143	2.457583
4.759880451372434	5.9129543	2.4316566
4.777422385290215	5.8935533	2.427664
4.794964431228581	5.79049	2.4063437
4.812506589600768	5.759642	2.3999255
4.830048860820047	5.701616	2.3878057
4.847591245299709	5.727257	2.3931687
4.8651337434530655	5.6988955	2.3872359
4.882676355693457	5.5682817	2.3597207
4.900219082434242	5.493455	2.343812
4.917761924088813	5.5066166	2.3466182
4.935304881070575	5.532431	2.352112
4.952847953792969	5.536512	2.3529794
4.970391142669449	5.499523	2.3451061
4.9879344481135055	5.5189466	2.3492439
5.005477870538642	5.4729137	2.339426
5.023021410358394	5.440461	2.3324797
5.040565067986324	5.424538	2.329064
5.05810884383601	5.419249	2.327928
5.075652738321066	5.42086	2.328274
5.09319675185512	5.45188	2.3349261
5.110740884851836	5.431879	2.3306391
5.128285137724894	5.4037504	2.324597
5.145829510888007	5.372286	2.317819
5.163374004754908	5.32912	2.3084886
5.1809186197393595	5.3294163	2.3085527
5.198463356255145	5.3799853	2.3194795
5.216008214716077	5.422974	2.328728
5.233553195535998	5.399685	2.3237221
5.251098299128764	5.369027	2.317116
5.268643525908272	5.322144	2.3069773
5.286188876288432	5.249347	2.2911453
5.3037343506831895	5.23277	2.287525
5.32127994950651	5.1626334	2.272143
5.3388256731723915	5.2380714	2.2886834
5.356371522094851	5.3081117	2.3039339
5.373917496687938	5.292065	2.300449
5.391463597365729	5.3091927	2.3041685
5.40900982454232	5.266111	2.2948008
5.426556178631843	5.1976166	2.279828
5.444102660048449	5.229384	2.2867846
5.4616492692063225	5.288489	2.2996714
5.479196006519669	5.259792	2.2934237
5.496742872402727	5.1619687	2.2719967
5.514289867269756	5.0555816	2.248462
5.531836991535049	5.087721	2.2555976
5.549384245612924	5.104343	2.2592793
5.566931629917724	5.156181	2.2707226
5.584479144863822	5.1931257	2.2788432
5.6020267908656205	5.183578	2.2767472
5.619574568337545	5.208082	2.2821224
5.637122477694054	5.1874976	2.277608
5.654670519349629	5.2087364	2.2822657
5.672218693718784	5.191042	2.2783859
5.689767001216059	5.110718	2.2606897
5.707315442256021	5.0772805	2.253282
5.724864017253266	5.0425744	2.2455678
5.7424127266224225	5.0703216	2.2517374
5.75996157077814	5.108776	2.26026
5.777510550135105	5.0907674	2.2562728
5.795059665108022	5.095731	2.2573726
5.812608916111639	5.154428	2.2703366
5.830158303560715	5.3093467	2.304202
5.847707827870055	5.332986	2.309326
5.86525748945448	5.424082	2.328966
5.8828072887288485	5.4405036	2.3324888
5.900357226108044	5.479098	2.3407474
5.917907302006979	5.5084105	2.3470004
5.9354575168406	6.1280656	2.475493
5.9530078710238765	6.937168	2.6338503
5.970558364971812	7.5488734	2.7475214
5.988108999099438	7.856189	2.8028893
6.005659773821818	8.255516	2.8732414
6.023210689554039	8.007438	2.8297417
6.040761746711227	8.482373	2.9124515
6.058312945708531	7.978777	2.824673
6.075864286961132	7.539568	2.7458274
6.093415770884244	6.868991	2.620876
6.1109673978931065	6.2157116	2.4931328
6.128519168402993	5.6129847	2.3691738
6.146071082829204	5.4553714	2.3356736
6.163623141587075	5.289503	2.299892
6.181175345091969	5.183778	2.276791
6.198727693759281	5.028189	2.2423625
6.216280188004435	5.128812	2.264688
6.233832828242885	5.162629	2.272142
6.251385614890126	5.265981	2.2947726
6.268938548361669	5.271046	2.2958758
6.286491629073067	5.26546	2.2946591
6.304044857439898	5.3259535	2.3078027
6.321598233877777	5.2415056	2.2894335
6.339151758802344	5.1211443	2.2629945
6.356705432629277	5.0327287	2.2433743
6.37425925577428	5.029141	2.2425747
6.391813228653095	5.021316	2.2408292
6.409367351681486	5.0592875	2.249286
6.426921625275259	5.0544915	2.2482197
6.44447604985025	5.0904956	2.2562127
6.46203062582232	4.9975233	2.2355142
6.47958535360737	4.93722	2.2219856
6.497140233621328	4.9776425	2.2310631
6.514695266280161	4.9919114	2.2342587
6.532250451999859	4.9768004	2.2308743
6.549805791196454	4.956521	2.2263246
6.567361284286002	4.949017	2.2246387
6.584916931684597	5.0122375	2.2388027
6.602472733808367	5.0058074	2.2373662
6.6200286910734665	5.010657	2.2384496
6.637584803896092	4.973509	2.2301364
6.655141072692462	4.9838085	2.2324445
6.672697497878842	5.031379	2.2430737
6.690254079871514	5.045426	2.2462025
6.707810819086808	5.037993	2.2445474
6.725367715941078	4.948926	2.2246182
6.742924770850719	4.938461	2.2222648
6.760481984232151	4.965421	2.2283225
6.778039356501836	4.9283977	2.2199996
6.795596888076266	4.85562	2.203547
6.813154579371963	4.7883987	2.188241
6.830712430805492	4.872799	2.2074418
6.84827044279344	4.9545937	2.2258916
6.865828615752445	4.9611597	2.2273662
6.883386950099159	4.9407997	2.222791
6.900945446250287	4.915059	2.2169933
6.918504104622553	4.9661117	2.2284775
6.936062925632727	5.0230775	2.2412224
6.953621909697607	5.036202	2.2441485
6.971181057234028	5.0639753	2.2503278
6.988740368658859	5.1348853	2.2660286
7.006299844389007	5.260462	2.2935696
7.023859484841407	5.2773833	2.2972555
7.041419290433036	5.393667	2.322427
7.058979261580902	5.5247912	2.3504875
7.0765393987020495	5.7518253	2.3982964
7.094099702213559	6.087815	2.4673498
7.111660172532549	6.3988266	2.5295901
7.129220810076164	6.7463903	2.5973814
7.146781615261595	7.236002	2.6899817
7.16434258850606	7.459224	2.731158
7.181903730226821	7.826942	2.7976673
7.1994650408411704	8.022316	2.8323693
7.217026520766437	8.186902	2.8612764
7.234588170419983	8.439534	2.9050877
7.252149990219215	8.4635	2.9092095
7.269711980581568	8.383745	2.8954697
7.2872741419245175	8.218277	2.8667538
7.304836474665574	7.810051	2.7946467
7.322398979222286	7.5560637	2.7488296
7.339961656012233	7.2994905	2.701757
7.357524505453039	6.915054	2.629649
7.375087527962357	6.6118402	2.5713499
7.392650723957886	6.3339825	2.5167406
7.410214093857353	6.00008	2.449506
7.427777638078528	5.794521	2.407181
7.445341357039213	5.567129	2.3594766
7.4629052511572525	5.4519496	2.334941
7.480469320850524	5.3964324	2.3230224
7.498033566536948	5.3711476	2.3175735
7.5155979886344735	5.262375	2.2939866
7.5331625875610975	5.199738	2.2802935
7.550727363734844	5.202123	2.2808163
7.568292317573788	5.1634073	2.272313
7.585857449496025	5.130555	2.2650728
7.603422759919705	5.135992	2.2662728
7.620988249263007	5.1527033	2.2699566
7.638553917944147	5.1791224	2.2757685
7.656119766381391	5.204042	2.281237
7.673685794993023	5.2135835	2.2833273
7.691252004197388	5.193446	2.2789133
7.70881839441285	5.2027817	2.2809608
7.726384966057826	5.156605	2.2708158
7.743951719550762	5.114409	2.2615058
7.761518655310149	5.1486106	2.269055
7.779085773754511	5.2180285	2.2843006
7.796653075302419	5.281247	2.2980964
7.814220560372475	5.2876925	2.2994983
7.831788229383323	5.294303	2.3009353
7.8493560827536495	5.3702183	2.317373
7.866924120902174	5.394124	2.3225253
7.884492344247663	5.4504247	2.3346145
7.9020607532089135	5.4512773	2.3347971
7.919629348204771	5.3721967	2.3178
7.937198129654115	5.331983	2.3091087
7.954767097975865	5.370999	2.3175416
7.972336253588986	5.472741	2.339389
7.989905596912472	5.4699883	2.3388007
8.007475128365371	5.4588227	2.3364124
8.025044848366756	5.441911	2.3327904
8.042614757335754	5.500982	2.3454173
8.060184855691523	5.5750475	2.3611538
8.07775514385327	5.6875715	2.384863
8.095325622240228	5.7363577	2.3950694
8.112896291271687	5.763126	2.4006512
8.130467151366968	5.810741	2.4105477
8.148038202945436	5.8445168	2.4175436
8.165609446426497	5.8668036	2.4221485
8.183180882229594	5.894689	2.4278982
8.200752510774217	5.9176283	2.4326177
8.218324332479893	5.9782124	2.4450383
8.235896347766193	5.913191	2.4317052
8.253468557052724	5.918111	2.4327168
8.27104096075914	5.91084	2.431222
8.288613559305137	5.98714	2.4468634
8.306186353110448	6.0578647	2.461273
8.32375934259485	6.175286	2.4850123
8.341332528178162	6.1986914	2.4897172
8.358905910280246	6.230921	2.4961812
8.376479489321003	6.2350664	2.4970114
8.394053265720377	6.3443823	2.5188057
8.411627239898356	6.4138727	2.5325625
8.42920141227497	6.3678784	2.5234656
8.44677578327029	6.3335752	2.5166595
8.464350353304427	6.232333	2.4964643
8.48192512279754	6.1809993	2.4861615
8.499500092169827	6.162523	2.4824429
8.51707526184153	6.164512	2.4828436
8.534650632232934	6.1775417	2.485466
8.552226203764365	6.1841993	2.486805
8.569801976856192	6.188937	2.4877574
8.587377951928834	6.244437	2.4988873
8.60495412940274	6.2376585	2.4975305
8.622530509698416	6.310721	2.5121148
8.6401070932364	6.424785	2.534716
8.657683880437283	6.611523	2.571288
8.675260871721695	6.7619276	2.6003706
8.692838067510303	6.885647	2.6240516
8.710415468223834	6.987643	2.643415
8.727993074283043	7.0747128	2.6598332
8.745570886108737	7.048685	2.654936
8.763148904121765	7.1203547	2.6683993
8.78072712874302	7.1523256	2.6743832
8.798305560393441	7.435167	2.7267501
8.815884199494006	7.643094	2.7646146
8.833463046465745	7.857205	2.8030705
8.851042101729728	8.03741	2.8350327
8.86862136570707	8.308448	2.882438
8.886200838818924	8.461355	2.908841
8.903780521486505	8.426813	2.9028974
8.921360414131055	8.411411	2.9002433
8.938940517173874	8.472295	2.9107206
8.956520831036297	8.685447	2.9471083
8.97410135613971	9.030732	3.0051177
8.99168209290554	9.270443	3.0447402
9.009263041755265	9.582415	3.0955474
9.026844203110405	9.765392	3.1249628
9.044425577392525	9.949011	3.1542053
9.062007165023239	10.052851	3.170623
9.079588966424197	10.353992	3.217762
9.097170982017108	10.428647	3.2293415
9.11475321222372	11.395533	3.375727
9.132335657465825	12.346233	3.5137208
9.149918318165264	12.520956	3.5384963
9.167501194743924	13.120959	3.6222866
9.18508428762374	12.742479	3.569661
9.202667597226693	12.750248	3.570749
9.220251123974803	12.394774	3.5206213
9.237834868290143	12.068386	3.4739583
9.255418830594836	11.766165	3.4301844
9.273003011311046	11.1930065	3.3455951
9.290587410860985	11.008174	3.3178568
9.308172029666911	10.452065	3.2329655
9.32575686815113	10.214937	3.1960816
9.343341926735997	8.863519	2.9771662
9.360927205843916	8.688484	2.9476235
9.378512705897327	8.444538	2.9059486
9.396098427318728	8.225374	2.8679912
9.413684370530664	8.060669	2.8391318
9.431270535955722	7.8837457	2.8078008
9.448856924016539	7.7831354	2.789827
9.466443535135806	7.6088333	2.7584114
9.484030369736251	7.614035	2.759354
9.501617428240658	7.654866	2.766743
9.519204711071852	7.6931705	2.7736566
9.536792218652714	7.76109	2.7858732
9.55437995140617	7.76161	2.7859666
9.571967909755191	7.742524	2.7825391
9.589556094122802	7.797855	2.792464
9.60714450493207	7.862335	2.8039856
9.624733142606116	7.9098077	2.812438
9.642322007568108	7.9179087	2.8138778
9.659911100241267	7.8775015	2.8066888
9.677500421048851	7.9315166	2.816295
9.695089970414175	7.982464	2.8253255
9.712679748760609	8.025712	2.8329687
9.730269756511557	8.024134	2.8326902
9.747859994090492	8.074938	2.8416436
9.765450461920915	8.114646	2.8486218
9.78304116042639	8.225947	2.8680913
9.800632090030527	8.252593	2.8727326
9.81822325115699	8.282169	2.8778758
9.835814644229481	8.277728	2.877104
9.853406269671762	8.2865305	2.8786335
9.870998127907646	8.2874155	2.878787
9.888590219360985	8.236894	2.869999
9.906182544455698	8.241632	2.8708243
9.923775103615734	8.273753	2.8764133
9.941367897265108	8.314621	2.8835084
9.958960925827878	8.401116	2.898468
9.97655418972816	8.42115	2.9019217
9.994147689390106	8.489339	2.913647
10.011741425237934	8.379621	2.8947575
10.029335397695904	8.334768	2.8869998
10.04692960718833	8.276884	2.8769574
10.06452405413958	8.263585	2.8746452
10.082118738974064	8.264967	2.8748856
10.099713662116246	8.209516	2.8652253
10.117308823990651	8.246043	2.8715925
10.134904225021844	8.265233	2.8749318
10.152499865634445	8.31041	2.8827782
10.170095746253125	8.287347	2.8787751
10.18769186730261	8.247528	2.871851
10.205288229207675	8.247831	2.871904
10.222884832393145	8.250235	2.872322
10.2404816772839	8.265061	2.874902
10.258078764304868	8.246595	2.8716886
10.275676093881035	8.261842	2.874342
10.293273666437438	8.212311	2.865713
10.310871482399158	8.2029295	2.8640757
10.32846954219134	8.052874	2.8377585
10.346067846239173	7.99964	2.8283634
10.363666394967908	7.9743257	2.823885
10.38126518880283	8.058681	2.8387816
10.398864228169298	8.179618	2.8600032
10.416463513492713	8.245111	2.8714302
10.434063045198531	8.188983	2.86164
10.451662823712262	8.178861	2.8598707
10.469262849459467	8.15844	2.8562982
10.486863122865758	8.150811	2.8549626
10.504463644356806	8.057423	2.8385599
10.522064414358338	7.9027357	2.8111806
10.539665433296118	7.8360014	2.799286
10.557266701595987	7.813097	2.7951918
10.574868219683818	7.788095	2.790716
10.592469987985552	7.7244987	2.7792983
10.610072006927185	7.5838227	2.753874
10.627674276934751	7.4743447	2.7339249
10.64527679843435	7.359855	2.7129054
10.662879571852143	7.3432026	2.7098343
10.680482597614331	7.245811	2.6918044
10.698085876147173	7.1397114	2.6720238
10.715689407876988	6.990194	2.6438975
10.733293193230146	6.8951073	2.6258535
10.750897232633072	6.880955	2.6231575
10.76850152651225	6.8989577	2.6265867
10.786106075294207	6.7617273	2.6003323
10.803710879405534	6.6509476	2.578943
10.821315939272877	6.512931	2.5520444
10.83892125532294	6.411791	2.5321515
10.856526827982472	6.3255863	2.5150719
10.874132657678285	6.300831	2.5101457
10.891738744837243	6.238114	2.4976215
10.909345089886271	6.1992416	2.4898276
10.926951693252343	6.1280427	2.4754884
10.944558555362494	6.039338	2.4575064
10.96216567664381	5.972834	2.4439383
10.979773057523436	5.9533153	2.4399416
10.997380698428573	5.9347434	2.436133
11.014988599786477	5.8516593	2.4190204
11.032596762024461	5.781071	2.4043858
11.050205185569892	5.705369	2.3885915
11.067813870850198	5.675491	2.382329
11.085422818292859	5.5607266	2.3581192
11.10303202832541	5.491176	2.3433259
11.120641501375454	5.4242797	2.3290083
11.138251237870636	5.415851	2.327198
11.155861238238671	5.3593993	2.3150377
11.173471502907317	5.3140144	2.3052146
11.191082032304402	5.215505	2.2837481
11.208692826857805	5.154986	2.2704594
11.226303886995465	5.0543094	2.2481792
11.243915213145371	4.961586	2.2274618
11.261526805735578	4.93112	2.2206125
11.279138665194196	4.9356785	2.2216387
11.296750791949393	4.88454	2.2100995
11.314363186429393	4.776983	2.185631
11.331975849062479	4.679513	2.1632183
11.34958878027699	4.636624	2.1532822
11.36720198050133	4.652691	2.1570096
11.384815450163948	4.581481	2.1404395
11.402429189693366	4.4908724	2.1191678
11.420043199518153	4.4224157	2.1029541
11.437657480066942	63.4053	7.9627447
11.455272031768422	85.11699	9.225887
11.472886855051353	107.50897	10.368653
11.490501950344528	99.13011	9.95641
11.508117318076819	84.44745	9.189529
11.52573295867715	45.847046	6.7710447
11.543348872574514	4.1661305	2.04111
11.560965060197946	4.202577	2.0500188
11.57858152197655	4.1472554	2.0364811
11.59619825833949	4.112887	2.0280254
11.613815269715985	4.0701556	2.0174627
11.631432556535323	38.597466	6.212686
11.649050119226837	83.090866	9.115419
11.666667958219929	93.50618	9.669859
11.68428607394406	107.749214	10.380232
11.701904466828756	82.53569	9.084915
11.719523137303586	65.32451	8.082357
11.737142085798196	4.5731864	2.138501
11.754761312742286	3.7536416	1.9374317
11.772380818565619	3.6794333	1.9181849
11.790000603698015	3.639986	1.9078747
11.80762066856935	3.5439336	1.8825338
11.825241013609572	3.5513048	1.8844906
11.842861639248683	3.5360992	1.8804519
11.860482545916748	3.4913235	1.8685083
11.878103734043883	3.4556415	1.8589356
11.895725204060282	3.4524105	1.8580663
11.91334695639619	3.425754	1.8508793
11.930968991481919	3.4064023	1.8456441
11.948591309747824	3.3971345	1.8431318
11.966213911624347	3.3742106	1.8369025
11.98383679754198	3.3254864	1.8235916
12.001459967931268	3.2877655	1.8132197
12.019083423222835	3.2519124	1.803306
12.036707163847352	3.266336	1.8073007
12.05433119023556	3.269874	1.8082793
12.071955502818259	3.2891054	1.8135891
12.089580102026313	3.2579887	1.8049899
12.107204988290643	3.2285197	1.7968082
12.12483016204224	3.1785536	1.7828498
12.142455623712152	3.172116	1.7810435
12.16008137373149	3.1645012	1.7789044
12.177707412531431	3.1406856	1.772198
12.19533374054321	3.0975854	1.7599958
12.212960358198126	3.035647	1.7423108
12.230587265927545	3.0448418	1.7449476
12.248214464162889	3.0134368	1.7359253
12.265841953335649	3.001446	1.7324681
12.283469733877375	2.9901175	1.7291956
12.301097806219685	3.0185273	1.737391
12.31872617079425	3.0239773	1.7389587
12.336354828032825	2.9890842	1.7288969
12.353983778367205	2.9201994	1.7088591
12.371613022229262	2.8968306	1.7020078
12.389242560050928	2.9034004	1.7039367
12.406872392264201	2.8957634	1.7016943
12.424502519301143	2.897301	1.7021459
12.442132941593874	2.9117663	1.7063898
12.459763659574586	2.8921394	1.7006291
12.477394673675532	2.8747342	1.6955041
12.49502598432903	2.832709	1.6830654
12.51265759196746	2.7891173	1.670065
12.530289497023267	2.7986286	1.6729102
12.547921699928967	2.8262393	1.6811423
12.565554201117134	2.8713193	1.6944968
12.583187001020404	2.845915	1.6869841
12.600820100071486	2.8320186	1.6828603
12.618453498703152	2.7968044	1.672365
12.636087197348235	2.793137	1.6712681
12.65372119643964	2.7894776	1.6701729
12.671355496410326	2.7679532	1.6637167
12.68899009769333	2.8016121	1.6738017
12.706625000721749	2.8469608	1.6872939
12.724260205928752	2.9148383	1.7072898
12.741895713747551	2.922091	1.7094125
12.759531524611454	2.9487965	1.717206
12.777167638953818	2.931272	1.7120959
12.794804057208072	2.9193554	1.7086121
12.812440779807702	2.9838302	1.7273767
12.830077807186271	3.202597	1.7895801
12.847715139777405	3.284929	1.8124373
12.865352778014795	3.5177767	1.8755738
12.882990722332197	3.6328843	1.9060127
12.90062897316344	3.6712162	1.9160419
12.918267530942412	3.7295482	1.9312038
12.935906396103071	3.6025302	1.8980333
12.953545569079449	3.8078325	1.9513668
12.971185050305628	3.6166906	1.9017599
12.988824840215775	3.6369934	1.9070903
13.006464939244115	3.6097836	1.8999431
13.024105347824943	3.4493074	1.8572311
13.041746066392617	3.5219223	1.8766786
13.05938709538157	3.3141263	1.8204741
13.077028435226296	3.314718	1.8206367
13.094670086361363	3.228254	1.7967343
13.112312049221401	3.1528194	1.7756181
13.129954324241112	3.0770063	1.7541398
13.147596911855258	2.8772736	1.6962528
13.165239812498685	2.8472853	1.6873901
13.182883026606293	2.7890084	1.6700325
13.200526554613058	2.741631	1.6557871
13.218170396954017	2.6884193	1.63964
13.235814554064284	2.6493251	1.6276748
13.253459026379034	2.6655786	1.63266
13.271103814333523	2.6798222	1.6370163
13.288748918363058	2.664566	1.6323498
13.306394338903031	2.6495848	1.6277546
13.32404007638889	2.6278944	1.6210781
13.341686131256164	2.7053196	1.6447856
13.359332503940449	2.6924572	1.6408708
13.376979194877402	2.6822767	1.6377658
13.394626204502751	2.7277045	1.6515764
13.412273533252307	2.7515984	1.6587943
13.429921181561937	2.7224255	1.6499774
13.447569149867581	2.6976144	1.6424416
13.465217438605247	2.6990745	1.642886
13.482866048211022	2.7315924	1.652753
13.500514979121052	2.7414298	1.6557263
13.518164231771568	2.7315924	1.652753
13.535813806598844	2.7116807	1.6467181
13.553463704039254	2.6685324	1.6335644
13.571113924529229	2.6620178	1.6315691
13.588764468505275	2.6802533	1.6371479
13.606415336403956	2.736776	1.6543205
13.624066528661917	2.8368726	1.6843019
13.641718045715882	2.8994653	1.7027817
13.659369888002635	2.9350266	1.713192
13.67702205595903	2.9506385	1.7177423
13.694674550021993	3.0208898	1.7380707
13.712327370628532	3.074103	1.753312
13.729980518215713	3.1530812	1.7756917
13.747633993220681	3.1802764	1.783333
13.765287796080647	3.2086437	1.7912687
13.7829419272329	3.255574	1.8043209
13.800596387114801	3.3005955	1.8167541
13.818251176163775	3.3417008	1.8280319
13.835906294817324	3.3813329	1.8388401
13.853561743513023	3.4299757	1.8520194
13.871217522688525	3.4882596	1.8676883
13.888873632781538	3.5050473	1.8721771
13.906530074229858	3.5357795	1.8803668
13.92418684747135	3.5196536	1.876074
13.941843952943948	3.5023074	1.8714453
13.959501391085665	3.4685318	1.8623995
13.977159162334578	3.407871	1.846042
13.994817267128846	3.3402994	1.8276486
14.012475705906693	3.2758806	1.8099394
14.030134479106424	3.221594	1.7948799
14.047793587166414	3.1533103	1.7757562
14.065453030525108	3.1006155	1.7608565
14.083112809621026	3.0326307	1.741445
14.100772924892766	2.967267	1.7225757
14.118433376778997	2.9042501	1.7041861
14.136094165718458	2.855198	1.689733
14.153755292149969	2.7584627	1.660862
14.171416756512416	2.7148817	1.6476898
14.189078559244768	2.6372578	1.6239636
14.20674070078606	2.5803826	1.606357
14.224403181575408	2.51429	1.5856513
14.242066002051999	2.4749715	1.5732043
14.259729162655093	2.4422066	1.5627561
14.277392663824022	2.4213562	1.5560708
14.295056505998208	2.3644216	1.5376676
14.312720689617128	2.376875	1.5417117
14.330385215120348	2.395136	1.5476227
14.348050082947497	2.3961825	1.5479608
14.3657152935383	2.3792953	1.5424964
14.383380847332528	2.3652513	1.5379374
14.401046744770051	2.3910673	1.5463077
14.418712986290798	2.408052	1.5517899
14.436379572334793	2.401837	1.5497861
14.454046503342123	2.3715265	1.5399761
14.471713779752946	2.3730817	1.540481
14.489381402007504	2.373501	1.5406171
14.507049370546113	2.3784294	1.5422157
14.524717685809168	2.3877287	1.5452278
14.542386348237134	2.4088817	1.5520573
14.560055358270553	2.407556	1.5516301
14.577724716350051	2.4455383	1.5638217
14.595394422916325	2.4481535	1.5646577
14.61306447841015	2.4562957	1.5672574
14.63073488327237	2.4416459	1.5625767
14.648405637943917	2.4546545	1.5667337
14.6660767428658	2.4603693	1.5685564
14.683748198479094	2.5051954	1.582781
14.701420005224954	2.5489423	1.5965407
14.719092163544628	2.6028411	1.6133323
14.73676467387942	2.60884	1.6151904
14.754437536670727	2.6236808	1.619778
14.772110752360014	2.6492567	1.6276537
14.78978432138882	2.6554756	1.629563
14.807458244198777	2.7149558	1.6477123
14.82513252123159	2.6716087	1.6345056
14.842807152929028	2.684112	1.638326
14.860482139732962	2.634895	1.623236
14.87815748208531	2.6525552	1.6286668
14.8958331804281	2.627327	1.6209031
14.91350923520342	2.6404243	1.6249382
14.931185646853438	2.6782784	1.6365447
14.948862415820408	2.6814785	1.6375221
14.966539542546656	2.7015877	1.6436508
14.98421702747459	2.69048	1.6402683
15.001894871046696	2.7092245	1.6459723
15.019573073705542	2.6949153	1.6416197
15.037251635893766	2.6782408	1.6365331
15.054930558054092	2.6876674	1.6394107
15.072609840629323	2.7248561	1.6507138
15.090289484062351	2.8412278	1.6855942
15.107969488796124	3.1062815	1.7624646
15.125649855273691	3.4956264	1.8696594
15.14333058393817	3.9803157	1.9950728
15.161011675232768	4.963418	2.227873
15.17869312960076	6.335333	2.5170088
15.196374947485506	8.140916	2.853229
15.214057129330447	11.196915	3.346179
15.231739675579114	15.988002	3.9984999
15.249422586675102	21.204885	4.604876
15.267105863062092	24.42444	4.942109
15.284789505183847	24.768654	4.9768114
15.302473513484218	22.748676	4.7695575
15.320157888407127	19.368778	4.4009976
15.337842630396578	15.093094	3.884983
15.355527739896656	11.748973	3.4276774
15.37321321735153	9.002871	3.0004785
15.39089906320545	6.5428433	2.5578983
15.408585277902748	4.9228554	2.218751
15.42627186188783	3.7759619	1.9431834
15.443958815605198	3.215435	1.7931634
15.461646139499424	2.8857358	1.6987454
15.479333834015168	2.7587266	1.6609415
15.497021899597165	2.6924515	1.6408691
15.514710336690234	2.6385672	1.6243668
15.53239914573928	2.5712366	1.6035076
15.550088327189297	2.519801	1.587388
15.567777881485336	2.477434	1.5739866
15.58546780907256	2.4850636	1.5764084
15.6031581103962	2.485239	1.576464
15.620848785901568	2.4942307	1.5793134
15.638539836034063	2.4928095	1.5788634
15.656231261239173	2.489074	1.57768
15.673923061962451	2.4842827	1.5761608
15.691615238649552	2.4539504	1.566509
15.709307791746202	2.4097757	1.5523453
15.727000721698221	2.432597	1.5596784
15.744694028951498	2.4280171	1.5582095
15.76238771395202	2.4020898	1.5498676
15.780081777145844	2.3559716	1.5349175
15.797776218979125	2.3377717	1.5289773
15.815471039898094	2.373356	1.54057
15.833166240349064	2.4011805	1.5495743
15.850861820778437	2.3633592	1.537322
15.868557781632699	2.3154187	1.52165
15.886254123358412	2.329394	1.5262352
15.903950846402232	2.3511655	1.5333511
15.921647951210897	2.3665316	1.5383536
15.939345438231225	2.363265	1.5372914
15.957043307910133	2.364619	1.5377318
15.974741560694602	2.3581548	1.5356284
15.992440197031714	2.3782017	1.5421419
16.01013921736862	2.3698738	1.5394394
16.02783862215259	2.3447955	1.5312725
16.045538411830933	2.3473125	1.5320941
16.06323858685107	2.377977	1.5420691
16.080939147660512	2.3913126	1.546387
16.09864009470684	2.3800135	1.5427293
16.11634142843774	2.4056122	1.5510036
16.134043149300954	2.432922	1.5597826
16.15174525774433	2.4352694	1.560535
16.169447754215817	2.400223	1.5492653
16.18715063916342	2.4201276	1.555676
16.204853913035244	2.4486263	1.5648087
16.222557576279478	2.4523304	1.5659918
16.240261629344403	22.42214	4.7352023
16.257966072678386	42.962368	6.5545683
16.275670906729868	38.087803	6.1715317
16.293376131947387	2.545897	1.5955868
16.31108174877957	2.5950217	1.6109071
16.328787757675133	2.5824778	1.6070089
16.34649415908287	2.5306797	1.590811
16.364200953451657	2.5209613	1.5877535
16.38190814123048	2.5781639	1.6056662
16.39961572286839	2.661948	1.6315477
16.41732369881455	2.6796834	1.6369739
16.43503206951817	2.7333047	1.653271
16.45274083542859	2.7585917	1.6609008
16.47044999699522	2.7725296	1.6650915
16.488159554667558	2.8255043	1.6809237
16.505869508895184	2.8584154	1.6906849
16.523579860127786	2.9198987	1.7087711
16.541290608815117	2.961155	1.7208006
16.559001755407035	3.049098	1.7461667
16.57671330035348	3.0768447	1.7540936
16.59442524410448	3.1219356	1.7669
16.61213758711015	3.1665096	1.7794689
16.629850329820705	3.236706	1.7990848
16.647563472686436	3.2778938	1.8104955
16.665277016157724	3.3582592	1.8325554
16.682990960685053	3.396748	1.8430269
16.70070530671898	3.4324818	1.8526958
16.718420054710155	3.4860322	1.8670919
16.736135205109335	3.558866	1.8864957
16.753850758367335	3.6250298	1.903951
16.771566714935087	3.6469066	1.9096875
16.789283075263597	3.7178001	1.9281598
16.80699983980398	3.8254733	1.9558817
16.82471700900741	3.9118865	1.9778489
16.84243458332518	3.9399056	1.9849195
16.860152563208665	3.9410872	1.9852172
16.87787094910932	3.946886	1.9866772
16.89558974147871	4.003187	2.0007966
16.913308940768466	4.169367	2.0419028
16.931028547430333	4.2938433	2.072159
16.94874856191613	4.3281875	2.0804296
16.966468984677785	4.374633	2.0915623
16.98418981616729	4.420501	2.1024988
17.00191105683676	4.43948	2.1070073
17.019632707138374	4.4289994	2.104519
17.03735476752442	4.4644127	2.1129158
17.05507723844728	4.558966	2.1351736
17.072800120359403	4.6380305	2.1536088
17.090523413713353	4.6309786	2.1519709
17.108247118961785	4.619151	2.149221
17.125971236557437	4.6819067	2.1637714
17.143695766953133	4.7179894	2.1720934
17.161420710601806	4.7169886	2.1718628
17.179146067956477	4.6646075	2.1597703
17.19687183947025	4.6983986	2.167579
17.21459802559634	4.6751375	2.1622066
17.232324626788028	4.699099	2.1677406
17.25005164349871	4.703738	2.1688104
17.267779076181863	4.672656	2.1616328
17.285506925291074	4.61236	2.1476405
17.30323519127999	4.5822773	2.1406255
17.320963874602384	4.592624	2.143041
17.33869297571211	4.557269	2.134776
17.356422495063114	4.5361934	2.1298342
17.37415243310944	4.500441	2.1214242
17.391882790305218	4.525886	2.127413
17.40961356710468	4.5252314	2.127259
17.42734476396215	4.569721	2.1376905
17.445076381332044	4.565389	2.136677
17.462808419668868	4.600482	2.1448734
17.48054087942723	4.677075	2.1626546
17.498273761061835	4.9163895	2.2172933
17.51600706502747	5.342923	2.3114765
17.533740791779024	6.065999	2.462925
17.551474941771485	7.5092034	2.7402925
17.56920951545993	8.672727	2.9449494
17.586944513299528	10.953412	3.309594
17.60467993574556	12.665458	3.5588562
17.622415783253373	14.489021	3.8064446
17.64015205627843	16.030836	4.003853
17.657888755276293	17.280035	4.156926
17.675625880702604	17.890049	4.229663
17.69336343301311	17.782034	4.216875
17.71110141266366	16.992933	4.1222486
17.728839820110178	15.91474	3.9893281
17.746578655808705	14.847527	3.8532488
17.764317920215372	13.170793	3.6291587
17.7820576137864	11.487629	3.3893404
17.79979773697811	9.389605	3.0642462
17.81753829024692	7.4570704	2.7307637
17.835279274049356	5.8036056	2.4090674
17.85302068884201	4.8125234	2.1937463
17.870762535081607	4.175316	2.043359
17.888504813224934	3.8421726	1.9601461
17.90624752372891	3.679909	1.9183089
17.923990667050536	3.6388547	1.9075782
17.941734243646895	3.5592875	1.8866074
17.959478253975185	3.508819	1.8731842
17.9772226984927	3.4670305	1.8619964
17.994967577656833	3.4318266	1.852519
18.01271289192506	3.3700676	1.8357744
18.030458641754965	3.3509686	1.8305651
18.04820482760425	3.3313742	1.8252052
18.06595144993067	3.359656	1.8329365
18.083698509192125	3.337124	1.8267797
18.101446005846576	3.2887504	1.8134912
18.119193940352105	3.2166855	1.7935121
18.136942313166887	3.2081618	1.7911342
18.1546911247492	3.167563	1.7797649
18.1724403755574	3.160819	1.7778692
18.19019006604997	3.1391273	1.7717582
18.207940196685467	3.131871	1.7697093
18.225690767922575	3.1352801	1.7706722
18.243441780220046	3.1178362	1.7657396
18.261193234036764	3.1081934	1.7630069
18.278945129831676	3.062437	1.749982
18.29669746806386	3.091773	1.7583438
18.314450249192483	3.116093	1.7652458
18.3322034736768	3.1240666	1.7675029
18.349957141976184	3.1008945	1.7609357
18.3677112545501	3.0954332	1.7593844
18.385465811858108	3.0997555	1.7606122
18.403220814359884	3.0679958	1.7515695
18.420976262515172	3.0565386	1.7482959
18.43873215678387	3.1010718	1.7609861
18.456488497625923	3.1808465	1.7834928
18.474245285501407	3.3086524	1.8189702
18.492002520870486	3.3633525	1.8339446
18.50976020419343	3.4205847	1.8494823
18.527518335930615	3.6780255	1.917818
18.545276916542516	4.284898	2.0699995
18.563035946489688	4.4338326	2.1056669
18.580795426232832	4.885034	2.2102113
18.598555356232698	4.7419024	2.1775908
18.616315736950185	5.0913434	2.2564006
18.63407656884626	4.789977	2.1886017
18.65183785238201	4.969948	2.229338
18.669599588018617	4.659652	2.1586227
18.68736177621737	4.6117377	2.1474957
18.705124417439652	4.6394997	2.1539497
18.72288751214696	4.4589505	2.1116228
18.740651060800886	4.5659566	2.1368098
18.758415063863115	4.282408	2.069398
18.77617952179546	4.448671	2.1091874
18.793944435059814	4.1835732	2.0453784
18.811709804118184	4.1706533	2.0422177
18.829475629432675	4.10275	2.0255246
18.8472419114655	3.891582	1.9727093
18.86500865067897	3.9731977	1.9932882
18.88277584753551	3.785908	1.9457409
18.90054350249763	3.818926	1.9542073
18.918311616027957	3.4353604	1.8534726
18.936080188589226	3.2854166	1.8125718
18.953849220644265	2.991432	1.7295756
18.971618712656007	2.8648703	1.6925927
18.9893886650875	2.8085988	1.6758875
19.007159078401887	8.001158	2.8286319
19.024929953062408	32.875496	5.7337155
19.042701289532435	32.842957	5.7308774
19.060473088275405	25.420227	5.0418477
19.07824534975489	2.6710389	1.6343313
19.096018074434568	2.6388361	1.6244495
19.113791262778197	2.6198657	1.6185999
19.13156491524966	2.648223	1.6273361
19.149339032312945	2.648062	1.6272867
19.167113614432136	2.610606	1.615737
19.184888662071433	2.5696025	1.602998
19.202664175695123	2.5876048	1.6086034
19.220440155767623	2.5752974	1.6047733
19.238216602753447	2.5661097	1.6019081
19.2559935171172	2.533265	1.5916234
19.27377089932361	2.5531259	1.5978504
19.291548749837514	2.5589035	1.5996573
19.309327069123835	2.5761046	1.6050248
19.32710585764763	2.5586176	1.5995679
19.344885115874032	2.5343082	1.591951
19.362664844268313	2.515004	1.5858763
19.380445043295822	2.515167	1.5859278
19.39822571342203	2.5047545	1.5826416
19.41600685511252	2.511471	1.5847621
19.43378846883297	2.480927	1.5750959
19.451570555049173	2.4429793	1.5630033
19.469353114227037	2.436231	1.560843
19.48713614683254	2.489963	1.5779617
19.50491965333182	2.510359	1.5844113
19.52270363419109	2.4952917	1.5796492
19.540488089876686	2.4668262	1.5706133
19.55827302085503	2.457029	1.5674913
19.576058427592674	2.4634612	1.5695417
19.593844310556282	2.4890146	1.5776612
19.611630670212598	2.5213637	1.5878803
19.629417507028506	2.5570889	1.59909
19.64720482147098	2.543818	1.594935
19.6649926140071	2.485672	1.5766014
19.682780885104084	2.4233162	1.5567005
19.70056963522921	2.3738139	1.5407187
19.718358864849908	2.3809285	1.5430257
19.7361485744337	2.4572604	1.5675651
19.753938764448215	2.5200636	1.5874709
19.771729435361202	2.5385656	1.5932877
19.789520587640506	2.4834785	1.5759057
19.807312221754092	2.4874344	1.5771602
19.825104338170043	2.470107	1.5716574
19.842896937356517	2.492272	1.5786932
19.860690019781824	2.5049312	1.5826974
19.87848358591436	2.531757	1.5911496
19.896277636222635	2.5210285	1.5877748
19.914072171175278	2.519613	1.5873289
19.931867191241015	2.4954216	1.5796903
19.94966269688869	2.4813542	1.5752314
19.967458688587264	2.4834223	1.5758878
19.985255166805807	2.478526	1.5743335
20.00305213201348	2.4418702	1.5626484
20.020849584679578	2.4328187	1.5597496
20.038647525273507	2.429214	1.5585936
20.05644595426477	2.4409306	1.5623478
20.07424487212299	2.460562	1.5686178
20.092044279317903	2.43771	1.5613167
20.109844176319353	2.422044	1.5562917
20.127644563597304	2.416288	1.5544413
20.145445441621817	2.409559	1.5522754
20.16324681086307	2.3972478	1.5483048
20.181048671791373	2.3951166	1.5476164
20.198851024877122	2.41228	1.5531516
20.216653870590836	2.409287	1.5521878
20.234457209403146	2.4008842	1.5494787
20.252261041784802	2.3994615	1.5490196
20.270065368206662	2.3979628	1.5485357
20.287870189139685	2.3660977	1.5382125
20.305675505054968	2.384179	1.5440787
20.323481316423702	2.4065225	1.5512971
20.341287623717207	2.4070792	1.5514765
20.359094427406884	2.375944	1.5414097
20.376901727964288	2.341935	1.5303382
20.39470952586107	2.3575182	1.5354211
20.41251782156899	2.3614538	1.5367023
20.430326615559935	2.3637905	1.5374624
20.448135908305886	2.312665	1.5207449
20.465945700278965	2.2855003	1.5117872
20.483755991951384	2.2678006	1.5059218
20.50156678379548	2.2877033	1.5125155
20.519378076283708	2.3007193	1.5168122
20.537189869888635	2.3179784	1.5224909
20.55500216508294	2.315546	1.5216918
20.572814962339415	2.3151906	1.521575
20.59062826213098	2.3292925	1.526202
20.60844206493066	2.3593528	1.5360185
20.626256371211593	2.3750103	1.5411068
20.644071181447032	2.3621497	1.5369287
20.66188649611036	2.3176773	1.5223919
20.67970231567506	2.3150697	1.5215353
20.697518640614742	2.331579	1.5269508
20.715335471403122	2.3582191	1.5356494
20.73315280851404	2.3290854	1.5261341
20.750970652421447	2.2845867	1.511485
20.768789003599412	2.26684	1.5056028
20.786607862522136	2.2657955	1.5052559
20.8044272296639	2.2609606	1.5036491
20.82224710549913	2.2620447	1.5040095
20.84006749050237	2.3039865	1.5178889
20.857888385148268	3.893203	1.9731201
20.8757097899116	46.004597	6.782669
20.893531705267254	64.80048	8.049874
20.911354131690224	83.819496	9.155299
20.92917706965566	69.06198	8.310354
20.94700051963877	50.09601	7.077853
20.96482448211493	29.374723	5.419845
20.982648957559622	4.1713367	2.042385
21.00047394644843	2.26082	1.5036023
21.01829944925707	2.2591703	1.5030537
21.036125466461375	2.2583299	1.502774
21.053951998537297	2.2481096	1.4993697
21.071779045960906	2.2580836	1.5026921
21.089606609208378	2.2696064	1.5065212
21.10743468875603	2.2393134	1.4964335
21.12526328508028	2.207453	1.48575
21.143092398657675	2.1766894	1.4753608
21.16092202996488	2.1819248	1.477134
21.17875217947867	2.1848996	1.4781406
21.19658284767596	2.1941879	1.4812791
21.21441403503377	2.1683595	1.472535
21.232245742029225	2.1520844	1.4669985
21.2500779691396	2.1451235	1.464624
21.26791071684227	2.1792963	1.476244
21.28574398561475	2.1929188	1.4808507
21.30357777593465	2.1737313	1.474358
21.321412088279704	2.124162	1.4574505
21.339246923127792	2.1292632	1.4591995
21.357082280956888	2.1508296	1.4665707
21.3749181622451	2.1540012	1.4676516
21.392754567470647	2.1753645	1.4749117
21.41059149711187	2.1681483	1.4724634
21.42842895164726	2.1421824	1.4636196
21.446266931555378	2.1181293	1.4553794
21.464105437314945	2.1298006	1.4593836
21.481944469404798	2.1153011	1.4544075
21.49978402830388	2.0956275	1.4476283
21.51762411449127	2.0717037	1.4393414
21.53546472844617	2.0689347	1.4383792
21.553305870647876	2.1217508	1.4566231
21.571147541575865	2.15152	1.466806
21.58898974170967	2.1381865	1.4622539
21.60683247152899	2.1070244	1.4515593
21.62467573151363	2.1090353	1.4522518
21.642519522143523	2.1156635	1.454532
21.660363843898722	2.090997	1.446028
21.6782086972594	2.038963	1.4279226
21.696054082705864	2.0301657	1.4248388
21.713900000718535	2.051975	1.4324716
21.73174645177795	2.0929427	1.4467006
21.749593436364794	2.1016862	1.4497193
21.767440954959845	2.0783117	1.4416351
21.785289008044032	2.063646	1.4365396
21.803137596098388	2.0462077	1.4304571
21.820986719604086	2.0143988	1.4192952
21.838836379042412	2.0002573	1.4143045
21.85668657489478	2.003328	1.4153898
21.87453730764273	2.0207481	1.4215302
21.892388577767914	1.9924271	1.4115336
21.91024038575213	1.9728279	1.4045739
21.928092732077285	1.992731	1.4116412
21.945945617225426	2.0254831	1.4231946
21.963799041678694	2.044284	1.4297847
21.981653005919398	31.390053	5.6026826
21.999507510429943	78.20913	8.843593
22.01736255569286	73.127396	8.5514555
22.035218142190818	4.190631	2.0471032
22.05307427040661	2.02137	1.4217489
22.07093094082315	2.0453765	1.4301666
22.088788153923474	2.0353286	1.4266495
22.106645910190746	2.048487	1.4312537
22.12450421010827	2.0385973	1.4277946
22.142363054159464	2.0102372	1.4178283
22.16022244282787	1.9881957	1.410034
22.178082376597164	2.0039744	1.4156181
22.195942855951145	2.006826	1.4166248
22.213803881373742	1.9642715	1.4015247
22.231665453349002	1.9246806	1.3873286
22.24952757236111	1.9513122	1.3968937
22.26739023889438	1.9754957	1.4055233
22.28525345343323	1.9771452	1.4061099
22.30311721646225	1.9464395	1.3951485
22.320981528466113	1.9367137	1.3916587
22.33884638992964	1.951785	1.397063
22.356711801337788	1.9540664	1.3978792
22.37457776317561	1.9655862	1.4019936
22.392444275928337	1.955998	1.39857
22.410311340081282	1.975971	1.4056923
22.428178956119904	1.9780333	1.4064257
22.446047124529805	1.9851965	1.40897
22.46391584579669	1.9711441	1.4039744
22.481785120406414	1.9849374	1.4088781
22.49965494884496	1.9902507	1.4107624
22.51752533159841	2.0099363	1.4177222
22.53539626915302	1.9798439	1.4070692
22.553267761995137	1.9234414	1.386882
22.571139810611264	1.8738053	1.36887
22.589012415488025	1.8501339	1.3601962
22.60688557711216	1.8816681	1.371739
22.624759295970566	1.9079165	1.3812735
22.642633572550263	1.921338	1.3861233
22.660508407338362	1.9109391	1.3823673
22.67838380082217	1.9075682	1.3811474
22.696259753489077	1.9525976	1.3973538
22.714136265826614	1.9956173	1.4126632
22.73201333832246	1.9855694	1.4091023
22.74989097146439	1.9707159	1.4038218
22.76776916574035	1.945872	1.3949451
22.785647921638393	1.9421774	1.3936203
22.803527239646712	1.9009773	1.3787593
22.82140712025363	1.9176134	1.3847792
22.839287563947593	1.9134426	1.3832724
22.85716857121719	1.9222804	1.3864633
22.875050142551135	1.9313263	1.3897216
22.892932278438277	1.9193151	1.3853935
22.910814979367604	1.9064729	1.3807509
22.928698245828222	1.8830233	1.3722329
22.946582078309387	1.9052634	1.3803128
22.96446647730047	1.913923	1.3834461
22.98235144329098	1.9179983	1.3849182
23.000236976770562	1.8920349	1.3755126
23.018123078229	1.8986895	1.3779294
23.03600974815619	1.8767359	1.3699402
23.053896987042194	1.8927778	1.3757826
23.071784795377173	1.9046496	1.3800905
23.08967317365145	1.905033	1.3802294
23.10756212235546	1.8885266	1.3742367
23.125451641979787	1.8966912	1.3772042
23.143341733015134	1.9378331	1.3920608
23.161232395952357	1.9528834	1.397456
23.179123631282426	1.9504336	1.3965793
23.197015439496468	1.9057221	1.380479
23.214907821085717	1.9036083	1.3797132
23.23280077654157	1.9401145	1.39288
23.250694306355538	2.013076	1.4188291
23.268588411019277	2.008938	1.4173701
23.28648309102458	1.9961811	1.4128628
23.304378346863356	1.9675287	1.4026862
23.322274179027676	1.9430594	1.3939366
23.340170588009723	1.94118	1.3932624
23.358067574301852	1.9244304	1.3872384
23.37596513839651	1.9246498	1.3873175
23.39386328078629	1.889643	1.3746428
23.411762001963947	1.909149	1.3817196
23.429661302422353	1.9293402	1.389007
23.4475611826545	1.9369467	1.3917423
23.46546164315356	1.9348911	1.3910036
23.48336268441279	1.8990719	1.3780682
23.501264306925638	1.887669	1.3739246
23.51916651118564	1.8868382	1.3736223
23.537069297686497	1.9027227	1.3793921
23.554972666922037	1.8976611	1.3775562
23.57287661938623	1.8764771	1.3698456
23.59078115557318	1.8733969	1.3687209
23.608686275977128	1.9160872	1.384228
23.62659198109246	1.95669	1.3988173
23.6444982714137	1.971548	1.4041182
23.66240514743549	1.9567037	1.3988222
23.68031260965263	1.9597017	1.3998934
23.698220658560068	1.9771023	1.4060947
23.716129294652845	1.9654111	1.4019312
23.7340385184262	1.9498059	1.3963544
23.75194833037546	1.970997	1.403922
23.769858730996123	1.9590405	1.3996572
23.78776972078382	1.8943125	1.3763403
23.80568130023431	1.8717074	1.3681036
23.823593469843495	1.8702611	1.3675749
23.841506230107424	1.8580027	1.3630857
23.859419581522275	1.8372328	1.3554456
23.87733352458438	1.8372134	1.3554385
23.89524805979019	1.8746932	1.3691944
23.913163187636318	1.9283991	1.3886681
23.931078908619508	1.9476289	1.3955747
23.948995223236633	1.9620876	1.4007454
23.966912131984735	1.9952642	1.4125382
23.98482963536096	2.0229023	1.4222877
24.002747733862616	2.0025682	1.4151213
24.020666427987155	1.9529186	1.3974687
24.038585718232156	1.9606618	1.4002364
24.056505605095353	2.0047882	1.4159055
24.074426089074617	2.0655463	1.4372009
24.092347170667946	2.0700924	1.4387816
24.110268850373515	2.0495782	1.4316348
24.128191128689586	2.0331464	1.4258844
24.146114006114626	2.0080538	1.4170581
24.164037483147187	2.0246208	1.4228917
24.181961560286005	2.0336018	1.4260441
24.199886238029926	2.0233011	1.4224279
24.21781151687797	2.0732336	1.4398727
24.235737397329274	2.1057844	1.451132
24.253663879883135	2.1500926	1.4663194
24.271590965038975	2.0875595	1.4448389
24.289518653296376	2.0461326	1.4304309
24.30744694515505	2.0230827	1.4223511
24.32537584111486	2.0774603	1.4413397
24.34330534167581	2.0921903	1.4464406
24.361235447338046	2.0944831	1.447233
24.379166158601876	2.0706642	1.4389802
24.39709747596772	2.0312936	1.4252346
24.41502939993615	1.9790121	1.4067737
24.432961931007917	2.0078473	1.4169853
24.450895069683856	2.0543358	1.4332955
24.468828816465	2.061896	1.4359304
24.4867631718525	2.061989	1.4359628
24.504698136347656	2.0435233	1.4295186
24.52263371045192	2.0130277	1.418812
24.540569894666874	2.0075655	1.4168859
24.558506689494266	1.9945979	1.4123024
24.57644409543597	1.9715471	1.404118
24.594382112994012	1.9297969	1.3891714
24.61232074267057	1.906052	1.3805984
24.630259984967953	1.9179633	1.3849055
24.64819984038863	1.9254645	1.387611
24.66614030943522	1.968675	1.4030948
24.684081392610462	1.9633241	1.4011867
24.702023090417274	1.9587803	1.3995643
24.7199654033587	1.9515554	1.3969808
24.737908331937927	1.978341	1.4065351
24.755851876658305	1.9984525	1.4136664
24.773796038023324	2.0348063	1.4264663
24.79174081653661	2.0243723	1.4228044
24.809686212701962	2.0591855	1.4349862
24.827632227023294	2.0631921	1.4363816
24.8455788600047	2.0541582	1.4332335
24.8635261121504	2.0406532	1.4285144
24.88147398396475	2.0577543	1.4344875
24.899422475952303	2.1323817	1.4602677
24.917371588617698	2.1362145	1.4615794
24.935321322465768	2.1489825	1.4659408
24.953271678001478	2.232344	1.4941031
24.97122265572994	2.4624102	1.5692068
24.989174256156414	2.809862	1.6762643
25.00712647978632	3.302098	1.8171676
25.02507932712521	3.888754	1.9719924
25.043032798678798	4.457389	2.111253
25.060986894952933	5.082558	2.254453
25.078941616453637	5.8099136	2.4103763
25.096896963687055	6.7669635	2.6013389
25.114852937159508	7.906717	2.8118885
25.132809537377444	8.3899145	2.896535
25.150766764847468	8.48199	2.9123857
25.168724620076347	7.923356	2.8148456
25.186683103570985	6.8360424	2.6145825
25.204642215838426	5.510984	2.3475485
25.222601957385894	4.180485	2.0446234
25.24056232872074	3.236568	1.7990464
25.25852333035048	2.6814883	1.6375251
25.276484962782778	2.312015	1.5205312
25.294447226525435	2.1175978	1.4551969
25.312410122086423	2.074068	1.4401625
25.330373649973843	2.0436184	1.4295518
25.348337810695988	1.9908358	1.4109699
25.366302604761245	1.9305067	1.3894267
25.384268032678207	1.9244255	1.3872366
25.40223409495558	1.9077295	1.3812058
25.420200792102257	1.8962165	1.3770318
25.438168124627246	1.8963426	1.3770776
25.45613609303974	1.9370878	1.391793
25.474104697849057	1.9430581	1.3939362
25.492073939564698	1.9178032	1.3848478
25.510043818696285	1.9001982	1.3784767
25.528014335753614	1.8789622	1.3707525
25.54598549124664	1.8571157	1.3627603
25.56395728568544	1.8268677	1.3516167
25.58192971958028	1.8069367	1.3442235
25.59990279344156	1.7833265	1.3354125
25.617876507779833	1.8482605	1.3595074
25.635850863105826	1.8821666	1.3719208
25.653825859930386	1.8919028	1.3754646
25.671801498764548	1.8621763	1.3646158
25.68977778011949	1.8431486	1.3576261
25.707754704506524	1.879922	1.3711025
25.725732272437153	1.8989292	1.3780165
25.743710484423012	1.8643625	1.3654166
25.761689340975888	1.8306528	1.3530163
25.77966884260774	1.8294648	1.3525771
25.797648989830662	1.835058	1.3546431
25.815629783156922	1.8295697	1.3526158
25.83361122309895	1.8402535	1.3565594
25.85159331016929	1.8773811	1.3701756
25.869576044880695	1.8624583	1.3647192
25.887559427746034	1.8203324	1.3491969
25.90554345927836	1.7831804	1.3353578
25.92352813999086	1.8421234	1.3572484
25.94151347039689	1.8937227	1.3761259
25.959499451009965	1.8561237	1.3623964
25.97748608234374	1.8258433	1.3512377
25.995473364912062	1.8098326	1.3453002
26.013461299228904	1.8257561	1.3512055
26.03144988580839	1.8247741	1.350842
26.04943912516483	1.8036228	1.3429903
26.067429017812675	1.8142455	1.3469393
26.085419564266537	1.8018575	1.3423328
26.103410765041186	1.8054531	1.3436714
26.12140262065155	1.8356082	1.3548462
26.139395131612723	1.8327098	1.3537761
26.157388298439948	1.7598364	1.3265883
26.17538212164861	1.7521241	1.3236783
26.193376601754295	1.8304605	1.3529451
26.211371739272714	1.8440257	1.3579491
26.229367534719746	1.8106849	1.3456169
26.247363988611433	1.8117307	1.3460054
26.26536110146397	1.8018187	1.3423184
26.283358873793727	1.7779937	1.3334143
26.301357306117204	1.7656133	1.3287638
26.319356398951104	1.776623	1.3329002
26.33735615281224	1.8252743	1.3510271
26.35535656821762	1.8333479	1.3540118
26.373357645684404	1.8431093	1.3576117
26.39135938572991	1.8839252	1.3725616
26.409361788871614	1.8520077	1.3608849
26.427364855627165	1.8233308	1.3503077
26.445368586514352	1.8320427	1.3535297
26.46337298205115	1.8075374	1.3444469
26.48137804275568	1.8108534	1.3456795
26.499383769146217	1.8333979	1.3540303
26.517390161741215	1.817751	1.34824
26.53539722105928	1.8277565	1.3519454
26.553404947619182	1.8624701	1.3647234
26.571413341939856	1.883395	1.3723683
26.589422404540397	1.8638786	1.3652394
26.60743213594006	1.8490957	1.3598145
26.62544253665827	1.8620969	1.3645867
26.64345360721459	1.865789	1.3659389
26.66146534812879	1.8533874	1.3613917
26.679477759920758	1.7839898	1.3356608
26.69749084311057	1.7568702	1.3254697
26.71550459821847	1.72727	1.3142564
26.733519025764842	1.7304193	1.315454
26.751534126270258	1.7256097	1.3136246
26.769549900255434	1.7203377	1.3116164
26.787566348241267	1.7428974	1.3201884
26.80558347074881	1.7705504	1.3306203
26.823601268299267	1.80024	1.3417302
26.841619741414036	1.8212231	1.349527
26.85963889061465	1.8733656	1.3687094
26.877658716422832	1.8853571	1.3730831
26.89567921936045	1.8389765	1.3560886
26.913700399949544	1.7850002	1.336039
26.93172225871233	1.7664855	1.3290919
26.949744796171174	1.7729775	1.331532
26.967768012848605	1.8049443	1.3434821
26.98579190926733	1.8371972	1.3554325
27.003816485950225	1.8672256	1.3664646
27.021841743420318	1.8270786	1.3516947
27.039867682200814	1.7614173	1.327184
27.057894302815072	1.7767978	1.3329657
27.07592160578664	1.8097695	1.3452767
27.0939495916392	1.8345498	1.3544556
27.111978260896635	1.8449202	1.3582784
27.13000761408296	1.8138785	1.3468031
27.148037651722397	1.7790843	1.3338232
27.166068374339304	1.7637457	1.3280609
27.184099782458215	1.8146176	1.3470775
27.20213187660384	1.8439531	1.3579223
27.22016465730105	1.8069395	1.3442245
27.23819812507487	1.7764927	1.3328513
27.256232280450533	1.8367857	1.3552806
27.274267123953383	1.8669494	1.3663635
27.292302656108987	1.8338956	1.354214
27.31033887744306	1.7840483	1.3356827
27.32837578848146	1.7822732	1.335018
27.34641338975026	1.7810436	1.3345574
27.364451681775673	1.7734119	1.3316951
27.382490665084074	1.7418226	1.3197813
27.400530340202046	1.773989	1.3319118
27.41857070765629	1.8275678	1.3518757
27.436611767973726	1.8219004	1.3497779
27.454653521681404	1.8106753	1.3456134
27.472695969306564	1.8394604	1.3562671
27.490739111376627	1.8060845	1.3439064
27.508782948419153	1.7887355	1.3374362
27.526827480961902	1.7770404	1.3330568
27.54487270953279	1.8542856	1.3617215
27.562918634659898	1.8634048	1.3650658
27.580965256871508	1.7901692	1.337972
27.599012576696026	1.7525405	1.3238355
27.617060594662068	1.7806371	1.3344052
27.63510931129842	1.8129147	1.3464452
27.65315872713401	1.8340673	1.3542774
27.67120884269797	1.846833	1.3589823
27.68925965851958	1.8376433	1.355597
27.707311175128307	1.8174566	1.3481308
27.725363393053787	1.8334992	1.3540677
27.74341631282583	1.909225	1.3817471
27.7614699349744	1.9596802	1.3998858
27.77952426002968	2.1016834	1.4497184
27.797579288521973	2.1164095	1.4547884
27.815635020981784	2.4881063	1.5773733
27.83369145793979	2.586626	1.6082991
27.85174859992682	2.4668915	1.5706341
27.869806447473923	2.295773	1.5151808
27.887865001112267	2.0073159	1.4167978
27.905924261373233	1.9489663	1.3960538
27.92398422878836	1.953061	1.3975196
27.94204490388936	1.9167914	1.3844824
27.96010628720813	1.8567339	1.3626202
27.978168379276728	1.8140239	1.3468571
27.9962311806274	1.8148899	1.3471785
28.014294691792568	1.8509078	1.3604807
28.0323589133048	1.9041196	1.3798984
28.050423845696887	1.9495665	1.3962687
28.068489489501758	1.9166304	1.3844242
28.086555845252523	1.8929833	1.3758574
28.104622913482487	1.8862542	1.3734097
28.122690694725115	1.9070411	1.3809565
28.14075918951405	1.9214811	1.386175
28.15882839838312	1.8919644	1.375487
28.176898321866304	1.9172784	1.3846582
28.1949689604978	1.950589	1.3966348
28.213040314811945	1.9492121	1.3961419
28.23111238534327	1.9133317	1.3832324
28.249185172626493	1.8621252	1.3645971
28.267258677196473	1.8738147	1.3688735
28.285332899588294	1.9131267	1.3831582
28.303407840337172	1.989398	1.4104602
28.321483499978545	2.0222826	1.4220698
28.33955987904799	1.9972235	1.4132316
28.357636978081285	1.9376092	1.3919803
28.37571479761439	1.9586766	1.3995273
28.393793338183425	1.9534396	1.397655
28.41187260032469	1.9734955	1.4048115
28.429952584574686	1.9439029	1.3942392
28.448033291470065	1.9949274	1.412419
28.46611472154769	1.976079	1.4057307
28.484196875344566	2.0153801	1.4196409
28.502279753397914	1.997988	1.413502
28.52036335624511	1.9864146	1.4094023
28.538447684423716	1.9548316	1.398153
28.556532738471482	2.0275493	1.4239204
28.574618518926325	2.0460093	1.4303879
28.59270502632635	2.0452392	1.4301186
28.61079226120985	2.0689666	1.4383903
28.628880224115274	2.0928974	1.446685
28.646968915581287	2.0565002	1.4340503
28.66505833614671	2.0079746	1.4170302
28.68314848635055	2.018151	1.4206164
28.701239366732004	2.0207357	1.4215258
28.71933097783044	2.0360694	1.4269091
28.737423320185403	2.0794437	1.4420277
28.75551639433665	2.1096828	1.4524747
28.773610200824074	2.1384923	1.4623585
28.791704740187793	2.1502566	1.4663754
28.80980001296809	2.164576	1.4712498
28.827896019705413	2.1777687	1.4757265
28.845992760940433	2.2022576	1.4840006
28.86409023721397	2.2346418	1.4948719
28.88218844906704	2.236804	1.4955949
28.900287397040845	2.2780418	1.5093184
28.918387081676755	2.3571897	1.5353142
28.936487503516343	2.3436916	1.530912
28.954588663101365	2.3066585	1.5187688
28.97269056097374	2.2923694	1.5140573
28.990793197675597	2.321383	1.5236086
29.00889657374923	2.352722	1.5338585
29.027000689737125	2.370616	1.5396805
29.04510554618196	2.411721	1.5529717
29.06321114362659	2.4128876	1.5533472
29.08131748261405	2.4021137	1.5498754
29.099424563687567	2.459081	1.5681458
29.11753238739057	2.4590385	1.5681322
29.13564095426663	2.5160346	1.5862013
29.15375026485954	2.5511022	1.597217
29.171860319713275	2.6170626	1.6177337
29.18997111937199	2.699235	1.6429349
29.20808266438002	2.7360895	1.6541129
29.226194955281898	2.711347	1.6466168
29.244307992622335	2.7911444	1.6706718
29.26242177694624	2.8370588	1.684357
29.2805363087987	2.8564575	1.6901058
29.29865158872498	2.9350772	1.7132066
29.316767617270557	2.9206674	1.708996
29.334884394981064	2.9167616	1.707853
29.353001922402367	2.9097316	1.7057935
29.37112020008047	2.9543648	1.7188265
29.389239228561596	3.1176028	1.7656735
29.407359008392152	3.3301477	1.8248693
29.42547954011872	3.6841676	1.9194186
29.44360082428809	4.367238	2.0897937
29.46172286144722	5.4267035	2.3295286
29.479845652143283	7.0408854	2.6534667
29.497969196923606	9.286918	3.0474443
29.516093496335728	11.94304	3.4558704
29.5342185509274	14.862431	3.8551824
29.55234436124651	17.269936	4.155711
29.570470927841175	18.65036	4.3186064
29.588598251259686	18.240622	4.270904
29.60672633205055	16.672314	4.083174
29.624855170762405	14.497603	3.807572
29.642984767944146	11.874195	3.4458954
29.66111512414481	9.078613	3.0130737
29.67924623991366	6.6941247	2.5873008
29.697378115800138	5.104269	2.259263
29.71551075235387	4.2253036	2.0555544
29.733644150124675	3.7724166	1.942271
29.751778309662576	3.5573673	1.8860984
29.769913231517766	3.4659932	1.8617178
29.78804891624066	3.4544122	1.8586049
29.806185364381818	3.4151766	1.8480196
29.82432257649206	3.290337	1.8139286
29.842460553122333	3.261843	1.8060573
29.86059929482382	3.323811	1.8231322
29.878738802147872	3.3429453	1.8283724
29.896879075646048	3.3262033	1.8237882
29.915020115870114	3.3047729	1.8179034
29.933161923371976	3.2174578	1.7937274
29.951304498703777	3.2121184	1.7922384
29.969447842417857	3.175432	1.7819742
29.987591955066733	3.1099122	1.7634943
30.005736837203123	3.1460173	1.7737015
30.023882489379943	3.1556985	1.7764286
30.04202891215028	3.2067492	1.7907399
30.060176106067455	3.2036152	1.7898645
30.078324071684946	3.1697886	1.78039
30.09647280955646	3.1651757	1.7790941
30.114622320235863	3.1705427	1.7806017
30.132772604277257	3.1454666	1.7735463
30.1509236622349	3.0407596	1.7437774
30.16907549466328	3.0285301	1.7402673
30.18722810211705	3.0473104	1.7456547
30.205381485151097	3.100681	1.7608751
30.22353564432045	3.040336	1.7436559
30.241690580180403	2.9833577	1.7272398
30.25984629328638	2.975883	1.7250748
30.278002784194037	2.9706368	1.7235535
30.296160053459246	2.897003	1.7020584
30.314318101638033	2.8677807	1.6934522
30.332476929286646	2.8450694	1.6867334
30.35063653696153	2.8878043	1.699354
30.368796925219307	2.9632988	1.7214235
30.386958094616844	2.96801	1.7227913
30.40512004571115	2.9905562	1.7293224
30.423282779059463	2.9929771	1.7300223
30.441446295219233	2.9440541	1.7158246
30.459610594748067	2.8809636	1.6973401
30.47777567820382	2.8882813	1.6994945
30.495941546144504	2.89509	1.7014965
30.51410819912835	2.836173	1.6840942
30.532275637713795	2.7997406	1.6732426
30.55044386245946	2.7774634	1.6665723
30.56861287392416	2.7796955	1.6672419
30.586782672666956	2.7900312	1.6703386
30.604953259247047	2.7831032	1.6682636
30.623124634223885	2.730644	1.652466
30.641296798157075	2.7198482	1.6491963
30.659469751606462	2.6900623	1.6401409
30.677643495132074	2.7168798	1.648296
30.695818029294152	2.719747	1.6491655
30.713993354653116	2.720445	1.6493771
30.73216947176962	2.7777128	1.6666472
30.75034638120448	2.876165	1.695926
30.768524083518756	2.8418963	1.6857924
30.786702579273673	2.7821116	1.6679664
30.80488186903069	2.825533	1.6809322
30.82306195335144	2.9595718	1.7203406
30.841242832797782	3.2308633	1.7974602
30.85942450793176	3.5101864	1.8735491
30.877606979315637	3.7655926	1.9405135
30.895790247511883	4.117845	2.0292475
30.913974313083134	4.5431423	2.1314647
30.932159176592283	4.828152	2.1973057
30.95034483860237	4.8333774	2.1984944
30.968531299676698	4.657379	2.158096
30.98671856037873	4.451515	2.1098614
31.00490662127215	4.0827928	2.0205922
31.023095482920848	3.6350315	1.9065758
31.04128514588892	3.2093642	1.7914698
31.059475610740662	2.8827357	1.6978621
31.07766687804056	2.642782	1.6256635
31.09585894835335	2.5179558	1.5868068
31.11405182224393	2.506842	1.583301
31.132245500277417	2.4618025	1.5690132
31.15043998301914	2.4280558	1.5582219
31.168635271034628	2.4153867	1.5541514
31.18683136488964	2.4141202	1.553744
31.20502826515008	2.3845024	1.5441834
31.223225972382135	2.4357595	1.560692
31.241424487152155	2.4221148	1.5563145
31.259623810026692	2.4454858	1.5638049
31.27782394157253	2.4200273	1.5556437
31.296024882356644	2.3986857	1.5487691
31.314226632946237	2.4189198	1.5552877
31.332429193908684	2.451798	1.5658218
31.350632565811598	2.4824998	1.575595
31.368836749222787	2.4930522	1.5789403
31.387041744710295	2.4626784	1.5692923
31.40524755284232	2.424129	1.5569614
31.423454174187317	2.5216382	1.5879667
31.441661609313922	2.5893965	1.6091602
31.459869858791002	2.5263698	1.5894558
31.478078923187628	2.3686435	1.5390399
31.496288803073064	2.2700047	1.5066535
31.514499499016807	2.2417595	1.4972507
31.532711011588546	2.3000946	1.5166063
31.550923341358178	2.2543397	1.5014459
31.56913648889584	2.2534747	1.5011578
31.587350454771844	2.298962	1.5162328
31.605565239556732	2.3967388	1.5481404
31.62378084382127	2.3629622	1.537193
31.641997268136382	2.2464747	1.4988245
31.660214513073274	2.2155564	1.4884745
31.67843257920331	2.313348	1.5209694
31.6966514670981	2.3541355	1.5343193
31.71487117732944	2.3683977	1.53896
31.733091710469346	2.307985	1.5192055
31.751313067090052	2.314283	1.5212767
31.769535247764008	2.3080134	1.5192147
31.787758253063878	2.233343	1.4944373
31.805982083562526	2.130393	1.4595866
31.824206739833024	2.1152208	1.4543799
31.84243222244869	2.261587	1.5038574
31.860658531983013	2.4004533	1.5493397
31.878885669009737	2.3583443	1.5356902
31.897113634102784	2.245704	1.4985673
31.91534242783632	2.2830343	1.5109713
31.933572050784694	2.2592869	1.5030924
31.951802503522508	2.2117271	1.4871876
31.970033786624548	2.1811953	1.476887
31.988265900665834	2.2030046	1.4842522
32.006498846221575	2.2116027	1.4871458
32.02473262386724	2.2009218	1.4835504
32.04296723417845	2.239448	1.4964786
32.0612026777311	2.2110286	1.4869528
32.07943895510129	2.1961327	1.4819355
32.097676066865304	2.154524	1.4678297
32.115914013599685	2.1885624	1.479379
32.13415279588115	2.0969036	1.4480689
32.152392414286666	2.133144	1.4605286
32.1706328693934	2.196364	1.4820135
32.18887416177875	2.2893803	1.5130699
32.20711629202032	2.307149	1.5189302
32.225359260695924	2.2193804	1.4897585
32.243603068383614	2.1134708	1.4537781
32.26184771566166	2.0808773	1.4425247
32.28009320310852	2.1926513	1.4807603
32.2983395313029	2.2263644	1.4921007
32.31658670082372	2.248699	1.4995662
32.33483471225012	2.2083764	1.4860607
32.35308356616143	2.1746938	1.4746844
32.371333263137245	2.1372068	1.4619188
32.38958380375734	2.0939724	1.4470565
32.407835188601744	2.0384185	1.427732
32.42608741825067	2.0911818	1.4460919
32.444340493284585	2.1131177	1.4536567
32.46259441428416	2.1072805	1.4516475
32.48084918183028	2.1201603	1.456077
32.49910479650405	2.0880756	1.4450176
32.51736125888683	2.0622149	1.4360414
32.53561856956014	2.0610952	1.4356515
32.5538767291058	1.9840674	1.4085693
32.572135738105764	1.9726759	1.4045198
32.59039559714228	2.0627146	1.4362154
32.608656306797776	2.1160498	1.4546648
32.62691786765491	2.140017	1.4628797
32.645180280296586	2.1401515	1.4629257
32.663443545305896	2.0467312	1.4306401
32.68170766326619	1.9657573	1.4020547
32.69997263476099	2.0566776	1.4341121
32.7182384603741	2.0146687	1.4193902
32.7365051406895	1.9234537	1.3868864
32.75477267629144	1.9888935	1.4102813
32.77304106776434	2.0861847	1.4443631
32.79131031569289	2.0561519	1.4339288
32.809580420661966	1.9760634	1.4057252
32.827851383256714	1.9271225	1.3882084
32.84612320406245	1.9640814	1.4014568
32.86439588366476	2.0190427	1.4209303
32.88266942264945	1.985595	1.4091114
32.9009438216025	1.8955296	1.3767823
32.9192190811102	1.9265993	1.3880199
32.937495201758985	1.9163582	1.3843259
32.95577218413556	1.8786958	1.3706553
32.974050028826866	1.9147437	1.3837426
32.992328736420035	1.9597808	1.3999218
33.010608307502444	1.9513068	1.3968918
33.02888874266169	1.9990422	1.4138749
33.047170042485604	1.9752685	1.4054425
33.06545220756225	1.9591292	1.399689
33.083735238479896	2.0343735	1.4263147
33.10201913582707	1.9929903	1.411733
33.12030390019248	1.959106	1.3996806
33.138589532165135	1.942197	1.3936273
33.15687603233419	2.017731	1.4204686
33.17516340128909	2.00667	1.4165698
33.19345163961947	1.9822868	1.407937
33.211740747915215	2.0530953	1.4328626
33.23003072676643	2.0873406	1.4447632
33.248321576763466	2.0381935	1.4276531
33.266613298496885	2.064199	1.436732
33.28490589255747	2.0732179	1.4398673
33.30319935953626	1.9472535	1.3954402
33.32149370002451	1.7991806	1.3413354
33.339788914613706	1.7245225	1.3132107
33.358085003895575	1.8292536	1.352499
33.376381968462034	1.8993436	1.3781668
33.39467980890529	1.9905812	1.4108796
33.41297852581774	2.0210004	1.4216189
33.43127811979204	2.1005185	1.4493165
33.44957859142105	2.038293	1.427688
33.467879941297866	1.9794363	1.4069244
33.486182170015844	1.8936652	1.3761051
33.50448527816853	1.8069258	1.3442194
33.522789266349754	1.9170591	1.3845791
33.541094135153514	1.9709892	1.4039192
33.55939988517411	1.9590575	1.3996633
33.57770651700602	2.0487761	1.4313546
33.59601403124398	2.062597	1.4361744
33.61432242848296	2.0140085	1.4191576
33.632631709318154	2.0347447	1.4264448
33.650941874344994	2.110588	1.4527863
33.66925292415916	2.0469146	1.4307042
33.68756485935654	1.9675769	1.4027034
33.70587768053328	1.9695892	1.4034206
33.724191388285746	1.9143975	1.3836175
33.74250598321054	1.8975061	1.3774999
33.760821465904506	1.9347202	1.3909422
33.77913783696474	1.9446784	1.3945173
33.79745509698852	1.8510487	1.3605325
33.815773246573414	1.8584394	1.363246
33.8340922863172	1.8362985	1.3551009
33.852412216817896	1.8618941	1.3645124
33.87073303867377	2.0168786	1.4201685
33.889054752483304	2.0211158	1.4216595
33.907377358845245	2.0726304	1.4396633
33.92570085835853	2.0577948	1.4345016
33.94402525162239	1.9907465	1.4109381
33.96235053923627	1.8494103	1.3599303
33.980676721799824	1.922964	1.3867098
33.999003799912984	1.9994506	1.4140193
34.01733177417592	1.991853	1.4113302
34.03566064518901	2.0481896	1.4311497
34.0539904135529	2.1416557	1.4634397
34.07232107986846	2.0329244	1.4258066
34.090652644736785	1.9756076	1.4055631
34.108985108759235	2.0576327	1.434445
34.12731847253742	2.0993729	1.4489213
34.14565273667313	2.1150732	1.4543291
34.16398790176847	2.1106133	1.452795
34.18232396842574	2.1125038	1.4534454
34.20066093724749	2.0183928	1.4207015
34.21899880883651	2.0574818	1.4343925
34.23733758379583	2.257391	1.5024617
34.25567726272874	2.2027693	1.4841729
34.27401784623872	2.0305996	1.4249911
34.29235933492957	1.9849644	1.4088876
34.31070172940526	2.0832248	1.443338
34.32904503027003	2.131451	1.4599489
34.347389238128386	2.0646355	1.4368839
34.36573435358502	1.8905193	1.3749615
34.38408037724492	1.8603573	1.3639492
34.402427309713296	1.9333972	1.3904666
34.42077515159559	1.9016327	1.378997
34.43912390349752	1.9205043	1.3858227
34.45747356602499	2.057115	1.4342647
34.47582413978423	1.9918354	1.411324
34.49417562538163	2.0225604	1.4221675
34.51252802342388	2.1715448	1.4736162
34.53088133451789	2.1471834	1.465327
34.54923555927084	2.0630865	1.4363449
34.567590698290104	1.9615862	1.4005663
34.58594675218336	1.9731888	1.4047024
34.6043037215585	2.0168948	1.4201742
34.62266160702365	1.9322886	1.3900678
34.641020409187234	1.8411729	1.3568983
34.65938012865785	1.8544598	1.3617855
34.677740766044394	1.8051449	1.3435568
34.69610232195598	1.93779	1.3920453
34.714464797002016	2.0118253	1.4183882
34.73282819179208	1.9681324	1.4029014
34.751192506936064	1.8377559	1.3556386
34.76955774304408	2.0799568	1.4422055
34.7879239007265	2.1763227	1.4752365
34.80629098059391	2.1547375	1.4679024
34.824658983257194	2.1313982	1.4599309
34.843027909327446	2.0367763	1.4271567
34.86139775941603	1.9283533	1.3886516
34.879768534134534	1.834459	1.354422
34.89814023409483	1.7532117	1.324089
34.91651285990901	1.9362776	1.3915019
34.93488641218944	2.019539	1.4211049
34.95326089154871	1.9517503	1.3970506
34.97163629859967	1.786015	1.3364187
34.99001263395542	1.7060913	1.3061743
35.00838989822934	1.9065086	1.3807638
35.02676809203499	2.0951884	1.4474765
35.04514721598624	2.00491	1.4159484
35.063527270697215	1.948066	1.3957313
35.081908256782256	1.9335772	1.3905313
35.10029017485597	1.9096086	1.3818859
35.11867302553321	1.9718934	1.4042412
35.137056809429104	1.984269	1.4086409
35.155441527159006	1.8607694	1.3641002
35.173827179338524	2.041598	1.428845
35.19221376658354	2.1847901	1.4781035
35.21060128951017	2.1503727	1.4664149
35.2289897487348	1.9460435	1.3950067
35.24737914487405	1.73092	1.3156443
35.26576947854479	1.9150242	1.383844
35.28416075036418	2.0201569	1.4213222
35.30255296094958	1.9150522	1.3838542
35.32094611091867	2.0495374	1.4316206
35.33934020088932	2.188961	1.4795138
35.35773523147969	2.304479	1.518051
35.3761312033082	2.434422	1.5602634
35.394528116993506	2.0224404	1.4221253
35.41292597315452	1.8478014	1.3593386
35.431324772410434	2.0895064	1.4455125
35.449724515380666	1.9087577	1.381578
35.46812520268491	1.6522877	1.2854134
35.486526834943106	1.8354497	1.3547877
35.504929412775454	2.088082	1.4450197
35.52333293680242	2.1167963	1.4549214
35.54173740764471	2.2416098	1.4972006
35.560142825923286	2.2545004	1.5014994
35.5785491922594	1.6366217	1.2793052
35.59695650727454	1.1502824	1.0725121
35.61536477159042	0.6898081	0.83054686
