0.008763373481513119	0.051685803	0.22734512
0.026290120649546365	0.35608906	0.59673196
0.043816868432600686	0.2792301	0.52842224
0.06134361724069026	0.25048873	0.50048846
0.07887036748382949	0.15634857	0.39540938
0.0963971195720331	0.23271929	0.48240986
0.11392387391531617	0.21001625	0.4582753
0.1314506309236943	0.1563161	0.3953683
0.1489773910071836	0.118725926	0.3445663
0.16650415457580078	0.106415436	0.32621378
0.18403092203956356	0.21526322	0.46396467
0.20155769380849	0.23079105	0.48040718
0.2190844702925996	0.29854804	0.5463955
0.2366112519019124	0.26217586	0.51203114
0.2541380390464497	0.24519208	0.49516875
0.27166483213623416	0.12946202	0.3598083
0.28919163158128947	0.06449646	0.25396153
0.3067184377916406	0.07715447	0.27776694
0.324245251177314	0.098871864	0.31443897
0.34177207214833777	0.10907504	0.3302651
0.3592989011147415	0.16711445	0.40879634
0.37682573848655654	0.15507111	0.3937907
0.39435258467381573	0.17259377	0.41544408
0.41187944008655414	0.12144987	0.3484966
0.42940630513480854	0.16557762	0.4069123
0.446933180228618	0.20582712	0.45368174
0.4644600657780234	0.20492545	0.4526869
0.48198696219306775	0.19133765	0.4374216
0.49951386988379676	0.17385034	0.41695365
0.5170407892602581	0.18629126	0.43161473
0.5345677207325025	0.18911223	0.43487036
0.5520946647105822	0.16934575	0.4115164
0.5696216216045534	0.18572171	0.43095443
0.5871485918244737	0.18950471	0.4353214
0.6046755757804043	0.2159545	0.46470904
0.6222025738824094	0.2109478	0.45929053
0.6397295865405557	0.23379652	0.4835251
0.6572566141649129	0.18326621	0.42809603
0.6747836571655547	0.19574966	0.44243604
0.6923107159525568	0.19496627	0.44154984
0.7098377909359992	0.1879075	0.43348297
0.7273648825259653	0.2012215	0.4485772
0.7448919911325411	0.21360095	0.46216983
0.762419117165817	0.22134188	0.47046986
0.7799462610358868	0.22843371	0.47794738
0.7974734231528482	0.1981461	0.44513604
0.8150006039268024	0.19665962	0.4434632
0.8325278037678551	0.21737114	0.46623078
0.8500550230861152	0.22757335	0.4770465
0.8675822622916969	0.22650538	0.4759258
0.8851095217947171	0.20213473	0.44959396
0.9026368020052984	0.19779345	0.44473976
0.9201641033335665	0.17777361	0.42163208
0.9376914261896523	0.18458721	0.42963615
0.9552187709836915	0.17972866	0.42394418
0.9727461381258234	0.209283	0.4574746
0.990273528026193	0.24851407	0.49851185
1.0078009410949496	0.2752673	0.5246592
1.0253283777422473	0.2877011	0.5363778
1.0428558383782454	0.27778506	0.5270532
1.0603833234131086	0.28695473	0.53568155
1.0779108332570058	0.29007772	0.53858864
1.0954383683201119	0.25821155	0.5081452
1.112965929012607	0.2701842	0.51979244
1.1304935157446763	0.3968895	0.62999165
1.1480211289265108	0.4448299	0.6669557
1.1655487689683062	1.185064	1.0886065
1.1830764362802655	1.4858488	1.218954
1.200604131272596	2.0148947	1.4194698
1.2181318543555117	2.5233216	1.5884967
1.235659605939232	2.5931313	1.6103202
1.253187386433982	4.110155	2.0273519
1.270715196249994	6.5308294	2.5555487
1.2882430357975057	11.872235	3.445611
1.3057709054867608	16.674566	4.0834503
1.3232988057280106	22.544464	4.748101
1.3408267369315112	27.60622	5.2541623
1.358354699507526	31.392656	5.602915
1.3758826938663256	35.29107	5.9406285
1.3934107204181858	37.43393	6.118327
1.410938779573391	37.569073	6.1293616
1.4284668717422309	38.01913	6.1659656
1.4459949973350033	37.454887	6.12004
1.4635231567620117	37.6517	6.136098
1.4810513504335687	36.843903	6.0699177
1.4985795787599925	36.03049	6.0025406
1.5161078421516088	35.585754	5.9653797
1.5336361410187505	34.846478	5.9030905
1.5511644757717598	35.022293	5.9179635
1.5686928468209842	35.724266	5.976978
1.58622125457678	36.120327	6.010019
1.6037496994495108	37.531277	6.1262774
1.621278181849548	37.562225	6.128803
1.6388067021872719	38.378044	6.1950016
1.6563352608730693	37.6819	6.1385584
1.673863858317336	36.899315	6.0744805
1.6913924949304753	35.938267	5.9948535
1.7089211711228998	35.159966	5.929584
1.7264498873050296	34.5587	5.878665
1.7439786438872935	33.707664	5.80583
1.7615074412801288	32.748585	5.722638
1.779036279893981	31.695587	5.6298833
1.796565160139305	30.698317	5.540606
1.814094082426564	29.985023	5.475858
1.8316230471662298	29.632946	5.443615
1.849152054768784	29.012548	5.3863297
1.8666811056447168	28.124134	5.3032193
1.8842102002045273	26.784811	5.1754045
1.901739338858724	26.046038	5.103532
1.9192685220178245	25.591005	5.0587554
1.9367977500923557	25.217398	5.0216928
1.9543270234928547	24.932327	4.993228
1.971856342629867	24.167398	4.9160347
1.9893857079139496	23.993523	4.8983183
2.006915119755667	23.179922	4.8145533
2.0244445785655945	22.416685	4.7346263
2.0419740847543175	21.81366	4.6705093
2.0595036387324317	21.296085	4.614768
2.0770332409105414	20.896463	4.5712647
2.094562891699263	20.743849	4.5545416
2.1120925915092217	20.190954	4.4934344
2.129622340751053	19.959335	4.467587
2.1471521398354043	188.00348	13.711436
2.1646819891729323	444.58328	21.085144
2.182211889174303	440.60193	20.99052
2.1997418402501974	452.88193	21.281023
2.2172718428113023	432.63748	20.79994
2.234801897268317	320.6338	17.90625
2.2523320040319548	17.051983	4.1294045
2.269862163512935	16.700579	4.086634
2.287392376121992	16.433683	4.053848
2.304922642269869	16.301142	4.0374675
2.322452962367322	16.073275	4.009149
2.3399833368251164	15.781291	3.9725673
2.357513766054032	15.662363	3.9575703
2.3750442504648586	15.415646	3.9262762
2.3925747904683963	15.274811	3.9083002
2.410105386475459	14.9127655	3.861705
2.4276360388968707	14.573024	3.817463
2.445166748143469	14.265534	3.7769742
2.4626975146261025	13.826986	3.7184656
2.4802283387556323	13.418637	3.6631458
2.4977592209429305	13.159424	3.627592
2.5152901615988825	12.856296	3.5855677
2.5328211611343865	12.826357	3.5813904
2.5503522199603523	12.674751	3.5601616
2.5678833384877024	12.534209	3.5403686
2.5854145171273712	12.390761	3.5200512
2.6029457562903064	12.032885	3.468845
2.620477056387469	11.933169	3.454442
2.6380084178298326	11.687934	3.418762
2.655539841028383	11.445687	3.3831475
2.673071326394119	11.425811	3.3802087
2.6906028743380523	11.31036	3.363088
2.708134485271211	11.325111	3.3652804
2.7256661596046325	11.176962	3.3431964
2.743197897749369	10.840317	3.2924635
2.760729700116486	10.6229315	3.2592838
2.778261567117063	10.376452	3.22125
2.795793499162193	10.297007	3.208895
2.8133254966629817	10.122384	3.1815693
2.830857560030551	9.993281	3.161215
2.8483896896760337	9.9382105	3.1524928
2.865921886010578	9.800181	3.1305242
2.883454149445347	9.592591	3.0971909
2.9009864803915177	9.401403	3.0661707
2.91851887926028	9.232467	3.0384974
2.9360513464628384	9.103672	3.017229
2.953583882410413	9.000535	3.0000892
2.9711164875142373	8.909583	2.9848924
2.9886491621855606	8.885475	2.9808514
3.0061819068356455	8.861723	2.9768646
3.023714721875769	8.694777	2.9486907
3.041247607717225	8.50105	2.915656
3.0587805647713213	8.279976	2.8774948
3.0763135934493806	8.073828	2.841448
3.0938466941627407	7.9497104	2.819523
3.1113798673227544	7.9371676	2.817298
3.1289131133407904	7.834858	2.7990816
3.1464464326282315	7.7099147	2.7766733
3.1639798255964786	7.626172	2.7615526
3.1815132926569443	7.580911	2.7533455
3.1990468342210603	7.517795	2.7418597
3.216580450700272	7.475721	2.7341764
3.2341141425060416	7.464469	2.7321181
3.251647910049847	7.4370794	2.7271008
3.2691817537431813	7.37371	2.7154577
3.286715673997555	7.253548	2.6932411
3.3042496712244938	7.168209	2.6773512
3.32178374583554	7.076687	2.6602042
3.339317898242251	7.0354137	2.6524355
3.3568521288562034	6.899191	2.626631
3.3743864380889876	6.791442	2.6060395
3.3919208263522127	6.7306433	2.5943484
3.4094552940575023	6.644594	2.577711
3.4269898416164972	6.6197076	2.5728793
3.444524469440858	6.628824	2.5746503
3.4620591779422587	6.6484747	2.5784636
3.479593967532391	6.5147634	2.5524035
3.4971288386229658	6.377194	2.5253108
3.5146637916257086	6.3030143	2.5105805
3.5321988269523628	6.302754	2.5105286
3.5497339450146903	6.2879877	2.507586
3.5672691462244708	6.3448453	2.5188975
3.5848044309934988	6.2990084	2.5097826
3.60233979973359	6.363747	2.522647
3.619875252856575	6.3871574	2.5272827
3.6374107907743034	6.3951945	2.5288723
3.6549464138986427	6.374101	2.5246983
3.6724821226414788	6.3137746	2.5127225
3.690017917414714	6.2242517	2.4948452
3.7075537986302702	6.199668	2.4899132
3.7250897667000857	6.3285947	2.5156698
3.7426258220361235	6.6878047	2.5860791
3.7601619650503553	6.981711	2.6422927
3.777698196154779	7.4610057	2.7314842
3.7952345157614067	8.424014	2.9024153
3.8127709242822716	9.25865	3.042803
3.830307422129425	11.504859	3.3918812
3.847844009714936	30.256596	5.5005994
3.8653806874508954	97.64492	9.881544
3.882917455749409	97.021126	9.84993
3.900454315022606	96.81301	9.83936
3.917991265682631	41.29209	6.4258924
3.9355283081416506	10.928727	3.3058624
3.9530654428118495	8.710365	2.9513328
3.970602670105433	7.5181365	2.7419221
3.9881399904346244	6.6893573	2.5863793
4.005677404211669	6.5861845	2.5663562
4.023214911848827	6.506463	2.550777
4.0407525137583855	6.39136	2.5281138
4.058290210352644	6.3932405	2.5284858
4.075828002043927	6.342059	2.5183446
4.0933658892445814	6.2777348	2.5055408
4.110903872366966	6.195966	2.4891696
4.128441951823468	6.2208695	2.494167
4.145980128026488	6.3150105	2.5129685
4.163518401388452	6.3165393	2.5132725
4.181056772321807	6.259535	2.5019062
4.1985952412390155	6.0979586	2.4694045
4.216133808552567	6.00208	2.4499142
4.233672474674966	6.0776916	2.4652975
4.251211240018741	6.404378	2.5306873
4.268750104996445	6.7279005	2.5938196
4.286289070020643	7.6669474	2.7689252
4.303828135503928	9.330515	3.0545893
4.3213673018589125	29.58448	5.439162
4.3389065694982305	90.70901	9.524128
4.356445938834537	166.11385	12.888516
4.3739854102805085	171.65245	13.10162
4.391524984248844	172.62404	13.138647
4.409064661152262	136.54843	11.685394
4.426604441403504	96.76214	9.836775
4.444144325415337	75.925545	8.713527
4.461684313600543	22.125883	4.703816
4.47922440637193	22.530138	4.746592
4.496764604142329	20.718231	4.5517282
4.5143049073245916	18.842957	4.3408475
4.531845316331589	16.689714	4.0853047
4.5493858315762195	13.829832	3.7188482
4.566926453471405	11.381894	3.3737063
4.584467182430081	9.370986	3.0612066
4.602008018865218	8.146619	2.8542283
4.619548963189798	7.533565	2.744734
4.637090015816834	7.02826	2.6510866
4.654631177159353	6.680221	2.5846124
4.672172447630417	6.3695803	2.5238028
4.689713827643102	6.178938	2.4857469
4.7072553176105085	5.9773655	2.4448652
4.724796917945764	5.894866	2.4279344
4.742338629062015	5.8911057	2.42716
4.759880451372434	5.9206033	2.433229
4.777422385290215	5.8409743	2.4168108
4.794964431228581	5.740984	2.396035
4.812506589600768	5.6917005	2.3857286
4.830048860820047	5.6037073	2.3672152
4.847591245299709	5.5962353	2.3656363
4.8651337434530655	5.6073427	2.3679829
4.882676355693457	5.6094465	2.368427
4.900219082434242	5.696206	2.3866725
4.917761924088813	5.6742773	2.382074
4.935304881070575	5.7056026	2.3886404
4.952847953792969	5.675371	2.3823037
4.970391142669449	5.645862	2.3761022
4.9879344481135055	5.604391	2.3673596
5.005477870538642	5.49185	2.3434696
5.023021410358394	5.3909116	2.3218336
5.040565067986324	5.344515	2.3118207
5.05810884383601	5.4154525	2.3271124
5.075652738321066	5.47151	2.3391259
5.09319675185512	5.431965	2.3306577
5.110740884851836	5.3710628	2.3175554
5.128285137724894	5.299761	2.302121
5.145829510888007	5.293415	2.3007424
5.163374004754908	5.321138	2.306759
5.1809186197393595	5.3345776	2.3096704
5.198463356255145	5.2806554	2.2979677
5.216008214716077	5.2768207	2.2971332
5.233553195535998	5.2524343	2.291819
5.251098299128764	5.3018746	2.3025799
5.268643525908272	5.330228	2.3087287
5.286188876288432	5.263139	2.2941532
5.3037343506831895	5.259551	2.2933712
5.32127994950651	5.229101	2.286723
5.3388256731723915	5.2271852	2.2863038
5.356371522094851	5.2549243	2.2923622
5.373917496687938	5.258964	2.2932432
5.391463597365729	5.315598	2.305558
5.40900982454232	5.327393	2.3081145
5.426556178631843	5.3046813	2.3031893
5.444102660048449	5.212869	2.283171
5.4616492692063225	5.170255	2.2738194
5.479196006519669	5.1318135	2.2653506
5.496742872402727	5.1961417	2.2795048
5.514289867269756	5.257798	2.292989
5.531836991535049	5.2435055	2.2898703
5.549384245612924	5.179778	2.2759125
5.566931629917724	5.147845	2.2688863
5.584479144863822	5.1113257	2.2608242
5.6020267908656205	5.187235	2.2775502
5.619574568337545	5.123507	2.2635164
5.637122477694054	5.133402	2.2657013
5.654670519349629	5.1281004	2.264531
5.672218693718784	5.1167803	2.2620301
5.689767001216059	5.116162	2.2618935
5.707315442256021	5.142348	2.2676744
5.724864017253266	5.161757	2.27195
5.7424127266224225	5.224861	2.2857955
5.75996157077814	5.246732	2.2905746
5.777510550135105	5.2677207	2.2951515
5.795059665108022	5.2821407	2.2982907
5.812608916111639	5.3087645	2.3040757
5.830158303560715	5.440956	2.3325858
5.847707827870055	5.4486275	2.3342295
5.86525748945448	5.4998393	2.3451736
5.8828072887288485	5.6202307	2.3707025
5.900357226108044	5.619538	2.3705564
5.917907302006979	5.6557846	2.3781893
5.9354575168406	6.243686	2.4987369
5.9530078710238765	6.8536873	2.6179547
5.970558364971812	7.379893	2.716596
5.988108999099438	7.8027887	2.7933471
6.005659773821818	8.39021	2.896586
6.023210689554039	8.139404	2.8529642
6.040761746711227	8.502944	2.9159808
6.058312945708531	7.8495216	2.8016999
6.075864286961132	7.385897	2.7177007
6.093415770884244	6.7106714	2.5904963
6.1109673978931065	6.140551	2.4780135
6.128519168402993	5.5209355	2.349667
6.146071082829204	5.365817	2.3164234
6.163623141587075	5.304741	2.3032024
6.181175345091969	5.2677155	2.2951505
6.198727693759281	5.249345	2.2911448
6.216280188004435	5.22723	2.2863135
6.233832828242885	5.111837	2.2609372
6.251385614890126	5.1347938	2.2660084
6.268938548361669	5.1742477	2.2746973
6.286491629073067	5.1720176	2.274207
6.304044857439898	5.1636147	2.272359
6.321598233877777	5.0908127	2.256283
6.339151758802344	5.059434	2.2493186
6.356705432629277	5.0077295	2.2377956
6.37425925577428	4.952408	2.2254007
6.391813228653095	4.9931154	2.234528
6.409367351681486	5.017199	2.2399106
6.426921625275259	5.1093044	2.2603772
6.44447604985025	5.0833583	2.2546303
6.46203062582232	5.102513	2.2588742
6.47958535360737	5.105297	2.2594905
6.497140233621328	5.118832	2.2624836
6.514695266280161	5.1105065	2.260643
6.532250451999859	5.108046	2.2600987
6.549805791196454	5.0625496	2.250011
6.567361284286002	5.039429	2.2448673
6.584916931684597	4.9890356	2.233615
6.602472733808367	5.0033374	2.236814
6.6200286910734665	4.9751782	2.2305107
6.637584803896092	4.998106	2.2356443
6.655141072692462	4.9889116	2.2335873
6.672697497878842	5.012781	2.238924
6.690254079871514	5.0311985	2.2430334
6.707810819086808	5.0914836	2.2564316
6.725367715941078	5.1029325	2.2589672
6.742924770850719	5.081285	2.2541707
6.760481984232151	5.037223	2.244376
6.778039356501836	4.937008	2.221938
6.795596888076266	4.947385	2.2242718
6.813154579371963	5.0321474	2.243245
6.830712430805492	5.076349	2.2530754
6.84827044279344	5.0752177	2.2528243
6.865828615752445	5.055036	2.2483408
6.883386950099159	5.025863	2.2418437
6.900945446250287	4.986033	2.2329426
6.918504104622553	4.9754066	2.230562
6.936062925632727	4.9904857	2.2339394
6.953621909697607	5.041575	2.245345
6.971181057234028	5.09384	2.2569537
6.988740368658859	5.187826	2.27768
7.006299844389007	5.3230224	2.3071675
7.023859484841407	5.454902	2.3355732
7.041419290433036	5.5136423	2.3481147
7.058979261580902	5.5725217	2.3606188
7.0765393987020495	5.68059	2.3833988
7.094099702213559	6.0178123	2.4531229
7.111660172532549	6.320493	2.514059
7.129220810076164	6.606111	2.5702355
7.146781615261595	7.2229514	2.6875548
7.16434258850606	7.456527	2.7306643
7.181903730226821	8.02455	2.8327637
7.1994650408411704	8.17376	2.858979
7.217026520766437	8.313399	2.8832965
7.234588170419983	8.549217	2.9239044
7.252149990219215	8.51273	2.9176583
7.269711980581568	8.43463	2.9042435
7.2872741419245175	8.184132	2.8607922
7.304836474665574	7.7807684	2.789403
7.322398979222286	7.4886956	2.7365482
7.339961656012233	7.359891	2.7129118
7.357524505453039	7.0745897	2.65981
7.375087527962357	6.8531213	2.6178467
7.392650723957886	6.5056643	2.5506203
7.410214093857353	6.1199703	2.4738574
7.427777638078528	5.9444675	2.438128
7.445341357039213	5.678965	2.3830578
7.4629052511572525	5.5278788	2.351144
7.480469320850524	5.38607	2.3207908
7.498033566536948	5.2526913	2.2918751
7.5155979886344735	5.205423	2.2815397
7.5331625875610975	5.207104	2.281908
7.550727363734844	5.209936	2.2825284
7.568292317573788	5.2250214	2.2858305
7.585857449496025	5.192287	2.278659
7.603422759919705	5.1995034	2.280242
7.620988249263007	5.2003536	2.2804284
7.638553917944147	5.179919	2.2759435
7.656119766381391	5.166927	2.2730875
7.673685794993023	5.21789	2.28427
7.691252004197388	5.2860036	2.2991312
7.70881839441285	5.3076515	2.3038342
7.726384966057826	5.325855	2.3077815
7.743951719550762	5.3073335	2.303765
7.761518655310149	5.2973905	2.3016062
7.779085773754511	5.300414	2.3022628
7.796653075302419	5.3445673	2.311832
7.814220560372475	5.4100504	2.3259516
7.831788229383323	5.375726	2.3185613
7.8493560827536495	5.3478594	2.3125439
7.866924120902174	5.3642097	2.3160763
7.884492344247663	5.3865056	2.3208847
7.9020607532089135	5.4335346	2.3309944
7.919629348204771	5.4024973	2.3243272
7.937198129654115	5.4106665	2.326084
7.954767097975865	5.3181386	2.306109
7.972336253588986	5.345272	2.3119845
7.989905596912472	5.3608036	2.315341
8.007475128365371	5.3888664	2.3213933
8.025044848366756	5.437341	2.3318107
8.042614757335754	5.5713024	2.3603606
8.060184855691523	5.65828	2.3787138
8.07775514385327	5.7981334	2.4079313
8.095325622240228	5.888383	2.426599
8.112896291271687	5.9237413	2.4338737
8.130467151366968	5.921336	2.4333797
8.148038202945436	5.8673496	2.4222612
8.165609446426497	5.8760543	2.4240575
8.183180882229594	5.8954206	2.4280486
8.200752510774217	5.9160247	2.432288
8.218324332479893	5.9214196	2.4333968
8.235896347766193	5.9354296	2.4362738
8.253468557052724	5.9545937	2.4402037
8.27104096075914	5.9896693	2.44738
8.288613559305137	6.047028	2.4590707
8.306186353110448	6.0769086	2.4651387
8.32375934259485	6.229944	2.4959855
8.341332528178162	6.2585177	2.501703
8.358905910280246	6.291307	2.5082479
8.376479489321003	6.290754	2.5081375
8.394053265720377	6.3339324	2.5167305
8.411627239898356	6.352411	2.5203989
8.42920141227497	6.342796	2.5184908
8.44677578327029	6.383138	2.5264874
8.464350353304427	6.348679	2.5196586
8.48192512279754	6.2423425	2.498468
8.499500092169827	6.146966	2.4793077
8.51707526184153	6.1102715	2.4718964
8.534650632232934	6.1729965	2.4845517
8.552226203764365	6.163923	2.482725
8.569801976856192	6.1794643	2.485853
8.587377951928834	6.263913	2.5027812
8.60495412940274	6.322891	2.514536
8.622530509698416	6.367527	2.523396
8.6401070932364	6.496314	2.5487869
8.657683880437283	6.5718884	2.5635695
8.675260871721695	6.7176027	2.5918338
8.692838067510303	6.8716097	2.6213756
8.710415468223834	7.0058928	2.6468647
8.727993074283043	7.1300144	2.6702087
8.745570886108737	7.1295943	2.67013
8.763148904121765	7.195061	2.6823611
8.78072712874302	7.2790704	2.6979752
8.798305560393441	7.481797	2.7352874
8.815884199494006	7.6668835	2.7689137
8.833463046465745	7.8886056	2.8086662
8.851042101729728	7.9953494	2.8276048
8.86862136570707	8.25411	2.8729968
8.886200838818924	8.337064	2.8873973
8.903780521486505	8.384361	2.8955762
8.921360414131055	8.476375	2.9114213
8.938940517173874	8.675147	2.9453602
8.956520831036297	8.840664	2.9733255
8.97410135613971	9.145244	3.0241103
8.99168209290554	9.211643	3.035069
9.009263041755265	9.496716	3.081674
9.026844203110405	9.6531515	3.1069522
9.044425577392525	9.895571	3.1457226
9.062007165023239	9.963827	3.156553
9.079588966424197	10.2157545	3.1962094
9.097170982017108	10.398392	3.2246537
9.11475321222372	11.449333	3.3836863
9.132335657465825	12.319238	3.5098772
9.149918318165264	12.418154	3.52394
9.167501194743924	12.9917345	3.604405
9.18508428762374	12.623194	3.5529134
9.202667597226693	12.5642185	3.544604
9.220251123974803	12.222989	3.496139
9.237834868290143	11.989857	3.4626372
9.255418830594836	11.858458	3.4436111
9.273003011311046	11.307176	3.3626144
9.290587410860985	10.936938	3.307104
9.308172029666911	10.218493	3.1966379
9.32575686815113	9.994933	3.1614764
9.343341926735997	8.811264	2.9683774
9.360927205843916	8.602135	2.9329395
9.378512705897327	8.440746	2.9052963
9.396098427318728	8.208063	2.8649716
9.413684370530664	8.156182	2.8559031
9.431270535955722	8.02716	2.8332243
9.448856924016539	7.94278	2.8182938
9.466443535135806	7.791319	2.7912934
9.484030369736251	7.7634397	2.786295
9.501617428240658	7.709856	2.7766628
9.519204711071852	7.8064647	2.7940052
9.536792218652714	7.8126264	2.7951076
9.55437995140617	7.8348136	2.7990737
9.571967909755191	7.8447247	2.8008435
9.589556094122802	7.875877	2.8063993
9.60714450493207	7.9685307	2.8228586
9.624733142606116	8.026337	2.833079
9.642322007568108	8.124136	2.850287
9.659911100241267	8.101115	2.8462458
9.677500421048851	8.061897	2.839348
9.695089970414175	8.067768	2.8403816
9.712679748760609	8.114283	2.848558
9.730269756511557	8.198266	2.8632615
9.747859994090492	8.239943	2.8705301
9.765450461920915	8.330858	2.8863225
9.78304116042639	8.315661	2.883689
9.800632090030527	8.322053	2.8847969
9.81822325115699	8.333307	2.886747
9.835814644229481	8.306204	2.8820486
9.853406269671762	8.331141	2.8863716
9.870998127907646	8.334416	2.886939
9.888590219360985	8.318221	2.8841326
9.906182544455698	8.31318	2.8832586
9.923775103615734	8.30214	2.8813434
9.941367897265108	8.333186	2.886726
9.958960925827878	8.305049	2.881848
9.97655418972816	8.263693	2.874664
9.994147689390106	8.27905	2.8773339
10.011741425237934	8.286767	2.8786745
10.029335397695904	8.355081	2.8905156
10.04692960718833	8.347487	2.8892019
10.06452405413958	8.35333	2.8902128
10.082118738974064	8.310984	2.8828776
10.099713662116246	8.234247	2.8695378
10.117308823990651	8.219292	2.8669307
10.134904225021844	8.259734	2.8739753
10.152499865634445	8.343934	2.8885868
10.170095746253125	8.3146105	2.8835065
10.18769186730261	8.306628	2.8821223
10.205288229207675	8.26699	2.8752372
10.222884832393145	8.25551	2.8732405
10.2404816772839	8.220399	2.8671238
10.258078764304868	8.155744	2.8558261
10.275676093881035	8.0733795	2.8413694
10.293273666437438	8.107471	2.8473623
10.310871482399158	8.223369	2.8676417
10.32846954219134	8.240255	2.8705845
10.346067846239173	8.260472	2.8741038
10.363666394967908	8.209839	2.8652816
10.38126518880283	8.190593	2.861921
10.398864228169298	8.214535	2.866101
10.416463513492713	8.251991	2.872628
10.434063045198531	8.198449	2.8632934
10.451662823712262	8.243326	2.8711193
10.469262849459467	8.225012	2.867928
10.486863122865758	8.160667	2.8566883
10.504463644356806	8.154416	2.855594
10.522064414358338	8.104333	2.846811
10.539665433296118	8.062714	2.8394918
10.557266701595987	7.916607	2.8136466
10.574868219683818	7.806614	2.7940319
10.592469987985552	7.718251	2.7781742
10.610072006927185	7.648015	2.7655044
10.627674276934751	7.5326457	2.7445667
10.64527679843435	7.377552	2.716165
10.662879571852143	7.2536945	2.6932683
10.680482597614331	7.129443	2.6701016
10.698085876147173	7.0504193	2.6552625
10.715689407876988	6.959073	2.6380055
10.733293193230146	6.8887534	2.6246436
10.750897232633072	6.8344536	2.6142788
10.76850152651225	6.6803703	2.5846412
10.786106075294207	6.599525	2.568954
10.803710879405534	6.519047	2.5532424
10.821315939272877	6.533821	2.556134
10.83892125532294	6.4175615	2.5332906
10.856526827982472	6.3437243	2.518675
10.874132657678285	6.25261	2.500522
10.891738744837243	6.2221856	2.494431
10.909345089886271	6.2478514	2.4995701
10.926951693252343	6.1890817	2.4877865
10.944558555362494	6.183987	2.4867623
10.96216567664381	6.089576	2.4677067
10.979773057523436	5.9894757	2.4473405
10.997380698428573	5.898473	2.428677
11.014988599786477	5.781677	2.4045117
11.032596762024461	5.77493	2.4031084
11.050205185569892	5.7172256	2.391072
11.067813870850198	5.692504	2.385897
11.085422818292859	5.577714	2.3617184
11.10303202832541	5.4784703	2.3406131
11.120641501375454	5.3584075	2.3148234
11.138251237870636	5.3386927	2.3105612
11.155861238238671	5.310689	2.3044932
11.173471502907317	5.2593737	2.2933323
11.191082032304402	5.1570144	2.270906
11.208692826857805	5.065254	2.250612
11.226303886995465	5.0415525	2.24534
11.243915213145371	5.0539913	2.2481084
11.261526805735578	5.029643	2.2426865
11.279138665194196	4.957161	2.2264683
11.296750791949393	4.8774195	2.208488
11.314363186429393	4.8557796	2.2035835
11.331975849062479	4.7916074	2.1889741
11.34958878027699	4.708826	2.169983
11.36720198050133	4.6413627	2.1543822
11.384815450163948	4.6372814	2.1534348
11.402429189693366	4.6137033	2.1479533
11.420043199518153	4.53993	2.130711
11.437657480066942	63.495846	7.968428
11.455272031768422	85.22662	9.231827
11.472886855051353	107.68003	10.376899
11.490501950344528	99.28289	9.96408
11.508117318076819	84.575134	9.196474
11.52573295867715	45.99193	6.781735
11.543348872574514	4.26623	2.0654855
11.560965060197946	4.1768765	2.0437407
11.57858152197655	4.0792575	2.0197172
11.59619825833949	4.111677	2.0277271
11.613815269715985	4.132771	2.0329218
11.631432556535323	38.617367	6.2142873
11.649050119226837	83.07601	9.114604
11.666667958219929	93.4091	9.664839
11.68428607394406	107.69788	10.377759
11.701904466828756	82.557495	9.086116
11.719523137303586	65.445564	8.089844
11.737142085798196	4.6078167	2.1465826
11.754761312742286	3.7122464	1.9267191
11.772380818565619	3.6589816	1.9128464
11.790000603698015	3.6471672	1.9097558
11.80762066856935	3.6409502	1.9081274
11.825241013609572	3.6327128	1.9059677
11.842861639248683	3.6090815	1.8997582
11.860482545916748	3.5795586	1.8919722
11.878103734043883	3.5236545	1.8771399
11.895725204060282	3.500713	1.8710192
11.91334695639619	3.4583104	1.8596532
11.930968991481919	3.408321	1.8461639
11.948591309747824	3.308743	1.818995
11.966213911624347	3.2879024	1.8132573
11.98383679754198	3.2991025	1.8163432
12.001459967931268	3.3135488	1.8203156
12.019083423222835	3.3029008	1.8173884
12.036707163847352	3.256828	1.8046684
12.05433119023556	3.1993754	1.7886798
12.071955502818259	3.1505942	1.7749914
12.089580102026313	3.1500723	1.7748443
12.107204988290643	3.1609628	1.7779096
12.12483016204224	3.1670601	1.7796236
12.142455623712152	3.1641593	1.7788084
12.16008137373149	3.1285686	1.768776
12.177707412531431	3.0944655	1.7591093
12.19533374054321	3.0304801	1.7408274
12.212960358198126	3.0122242	1.735576
12.230587265927545	3.0154624	1.7365087
12.248214464162889	3.032074	1.7412852
12.265841953335649	3.0194077	1.7376443
12.283469733877375	2.967641	1.7226843
12.301097806219685	2.966378	1.7223176
12.31872617079425	2.9496708	1.7174605
12.336354828032825	2.9361823	1.7135292
12.353983778367205	2.9171383	1.7079632
12.371613022229262	2.9547236	1.718931
12.389242560050928	2.9466407	1.7165782
12.406872392264201	2.9216592	1.7092862
12.424502519301143	2.8678503	1.6934729
12.442132941593874	2.8340962	1.6834774
12.459763659574586	2.8406627	1.6854266
12.477394673675532	2.8529325	1.6890626
12.49502598432903	2.872332	1.6947956
12.51265759196746	2.8426986	1.6860304
12.530289497023267	2.8248732	1.680736
12.547921699928967	2.8225567	1.6800467
12.565554201117134	2.8208022	1.6795244
12.583187001020404	2.8436694	1.6863183
12.600820100071486	2.8014822	1.6737629
12.618453498703152	2.7700021	1.6643324
12.636087197348235	2.7539408	1.6595001
12.65372119643964	2.7550938	1.6598475
12.671355496410326	2.7712522	1.6647078
12.68899009769333	2.806221	1.6751779
12.706625000721749	2.8504841	1.6883377
12.724260205928752	2.9321623	1.7123557
12.741895713747551	2.942202	1.7152848
12.759531524611454	2.9865801	1.7281725
12.777167638953818	2.9558764	1.7192662
12.794804057208072	2.9869158	1.7282696
12.812440779807702	3.030387	1.7408006
12.830077807186271	3.235425	1.7987287
12.847715139777405	3.2995448	1.8164649
12.865352778014795	3.536338	1.8805153
12.882990722332197	3.6052067	1.8987381
12.90062897316344	3.7157352	1.9276242
12.918267530942412	3.7601552	1.939112
12.935906396103071	3.6409597	1.9081299
12.953545569079449	3.7655764	1.9405093
12.971185050305628	3.615591	1.9014708
12.988824840215775	3.6418524	1.9083638
13.006464939244115	3.6530688	1.9113003
13.024105347824943	3.5168877	1.8753366
13.041746066392617	3.629483	1.9051203
13.05938709538157	3.4695165	1.8626639
13.077028435226296	3.4797862	1.8654186
13.094670086361363	3.3701627	1.8358003
13.112312049221401	3.241186	1.8003294
13.129954324241112	3.1332371	1.7700952
13.147596911855258	2.924784	1.7102
13.165239812498685	2.8969188	1.7020338
13.182883026606293	2.8045485	1.6746787
13.200526554613058	2.7644317	1.662658
13.218170396954017	2.7409916	1.655594
13.235814554064284	2.7390752	1.6550151
13.253459026379034	2.741363	1.6557062
13.271103814333523	2.7522383	1.6589872
13.288748918363058	2.736776	1.6543205
13.306394338903031	2.723667	1.6503536
13.32404007638889	2.7332091	1.653242
13.341686131256164	2.7248762	1.6507199
13.359332503940449	2.7250586	1.6507752
13.376979194877402	2.6779256	1.6364368
13.394626204502751	2.7143614	1.6475319
13.412273533252307	2.7336128	1.6533641
13.429921181561937	2.7487648	1.6579399
13.447569149867581	2.768325	1.6638285
13.465217438605247	2.7555375	1.6599811
13.482866048211022	2.718719	1.6488539
13.500514979121052	2.7250836	1.6507827
13.518164231771568	2.718832	1.6488881
13.535813806598844	2.706472	1.6451359
13.553463704039254	2.6814785	1.6375221
13.571113924529229	2.6903665	1.6402336
13.588764468505275	2.6934447	1.6411718
13.606415336403956	2.7188506	1.6488937
13.624066528661917	2.7254493	1.6508934
13.641718045715882	2.8273902	1.6814846
13.659369888002635	2.879265	1.6968397
13.67702205595903	2.939141	1.7143923
13.694674550021993	2.9745455	1.7246871
13.712327370628532	3.0385292	1.7431377
13.729980518215713	3.1378927	1.7714099
13.747633993220681	3.2183185	1.7939672
13.765287796080647	3.240889	1.800247
13.7829419272329	3.276348	1.8100685
13.800596387114801	3.2888725	1.8135248
13.818251176163775	3.3257875	1.8236742
13.835906294817324	3.3938892	1.8422511
13.853561743513023	3.4539979	1.8584934
13.871217522688525	3.5289333	1.8785455
13.888873632781538	3.545966	1.8830736
13.906530074229858	3.549463	1.8840019
13.92418684747135	3.541085	1.881777
13.941843952943948	3.495017	1.8694965
13.959501391085665	3.4363868	1.8537494
13.977159162334578	3.394771	1.8424904
13.994817267128846	3.3426485	1.8282912
14.012475705906693	3.2542686	1.8039591
14.030134479106424	3.183647	1.7842777
14.047793587166414	3.1371224	1.7711923
14.065453030525108	3.0876043	1.757158
14.083112809621026	3.0411942	1.743902
14.100772924892766	2.996458	1.7310281
14.118433376778997	2.9289205	1.711409
14.136094165718458	2.8151267	1.6778339
14.153755292149969	2.7361937	1.6541444
14.171416756512416	2.657457	1.630171
14.189078559244768	2.6301758	1.6217817
14.20674070078606	2.5706198	1.6033152
14.224403181575408	2.5556169	1.5986297
14.242066002051999	2.5649776	1.6015548
14.259729162655093	2.5220535	1.5880975
14.277392663824022	2.4713063	1.5720389
14.295056505998208	2.4260955	1.5575929
14.312720689617128	2.4490247	1.564936
14.330385215120348	2.48541	1.5765183
14.348050082947497	2.4729187	1.5725517
14.3657152935383	2.4259303	1.5575398
14.383380847332528	2.3843226	1.5441252
14.401046744770051	2.3928847	1.5468951
14.418712986290798	2.4220133	1.5562819
14.436379572334793	2.4371746	1.5611453
14.454046503342123	2.4251146	1.5572779
14.471713779752946	2.4318912	1.5594522
14.489381402007504	2.4301784	1.558903
14.507049370546113	2.4056	1.5509996
14.524717685809168	2.3650298	1.5378654
14.542386348237134	2.3317866	1.5270189
14.560055358270553	2.3962424	1.5479801
14.577724716350051	2.4666996	1.570573
14.595394422916325	2.503211	1.5821539
14.61306447841015	2.4812014	1.575183
14.63073488327237	2.4975998	1.5803796
14.648405637943917	2.5324647	1.591372
14.6660767428658	2.543079	1.5947034
14.683748198479094	2.5727077	1.6039662
14.701420005224954	2.5844307	1.6076164
14.719092163544628	2.6555672	1.6295911
14.73676467387942	2.7186668	1.648838
14.754437536670727	2.7808444	1.6675864
14.772110752360014	2.7767086	1.6663458
14.78978432138882	2.7824981	1.6680821
14.807458244198777	2.7609162	1.6616005
14.82513252123159	2.742796	1.6561389
14.842807152929028	2.7271335	1.6514035
14.860482139732962	2.731562	1.6527437
14.87815748208531	2.7509837	1.6586089
14.8958331804281	2.7468708	1.6573687
14.91350923520342	2.6645448	1.6323434
14.931185646853438	2.6495333	1.6277387
14.948862415820408	2.6198654	1.6185999
14.966539542546656	2.68219	1.6377393
14.98421702747459	2.6704264	1.634144
15.001894871046696	2.6705544	1.634183
15.019573073705542	2.6575656	1.6302042
15.037251635893766	2.6348171	1.623212
15.054930558054092	2.6647794	1.6324152
15.072609840629323	2.7551527	1.6598653
15.090289484062351	2.8769207	1.6961488
15.107969488796124	3.153521	1.7758156
15.125649855273691	3.5800593	1.8921045
15.14333058393817	4.0846043	2.0210404
15.161011675232768	5.048165	2.246812
15.17869312960076	6.3358927	2.51712
15.196374947485506	8.138222	2.852757
15.214057129330447	11.1566305	3.3401542
15.231739675579114	15.869204	3.9836168
15.249422586675102	21.024494	4.5852475
15.267105863062092	24.274446	4.9269104
15.284789505183847	24.602356	4.9600763
15.302473513484218	22.568687	4.7506514
15.320157888407127	19.033062	4.36269
15.337842630396578	14.898314	3.8598335
15.355527739896656	11.654301	3.4138396
15.37321321735153	9.041203	3.0068593
15.39089906320545	6.6135716	2.5716865
15.408585277902748	4.966101	2.228475
15.42627186188783	3.8346248	1.9582198
15.443958815605198	3.286298	1.812815
15.461646139499424	2.9611645	1.7208034
15.479333834015168	2.8151948	1.6778542
15.497021899597165	2.7541332	1.6595582
15.514710336690234	2.7056825	1.6448959
15.53239914573928	2.6508064	1.6281297
15.550088327189297	2.6230803	1.6195927
15.567777881485336	2.611726	1.6160835
15.58546780907256	2.588282	1.6088139
15.6031581103962	2.5649087	1.6015333
15.620848785901568	2.5528884	1.597776
15.638539836034063	2.5258448	1.5892906
15.656231261239173	2.4697104	1.5715312
15.673923061962451	2.4093978	1.5522236
15.691615238649552	2.4265933	1.5577526
15.709307791746202	2.4233603	1.5567147
15.727000721698221	2.4421246	1.5627298
15.744694028951498	2.4278288	1.5581491
15.76238771395202	2.450375	1.5653673
15.780081777145844	2.419582	1.5555005
15.797776218979125	2.3897228	1.5458728
15.815471039898094	2.352138	1.5336682
15.833166240349064	2.360023	1.5362366
15.850861820778437	2.390222	1.5460343
15.868557781632699	2.43799	1.5614064
15.886254123358412	2.422054	1.5562949
15.903950846402232	2.3989663	1.5488597
15.921647951210897	2.393257	1.5470154
15.939345438231225	2.404152	1.5505328
15.957043307910133	2.386704	1.5448961
15.974741560694602	2.3669493	1.5384893
15.992440197031714	2.3763711	1.5415483
16.01013921736862	2.412233	1.5531366
16.02783862215259	2.4135628	1.5535645
16.045538411830933	2.3862622	1.5447531
16.06323858685107	2.3750074	1.5411059
16.080939147660512	2.391198	1.5463499
16.09864009470684	2.4276154	1.5580807
16.11634142843774	2.4494507	1.5650721
16.134043149300954	2.426775	1.5578109
16.15174525774433	2.3754559	1.5412514
16.169447754215817	2.3600292	1.5362387
16.18715063916342	2.3977642	1.5484716
16.204853913035244	2.4354377	1.5605888
16.222557576279478	2.4542496	1.5666045
16.240261629344403	22.439438	4.7370286
16.257966072678386	42.987095	6.5564547
16.275670906729868	38.083035	6.1711454
16.293376131947387	2.4977722	1.5804342
16.31108174877957	2.5399554	1.5937238
16.328787757675133	2.553366	1.5979255
16.34649415908287	2.5876594	1.6086203
16.364200953451657	2.609365	1.6153529
16.38190814123048	2.6140354	1.6167979
16.39961572286839	2.6313329	1.6221384
16.41732369881455	2.6905453	1.6402882
16.43503206951817	2.7423263	1.655997
16.45274083542859	2.7792513	1.6671087
16.47044999699522	2.8035572	1.6743826
16.488159554667558	2.8605442	1.6913143
16.505869508895184	2.887926	1.6993899
16.523579860127786	2.9212124	1.7091554
16.541290608815117	2.932252	1.712382
16.559001755407035	3.0183196	1.7373312
16.57671330035348	3.0533605	1.7473867
16.59442524410448	3.0755923	1.7537366
16.61213758711015	3.138097	1.7714674
16.629850329820705	3.2364342	1.7990092
16.647563472686436	3.3551784	1.8317146
16.665277016157724	3.3625648	1.8337297
16.682990960685053	3.3395312	1.8274385
16.70070530671898	3.4042478	1.8450603
16.718420054710155	3.4661784	1.8617675
16.736135205109335	3.5613327	1.8871493
16.753850758367335	3.6204617	1.9027511
16.771566714935087	3.6651213	1.9144506
16.789283075263597	3.7358937	1.9328461
16.80699983980398	3.7775123	1.9435823
16.82471700900741	3.8537555	1.9630984
16.84243458332518	3.9116979	1.9778013
16.860152563208665	4.000924	2.000231
16.87787094910932	4.1188025	2.0294833
16.89558974147871	4.1812863	2.0448194
16.913308940768466	4.3004932	2.0737631
16.931028547430333	4.3500624	2.0856802
16.94874856191613	4.3946486	2.0963416
16.966468984677785	4.3874397	2.0946217
16.98418981616729	4.390455	2.0953412
17.00191105683676	4.401375	2.0979455
17.019632707138374	4.418474	2.1020167
17.03735476752442	4.457211	2.1112108
17.05507723844728	4.5283732	2.1279974
17.072800120359403	4.600983	2.1449902
17.090523413713353	4.6980963	2.1675093
17.108247118961785	4.6880593	2.1651926
17.125971236557437	4.685398	2.164578
17.143695766953133	4.6268954	2.151022
17.161420710601806	4.6041064	2.145718
17.179146067956477	4.6221213	2.1499119
17.19687183947025	4.6644416	2.1597319
17.21459802559634	4.7204733	2.172665
17.232324626788028	4.7326922	2.1754751
17.25005164349871	4.74263	2.177758
17.267779076181863	4.757144	2.1810877
17.285506925291074	4.7122583	2.1707737
17.30323519127999	4.645016	2.15523
17.320963874602384	4.599516	2.1446483
17.33869297571211	4.574437	2.1387935
17.356422495063114	4.5887904	2.142146
17.37415243310944	4.5873237	2.1418037
17.391882790305218	4.579861	2.140061
17.40961356710468	4.5366936	2.1299515
17.42734476396215	4.491946	2.1194212
17.445076381332044	4.4401026	2.107155
17.462808419668868	4.550422	2.1331718
17.48054087942723	4.7299886	2.1748538
17.498273761061835	5.084336	2.2548473
17.51600706502747	5.542928	2.3543425
17.533740791779024	6.2221932	2.4944324
17.551474941771485	7.600146	2.7568362
17.56920951545993	8.695489	2.9488115
17.586944513299528	10.968267	3.3118374
17.60467993574556	12.59191	3.5485082
17.622415783253373	14.284953	3.779544
17.64015205627843	15.646289	3.955539
17.657888755276293	16.82002	4.101222
17.675625880702604	17.339628	4.164088
17.69336343301311	17.143608	4.140484
17.71110141266366	16.278858	4.0347066
17.728839820110178	15.30643	3.9123433
17.746578655808705	14.358931	3.7893178
17.764317920215372	12.937828	3.5969193
17.7820576137864	11.444376	3.3829536
17.79979773697811	9.461592	3.07597
17.81753829024692	7.5690084	2.751183
17.835279274049356	5.8939567	2.4277472
17.85302068884201	4.8612704	2.204829
17.870762535081607	4.2143965	2.0528996
17.888504813224934	3.9149847	1.978632
17.90624752372891	3.6905577	1.9210824
17.923990667050536	3.5571935	1.8860524
17.941734243646895	3.4945931	1.8693831
17.959478253975185	3.5114937	1.873898
17.9772226984927	3.5189185	1.8758781
17.994967577656833	3.4921114	1.8687192
18.01271289192506	3.4362235	1.8537053
18.030458641754965	3.3618412	1.8335325
18.04820482760425	3.3160148	1.8209928
18.06595144993067	3.255695	1.8043544
18.083698509192125	3.232756	1.7979866
18.101446005846576	3.2285054	1.7968042
18.119193940352105	3.2236173	1.7954435
18.136942313166887	3.1908307	1.7862897
18.1546911247492	3.1407995	1.7722301
18.1724403755574	3.08969	1.7577513
18.19019006604997	3.0771663	1.7541853
18.207940196685467	3.1020076	1.7612517
18.225690767922575	3.1444957	1.7732726
18.243441780220046	3.138132	1.7714773
18.261193234036764	3.1228654	1.7671632
18.278945129831676	3.0843902	1.7562432
18.29669746806386	3.0443628	1.7448102
18.314450249192483	3.0678134	1.7515174
18.3322034736768	3.084329	1.7562257
18.349957141976184	3.1167786	1.7654401
18.3677112545501	3.093019	1.7586981
18.385465811858108	3.0781977	1.7544793
18.403220814359884	3.0832987	1.7559325
18.420976262515172	3.1364315	1.7709973
18.43873215678387	3.166271	1.7794019
18.456488497625923	3.1777387	1.7826213
18.474245285501407	3.225646	1.7960083
18.492002520870486	3.3095286	1.819211
18.50976020419343	3.4120653	1.8471776
18.527518335930615	3.697921	1.922998
18.545276916542516	4.258813	2.0636892
18.563035946489688	4.4411526	2.1074042
18.580795426232832	4.9198403	2.2180712
18.598555356232698	4.827065	2.1970582
18.616315736950185	5.143061	2.2678318
18.63407656884626	4.7619553	2.1821904
18.65183785238201	4.9446526	2.2236574
18.669599588018617	4.7445474	2.178198
18.68736177621737	4.727393	2.1742568
18.705124417439652	4.697263	2.167317
18.72288751214696	4.483638	2.1174603
18.740651060800886	4.682775	2.1639721
18.758415063863115	4.437816	2.1066124
18.77617952179546	4.6148343	2.1482165
18.793944435059814	4.324191	2.079469
18.811709804118184	4.3046265	2.0747595
18.829475629432675	4.2576375	2.0634043
18.8472419114655	4.0209203	2.0052233
18.86500865067897	4.109107	2.0270932
18.88277584753551	3.8048418	1.9506004
18.90054350249763	3.8602722	1.9647576
18.918311616027957	3.529859	1.8787919
18.936080188589226	3.4048476	1.845223
18.953849220644265	3.0625086	1.7500025
18.971618712656007	2.9113894	1.7062794
18.9893886650875	2.8314407	1.6826885
19.007159078401887	7.989028	2.8264868
19.024929953062408	32.84459	5.73102
19.042701289532435	32.853897	5.731832
19.060473088275405	25.43757	5.043567
19.07824534975489	2.7491045	1.6580423
19.096018074434568	2.702727	1.6439973
19.113791262778197	2.6933641	1.6411473
19.13156491524966	2.6911433	1.6404704
19.149339032312945	2.676761	1.636081
19.167113614432136	2.6346896	1.6231726
19.184888662071433	2.5991282	1.6121812
19.202664175695123	2.5769703	1.6052945
19.220440155767623	2.5635166	1.6010985
19.238216602753447	2.5584724	1.5995226
19.2559935171172	2.566796	1.6021223
19.27377089932361	2.5750313	1.6046904
19.291548749837514	2.5884445	1.6088643
19.309327069123835	2.572987	1.6040534
19.32710585764763	2.570817	1.6033767
19.344885115874032	2.5724604	1.6038891
19.362664844268313	2.5653505	1.6016712
19.380445043295822	2.5529728	1.5978025
19.39822571342203	2.5374038	1.592923
19.41600685511252	2.5077157	1.5835769
19.43378846883297	2.5120566	1.5849469
19.451570555049173	2.497779	1.5804363
19.469353114227037	2.4988787	1.5807842
19.48713614683254	2.5509627	1.5971733
19.50491965333182	2.5764773	1.6051409
19.52270363419109	2.5454433	1.5954446
19.540488089876686	2.4928372	1.5788721
19.55827302085503	2.4680903	1.5710157
19.576058427592674	2.488302	1.5774353
19.593844310556282	2.4903255	1.5780765
19.611630670212598	2.5153644	1.5859901
19.629417507028506	2.5487325	1.596475
19.64720482147098	2.5338032	1.5917925
19.6649926140071	2.5011299	1.5814961
19.682780885104084	2.489116	1.5776932
19.70056963522921	2.513887	1.5855242
19.718358864849908	2.4996963	1.5810428
19.7361485744337	2.4768848	1.5738122
19.753938764448215	2.498098	1.5805372
19.771729435361202	2.4823227	1.5755389
19.789520587640506	2.4661026	1.570383
19.807312221754092	2.4660027	1.5703511
19.825104338170043	2.4978008	1.5804433
19.842896937356517	2.4912589	1.5783722
19.860690019781824	2.4639988	1.569713
19.87848358591436	2.4617727	1.5690037
19.896277636222635	2.514523	1.5857247
19.914072171175278	2.5027246	1.5820003
19.931867191241015	2.4742858	1.5729862
19.94966269688869	2.4461193	1.5640074
19.967458688587264	2.4816608	1.5753288
19.985255166805807	2.5083766	1.5837855
20.00305213201348	2.5229213	1.5883707
20.020849584679578	2.5070055	1.5833526
20.038647525273507	2.4880123	1.5773435
20.05644595426477	2.5072985	1.5834451
20.07424487212299	2.4959369	1.5798534
20.092044279317903	2.4861226	1.5767443
20.109844176319353	2.499888	1.5811034
20.127644563597304	2.4706304	1.571824
20.145445441621817	2.416303	1.5544462
20.16324681086307	2.3844705	1.5441731
20.181048671791373	2.4171534	1.5547197
20.198851024877122	2.4712565	1.572023
20.216653870590836	2.4806437	1.575006
20.234457209403146	2.430678	1.5590632
20.252261041784802	2.3824556	1.5435206
20.270065368206662	2.374514	1.5409459
20.287870189139685	2.3782961	1.5421726
20.305675505054968	2.3909616	1.5462735
20.323481316423702	2.385459	1.5444931
20.341287623717207	2.3804216	1.5428615
20.359094427406884	2.3452585	1.5314237
20.376901727964288	2.3309882	1.5267574
20.39470952586107	2.343266	1.530773
20.41251782156899	2.3439069	1.5309824
20.430326615559935	2.330754	1.5266807
20.448135908305886	2.351724	1.5335331
20.465945700278965	2.3310328	1.526772
20.483755991951384	2.3316827	1.5269848
20.50156678379548	2.2925055	1.5141022
20.519378076283708	2.289625	1.5131507
20.537189869888635	2.301548	1.5170853
20.55500216508294	2.3290377	1.5261185
20.572814962339415	2.3371751	1.5287822
20.59062826213098	2.3418496	1.5303103
20.60844206493066	2.3344522	1.5278914
20.626256371211593	2.349402	1.5327759
20.644071181447032	2.3689504	1.5391395
20.66188649611036	2.377317	1.541855
20.67970231567506	2.3638704	1.5374883
20.697518640614742	2.297735	1.5158281
20.715335471403122	2.2746239	1.5081856
20.73315280851404	2.2906904	1.5135027
20.750970652421447	2.3362927	1.5284936
20.768789003599412	2.3660116	1.5381845
20.786607862522136	2.3150854	1.5215405
20.8044272296639	2.2840269	1.5112997
20.82224710549913	2.2454784	1.498492
20.84006749050237	2.2676368	1.5058675
20.857888385148268	3.8270943	1.9562961
20.8757097899116	45.94012	6.777914
20.893531705267254	64.79773	8.049704
20.911354131690224	83.836334	9.156219
20.92917706965566	69.11162	8.31334
20.94700051963877	50.1657	7.0827746
20.96482448211493	29.434338	5.425342
20.982648957559622	4.1643896	2.0406835
21.00047394644843	2.2667289	1.505566
21.01829944925707	2.2100034	1.486608
21.036125466461375	2.1812305	1.4768989
21.053951998537297	2.214232	1.4880296
21.071779045960906	2.262295	1.5040927
21.089606609208378	2.2793465	1.5097505
21.10743468875603	2.2253358	1.491756
21.12526328508028	2.2373717	1.4957846
21.143092398657675	2.2375705	1.4958512
21.16092202996488	2.2194648	1.4897869
21.17875217947867	2.1844428	1.4779861
21.19658284767596	2.1695442	1.4729372
21.21441403503377	2.1903086	1.4799691
21.232245742029225	2.2031088	1.4842873
21.2500779691396	2.2219748	1.490629
21.26791071684227	2.215883	1.4885843
21.28574398561475	2.205582	1.4851202
21.30357777593465	2.2333477	1.4944389
21.321412088279704	2.233901	1.494624
21.339246923127792	2.1998732	1.483197
21.357082280956888	2.148169	1.4656633
21.3749181622451	2.1469502	1.4652475
21.392754567470647	2.171073	1.4734561
21.41059149711187	2.1635838	1.4709126
21.42842895164726	2.1403701	1.4630004
21.446266931555378	2.1000757	1.4491638
21.464105437314945	2.0982213	1.4485239
21.481944469404798	2.10835	1.4520159
21.49978402830388	2.1412911	1.4633151
21.51762411449127	2.1636178	1.4709241
21.53546472844617	2.1631718	1.4707725
21.553305870647876	2.1563418	1.4684488
21.571147541575865	2.1215596	1.4565575
21.58898974170967	2.105467	1.4510227
21.60683247152899	2.0965223	1.4479373
21.62467573151363	2.0755148	1.4406646
21.642519522143523	2.06249	1.4361372
21.660363843898722	2.089702	1.4455801
21.6782086972594	2.1015224	1.4496629
21.696054082705864	2.0787013	1.4417702
21.713900000718535	2.073159	1.4398469
21.73174645177795	2.0545123	1.433357
21.749593436364794	2.0579185	1.4345447
21.767440954959845	2.050293	1.4318844
21.785289008044032	2.0254567	1.4231853
21.803137596098388	2.0080793	1.4170672
21.820986719604086	2.0297291	1.4246856
21.838836379042412	2.043242	1.4294201
21.85668657489478	2.0575752	1.434425
21.87453730764273	2.0600193	1.4352767
21.892388577767914	2.0214412	1.4217739
21.91024038575213	1.9838828	1.4085038
21.928092732077285	1.985018	1.4089067
21.945945617225426	2.0078406	1.4169829
21.963799041678694	2.0066543	1.4165642
21.981653005919398	31.31611	5.59608
21.999507510429943	78.12593	8.838887
22.01736255569286	73.07458	8.548367
22.035218142190818	4.175643	2.043439
22.05307427040661	1.9699628	1.4035536
22.07093094082315	1.9561497	1.3986242
22.088788153923474	1.9741529	1.4050455
22.106645910190746	2.0023923	1.4150591
22.12450421010827	2.0065453	1.4165258
22.142363054159464	2.0066805	1.4165735
22.16022244282787	1.9979587	1.4134916
22.178082376597164	1.938348	1.3922457
22.195942855951145	1.9089657	1.3816533
22.213803881373742	1.9305218	1.3894322
22.231665453349002	1.9439282	1.3942482
22.24952757236111	1.9400647	1.3928621
22.26739023889438	1.9551979	1.398284
22.28525345343323	1.9717237	1.4041808
22.30311721646225	1.9873036	1.4097176
22.320981528466113	1.980865	1.4074321
22.33884638992964	1.9455105	1.3948156
22.356711801337788	1.9392685	1.3925762
22.37457776317561	1.9636986	1.4013203
22.392444275928337	2.0160234	1.4198674
22.410311340081282	2.0091414	1.4174418
22.428178956119904	1.9864132	1.4094018
22.446047124529805	1.9278314	1.3884637
22.46391584579669	1.9241328	1.3871311
22.481785120406414	1.934721	1.3909425
22.49965494884496	1.9225748	1.3865694
22.51752533159841	1.9167831	1.3844794
22.53539626915302	1.9208578	1.3859501
22.553267761995137	1.9329946	1.3903217
22.571139810611264	1.9499289	1.3963985
22.589012415488025	1.9446528	1.3945081
22.60688557711216	1.9458513	1.3949378
22.624759295970566	1.9343414	1.3908061
22.642633572550263	1.9209436	1.3859811
22.660508407338362	1.9180496	1.3849367
22.67838380082217	1.9187908	1.3852042
22.696259753489077	1.935593	1.3912559
22.714136265826614	1.9236724	1.3869652
22.73201333832246	1.9146811	1.38372
22.74989097146439	1.9360904	1.3914347
22.76776916574035	1.958202	1.3993577
22.785647921638393	1.9697548	1.4034796
22.803527239646712	1.945572	1.3948376
22.82140712025363	1.9025681	1.3793361
22.839287563947593	1.9271817	1.3882297
22.85716857121719	1.921685	1.3862485
22.875050142551135	1.8908104	1.3750674
22.892932278438277	1.881537	1.3716912
22.910814979367604	1.8890283	1.3744192
22.928698245828222	1.9149652	1.3838227
22.946582078309387	1.9211899	1.3860699
22.96446647730047	1.9050018	1.380218
22.98235144329098	1.899729	1.3783066
23.000236976770562	1.8788155	1.3706989
23.018123078229	1.8659472	1.3659968
23.03600974815619	1.8691623	1.3671731
23.053896987042194	1.8506999	1.3604044
23.071784795377173	1.8576612	1.3629605
23.08967317365145	1.8759804	1.3696643
23.10756212235546	1.9070529	1.3809608
23.125451641979787	1.879819	1.3710649
23.143341733015134	1.8746992	1.3691965
23.161232395952357	1.8810142	1.3715007
23.179123631282426	1.8891329	1.3744572
23.197015439496468	1.9127678	1.3830285
23.214907821085717	1.9408677	1.3931502
23.23280077654157	1.9507439	1.3966904
23.250694306355538	1.9547443	1.3981217
23.268588411019277	1.9586437	1.3995155
23.28648309102458	1.9441164	1.3943157
23.304378346863356	1.9193916	1.3854212
23.322274179027676	1.8946832	1.376475
23.340170588009723	1.9251709	1.3875053
23.358067574301852	1.9731563	1.4046909
23.37596513839651	1.9719156	1.4042491
23.39386328078629	1.9667987	1.402426
23.411762001963947	1.9584283	1.3994385
23.429661302422353	1.9501934	1.3964932
23.4475611826545	1.9401184	1.3928814
23.46546164315356	1.9505439	1.3966187
23.48336268441279	1.9590113	1.3996469
23.501264306925638	1.9458601	1.3949409
23.51916651118564	1.9429256	1.3938886
23.537069297686497	1.9293829	1.3890222
23.554972666922037	1.9384274	1.3922741
23.57287661938623	1.9842243	1.408625
23.59078115557318	1.9905305	1.4108616
23.608686275977128	1.981081	1.4075089
23.62659198109246	1.9435476	1.3941118
23.6444982714137	1.9422485	1.3936458
23.66240514743549	1.9656941	1.4020321
23.68031260965263	1.9475819	1.3955579
23.698220658560068	1.9006412	1.3786374
23.716129294652845	1.8491033	1.3598174
23.7340385184262	1.8523693	1.3610177
23.75194833037546	1.8541558	1.3616738
23.769858730996123	1.8684464	1.3669113
23.78776972078382	1.882322	1.3719773
23.80568130023431	1.9047024	1.3801095
23.823593469843495	1.9122126	1.3828278
23.841506230107424	1.9232669	1.386819
23.859419581522275	1.8944778	1.3764004
23.87733352458438	1.8887227	1.3743081
23.89524805979019	1.8739463	1.3689216
23.913163187636318	1.8774571	1.3702034
23.931078908619508	1.923434	1.3868792
23.948995223236633	1.9703555	1.4036936
23.966912131984735	2.010682	1.4179852
23.98482963536096	2.0540788	1.4332057
24.002747733862616	2.0914314	1.4461782
24.020666427987155	2.1272755	1.4585183
24.038585718232156	2.1198654	1.4559758
24.056505605095353	2.0916357	1.4462489
24.074426089074617	2.097274	1.4481969
24.092347170667946	2.1433187	1.4640077
24.110268850373515	2.1984332	1.4827114
24.128191128689586	2.179949	1.4764651
24.146114006114626	2.094108	1.4471034
24.164037483147187	2.049463	1.4315946
24.181961560286005	2.0404797	1.4284536
24.199886238029926	2.050231	1.4318627
24.21781151687797	2.0627365	1.436223
24.235737397329274	2.0994585	1.4489508
24.253663879883135	2.1314552	1.4599504
24.271590965038975	2.1262152	1.4581547
24.289518653296376	2.1015942	1.4496876
24.30744694515505	2.0747404	1.440396
24.32537584111486	2.037002	1.4272358
24.34330534167581	1.993943	1.4120705
24.361235447338046	2.0240784	1.4227011
24.379166158601876	2.0464153	1.4305297
24.39709747596772	2.043824	1.4296237
24.41502939993615	2.0075598	1.4168838
24.432961931007917	1.9681323	1.4029014
24.450895069683856	1.9937047	1.4119861
24.468828816465	2.0018623	1.4148718
24.4867631718525	2.0092924	1.4174951
24.504698136347656	2.012058	1.4184703
24.52263371045192	1.969531	1.4033998
24.540569894666874	1.9518515	1.3970867
24.558506689494266	1.9219308	1.3863372
24.57644409543597	1.920042	1.3856558
24.594382112994012	1.946733	1.3952538
24.61232074267057	1.9838842	1.4085042
24.630259984967953	1.9680389	1.4028682
24.64819984038863	1.9655468	1.4019796
24.66614030943522	1.9914598	1.411191
24.684081392610462	1.9854395	1.4090563
24.702023090417274	2.0044203	1.4157755
24.7199654033587	2.0184991	1.4207389
24.737908331937927	2.0257463	1.4232872
24.755851876658305	2.0016198	1.4147861
24.773796038023324	2.0472825	1.4308327
24.79174081653661	2.0931275	1.4467645
24.809686212701962	2.0770652	1.4412028
24.827632227023294	2.0634558	1.4364734
24.8455788600047	2.0912473	1.4461145
24.8635261121504	2.1491868	1.4660106
24.88147398396475	2.1585443	1.4691985
24.899422475952303	2.1112726	1.4530219
24.917371588617698	2.080583	1.4424226
24.935321322465768	2.1498928	1.4662513
24.953271678001478	2.3170898	1.522199
24.97122265572994	2.5013204	1.5815563
24.989174256156414	2.7611003	1.6616559
25.00712647978632	3.1887364	1.7857033
25.02507932712521	3.715219	1.9274904
25.043032798678798	4.2704635	2.06651
25.060986894952933	4.8997207	2.2135313
25.078941616453637	5.651765	2.3773441
25.096896963687055	6.6235228	2.5736206
25.114852937159508	7.7633677	2.786282
25.132809537377444	8.277032	2.8769832
25.150766764847468	8.334523	2.8869574
25.168724620076347	7.759666	2.7856176
25.186683103570985	6.666844	2.5820231
25.204642215838426	5.5119333	2.3477507
25.222601957385894	4.1677284	2.0415015
25.24056232872074	3.1814163	1.7836525
25.25852333035048	2.5897367	1.6092659
25.276484962782778	2.279934	1.509945
25.294447226525435	2.1423936	1.4636917
25.312410122086423	2.1095822	1.45244
25.330373649973843	2.1005979	1.4493439
25.348337810695988	2.051952	1.4324635
25.366302604761245	1.9539428	1.397835
25.384268032678207	1.8817452	1.3717672
25.40223409495558	1.8829447	1.3722043
25.420200792102257	1.8977333	1.3775824
25.438168124627246	1.9242685	1.3871801
25.45613609303974	1.9041463	1.3799081
25.474104697849057	1.9218817	1.3863195
25.492073939564698	1.9211762	1.386065
25.510043818696285	1.9181309	1.384966
25.528014335753614	1.9019637	1.379117
25.54598549124664	1.8731556	1.3686328
25.56395728568544	1.8785969	1.3706192
25.58192971958028	1.8967832	1.3772376
25.59990279344156	1.9040993	1.379891
25.617876507779833	1.9187626	1.3851941
25.635850863105826	1.8886794	1.3742924
25.653825859930386	1.8730301	1.3685869
25.671801498764548	1.8690462	1.3671306
25.68977778011949	1.8568698	1.3626701
25.707754704506524	1.8051286	1.3435507
25.725732272437153	1.8123401	1.3462318
25.743710484423012	1.8282374	1.3521233
25.761689340975888	1.8720077	1.3682133
25.77966884260774	1.8528697	1.3612015
25.797648989830662	1.8147194	1.3471153
25.815629783156922	1.7885519	1.3373675
25.83361122309895	1.7938976	1.3393646
25.85159331016929	1.8119245	1.3460774
25.869576044880695	1.8331617	1.353943
25.887559427746034	1.846867	1.3589948
25.90554345927836	1.8294775	1.3525819
25.92352813999086	1.8076634	1.3444937
25.94151347039689	1.824013	1.3505603
25.959499451009965	1.8643602	1.3654158
25.97748608234374	1.8596238	1.3636802
25.995473364912062	1.8662703	1.3661151
26.013461299228904	1.8481199	1.3594557
26.03144988580839	1.8448216	1.358242
26.04943912516483	1.8093065	1.3451047
26.067429017812675	1.7953146	1.3398935
26.085419564266537	1.8200332	1.349086
26.103410765041186	1.8098642	1.3453119
26.12140262065155	1.7987816	1.3411866
26.139395131612723	1.8283076	1.3521492
26.157388298439948	1.8348743	1.3545753
26.17538212164861	1.7982378	1.3409839
26.193376601754295	1.7617255	1.3273001
26.211371739272714	1.7775036	1.3332305
26.229367534719746	1.8327286	1.3537831
26.247363988611433	1.8997555	1.3783162
26.26536110146397	1.9171678	1.3846183
26.283358873793727	1.8708938	1.3678062
26.301357306117204	1.8070588	1.3442689
26.319356398951104	1.804851	1.3434474
26.33735615281224	1.7881984	1.3372353
26.35535656821762	1.8092576	1.3450865
26.373357645684404	1.767016	1.3292916
26.39135938572991	1.7849511	1.3360206
26.409361788871614	1.8078085	1.3445477
26.427364855627165	1.8443778	1.3580787
26.445368586514352	1.8580173	1.3630911
26.46337298205115	1.8782881	1.3705065
26.48137804275568	1.8264728	1.3514706
26.499383769146217	1.8007139	1.3419068
26.517390161741215	1.7817851	1.3348353
26.53539722105928	1.8087106	1.3448831
26.553404947619182	1.8615829	1.3643984
26.571413341939856	1.8583347	1.3632075
26.589422404540397	1.8191053	1.3487421
26.60743213594006	1.798493	1.341079
26.62544253665827	1.8253428	1.3510525
26.64345360721459	1.8151582	1.3472781
26.66146534812879	1.8145528	1.3470534
26.679477759920758	1.7970225	1.3405306
26.69749084311057	1.7809322	1.3345157
26.71550459821847	1.7521541	1.3236896
26.733519025764842	1.7883017	1.337274
26.751534126270258	1.8521389	1.3609331
26.769549900255434	1.8695599	1.3673185
26.787566348241267	1.8133923	1.3466226
26.80558347074881	1.7689341	1.3300128
26.823601268299267	1.7799139	1.3341341
26.841619741414036	1.8392737	1.3561982
26.85963889061465	1.8702453	1.3675691
26.877658716422832	1.880518	1.3713198
26.89567921936045	1.8695948	1.3673313
26.913700399949544	1.8491555	1.3598366
26.93172225871233	1.8296264	1.3526368
26.949744796171174	1.8460009	1.3586762
26.967768012848605	1.7838677	1.3356152
26.98579190926733	1.7517438	1.3235346
27.003816485950225	1.7847284	1.3359373
27.021841743420318	1.7736087	1.331769
27.039867682200814	1.7932597	1.3391265
27.057894302815072	1.8118442	1.3460476
27.07592160578664	1.842108	1.3572428
27.0939495916392	1.8195133	1.3488934
27.111978260896635	1.7794776	1.3339707
27.13000761408296	1.7507296	1.3231514
27.148037651722397	1.7908853	1.3382397
27.166068374339304	1.778665	1.333666
27.184099782458215	1.764705	1.328422
27.20213187660384	1.7874051	1.3369387
27.22016465730105	1.8430147	1.3575767
27.23819812507487	1.8476437	1.3592806
27.256232280450533	1.8470862	1.3590755
27.274267123953383	1.8026335	1.3426219
27.292302656108987	1.7928561	1.3389758
27.31033887744306	1.7844493	1.3358328
27.32837578848146	1.7695571	1.330247
27.34641338975026	1.737535	1.3181559
27.364451681775673	1.7377831	1.3182501
27.382490665084074	1.7534224	1.3241686
27.400530340202046	1.7840506	1.3356836
27.41857070765629	1.8447306	1.3582087
27.436611767973726	1.9040252	1.3798642
27.454653521681404	1.8672154	1.3664609
27.472695969306564	1.850721	1.3604121
27.490739111376627	1.8327076	1.3537754
27.508782948419153	1.823877	1.3505099
27.526827480961902	1.8231143	1.3502275
27.54487270953279	1.8144766	1.347025
27.562918634659898	1.7904367	1.3380721
27.580965256871508	1.7655729	1.3287486
27.599012576696026	1.7817724	1.3348305
27.617060594662068	1.8232648	1.3502833
27.63510931129842	1.8484654	1.3595828
27.65315872713401	1.8378009	1.3556552
27.67120884269797	1.8579384	1.3630621
27.68925965851958	1.8632056	1.3649929
27.707311175128307	1.8419434	1.3571821
27.725363393053787	1.8784372	1.3705609
27.74341631282583	1.9177136	1.3848153
27.7614699349744	1.9003835	1.378544
27.77952426002968	2.0585477	1.434764
27.797579288521973	2.0812743	1.4426622
27.815635020981784	2.5437105	1.5949014
27.83369145793979	2.680881	1.6373396
27.85174859992682	2.509537	1.5841519
27.869806447473923	2.3213558	1.5235996
27.887865001112267	2.0162876	1.4199604
27.905924261373233	1.9135839	1.3833234
27.92398422878836	1.9028795	1.379449
27.94204490388936	1.8992329	1.3781266
27.96010628720813	1.9040418	1.3798702
27.978168379276728	1.8848984	1.372916
27.9962311806274	1.8547556	1.3618941
28.014294691792568	1.9004836	1.3785803
28.0323589133048	1.923237	1.3868082
28.050423845696887	1.8878114	1.3739765
28.068489489501758	1.8526332	1.3611147
28.086555845252523	1.8554441	1.3621469
28.104622913482487	1.8628229	1.3648527
28.122690694725115	1.885099	1.372989
28.14075918951405	1.9420049	1.3935584
28.15882839838312	1.9343088	1.3907943
28.176898321866304	1.9210867	1.3860327
28.1949689604978	1.9210317	1.3860129
28.213040314811945	1.927215	1.3882416
28.23111238534327	1.899177	1.3781062
28.249185172626493	1.9044108	1.3800039
28.267258677196473	1.9097577	1.3819399
28.285332899588294	1.9395008	1.3926597
28.303407840337172	1.9163963	1.3843397
28.321483499978545	1.9230694	1.3867477
28.33955987904799	1.9835398	1.4083819
28.357636978081285	1.983929	1.4085201
28.37571479761439	2.0067441	1.4165959
28.393793338183425	2.0602655	1.4353625
28.41187260032469	2.0291052	1.4244666
28.429952584574686	2.0161095	1.4198977
28.448033291470065	2.0073256	1.4168012
28.46611472154769	1.995563	1.412644
28.484196875344566	1.9763563	1.4058294
28.502279753397914	2.039262	1.4280273
28.52036335624511	2.0693388	1.4385196
28.538447684423716	2.0808544	1.4425167
28.556532738471482	2.023578	1.4225252
28.574618518926325	2.0147588	1.419422
28.59270502632635	1.9975579	1.4133499
28.61079226120985	2.071801	1.4393752
28.628880224115274	2.0823069	1.4430201
28.646968915581287	2.0460088	1.4303876
28.66505833614671	2.032238	1.4255658
28.68314848635055	2.0131328	1.4188491
28.701239366732004	1.9699972	1.4035659
28.71933097783044	1.9513305	1.3969003
28.737423320185403	2.0247135	1.4229243
28.75551639433665	2.1201093	1.4560596
28.773610200824074	2.1459658	1.4649116
28.791704740187793	2.1044025	1.4506559
28.80980001296809	2.066526	1.4375416
28.827896019705413	2.0938935	1.4470292
28.845992760940433	2.122572	1.4569049
28.86409023721397	2.1164072	1.4547876
28.88218844906704	2.179424	1.4762872
28.900287397040845	2.2644308	1.5048026
28.918387081676755	2.2930975	1.5142977
28.936487503516343	2.3414347	1.5301747
28.954588663101365	2.292242	1.5140152
28.97269056097374	2.2928336	1.5142106
28.990793197675597	2.3247375	1.524709
29.00889657374923	2.4098034	1.5523541
29.027000689737125	2.4556437	1.5670494
29.04510554618196	2.4328566	1.5597616
29.06321114362659	2.3754385	1.5412457
29.08131748261405	2.3445077	1.5311785
29.099424563687567	2.437091	1.5611186
29.11753238739057	2.471742	1.5721774
29.13564095426663	2.5180705	1.5868429
29.15375026485954	2.554258	1.5982046
29.171860319713275	2.6649623	1.6324712
29.18997111937199	2.7038996	1.6443539
29.20808266438002	2.7480478	1.6577237
29.226194955281898	2.7857845	1.6690669
29.244307992622335	2.8416317	1.685714
29.26242177694624	2.8967824	1.7019937
29.2805363087987	2.9241931	1.7100272
29.29865158872498	2.911998	1.7064577
29.316767617270557	2.9148242	1.7072856
29.334884394981064	2.9366946	1.7136787
29.353001922402367	2.9673827	1.7226093
29.37112020008047	3.0580328	1.7487231
29.389239228561596	3.1422307	1.7726338
29.407359008392152	3.330916	1.8250797
29.42547954011872	3.7509608	1.9367397
29.44360082428809	4.3432894	2.084056
29.46172286144722	5.27665	2.297096
29.479845652143283	6.7953134	2.6067822
29.497969196923606	8.873542	2.9788492
29.516093496335728	11.469089	3.3866043
29.5342185509274	14.204962	3.7689471
29.55234436124651	16.584774	4.0724406
29.570470927841175	17.989864	4.241446
29.588598251259686	17.716076	4.209047
29.60672633205055	16.380342	4.0472636
29.624855170762405	14.275447	3.7782862
29.642984767944146	11.665671	3.4155045
29.66111512414481	8.971919	2.9953163
29.67924623991366	6.6887555	2.586263
29.697378115800138	5.1379385	2.2667022
29.71551075235387	4.2189083	2.0539982
29.733644150124675	3.7366211	1.9330342
29.751778309662576	3.548552	1.8837601
29.769913231517766	3.5031557	1.8716719
29.78804891624066	3.4192414	1.8491191
29.806185364381818	3.312211	1.8199481
29.82432257649206	3.27784	1.8104806
29.842460553122333	3.2679331	1.8077426
29.86059929482382	3.2155263	1.7931889
29.878738802147872	3.1977596	1.788228
29.896879075646048	3.2394454	1.7998459
29.915020115870114	3.300944	1.8168501
29.933161923371976	3.3024383	1.8172612
29.951304498703777	3.3345656	1.8260792
29.969447842417857	3.261188	1.805876
29.987591955066733	3.1920614	1.7866341
30.005736837203123	3.183346	1.7841934
30.023882489379943	3.2325919	1.797941
30.04202891215028	3.2577045	1.8049113
30.060176106067455	3.2329168	1.7980313
30.078324071684946	3.1518288	1.775339
30.09647280955646	3.1150062	1.764938
30.114622320235863	3.1353807	1.7707007
30.132772604277257	3.1320472	1.769759
30.1509236622349	3.1009622	1.7609549
30.16907549466328	3.1161025	1.7652485
30.18722810211705	3.0840151	1.7561364
30.205381485151097	3.047744	1.7457789
30.22353564432045	3.0224469	1.7385186
30.241690580180403	3.048026	1.7458597
30.25984629328638	3.0354853	1.7422644
30.278002784194037	3.0283525	1.7402163
30.296160053459246	2.995263	1.7306828
30.314318101638033	3.0259464	1.7395247
30.332476929286646	3.0581803	1.7487653
30.35063653696153	3.0219164	1.738366
30.368796925219307	2.929591	1.7116048
30.386958094616844	2.930859	1.7119752
30.40512004571115	2.8987684	1.702577
30.423282779059463	2.9074402	1.7051218
30.441446295219233	2.9256556	1.7104548
30.459610594748067	2.9053142	1.7044982
30.47777567820382	2.8306632	1.6824574
30.495941546144504	2.7954931	1.6719729
30.51410819912835	2.8004735	1.6734616
30.532275637713795	2.8526728	1.6889857
30.55044386245946	2.849267	1.6879772
30.56861287392416	2.8626254	1.6919295
30.586782672666956	2.8660898	1.692953
30.604953259247047	2.8680787	1.6935403
30.623124634223885	2.9425716	1.7153926
30.641296798157075	2.8706217	1.6942909
30.659469751606462	2.7812338	1.6677032
30.677643495132074	2.7982633	1.672801
30.695818029294152	2.844011	1.6864196
30.713993354653116	2.8091433	1.67605
30.73216947176962	2.7715292	1.664791
30.75034638120448	2.7537432	1.6594406
30.768524083518756	2.7606938	1.6615336
30.786702579273673	2.7758484	1.6660877
30.80488186903069	2.7959538	1.6721106
30.82306195335144	2.9095912	1.7057524
30.841242832797782	3.1334517	1.7701558
30.85942450793176	3.4803934	1.8655813
30.877606979315637	3.8063872	1.9509965
30.895790247511883	4.135974	2.0337093
30.913974313083134	4.6145406	2.148148
30.932159176592283	4.9495435	2.224757
30.95034483860237	5.017911	2.2400694
30.968531299676698	4.711766	2.1706603
30.98671856037873	4.4066834	2.0992103
31.00490662127215	4.033656	2.0083964
31.023095482920848	3.5828469	1.892841
31.04128514588892	3.175952	1.7821201
31.059475610740662	2.8239937	1.6804743
31.07766687804056	2.588887	1.6090019
31.09585894835335	2.5336442	1.5917425
31.11405182224393	2.4362485	1.5608487
31.132245500277417	2.4169047	1.5546397
31.15043998301914	2.4638915	1.5696788
31.168635271034628	2.516037	1.586202
31.18683136488964	2.5146174	1.5857545
31.20502826515008	2.4517992	1.5658222
31.223225972382135	2.4234946	1.5567577
31.241424487152155	2.4547997	1.56678
31.259623810026692	2.4515295	1.565736
31.27782394157253	2.4127285	1.553296
31.296024882356644	2.3544953	1.5344365
31.314226632946237	2.4441514	1.5633782
31.332429193908684	2.4910426	1.5783037
31.350632565811598	2.4734697	1.5727268
31.368836749222787	2.4536629	1.5664172
31.387041744710295	2.5088556	1.5839367
31.40524755284232	2.5761757	1.605047
31.423454174187317	2.5870042	1.6084167
31.441661609313922	2.5998561	1.612407
31.459869858791002	2.5705397	1.6032903
31.478078923187628	2.4953134	1.5796561
31.496288803073064	2.377217	1.5418227
31.514499499016807	2.30085	1.5168552
31.532711011588546	2.3432848	1.5307791
31.550923341358178	2.3962505	1.5479827
31.56913648889584	2.3630018	1.5372058
31.587350454771844	2.4026153	1.5500371
31.605565239556732	2.3823996	1.5435023
31.62378084382127	2.335229	1.5281456
31.641997268136382	2.2758443	1.5085902
31.660214513073274	2.2649066	1.5049607
31.67843257920331	2.316448	1.5219882
31.6966514670981	2.3941853	1.5473155
31.71487117732944	2.4050438	1.5508204
31.733091710469346	2.3730764	1.5404793
31.751313067090052	2.3304243	1.5265727
31.769535247764008	2.2901337	1.5133188
31.787758253063878	2.309932	1.5198461
31.805982083562526	2.269946	1.506634
31.824206739833024	2.2532907	1.5010965
31.84243222244869	2.2930412	1.5142791
31.860658531983013	2.249435	1.4998116
31.878885669009737	2.222619	1.4908451
31.897113634102784	2.2898471	1.5132241
31.91534242783632	2.2271104	1.4923506
31.933572050784694	2.2549472	1.5016482
31.951802503522508	2.28737	1.5124054
31.970033786624548	2.278872	1.5095934
31.988265900665834	2.2011943	1.4836422
32.006498846221575	2.1083853	1.452028
32.02473262386724	2.1213887	1.4564987
32.04296723417845	2.1688597	1.4727049
32.0612026777311	2.195302	1.4816551
32.07943895510129	2.1551018	1.4680265
32.097676066865304	2.148753	1.4658625
32.115914013599685	2.115149	1.4543552
32.13415279588115	2.072718	1.4396937
32.152392414286666	2.0820556	1.442933
32.1706328693934	2.1807292	1.4767292
32.18887416177875	2.2138581	1.487904
32.20711629202032	2.1629057	1.470682
32.225359260695924	2.2060065	1.4852631
32.243603068383614	2.1853547	1.4782945
32.26184771566166	2.1445374	1.4644239
32.28009320310852	2.1155288	1.4544858
32.2983395313029	2.1392748	1.462626
32.31658670082372	2.129998	1.4594512
32.33483471225012	2.0484447	1.4312389
32.35308356616143	2.0494277	1.4315822
32.371333263137245	2.1015525	1.4496732
32.38958380375734	2.153608	1.4675176
32.407835188601744	2.1579165	1.4689848
32.42608741825067	2.1256278	1.4579533
32.444340493284585	2.103575	1.4503707
32.46259441428416	2.1420317	1.4635681
32.48084918183028	2.1854014	1.4783103
32.49910479650405	2.1160653	1.4546702
32.51736125888683	2.0326965	1.4257267
32.53561856956014	2.060399	1.4354091
32.5538767291058	2.0894887	1.4455065
32.572135738105764	2.0709546	1.4390812
32.59039559714228	2.1034932	1.4503424
32.608656306797776	2.091566	1.4462248
32.62691786765491	2.0986106	1.4486582
32.645180280296586	2.07561	1.4406977
32.663443545305896	2.068106	1.438091
32.68170766326619	2.045134	1.4300818
32.69997263476099	2.0187526	1.4208281
32.7182384603741	2.0821173	1.4429544
32.7365051406895	2.0849025	1.4439192
32.75477267629144	2.062414	1.4361107
32.77304106776434	1.9739718	1.4049811
32.79131031569289	1.8884449	1.374207
32.809580420661966	1.9478297	1.3956467
32.827851383256714	2.0544446	1.4333334
32.84612320406245	2.0556254	1.4337453
32.86439588366476	2.0206885	1.4215093
32.88266942264945	2.0417972	1.4289147
32.9009438216025	1.9768811	1.4060161
32.9192190811102	1.9702126	1.4036427
32.937495201758985	2.0173182	1.4203233
32.95577218413556	2.022024	1.4219788
32.974050028826866	2.0294986	1.4246047
32.992328736420035	1.9974481	1.413311
33.010608307502444	1.9679847	1.4028487
33.02888874266169	1.9545844	1.3980645
33.047170042485604	1.9022334	1.3792148
33.06545220756225	1.9090463	1.3816824
33.083735238479896	1.9492896	1.3961697
33.10201913582707	1.9959488	1.4127805
33.12030390019248	2.071434	1.4392477
33.138589532165135	2.1649158	1.4713653
33.15687603233419	2.03158	1.425335
33.17516340128909	1.9061582	1.3806369
33.19345163961947	1.8995925	1.378257
33.211740747915215	1.9745865	1.4051998
33.23003072676643	2.0045738	1.4158298
33.248321576763466	1.9924508	1.411542
33.266613298496885	2.040367	1.4284141
33.28490589255747	2.0365462	1.4270761
33.30319935953626	1.9091307	1.3817129
33.32149370002451	1.8767941	1.3699614
33.339788914613706	1.9955994	1.4126569
33.358085003895575	2.0342336	1.4262656
33.376381968462034	2.0080698	1.4170638
33.39467980890529	1.9797567	1.4070383
33.41297852581774	1.9668089	1.4024297
33.43127811979204	1.9715412	1.4041158
33.44957859142105	1.9616445	1.4005872
33.467879941297866	1.8933918	1.3760058
33.486182170015844	1.9402261	1.39292
33.50448527816853	1.9099523	1.3820102
33.522789266349754	1.933782	1.3906049
33.541094135153514	2.04864	1.4313071
33.55939988517411	2.0876846	1.4448823
33.57770651700602	2.0530243	1.4328378
33.59601403124398	2.0184865	1.4207345
33.61432242848296	1.9376764	1.3920045
33.632631709318154	1.9090097	1.3816692
33.650941874344994	1.9019173	1.3791002
33.66925292415916	1.9309534	1.3895875
33.68756485935654	1.8312274	1.3532286
33.70587768053328	1.800111	1.3416822
33.724191388285746	1.953499	1.3976762
33.74250598321054	2.053502	1.4330046
33.760821465904506	1.9722853	1.4043808
33.77913783696474	1.9134246	1.383266
33.79745509698852	1.8331119	1.3539246
33.815773246573414	1.7876643	1.3370357
33.8340922863172	1.8271348	1.3517156
33.852412216817896	1.9588389	1.3995852
33.87073303867377	2.0462449	1.4304701
33.889054752483304	2.06856	1.4382489
33.907377358845245	1.9746361	1.4052174
33.92570085835853	1.9406512	1.3930726
33.94402525162239	1.963554	1.4012687
33.96235053923627	1.8166732	1.3478402
33.980676721799824	1.7090039	1.3072888
33.999003799912984	1.8024111	1.3425391
34.01733177417592	1.9636807	1.4013139
34.03566064518901	1.9341737	1.3907458
34.0539904135529	2.035634	1.4267565
34.07232107986846	2.0885696	1.4451884
34.090652644736785	2.018345	1.4206847
34.108985108759235	1.9151467	1.3838882
34.12731847253742	1.8885897	1.3742597
34.14565273667313	1.9096421	1.381898
34.16398790176847	2.0077362	1.416946
34.18232396842574	2.032432	1.4256339
34.20066093724749	2.033327	1.4259478
34.21899880883651	1.9313421	1.3897274
34.23733758379583	1.8422477	1.3572943
34.25567726272874	1.9608947	1.4003195
34.27401784623872	2.077841	1.4414718
34.29235933492957	2.1214836	1.4565314
34.31070172940526	2.1037257	1.4504225
34.32904503027003	2.0129623	1.418789
34.347389238128386	1.9426618	1.3937941
34.36573435358502	1.9375305	1.391952
34.38408037724492	1.8600317	1.3638299
34.402427309713296	1.8921962	1.3755713
34.42077515159559	2.0191283	1.4209603
34.43912390349752	2.0664792	1.4375254
34.45747356602499	2.0940025	1.4470669
34.47582413978423	1.9312606	1.389698
34.49417562538163	2.0004594	1.414376
34.51252802342388	2.1091123	1.4522783
34.53088133451789	2.0307667	1.4250498
34.54923555927084	1.8760248	1.3696805
34.567590698290104	1.9372165	1.3918393
34.58594675218336	2.1529827	1.4673046
34.6043037215585	2.1087983	1.4521701
34.62266160702365	1.9739715	1.4049809
34.641020409187234	1.9239542	1.3870667
34.65938012865785	1.9042233	1.379936
34.677740766044394	1.9237863	1.3870063
34.69610232195598	2.0214407	1.4217738
34.714464797002016	2.1709359	1.4734097
34.73282819179208	2.2550228	1.5016733
34.751192506936064	2.102371	1.4499555
34.76955774304408	1.9927282	1.4116403
34.7879239007265	2.083654	1.4434867
34.80629098059391	2.1383936	1.4623247
34.824658983257194	2.0883527	1.4451134
34.843027909327446	1.9710348	1.4039354
34.86139775941603	1.975012	1.4053512
34.879768534134534	1.9735708	1.4048383
34.89814023409483	1.8899566	1.3747569
34.91651285990901	1.7321773	1.316122
34.93488641218944	1.6523904	1.2854533
34.95326089154871	1.6932261	1.3012402
34.97163629859967	1.8961226	1.3769977
34.99001263395542	2.015952	1.4198422
35.00838989822934	1.928307	1.3886349
35.02676809203499	1.9976332	1.4133766
35.04514721598624	2.0539184	1.4331498
35.063527270697215	1.9838138	1.4084792
35.081908256782256	1.8588138	1.3633832
35.10029017485597	1.9287255	1.3887856
35.11867302553321	2.1451848	1.4646449
35.137056809429104	2.220674	1.4901927
35.155441527159006	2.1817384	1.4770709
35.173827179338524	2.032994	1.425831
35.19221376658354	1.8098385	1.3453023
35.21060128951017	1.9532026	1.3975703
35.2289897487348	2.0799792	1.4422133
35.24737914487405	2.1542885	1.4677495
35.26576947854479	2.0170076	1.4202139
35.28416075036418	1.8481934	1.3594828
35.30255296094958	1.9181384	1.3849688
35.32094611091867	2.0971384	1.44815
35.33934020088932	2.103007	1.4501748
35.35773523147969	1.8625708	1.3647603
35.3761312033082	1.7040526	1.3053937
35.394528116993506	1.8164173	1.3477453
35.41292597315452	2.0821524	1.4429665
35.431324772410434	2.0848687	1.4439074
35.449724515380666	2.141484	1.463381
35.46812520268491	2.084593	1.443812
35.486526834943106	1.8885021	1.3742279
35.504929412775454	1.9191778	1.3853439
35.52333293680242	1.9179382	1.3848965
35.54173740764471	1.7599673	1.3266376
35.560142825923286	1.7532587	1.3241068
35.5785491922594	1.7104762	1.3078518
35.59695650727454	1.6779431	1.2953545
35.61536477159042	2.1756063	1.4749936
