0.008763373481513119	0.3822274	0.6182454
0.026290120649546365	0.3426002	0.5853206
0.043816868432600686	0.34760413	0.58957964
0.06134361724069026	0.28480712	0.5336732
0.07887036748382949	0.18477929	0.4298596
0.0963971195720331	0.08930904	0.2988462
0.11392387391531617	0.07689625	0.27730173
0.1314506309236943	0.115178674	0.33937985
0.1489773910071836	0.17213652	0.4148934
0.16650415457580078	0.20021158	0.4474501
0.18403092203956356	0.17296098	0.41588578
0.20155769380849	0.13139115	0.36247918
0.2190844702925996	0.1512687	0.38893276
0.2366112519019124	0.15380508	0.3921799
0.2541380390464497	0.19957991	0.44674367
0.27166483213623416	0.23888704	0.4887607
0.28919163158128947	0.23220561	0.48187718
0.3067184377916406	0.1846301	0.42968604
0.324245251177314	0.17348032	0.4165097
0.34177207214833777	0.14301695	0.37817582
0.3592989011147415	0.17115672	0.41371092
0.37682573848655654	0.1788794	0.42294136
0.39435258467381573	0.18570746	0.4309379
0.41187944008655414	0.14471023	0.380408
0.42940630513480854	0.120120324	0.34658378
0.446933180228618	0.15264595	0.3906993
0.4644600657780234	0.14900616	0.38601315
0.48198696219306775	0.16769911	0.40951082
0.49951386988379676	0.15263264	0.39068228
0.5170407892602581	0.15715992	0.396434
0.5345677207325025	0.15186894	0.38970366
0.5520946647105822	0.17283744	0.4157372
0.5696216216045534	0.16042203	0.40052718
0.5871485918244737	0.16995196	0.4122523
0.6046755757804043	0.18285544	0.427616
0.6222025738824094	0.17562188	0.41907266
0.6397295865405557	0.14970702	0.38691992
0.6572566141649129	0.13663313	0.3696392
0.6747836571655547	0.1672939	0.40901577
0.6923107159525568	0.20082937	0.4481399
0.7098377909359992	0.21435316	0.4629829
0.7273648825259653	0.18544692	0.43063548
0.7448919911325411	0.17452702	0.4177643
0.762419117165817	0.18857649	0.43425396
0.7799462610358868	0.2194581	0.46846357
0.7974734231528482	0.23787045	0.48771966
0.8150006039268024	0.24906158	0.4990607
0.8325278037678551	0.20760144	0.455633
0.8500550230861152	0.19733045	0.4442189
0.8675822622916969	0.20213969	0.44959947
0.8851095217947171	0.24036132	0.4902666
0.9026368020052984	0.21394087	0.46253744
0.9201641033335665	0.20425087	0.45194122
0.9376914261896523	0.19870928	0.44576818
0.9552187709836915	0.19453077	0.44105643
0.9727461381258234	0.18395601	0.42890093
0.990273528026193	0.15571055	0.39460176
1.0078009410949496	0.15542118	0.39423493
1.0253283777422473	0.18853377	0.43420476
1.0428558383782454	0.2155209	0.46424228
1.0603833234131086	0.22435224	0.47365835
1.0779108332570058	0.2559176	0.505883
1.0954383683201119	0.3075152	0.5545405
1.112965929012607	0.4085705	0.6391952
1.1304935157446763	0.585472	0.7651614
1.1480211289265108	0.6158855	0.7847837
1.1655487689683062	1.444471	1.2018615
1.1830764362802655	1.7375869	1.3181756
1.200604131272596	2.1942334	1.4812945
1.2181318543555117	2.465201	1.5700958
1.235659605939232	2.4625802	1.5692611
1.253187386433982	3.9497452	1.9873966
1.270715196249994	6.4421105	2.5381312
1.2882430357975057	12.047825	3.4709976
1.3057709054867608	16.882011	4.1087723
1.3232988057280106	22.35408	4.72801
1.3408267369315112	26.94731	5.1910796
1.358354699507526	30.368216	5.5107365
1.3758826938663256	34.587063	5.881077
1.3934107204181858	36.717705	6.0595136
1.410938779573391	37.149986	6.095079
1.4284668717422309	37.84493	6.151823
1.4459949973350033	36.992825	6.082173
1.4635231567620117	37.08417	6.0896773
1.4810513504335687	36.295544	6.024578
1.4985795787599925	35.821552	5.9851108
1.5161078421516088	35.51049	5.959068
1.5336361410187505	34.362103	5.86192
1.5511644757717598	34.33956	5.859997
1.5686928468209842	35.14875	5.928638
1.58622125457678	36.033886	6.0028234
1.6037496994495108	37.318043	6.1088495
1.621278181849548	37.123302	6.0928893
1.6388067021872719	37.737583	6.143092
1.6563352608730693	37.494205	6.1232514
1.673863858317336	36.573	6.0475616
1.6913924949304753	35.803894	5.9836354
1.7089211711228998	34.31523	5.85792
1.7264498873050296	33.536823	5.7910986
1.7439786438872935	32.757572	5.723423
1.7615074412801288	32.112507	5.66679
1.779036279893981	31.311274	5.595648
1.796565160139305	29.94889	5.472558
1.814094082426564	29.27411	5.4105554
1.8316230471662298	28.640787	5.351709
1.849152054768784	28.073288	5.2984233
1.8666811056447168	27.662806	5.2595444
1.8842102002045273	26.626816	5.1601176
1.901739338858724	26.174917	5.1161427
1.9192685220178245	25.667076	5.0662684
1.9367977500923557	24.81565	4.981531
1.9543270234928547	24.344204	4.9339848
1.971856342629867	23.97788	4.8967214
1.9893857079139496	23.664557	4.864623
2.006915119755667	22.95094	4.790714
2.0244445785655945	22.249159	4.7169013
2.0419740847543175	21.68463	4.656676
2.0595036387324317	21.369236	4.622687
2.0770332409105414	20.670273	4.5464573
2.094562891699263	20.158062	4.4897733
2.1120925915092217	19.670467	4.43514
2.129622340751053	19.672579	4.435378
2.1471521398354043	188.13208	13.716125
2.1646819891729323	444.65784	21.086912
2.182211889174303	440.85477	20.996542
2.1997418402501974	453.21146	21.288763
2.2172718428113023	432.84705	20.804977
2.234801897268317	320.70682	17.908289
2.2523320040319548	17.077015	4.1324344
2.269862163512935	16.937435	4.1155114
2.287392376121992	16.747215	4.092336
2.304922642269869	16.582445	4.072155
2.322452962367322	16.20458	4.025491
2.3399833368251164	15.698345	3.9621136
2.357513766054032	15.402386	3.9245872
2.3750442504648586	15.085902	3.8840575
2.3925747904683963	15.077342	3.8829553
2.410105386475459	14.773194	3.8435912
2.4276360388968707	14.557275	3.8153996
2.445166748143469	14.321298	3.784349
2.4626975146261025	14.122318	3.7579672
2.4802283387556323	13.865625	3.7236576
2.4977592209429305	13.404697	3.6612427
2.5152901615988825	12.985171	3.6034944
2.5328211611343865	12.544072	3.5417612
2.5503522199603523	12.386732	3.519479
2.5678833384877024	12.2412195	3.4987454
2.5854145171273712	12.263166	3.5018804
2.6029457562903064	12.0971365	3.4780939
2.620477056387469	11.901138	3.4498026
2.6380084178298326	11.846008	3.441803
2.655539841028383	11.801727	3.4353642
2.673071326394119	11.789816	3.4336302
2.6906028743380523	11.463406	3.385765
2.708134485271211	11.113642	3.3337128
2.7256661596046325	10.843476	3.2929435
2.743197897749369	10.651574	3.263675
2.760729700116486	10.463404	3.2347186
2.778261567117063	10.331245	3.2142255
2.795793499162193	10.197317	3.1933239
2.8133254966629817	9.994309	3.1613777
2.830857560030551	9.785044	3.1281054
2.8483896896760337	9.650706	3.1065586
2.865921886010578	9.557167	3.091467
2.883454149445347	9.435315	3.0716958
2.9009864803915177	9.429061	3.0706775
2.91851887926028	9.356408	3.0588245
2.9360513464628384	9.343717	3.0567493
2.953583882410413	9.090403	3.0150294
2.9711164875142373	8.8300705	2.9715436
2.9886491621855606	8.738019	2.9560142
3.0061819068356455	8.63418	2.9383976
3.023714721875769	8.586817	2.9303272
3.041247607717225	8.319533	2.88436
3.0587805647713213	8.109005	2.8476315
3.0763135934493806	8.06996	2.8407674
3.0938466941627407	8.092896	2.8448017
3.1113798673227544	8.087504	2.8438537
3.1289131133407904	8.00198	2.828777
3.1464464326282315	7.8942323	2.8096676
3.1639798255964786	7.7729855	2.7880075
3.1815132926569443	7.559676	2.7494864
3.1990468342210603	7.476002	2.734228
3.216580450700272	7.4143066	2.7229226
3.2341141425060416	7.3406405	2.7093616
3.251647910049847	7.312962	2.704249
3.2691817537431813	7.1731634	2.6782763
3.286715673997555	7.1814036	2.679814
3.3042496712244938	7.1702094	2.6777246
3.32178374583554	7.199851	2.6832538
3.339317898242251	7.168357	2.6773787
3.3568521288562034	7.095093	2.6636615
3.3743864380889876	6.899578	2.6267047
3.3919208263522127	6.7019224	2.588807
3.4094552940575023	6.5465493	2.5586226
3.4269898416164972	6.5068817	2.550859
3.444524469440858	6.494081	2.5483487
3.4620591779422587	6.468943	2.5434117
3.479593967532391	6.4452047	2.5387409
3.4971288386229658	6.3825474	2.5263703
3.5146637916257086	6.383058	2.5264714
3.5321988269523628	6.5076365	2.551007
3.5497339450146903	6.5031867	2.5501347
3.5672691462244708	6.414749	2.5327356
3.5848044309934988	6.227249	2.4954457
3.60233979973359	6.2019844	2.4903784
3.619875252856575	6.2546253	2.5009248
3.6374107907743034	6.319444	2.5138505
3.6549464138986427	6.380325	2.5259304
3.6724821226414788	6.387161	2.5272832
3.690017917414714	6.4227543	2.5343153
3.7075537986302702	6.454133	2.5404985
3.7250897667000857	6.4263	2.5350149
3.7426258220361235	6.438575	2.5374346
3.7601619650503553	6.7399926	2.5961497
3.777698196154779	7.331019	2.7075853
3.7952345157614067	8.381755	2.895126
3.8127709242822716	9.166614	3.0276415
3.830307422129425	11.412944	3.378305
3.847844009714936	30.18912	5.4944625
3.8653806874508954	97.74331	9.886521
3.882917455749409	97.13138	9.855525
3.900454315022606	97.12551	9.855227
3.917991265682631	41.670834	6.455295
3.9355283081416506	11.310802	3.3631537
3.9530654428118495	8.924279	2.9873533
3.970602670105433	7.74814	2.783548
3.9881399904346244	6.8497405	2.6172009
4.005677404211669	6.73996	2.5961432
4.023214911848827	6.6183367	2.5726128
4.0407525137583855	6.541669	2.5576687
4.058290210352644	6.516729	2.5527885
4.075828002043927	6.444993	2.5386992
4.0933658892445814	6.4503965	2.539763
4.110903872366966	6.4408097	2.537875
4.128441951823468	6.3136606	2.5126998
4.145980128026488	6.142747	2.4784565
4.163518401388452	6.075261	2.4648044
4.181056772321807	6.1090746	2.4716542
4.1985952412390155	6.2680526	2.503608
4.216133808552567	6.3258653	2.5151272
4.233672474674966	6.3151016	2.5129867
4.251211240018741	6.458838	2.5414245
4.268750104996445	6.6615796	2.5810037
4.286289070020643	7.7079334	2.7763164
4.303828135503928	9.35797	3.05908
4.3213673018589125	29.65545	5.445682
4.3389065694982305	90.73604	9.525547
4.356445938834537	165.84828	12.878209
4.3739854102805085	171.59915	13.099586
4.391524984248844	172.38669	13.129611
4.409064661152262	136.55098	11.685503
4.426604441403504	96.759964	9.836664
4.444144325415337	75.73755	8.702732
4.461684313600543	21.78237	4.6671586
4.47922440637193	22.282852	4.7204714
4.496764604142329	20.567785	4.535172
4.5143049073245916	18.59452	4.3121367
4.531845316331589	16.376514	4.0467906
4.5493858315762195	13.6307	3.6919777
4.566926453471405	11.33773	3.3671546
4.584467182430081	9.472192	3.0776925
4.602008018865218	8.3113	2.8829327
4.619548963189798	7.6587434	2.7674434
4.637090015816834	7.0843935	2.6616523
4.654631177159353	6.768085	2.6015544
4.672172447630417	6.513855	2.5522256
4.689713827643102	6.3567076	2.5212512
4.7072553176105085	6.1401353	2.4779296
4.724796917945764	6.002751	2.4500513
4.742338629062015	5.876531	2.4241557
4.759880451372434	5.819972	2.4124618
4.777422385290215	5.7343144	2.3946428
4.794964431228581	5.6840672	2.384128
4.812506589600768	5.6657114	2.3802755
4.830048860820047	5.641412	2.3751657
4.847591245299709	5.616265	2.369866
4.8651337434530655	5.5950947	2.3653953
4.882676355693457	5.593642	2.3650882
4.900219082434242	5.6255507	2.3718243
4.917761924088813	5.580237	2.3622525
4.935304881070575	5.602965	2.3670583
4.952847953792969	5.534127	2.3524725
4.970391142669449	5.456723	2.335963
4.9879344481135055	5.4477615	2.334044
5.005477870538642	5.448808	2.3342683
5.023021410358394	5.4574065	2.3361092
5.040565067986324	5.4153495	2.3270903
5.05810884383601	5.3726077	2.3178887
5.075652738321066	5.2992635	2.302013
5.09319675185512	5.2085075	2.2822156
5.110740884851836	5.235089	2.2880316
5.128285137724894	5.338426	2.3105035
5.145829510888007	5.4135933	2.326713
5.163374004754908	5.42405	2.328959
5.1809186197393595	5.410184	2.3259802
5.198463356255145	5.4085774	2.325635
5.216008214716077	5.391728	2.3220096
5.233553195535998	5.3302193	2.3087268
5.251098299128764	5.3531566	2.313689
5.268643525908272	5.2936325	2.3007896
5.286188876288432	5.3027043	2.3027601
5.3037343506831895	5.292382	2.3005178
5.32127994950651	5.312211	2.3048234
5.3388256731723915	5.286031	2.2991369
5.356371522094851	5.2026696	2.2809362
5.373917496687938	5.1475396	2.268819
5.391463597365729	5.1367135	2.2664318
5.40900982454232	5.112038	2.2609816
5.426556178631843	5.181228	2.276231
5.444102660048449	5.121414	2.2630541
5.4616492692063225	5.2022967	2.2808545
5.479196006519669	5.17891	2.2757218
5.496742872402727	5.2332435	2.2876284
5.514289867269756	5.1753287	2.2749348
5.531836991535049	5.198654	2.2800558
5.549384245612924	5.2217197	2.2851083
5.566931629917724	5.2242813	2.2856686
5.584479144863822	5.162831	2.2721863
5.6020267908656205	5.069228	2.2514946
5.619574568337545	5.0648994	2.250533
5.637122477694054	5.119653	2.262665
5.654670519349629	5.1548533	2.2704303
5.672218693718784	5.161514	2.2718966
5.689767001216059	5.151568	2.2697065
5.707315442256021	5.192605	2.2787287
5.724864017253266	5.1677313	2.2732644
5.7424127266224225	5.119896	2.2627187
5.75996157077814	5.122549	2.263305
5.777510550135105	5.109545	2.2604303
5.795059665108022	5.184768	2.2770085
5.812608916111639	5.180305	2.2760284
5.830158303560715	5.3616986	2.315534
5.847707827870055	5.356698	2.314454
5.86525748945448	5.4164414	2.3273249
5.8828072887288485	5.5512757	2.3561146
5.900357226108044	5.580479	2.3623037
5.917907302006979	5.6773987	2.3827293
5.9354575168406	6.205141	2.491012
5.9530078710238765	6.71055	2.590473
5.970558364971812	7.1975594	2.6828268
5.988108999099438	7.5053277	2.7395854
6.005659773821818	8.007055	2.829674
6.023210689554039	7.869632	2.8052864
6.040761746711227	8.25125	2.872499
6.058312945708531	7.567973	2.750995
6.075864286961132	7.1095	2.6663647
6.093415770884244	6.5290723	2.5552049
6.1109673978931065	6.0520124	2.4600837
6.128519168402993	5.5015135	2.3455305
6.146071082829204	5.4082327	2.3255608
6.163623141587075	5.2976522	2.301663
6.181175345091969	5.2218623	2.2851396
6.198727693759281	5.1774416	2.2753992
6.216280188004435	5.153276	2.2700827
6.233832828242885	5.1008453	2.258505
6.251385614890126	5.074246	2.2526088
6.268938548361669	5.0848513	2.2549615
6.286491629073067	5.0267315	2.2420373
6.304044857439898	5.0348945	2.2438571
6.321598233877777	4.9752016	2.230516
6.339151758802344	4.990802	2.2340102
6.356705432629277	4.990485	2.2339394
6.37425925577428	5.012427	2.2388449
6.391813228653095	4.992959	2.234493
6.409367351681486	5.005021	2.2371905
6.426921625275259	5.0021	2.2365375
6.44447604985025	5.0070105	2.237635
6.46203062582232	4.995044	2.2349596
6.47958535360737	4.94926	2.2246933
6.497140233621328	4.982545	2.2321615
6.514695266280161	4.9928327	2.2344646
6.532250451999859	5.019258	2.24037
6.549805791196454	5.0665116	2.2508912
6.567361284286002	5.095891	2.2574081
6.584916931684597	5.029586	2.2426739
6.602472733808367	4.9454203	2.22383
6.6200286910734665	4.8808403	2.2092624
6.637584803896092	4.9058237	2.2149093
6.655141072692462	4.895561	2.2125914
6.672697497878842	4.903183	2.2143133
6.690254079871514	4.894454	2.2123413
6.707810819086808	4.9304748	2.2204673
6.725367715941078	4.9461975	2.2240047
6.742924770850719	4.971611	2.229711
6.760481984232151	4.9573617	2.2265134
6.778039356501836	4.946633	2.2241027
6.795596888076266	4.9576077	2.2265687
6.813154579371963	4.973652	2.2301686
6.830712430805492	5.028841	2.2425077
6.84827044279344	5.0601516	2.249478
6.865828615752445	5.0716457	2.2520316
6.883386950099159	5.061131	2.2496958
6.900945446250287	5.042119	2.2454662
6.918504104622553	5.1165576	2.261981
6.936062925632727	5.1303663	2.265031
6.953621909697607	5.1567583	2.2708497
6.971181057234028	5.172906	2.2744024
6.988740368658859	5.1740623	2.2746565
7.006299844389007	5.166793	2.273058
7.023859484841407	5.200691	2.2805023
7.041419290433036	5.3257284	2.307754
7.058979261580902	5.4444957	2.3333442
7.0765393987020495	5.6117983	2.3689234
7.094099702213559	5.931692	2.4355066
7.111660172532549	6.3246098	2.5148778
7.129220810076164	6.830002	2.6134272
7.146781615261595	7.562412	2.749984
7.16434258850606	7.7672157	2.7869725
7.181903730226821	8.1035385	2.8466716
7.1994650408411704	8.074606	2.8415852
7.217026520766437	8.166546	2.8577168
7.234588170419983	8.425177	2.9026155
7.252149990219215	8.444604	2.90596
7.269711980581568	8.323908	2.8851182
7.2872741419245175	8.0701	2.8407922
7.304836474665574	7.64232	2.7644746
7.322398979222286	7.373598	2.715437
7.339961656012233	7.148002	2.6735747
7.357524505453039	6.8018603	2.6080377
7.375087527962357	6.5110335	2.5516727
7.392650723957886	6.2383757	2.497674
7.410214093857353	5.944181	2.438069
7.427777638078528	5.7891026	2.4060555
7.445341357039213	5.6005645	2.3665512
7.4629052511572525	5.4649315	2.3377192
7.480469320850524	5.3988624	2.3235452
7.498033566536948	5.429666	2.3301644
7.5155979886344735	5.413572	2.3267083
7.5331625875610975	5.3126063	2.3049092
7.550727363734844	5.2092543	2.2823792
7.568292317573788	5.123336	2.2634788
7.585857449496025	5.083304	2.2546184
7.603422759919705	5.1575923	2.2710333
7.620988249263007	5.212324	2.2830515
7.638553917944147	5.213515	2.2833123
7.656119766381391	5.162573	2.2721295
7.673685794993023	5.158161	2.2711585
7.691252004197388	5.1720934	2.2742238
7.70881839441285	5.1710496	2.2739942
7.726384966057826	5.206888	2.2818606
7.743951719550762	5.268174	2.2952504
7.761518655310149	5.312746	2.3049395
7.779085773754511	5.329565	2.3085852
7.796653075302419	5.278822	2.2975688
7.814220560372475	5.317888	2.3060546
7.831788229383323	5.3277717	2.3081965
7.8493560827536495	5.368722	2.3170502
7.866924120902174	5.369844	2.3172925
7.884492344247663	5.366607	2.316594
7.9020607532089135	5.330082	2.308697
7.919629348204771	5.292908	2.3006322
7.937198129654115	5.284515	2.2988074
7.954767097975865	5.3003087	2.30224
7.972336253588986	5.349461	2.3128903
7.989905596912472	5.4129734	2.3265798
8.007475128365371	5.443953	2.333228
8.025044848366756	5.4480624	2.3341086
8.042614757335754	5.5543904	2.3567755
8.060184855691523	5.615861	2.3697808
8.07775514385327	5.756255	2.3992198
8.095325622240228	5.819231	2.4123082
8.112896291271687	5.8693433	2.4226727
8.130467151366968	5.9472184	2.4386919
8.148038202945436	5.987864	2.4470112
8.165609446426497	5.9762554	2.444638
8.183180882229594	5.975638	2.444512
8.200752510774217	5.923505	2.4338253
8.218324332479893	5.938852	2.436976
8.235896347766193	5.904546	2.429927
8.253468557052724	5.9033527	2.4296815
8.27104096075914	5.9165716	2.4324005
8.288613559305137	5.940209	2.4372544
8.306186353110448	6.047457	2.459158
8.32375934259485	6.164229	2.4827864
8.341332528178162	6.206488	2.4912825
8.358905910280246	6.1786942	2.485698
8.376479489321003	6.1919866	2.4883702
8.394053265720377	6.240569	2.4981132
8.411627239898356	6.2799435	2.5059814
8.42920141227497	6.3010993	2.510199
8.44677578327029	6.3337874	2.5167017
8.464350353304427	6.3442492	2.5187793
8.48192512279754	6.353143	2.5205443
8.499500092169827	6.291183	2.508223
8.51707526184153	6.2908096	2.5081487
8.534650632232934	6.266082	2.5032144
8.552226203764365	6.1951456	2.4890049
8.569801976856192	6.112519	2.4723508
8.587377951928834	6.1390333	2.4777074
8.60495412940274	6.172992	2.4845507
8.622530509698416	6.251851	2.5003703
8.6401070932364	6.3047647	2.510929
8.657683880437283	6.460283	2.5417087
8.675260871721695	6.6461263	2.5780082
8.692838067510303	6.851076	2.617456
8.710415468223834	7.00474	2.646647
8.727993074283043	7.1026745	2.6650844
8.745570886108737	7.062767	2.6575866
8.763148904121765	7.1512046	2.6741736
8.78072712874302	7.140468	2.6721654
8.798305560393441	7.366025	2.7140422
8.815884199494006	7.522578	2.7427318
8.833463046465745	7.786407	2.7904134
8.851042101729728	8.004373	2.8292
8.86862136570707	8.268655	2.875527
8.886200838818924	8.377698	2.8944254
8.903780521486505	8.340486	2.88799
8.921360414131055	8.427729	2.903055
8.938940517173874	8.615479	2.9352138
8.956520831036297	8.803868	2.9671314
8.97410135613971	9.011821	3.0019696
8.99168209290554	9.152017	3.02523
9.009263041755265	9.388358	3.0640428
9.026844203110405	9.602396	3.0987732
9.044425577392525	9.724978	3.1184897
9.062007165023239	9.842723	3.1373115
9.079588966424197	10.225107	3.1976721
9.097170982017108	10.425578	3.2288663
9.11475321222372	11.383392	3.3739283
9.132335657465825	12.299407	3.507051
9.149918318165264	12.382034	3.5188115
9.167501194743924	12.860651	3.586175
9.18508428762374	12.513716	3.537473
9.202667597226693	12.4959345	3.5349588
9.220251123974803	12.11957	3.4813173
9.237834868290143	11.839378	3.4408398
9.255418830594836	11.735051	3.425646
9.273003011311046	11.253719	3.3546565
9.290587410860985	11.00564	3.3174748
9.308172029666911	10.381052	3.221964
9.32575686815113	10.087924	3.1761491
9.343341926735997	8.791026	2.9649665
9.360927205843916	8.5453825	2.9232485
9.378512705897327	8.322377	2.8848531
9.396098427318728	8.106438	2.8471806
9.413684370530664	8.000147	2.828453
9.431270535955722	7.886965	2.8083742
9.448856924016539	7.8072305	2.7941422
9.466443535135806	7.6693974	2.7693677
9.484030369736251	7.6771717	2.770771
9.501617428240658	7.738387	2.7817957
9.519204711071852	7.7878637	2.7906744
9.536792218652714	7.808879	2.7944372
9.55437995140617	7.837607	2.7995727
9.571967909755191	7.8359256	2.7992723
9.589556094122802	7.8929367	2.809437
9.60714450493207	7.9048743	2.8115609
9.624733142606116	7.9258213	2.8152835
9.642322007568108	7.9691	2.8229594
9.659911100241267	7.9438043	2.8184755
9.677500421048851	7.9573727	2.8208816
9.695089970414175	8.020805	2.8321025
9.712679748760609	8.050038	2.837259
9.730269756511557	8.059278	2.8388867
9.747859994090492	8.042923	2.8360047
9.765450461920915	8.126747	2.850745
9.78304116042639	8.138824	2.8528626
9.800632090030527	8.179308	2.8599489
9.81822325115699	8.195844	2.8628385
9.835814644229481	8.260715	2.874146
9.853406269671762	8.255822	2.8732946
9.870998127907646	8.281222	2.8777113
9.888590219360985	8.250443	2.8723586
9.906182544455698	8.344227	2.8886375
9.923775103615734	8.344407	2.8886688
9.941367897265108	8.306874	2.882165
9.958960925827878	8.349065	2.8894749
9.97655418972816	8.352213	2.8900194
9.994147689390106	8.345646	2.888883
10.011741425237934	8.334651	2.8869796
10.029335397695904	8.403216	2.8988302
10.04692960718833	8.539304	2.9222088
10.06452405413958	8.525486	2.9198434
10.082118738974064	8.448381	2.90661
10.099713662116246	8.371865	2.8934176
10.117308823990651	8.262528	2.8744614
10.134904225021844	8.234432	2.86957
10.152499865634445	8.269215	2.8756242
10.170095746253125	8.293021	2.8797605
10.18769186730261	8.305183	2.8818715
10.205288229207675	8.244267	2.8712833
10.222884832393145	8.2277975	2.8684137
10.2404816772839	8.178629	2.8598301
10.258078764304868	8.14461	2.8538764
10.275676093881035	8.129213	2.8511775
10.293273666437438	8.061391	2.839259
10.310871482399158	8.057708	2.8386102
10.32846954219134	8.027526	2.833289
10.346067846239173	8.018174	2.831638
10.363666394967908	8.082487	2.8429716
10.38126518880283	8.213177	2.865864
10.398864228169298	8.325968	2.8854754
10.416463513492713	8.345149	2.888797
10.434063045198531	8.230973	2.8689673
10.451662823712262	8.158911	2.8563807
10.469262849459467	8.15947	2.8564785
10.486863122865758	8.170349	2.8583822
10.504463644356806	8.177189	2.8595784
10.522064414358338	8.04616	2.8365753
10.539665433296118	7.9197874	2.8142116
10.557266701595987	7.783887	2.7899618
10.574868219683818	7.718125	2.7781513
10.592469987985552	7.68414	2.7720282
10.610072006927185	7.61504	2.7595363
10.627674276934751	7.50007	2.7386255
10.64527679843435	7.3367224	2.7086384
10.662879571852143	7.241485	2.6910007
10.680482597614331	7.1200733	2.6683466
10.698085876147173	7.012772	2.6481638
10.715689407876988	6.933176	2.6330924
10.733293193230146	6.8647146	2.62006
10.750897232633072	6.8099136	2.6095812
10.76850152651225	6.676647	2.583921
10.786106075294207	6.5805697	2.565262
10.803710879405534	6.514871	2.5524247
10.821315939272877	6.4832516	2.546223
10.83892125532294	6.3990436	2.529633
10.856526827982472	6.3677554	2.523441
10.874132657678285	6.3164043	2.5132458
10.891738744837243	6.257139	2.5014274
10.909345089886271	6.2194695	2.4938865
10.926951693252343	6.168207	2.4835875
10.944558555362494	6.154826	2.4808922
10.96216567664381	6.0539722	2.4604821
10.979773057523436	5.985376	2.4465027
10.997380698428573	5.9366665	2.4365275
11.014988599786477	5.8383436	2.4162664
11.032596762024461	5.6928406	2.3859675
11.050205185569892	5.585563	2.3633797
11.067813870850198	5.518324	2.3491113
11.085422818292859	5.472146	2.3392618
11.10303202832541	5.4431353	2.3330529
11.120641501375454	5.4358687	2.331495
11.138251237870636	5.4091988	2.3257685
11.155861238238671	5.326428	2.3079054
11.173471502907317	5.206594	2.2817962
11.191082032304402	5.1212206	2.2630115
11.208692826857805	5.135599	2.266186
11.226303886995465	5.110096	2.2605522
11.243915213145371	5.052941	2.2478747
11.261526805735578	4.9866924	2.2330904
11.279138665194196	4.8934073	2.2121048
11.296750791949393	4.805847	2.1922243
11.314363186429393	4.692676	2.1662586
11.331975849062479	4.57471	2.1388571
11.34958878027699	4.5323157	2.1289237
11.36720198050133	4.5070553	2.1229827
11.384815450163948	4.482849	2.117274
11.402429189693366	4.495242	2.1201985
11.420043199518153	4.4822497	2.1171324
11.437657480066942	63.479073	7.9673753
11.455272031768422	85.1282	9.226494
11.472886855051353	107.51233	10.368815
11.490501950344528	99.10477	9.955137
11.508117318076819	84.49908	9.192338
11.52573295867715	45.87705	6.7732596
11.543348872574514	4.1692977	2.0418859
11.560965060197946	4.1038547	2.0257974
11.57858152197655	4.0555096	2.0138295
11.59619825833949	3.9866395	1.9966571
11.613815269715985	3.9360898	1.9839581
11.631432556535323	38.51195	6.2058
11.649050119226837	83.05441	9.11342
11.666667958219929	93.4755	9.668273
11.68428607394406	107.65675	10.375777
11.701904466828756	82.42985	9.079088
11.719523137303586	65.30832	8.081356
11.737142085798196	4.5575523	2.1348424
11.754761312742286	3.7131371	1.9269502
11.772380818565619	3.6868746	1.9201236
11.790000603698015	3.6758838	1.9172595
11.80762066856935	3.579786	1.8920323
11.825241013609572	3.4939895	1.8692216
11.842861639248683	3.456243	1.8590974
11.860482545916748	3.4848688	1.8667803
11.878103734043883	3.5175927	1.8755246
11.895725204060282	3.485856	1.8670447
11.91334695639619	3.4594362	1.8599559
11.930968991481919	3.4478035	1.8568262
11.948591309747824	3.42429	1.8504837
11.966213911624347	3.419055	1.8490686
11.98383679754198	3.3834076	1.8394041
12.001459967931268	3.364402	1.8342307
12.019083423222835	3.31182	1.8198407
12.036707163847352	3.2715144	1.8087329
12.05433119023556	3.233919	1.79831
12.071955502818259	3.2412274	1.8003409
12.089580102026313	3.195697	1.7876513
12.107204988290643	3.1270595	1.7683494
12.12483016204224	3.0959692	1.7595366
12.142455623712152	3.101681	1.761159
12.16008137373149	3.1059604	1.7623734
12.177707412531431	3.077051	1.7541525
12.19533374054321	3.0143387	1.7361851
12.212960358198126	3.003221	1.7329804
12.230587265927545	3.0261514	1.7395837
12.248214464162889	3.0351126	1.7421575
12.265841953335649	3.0196948	1.7377269
12.283469733877375	2.9958005	1.7308381
12.301097806219685	2.97139	1.723772
12.31872617079425	2.9591358	1.7202139
12.336354828032825	2.9322224	1.7123733
12.353983778367205	2.9480155	1.7169785
12.371613022229262	2.972715	1.7241563
12.389242560050928	2.979816	1.7262143
12.406872392264201	2.9736626	1.7244312
12.424502519301143	2.97204	1.7239605
12.442132941593874	2.9083655	1.7053931
12.459763659574586	2.8485742	1.6877719
12.477394673675532	2.8067403	1.6753329
12.49502598432903	2.8418186	1.6857694
12.51265759196746	2.9147751	1.7072712
12.530289497023267	2.904928	1.7043849
12.547921699928967	2.8701866	1.6941625
12.565554201117134	2.8162491	1.6781684
12.583187001020404	2.8293388	1.6820638
12.600820100071486	2.8296015	1.6821419
12.618453498703152	2.8460004	1.6870093
12.636087197348235	2.8136957	1.6774074
12.65372119643964	2.8110871	1.6766297
12.671355496410326	2.8080108	1.675712
12.68899009769333	2.8271484	1.6814126
12.706625000721749	2.8884966	1.6995578
12.724260205928752	2.9370358	1.7137783
12.741895713747551	2.9351747	1.7132351
12.759531524611454	2.9910376	1.7294617
12.777167638953818	3.0277667	1.7400479
12.794804057208072	3.07202	1.7527179
12.812440779807702	3.0997107	1.7605995
12.830077807186271	3.2263222	1.7961966
12.847715139777405	3.2352557	1.7986816
12.865352778014795	3.4148028	1.8479185
12.882990722332197	3.5893636	1.8945615
12.90062897316344	3.6952498	1.9223032
12.918267530942412	3.7587826	1.938758
12.935906396103071	3.6277237	1.9046584
12.953545569079449	3.7835605	1.9451376
12.971185050305628	3.6053326	1.8987713
12.988824840215775	3.6297302	1.9051851
13.006464939244115	3.610265	1.9000697
13.024105347824943	3.4317777	1.8525058
13.041746066392617	3.4893503	1.8679802
13.05938709538157	3.3216398	1.8225366
13.077028435226296	3.358718	1.8326806
13.094670086361363	3.2700014	1.8083146
13.112312049221401	3.1682441	1.7799562
13.129954324241112	3.054346	1.7476687
13.147596911855258	2.8534904	1.6892277
13.165239812498685	2.796569	1.6722946
13.182883026606293	2.7008698	1.6434324
13.200526554613058	2.68043	1.6372019
13.218170396954017	2.6933181	1.6411332
13.235814554064284	2.6964018	1.6420724
13.253459026379034	2.674497	1.6353889
13.271103814333523	2.6351123	1.6233029
13.288748918363058	2.6539743	1.6291023
13.306394338903031	2.6943734	1.6414547
13.32404007638889	2.6899185	1.6400971
13.341686131256164	2.6767979	1.6360923
13.359332503940449	2.613088	1.6165048
13.376979194877402	2.6225138	1.6194177
13.394626204502751	2.6519282	1.6284742
13.412273533252307	2.696353	1.6420575
13.429921181561937	2.7124543	1.646953
13.447569149867581	2.7372992	1.6544785
13.465217438605247	2.7279198	1.6516416
13.482866048211022	2.7130616	1.6471374
13.500514979121052	2.7098625	1.646166
13.518164231771568	2.7033627	1.6441905
13.535813806598844	2.667377	1.6332107
13.553463704039254	2.643086	1.6257571
13.571113924529229	2.6018438	1.6130232
13.588764468505275	2.6126313	1.6163636
13.606415336403956	2.7137	1.6473312
13.624066528661917	2.7241688	1.6505057
13.641718045715882	2.7875614	1.6695992
13.659369888002635	2.8085666	1.6758778
13.67702205595903	2.8794	1.6968795
13.694674550021993	2.9336014	1.712776
13.712327370628532	3.006413	1.7339011
13.729980518215713	3.105859	1.7623447
13.747633993220681	3.2026243	1.7895877
13.765287796080647	3.2149029	1.793015
13.7829419272329	3.2501078	1.8028055
13.800596387114801	3.2743156	1.809507
13.818251176163775	3.3096201	1.8192362
13.835906294817324	3.3533926	1.8312271
13.853561743513023	3.3595705	1.8329132
13.871217522688525	3.401205	1.8442357
13.888873632781538	3.4333797	1.852938
13.906530074229858	3.5280619	1.8783135
13.92418684747135	3.5340483	1.8799064
13.941843952943948	3.519966	1.8761572
13.959501391085665	3.4454968	1.856205
13.977159162334578	3.4133942	1.8475373
13.994817267128846	3.3925662	1.841892
14.012475705906693	3.293153	1.8147047
14.030134479106424	3.1638875	1.778732
14.047793587166414	3.093068	1.758712
14.065453030525108	3.0594058	1.7491157
14.083112809621026	2.9711235	1.7236947
14.100772924892766	2.8925273	1.7007432
14.118433376778997	2.8744385	1.6954169
14.136094165718458	2.8492436	1.6879703
14.153755292149969	2.7921894	1.6709845
14.171416756512416	2.7040849	1.6444101
14.189078559244768	2.6270397	1.6208146
14.20674070078606	2.5731308	1.6040981
14.224403181575408	2.5050573	1.5827373
14.242066002051999	2.4638147	1.5696543
14.259729162655093	2.4106593	1.5526298
14.277392663824022	2.4134817	1.5535384
14.295056505998208	2.441325	1.562474
14.312720689617128	2.4593463	1.5682303
14.330385215120348	2.441943	1.5626718
14.348050082947497	2.4219255	1.5562537
14.3657152935383	2.3973022	1.5483223
14.383380847332528	2.3957658	1.5478262
14.401046744770051	2.4086268	1.5519751
14.418712986290798	2.38309	1.543726
14.436379572334793	2.386623	1.5448699
14.454046503342123	2.3954813	1.5477343
14.471713779752946	2.41818	1.5550498
14.489381402007504	2.4111276	1.5527806
14.507049370546113	2.4212515	1.5560371
14.524717685809168	2.4250834	1.5572679
14.542386348237134	2.3884795	1.5454706
14.560055358270553	2.3780296	1.5420861
14.577724716350051	2.385932	1.5446463
14.595394422916325	2.4017284	1.549751
14.61306447841015	2.4457886	1.5639018
14.63073488327237	2.4548025	1.5667809
14.648405637943917	2.4847107	1.5762966
14.6660767428658	2.4680912	1.571016
14.683748198479094	2.4477506	1.5645288
14.701420005224954	2.5037572	1.5823265
14.719092163544628	2.6305773	1.6219054
14.73676467387942	2.672847	1.6348844
14.754437536670727	2.6422899	1.6255122
14.772110752360014	2.6122913	1.6162584
14.78978432138882	2.6180432	1.6180369
14.807458244198777	2.6670473	1.6331097
14.82513252123159	2.6873648	1.6393183
14.842807152929028	2.7098906	1.6461746
14.860482139732962	2.6876729	1.6394124
14.87815748208531	2.6782398	1.6365329
14.8958331804281	2.651962	1.6284846
14.91350923520342	2.6302798	1.6218138
14.931185646853438	2.641061	1.6251341
14.948862415820408	2.641574	1.625292
14.966539542546656	2.6708665	1.6342785
14.98421702747459	2.662541	1.6317294
15.001894871046696	2.6698399	1.6339644
15.019573073705542	2.637413	1.6240114
15.037251635893766	2.6155844	1.6172768
15.054930558054092	2.6055467	1.6141706
15.072609840629323	2.6567502	1.6299541
15.090289484062351	2.8011801	1.6736727
15.107969488796124	3.104706	1.7620176
15.125649855273691	3.5627096	1.8875141
15.14333058393817	4.138591	2.0343528
15.161011675232768	5.1371593	2.2665303
15.17869312960076	6.5264716	2.554696
15.196374947485506	8.379155	2.894677
15.214057129330447	11.481022	3.3883657
15.231739675579114	16.24798	4.0308785
15.249422586675102	21.270517	4.611997
15.267105863062092	24.337667	4.933322
15.284789505183847	24.517763	4.9515414
15.302473513484218	22.261984	4.718261
15.320157888407127	18.571072	4.309417
15.337842630396578	14.328823	3.7853432
15.355527739896656	11.170365	3.3422096
15.37321321735153	8.750205	2.9580746
15.39089906320545	6.449693	2.5396247
15.408585277902748	4.8471904	2.2016335
15.42627186188783	3.775333	1.9430217
15.443958815605198	3.237401	1.7992779
15.461646139499424	2.961999	1.7210459
15.479333834015168	2.785298	1.6689212
15.497021899597165	2.7046092	1.6445696
15.514710336690234	2.6456368	1.6265414
15.53239914573928	2.594745	1.6108212
15.550088327189297	2.5743182	1.6044682
15.567777881485336	2.5338445	1.5918055
15.58546780907256	2.5161319	1.586232
15.6031581103962	2.5304022	1.5907238
15.620848785901568	2.5107827	1.5845449
15.638539836034063	2.4924989	1.578765
15.656231261239173	2.4544816	1.5666785
15.673923061962451	2.4330788	1.5598329
15.691615238649552	2.4482937	1.5647024
15.709307791746202	2.4455998	1.5638413
15.727000721698221	2.4241934	1.5569822
15.744694028951498	2.37745	1.5418981
15.76238771395202	2.3409567	1.5300186
15.780081777145844	2.3708901	1.5397695
15.797776218979125	2.3684096	1.5389638
15.815471039898094	2.3729448	1.5404366
15.833166240349064	2.3739152	1.5407515
15.850861820778437	2.400616	1.5493921
15.868557781632699	2.3938026	1.5471919
15.886254123358412	2.350452	1.5331184
15.903950846402232	2.323069	1.5241618
15.921647951210897	2.3389332	1.5293571
15.939345438231225	2.3736594	1.5406685
15.957043307910133	2.3747628	1.5410265
15.974741560694602	2.387109	1.5450273
15.992440197031714	2.363854	1.537483
16.01013921736862	2.353438	1.5340918
16.02783862215259	2.3301115	1.5264703
16.045538411830933	2.3496633	1.5328611
16.06323858685107	2.3617153	1.5367874
16.080939147660512	2.4026759	1.5500567
16.09864009470684	2.3893402	1.5457491
16.11634142843774	2.3802297	1.5427994
16.134043149300954	2.3706234	1.5396829
16.15174525774433	2.4209273	1.5559329
16.169447754215817	2.4317386	1.5594033
16.18715063916342	2.414353	1.5538188
16.204853913035244	2.4247096	1.5571479
16.222557576279478	2.4427345	1.562925
16.240261629344403	22.434578	4.7365155
16.257966072678386	42.9506	6.553671
16.275670906729868	38.06199	6.16944
16.293376131947387	2.5194647	1.5872822
16.31108174877957	2.5798702	1.6061975
16.328787757675133	2.591128	1.6096982
16.34649415908287	2.569804	1.6030608
16.364200953451657	2.5876534	1.6086185
16.38190814123048	2.6409051	1.6250862
16.39961572286839	2.597808	1.6117717
16.41732369881455	2.6447573	1.626271
16.43503206951817	2.690154	1.6401689
16.45274083542859	2.78198	1.6679269
16.47044999699522	2.8088133	1.6759515
16.488159554667558	2.8049562	1.6748004
16.505869508895184	2.8354604	1.6838826
16.523579860127786	2.83589	1.6840101
16.541290608815117	2.929797	1.7116649
16.559001755407035	2.9885645	1.7287465
16.57671330035348	3.050202	1.7464827
16.59442524410448	3.0705647	1.7523026
16.61213758711015	3.1178591	1.765746
16.629850329820705	3.1842463	1.7844456
16.647563472686436	3.3061662	1.8182867
16.665277016157724	3.389076	1.8409443
16.682990960685053	3.4728673	1.8635631
16.70070530671898	3.478129	1.8649743
16.718420054710155	3.4933414	1.8690482
16.736135205109335	3.5591705	1.8865764
16.753850758367335	3.591782	1.8951998
16.771566714935087	3.6838274	1.9193299
16.789283075263597	3.73688	1.9331012
16.80699983980398	3.7927444	1.947497
16.82471700900741	3.837271	1.9588953
16.84243458332518	3.8843849	1.9708843
16.860152563208665	3.9692137	1.9922886
16.87787094910932	4.0476503	2.0118773
16.89558974147871	4.1014786	2.0252109
16.913308940768466	4.167546	2.0414567
16.931028547430333	4.2204022	2.0543618
16.94874856191613	4.274261	2.0674286
16.966468984677785	4.3208013	2.0786538
16.98418981616729	4.3378367	2.0827475
17.00191105683676	4.4246197	2.103478
17.019632707138374	4.4868717	2.1182237
17.03735476752442	4.5785923	2.1397645
17.05507723844728	4.59637	2.1439147
17.072800120359403	4.6032248	2.1455128
17.090523413713353	4.606825	2.1463516
17.108247118961785	4.6560135	2.1577797
17.125971236557437	4.7158575	2.1716025
17.143695766953133	4.7476554	2.1789114
17.161420710601806	4.695205	2.1668422
17.179146067956477	4.654293	2.157381
17.19687183947025	4.624118	2.1503763
17.21459802559634	4.6294417	2.1516137
17.232324626788028	4.649626	2.156299
17.25005164349871	4.6771493	2.1626718
17.267779076181863	4.6613398	2.1590135
17.285506925291074	4.630432	2.1518438
17.30323519127999	4.581103	2.140351
17.320963874602384	4.5392766	2.1305578
17.33869297571211	4.541612	2.131106
17.356422495063114	4.5037374	2.1222012
17.37415243310944	4.4525747	2.1101124
17.391882790305218	4.3824806	2.0934374
17.40961356710468	4.402395	2.0981884
17.42734476396215	4.4121566	2.1005135
17.445076381332044	4.4128165	2.1006706
17.462808419668868	4.5062127	2.1227841
17.48054087942723	4.6825266	2.1639147
17.498273761061835	5.0464697	2.246435
17.51600706502747	5.550467	2.355943
17.533740791779024	6.2943845	2.5088613
17.551474941771485	7.699607	2.7748165
17.56920951545993	8.823783	2.9704852
17.586944513299528	11.0476	3.323793
17.60467993574556	12.774821	3.5741882
17.622415783253373	14.448869	3.8011668
17.64015205627843	15.695482	3.9617524
17.657888755276293	16.65292	4.080799
17.675625880702604	17.013668	4.124763
17.69336343301311	16.892433	4.1100407
17.71110141266366	16.108624	4.013555
17.728839820110178	15.295788	3.910983
17.746578655808705	14.414982	3.7967067
17.764317920215372	12.995095	3.604871
17.7820576137864	11.552773	3.3989372
17.79979773697811	9.574374	3.0942485
17.81753829024692	7.6658688	2.7687306
17.835279274049356	5.982897	2.445996
17.85302068884201	4.931284	2.2206495
17.870762535081607	4.2452526	2.060401
17.888504813224934	3.9073458	1.9767008
17.90624752372891	3.7152538	1.9274994
17.923990667050536	3.6236327	1.9035841
17.941734243646895	3.531919	1.87934
17.959478253975185	3.4663157	1.8618045
17.9772226984927	3.4466019	1.8565025
17.994967577656833	3.4296913	1.8519425
18.01271289192506	3.4211488	1.8496348
18.030458641754965	3.4258378	1.8509018
18.04820482760425	3.4046416	1.845167
18.06595144993067	3.3890138	1.8409274
18.083698509192125	3.351277	1.8306494
18.101446005846576	3.290792	1.814054
18.119193940352105	3.226128	1.7961426
18.136942313166887	3.1627352	1.778408
18.1546911247492	3.152181	1.7754382
18.1724403755574	3.160739	1.7778467
18.19019006604997	3.1663415	1.7794217
18.207940196685467	3.1900032	1.786058
18.225690767922575	3.200944	1.7891182
18.243441780220046	3.1836698	1.7842841
18.261193234036764	3.093569	1.7588545
18.278945129831676	3.0413089	1.7439349
18.29669746806386	3.053516	1.7474313
18.314450249192483	3.0767286	1.7540606
18.3322034736768	3.071739	1.7526377
18.349957141976184	3.077534	1.7542901
18.3677112545501	3.0726469	1.7528967
18.385465811858108	3.0614576	1.7497022
18.403220814359884	3.030447	1.7408179
18.420976262515172	3.0369043	1.7426716
18.43873215678387	3.0820732	1.7555834
18.456488497625923	3.1066256	1.7625622
18.474245285501407	3.1660373	1.7793362
18.492002520870486	3.218941	1.7941407
18.50976020419343	3.284276	1.8122572
18.527518335930615	3.6172097	1.9018964
18.545276916542516	4.217257	2.053596
18.563035946489688	4.3785896	2.092508
18.580795426232832	4.713399	2.1710365
18.598555356232698	4.5887146	2.1421285
18.616315736950185	4.9449496	2.2237244
18.63407656884626	4.653208	2.1571295
18.65183785238201	4.862584	2.2051268
18.669599588018617	4.6134877	2.1479032
18.68736177621737	4.5601716	2.1354558
18.705124417439652	4.5515766	2.1334424
18.72288751214696	4.41284	2.100676
18.740651060800886	4.6395226	2.153955
18.758415063863115	4.4150333	2.101198
18.77617952179546	4.5953593	2.143679
18.793944435059814	4.323795	2.0793736
18.811709804118184	4.2887735	2.0709355
18.829475629432675	4.180894	2.0447235
18.8472419114655	3.92217	1.9804469
18.86500865067897	4.0380855	2.0094988
18.88277584753551	3.7040377	1.9245876
18.90054350249763	3.7597013	1.9389949
18.918311616027957	3.455158	1.8588055
18.936080188589226	3.3705842	1.8359151
18.953849220644265	3.0844064	1.7562478
18.971618712656007	2.8842978	1.698322
18.9893886650875	2.796677	1.6723268
19.007159078401887	7.951751	2.819885
19.024929953062408	32.835533	5.73023
19.042701289532435	32.77788	5.7251973
19.060473088275405	25.374025	5.037264
19.07824534975489	2.654644	1.6293079
19.096018074434568	2.6485028	1.6274221
19.113791262778197	2.6015692	1.612938
19.13156491524966	2.600086	1.6124783
19.149339032312945	2.5794811	1.6060764
19.167113614432136	2.5895896	1.6092201
19.184888662071433	2.5745015	1.6045253
19.202664175695123	2.563005	1.6009388
19.220440155767623	2.5745387	1.6045369
19.238216602753447	2.558618	1.5995681
19.2559935171172	2.5409658	1.5940408
19.27377089932361	2.5066693	1.5832465
19.291548749837514	2.4851434	1.5764338
19.309327069123835	2.4870896	1.5770509
19.32710585764763	2.4829462	1.5757368
19.344885115874032	2.5061212	1.5830734
19.362664844268313	2.5219545	1.5880663
19.380445043295822	2.52865	1.590173
19.39822571342203	2.5184717	1.5869694
19.41600685511252	2.4981046	1.5805393
19.43378846883297	2.4868095	1.5769621
19.451570555049173	2.4913874	1.5784129
19.469353114227037	2.4911032	1.5783229
19.48713614683254	2.4806085	1.5749948
19.50491965333182	2.4773095	1.5739471
19.52270363419109	2.4839253	1.5760474
19.540488089876686	2.4605715	1.5686209
19.55827302085503	2.454614	1.5667207
19.576058427592674	2.4973888	1.5803128
19.593844310556282	2.5304723	1.5907458
19.611630670212598	2.5358727	1.5924424
19.629417507028506	2.5439906	1.5949892
19.64720482147098	2.5187354	1.5870525
19.6649926140071	2.5133843	1.5853657
19.682780885104084	2.513978	1.5855529
19.70056963522921	2.5365565	1.5926571
19.718358864849908	2.5397706	1.5936657
19.7361485744337	2.5508902	1.5971507
19.753938764448215	2.5129583	1.5852313
19.771729435361202	2.503583	1.5822715
19.789520587640506	2.4910562	1.578308
19.807312221754092	2.5335462	1.5917118
19.825104338170043	2.5378797	1.5930724
19.842896937356517	2.5498078	1.5968118
19.860690019781824	2.4877422	1.5772578
19.87848358591436	2.4842074	1.5761368
19.896277636222635	2.502491	1.5819263
19.914072171175278	2.4857407	1.5766232
19.931867191241015	2.4155557	1.5542058
19.94966269688869	2.3689463	1.5391382
19.967458688587264	2.3593056	1.5360031
19.985255166805807	2.4181278	1.5550331
20.00305213201348	2.4714603	1.5720879
20.020849584679578	2.4817827	1.5753675
20.038647525273507	2.4559114	1.5671347
20.05644595426477	2.4319875	1.559483
20.07424487212299	2.432377	1.559608
20.092044279317903	2.442639	1.5628945
20.109844176319353	2.4294777	1.5586782
20.127644563597304	2.4400282	1.5620589
20.145445441621817	2.4518797	1.5658479
20.16324681086307	2.4350142	1.5604532
20.181048671791373	2.4124014	1.5531907
20.198851024877122	2.419242	1.5553912
20.216653870590836	2.3973556	1.5483396
20.234457209403146	2.3658838	1.538143
20.252261041784802	2.3491173	1.532683
20.270065368206662	2.3351347	1.5281148
20.287870189139685	2.3552673	1.534688
20.305675505054968	2.3536313	1.5341549
20.323481316423702	2.3471262	1.5320333
20.341287623717207	2.3271217	1.5254906
20.359094427406884	2.3284597	1.5259291
20.376901727964288	2.3409717	1.5300235
20.39470952586107	2.368428	1.5389698
20.41251782156899	2.356117	1.5349648
20.430326615559935	2.329159	1.5261582
20.448135908305886	2.3221126	1.5238479
20.465945700278965	2.327886	1.5257412
20.483755991951384	2.3348978	1.5280372
20.50156678379548	2.3640714	1.5375537
20.519378076283708	2.347731	1.5322307
20.537189869888635	2.3156724	1.5217334
20.55500216508294	2.300832	1.5168494
20.572814962339415	2.2987392	1.5161594
20.59062826213098	2.3380039	1.5290532
20.60844206493066	2.3174393	1.5223138
20.626256371211593	2.3006163	1.5167782
20.644071181447032	2.3021085	1.5172701
20.66188649611036	2.3212907	1.5235783
20.67970231567506	2.3273668	1.525571
20.697518640614742	2.3526719	1.5338422
20.715335471403122	2.3436532	1.5308995
20.73315280851404	2.30081	1.5168421
20.750970652421447	2.2887366	1.5128571
20.768789003599412	2.3071012	1.5189145
20.786607862522136	2.2980237	1.5159234
20.8044272296639	2.268913	1.5062912
20.82224710549913	2.273469	1.5078027
20.84006749050237	2.2716343	1.5071942
20.857888385148268	3.8731575	1.9680339
20.8757097899116	45.99814	6.7821927
20.893531705267254	64.88549	8.055153
20.911354131690224	83.87377	9.158262
20.92917706965566	69.09216	8.31217
20.94700051963877	50.123314	7.079782
20.96482448211493	29.407991	5.4229136
20.982648957559622	4.151786	2.0375931
21.00047394644843	2.260376	1.5034547
21.01829944925707	2.2541516	1.5013832
21.036125466461375	2.2814224	1.5104378
21.053951998537297	2.2973146	1.5156895
21.071779045960906	2.2970827	1.515613
21.089606609208378	2.2831476	1.5110087
21.10743468875603	2.28823	1.5126896
21.12526328508028	2.2266324	1.4921905
21.143092398657675	2.2086902	1.4861662
21.16092202996488	2.2028067	1.4841856
21.17875217947867	2.2178128	1.4892323
21.19658284767596	2.2304866	1.4934814
21.21441403503377	2.2059174	1.4852331
21.232245742029225	2.1537163	1.4675546
21.2500779691396	2.1230402	1.4570656
21.26791071684227	2.11781	1.4552697
21.28574398561475	2.1238465	1.4573423
21.30357777593465	2.1441808	1.4643022
21.321412088279704	2.144715	1.4644846
21.339246923127792	2.1536965	1.4675478
21.357082280956888	2.1296587	1.459335
21.3749181622451	2.1082194	1.4519708
21.392754567470647	2.112626	1.4534875
21.41059149711187	2.1396666	1.4627599
21.42842895164726	2.1472585	1.4653527
21.446266931555378	2.131914	1.4601074
21.464105437314945	2.1128316	1.4535582
21.481944469404798	2.0789578	1.4418591
21.49978402830388	2.0485425	1.431273
21.51762411449127	2.0561905	1.4339423
21.53546472844617	2.076868	1.4411343
21.553305870647876	2.071151	1.4391494
21.571147541575865	2.0624723	1.436131
21.58898974170967	2.0718448	1.4393904
21.60683247152899	2.081822	1.442852
21.62467573151363	2.05209	1.4325118
21.642519522143523	2.03884	1.4278796
21.660363843898722	2.020265	1.4213603
21.6782086972594	2.038818	1.4278718
21.696054082705864	2.0381835	1.4276496
21.713900000718535	2.0261366	1.4234242
21.73174645177795	2.0241745	1.4227349
21.749593436364794	2.0497813	1.4317057
21.767440954959845	2.0562313	1.4339565
21.785289008044032	2.0234766	1.4224895
21.803137596098388	2.0017164	1.4148203
21.820986719604086	2.0308256	1.4250704
21.838836379042412	2.0145652	1.4193538
21.85668657489478	2.0021482	1.4149729
21.87453730764273	1.9844583	1.408708
21.892388577767914	1.9909155	1.4109981
21.91024038575213	1.9881033	1.4100012
21.928092732077285	2.0444756	1.4298515
21.945945617225426	2.0328476	1.4257797
21.963799041678694	1.992626	1.411604
21.981653005919398	31.280352	5.592884
21.999507510429943	78.08819	8.836752
22.01736255569286	73.05801	8.547398
22.035218142190818	4.1580076	2.0391192
22.05307427040661	1.9897267	1.4105767
22.07093094082315	1.990544	1.4108664
22.088788153923474	1.9874729	1.4097776
22.106645910190746	1.9866	1.409468
22.12450421010827	1.9925504	1.4115772
22.142363054159464	1.9883618	1.4100928
22.16022244282787	1.961071	1.4003824
22.178082376597164	1.9357142	1.3912995
22.195942855951145	1.9461396	1.3950411
22.213803881373742	1.9541388	1.3979051
22.231665453349002	1.9605118	1.4001827
22.24952757236111	1.966483	1.4023135
22.26739023889438	1.9906862	1.4109168
22.28525345343323	2.0002499	1.4143019
22.30311721646225	1.9596308	1.3998681
22.320981528466113	1.9729712	1.4046249
22.33884638992964	1.9621705	1.400775
22.356711801337788	1.999534	1.4140488
22.37457776317561	1.970835	1.4038643
22.392444275928337	1.9656627	1.4020209
22.410311340081282	1.9213463	1.3861264
22.428178956119904	1.9242644	1.3871785
22.446047124529805	1.9277421	1.3884315
22.46391584579669	1.9597746	1.3999195
22.481785120406414	1.9717364	1.4041853
22.49965494884496	1.9758195	1.4056385
22.51752533159841	1.9398464	1.3927836
22.53539626915302	1.9144558	1.3836386
22.553267761995137	1.9071492	1.3809958
22.571139810611264	1.9257348	1.3877084
22.589012415488025	1.9777534	1.4063262
22.60688557711216	1.9786186	1.4066337
22.624759295970566	1.9629909	1.4010677
22.642633572550263	1.9479494	1.3956896
22.660508407338362	1.9878986	1.4099286
22.67838380082217	2.0071216	1.4167292
22.696259753489077	1.9770865	1.4060891
22.714136265826614	1.9834346	1.4083446
22.73201333832246	1.9760013	1.4057031
22.74989097146439	1.9763639	1.405832
22.76776916574035	1.8977437	1.3775862
22.785647921638393	1.8814613	1.3716637
22.803527239646712	1.8893956	1.3745528
22.82140712025363	1.9249973	1.3874427
22.839287563947593	1.9353312	1.3911618
22.85716857121719	1.949636	1.3962936
22.875050142551135	1.9504955	1.3966014
22.892932278438277	1.9177603	1.3848323
22.910814979367604	1.906451	1.3807429
22.928698245828222	1.9016422	1.3790004
22.946582078309387	1.9282895	1.3886286
22.96446647730047	1.933745	1.3905916
22.98235144329098	1.9365389	1.3915958
23.000236976770562	1.9582214	1.3993647
23.018123078229	1.9824616	1.4079992
23.03600974815619	1.9579616	1.3992718
23.053896987042194	1.9483067	1.3958175
23.071784795377173	1.9360279	1.3914121
23.08967317365145	1.9096092	1.3818861
23.10756212235546	1.8665328	1.366211
23.125451641979787	1.8976727	1.3775604
23.143341733015134	1.9144717	1.3836443
23.161232395952357	1.9460231	1.3949993
23.179123631282426	1.9313443	1.3897281
23.197015439496468	1.9377803	1.3920418
23.214907821085717	1.9256881	1.3876916
23.23280077654157	1.9271834	1.3882303
23.250694306355538	1.9458922	1.3949524
23.268588411019277	1.9695646	1.4034117
23.28648309102458	1.9349502	1.3910248
23.304378346863356	1.9025952	1.3793459
23.322274179027676	1.8846985	1.3728433
23.340170588009723	1.8986583	1.3779181
23.358067574301852	1.9026028	1.3793486
23.37596513839651	1.920488	1.3858167
23.39386328078629	1.9113882	1.3825296
23.411762001963947	1.9419601	1.3935423
23.429661302422353	1.9328598	1.3902733
23.4475611826545	1.8927497	1.3757724
23.46546164315356	1.8959105	1.3769207
23.48336268441279	1.9080465	1.3813206
23.501264306925638	1.9129257	1.3830856
23.51916651118564	1.8997335	1.3783082
23.537069297686497	1.9273039	1.3882737
23.554972666922037	1.9589047	1.3996087
23.57287661938623	2.0016513	1.4147973
23.59078115557318	1.9818283	1.4077742
23.608686275977128	1.9283298	1.3886431
23.62659198109246	1.8664646	1.3661861
23.6444982714137	1.8721604	1.3682691
23.66240514743549	1.9267443	1.3880721
23.68031260965263	1.9411777	1.3932616
23.698220658560068	1.8899287	1.3747468
23.716129294652845	1.8279815	1.3520286
23.7340385184262	1.8167682	1.3478755
23.75194833037546	1.8429059	1.3575367
23.769858730996123	1.8683356	1.3668708
23.78776972078382	1.8830048	1.3722262
23.80568130023431	1.8687692	1.3670293
23.823593469843495	1.8728725	1.3685293
23.841506230107424	1.8735385	1.3687726
23.859419581522275	1.8667325	1.3662841
23.87733352458438	1.8678828	1.3667051
23.89524805979019	1.8373551	1.3554907
23.913163187636318	1.8643181	1.3654003
23.931078908619508	1.9174298	1.3847129
23.948995223236633	1.9494509	1.3962274
23.966912131984735	1.9327482	1.3902332
23.98482963536096	1.9200999	1.3856766
24.002747733862616	1.9083196	1.3814194
24.020666427987155	1.987266	1.4097042
24.038585718232156	2.0310004	1.4251317
24.056505605095353	2.0554025	1.4336675
24.074426089074617	2.0613186	1.4357293
24.092347170667946	2.0454512	1.4301927
24.110268850373515	2.0464265	1.4305336
24.128191128689586	2.0217612	1.4218864
24.146114006114626	2.026992	1.4237248
24.164037483147187	2.006745	1.4165963
24.181961560286005	2.0529277	1.4328041
24.199886238029926	2.0878453	1.4449378
24.21781151687797	2.0978532	1.4483968
24.235737397329274	2.0572193	1.434301
24.253663879883135	2.0604866	1.4354395
24.271590965038975	2.0703337	1.4388654
24.289518653296376	2.0499406	1.4317614
24.30744694515505	2.0180597	1.4205843
24.32537584111486	1.9812639	1.4075737
24.34330534167581	2.003527	1.41546
24.361235447338046	2.0351205	1.4265765
24.379166158601876	2.0508275	1.4320711
24.39709747596772	2.0039845	1.4156215
24.41502939993615	1.9596533	1.3998761
24.432961931007917	1.9694425	1.4033682
24.450895069683856	1.9771749	1.4061205
24.468828816465	1.9782572	1.4065053
24.4867631718525	1.9854743	1.4090686
24.504698136347656	1.9682763	1.4029527
24.52263371045192	1.9225355	1.3865553
24.540569894666874	1.9218981	1.3863254
24.558506689494266	1.9335117	1.3905077
24.57644409543597	1.9293363	1.3890055
24.594382112994012	1.8972343	1.3774014
24.61232074267057	1.864038	1.3652978
24.630259984967953	1.8747385	1.3692108
24.64819984038863	1.9333239	1.3904402
24.66614030943522	1.952	1.3971399
24.684081392610462	1.9267858	1.3880872
24.702023090417274	1.9194975	1.3854593
24.7199654033587	1.9552282	1.3982948
24.737908331937927	1.9908967	1.4109914
24.755851876658305	2.021212	1.4216934
24.773796038023324	2.0452414	1.4301194
24.79174081653661	2.0929506	1.4467033
24.809686212701962	2.1059165	1.4511776
24.827632227023294	2.0929828	1.4467145
24.8455788600047	2.0794542	1.4420313
24.8635261121504	2.108317	1.4520044
24.88147398396475	2.1326804	1.46037
24.899422475952303	2.1474664	1.4654236
24.917371588617698	2.1243114	1.4575018
24.935321322465768	2.1564708	1.4684927
24.953271678001478	2.259939	1.5033094
24.97122265572994	2.4581432	1.5678467
24.989174256156414	2.8053124	1.6749067
25.00712647978632	3.3098574	1.8193014
25.02507932712521	3.7905424	1.9469315
25.043032798678798	4.259906	2.0639539
25.060986894952933	4.869774	2.2067564
25.078941616453637	5.6512003	2.3772254
25.096896963687055	6.645156	2.57782
25.114852937159508	7.716784	2.77791
25.132809537377444	8.101124	2.8462474
25.150766764847468	8.041778	2.8358028
25.168724620076347	7.5243454	2.743054
25.186683103570985	6.632225	2.5753107
25.204642215838426	5.5252156	2.3505778
25.222601957385894	4.1816792	2.0449154
25.24056232872074	3.1684682	1.7800192
25.25852333035048	2.5780098	1.6056182
25.276484962782778	2.2397482	1.4965788
25.294447226525435	2.124779	1.4576621
25.312410122086423	2.0842843	1.4437051
25.330373649973843	1.9854178	1.4090486
25.348337810695988	1.9203963	1.3857837
25.366302604761245	1.9067416	1.3808482
25.384268032678207	1.9060982	1.3806151
25.40223409495558	1.8544815	1.3617935
25.420200792102257	1.8348882	1.3545804
25.438168124627246	1.8963813	1.3770916
25.45613609303974	1.9619412	1.4006932
25.474104697849057	2.0079885	1.4170351
25.492073939564698	1.9317	1.3898561
25.510043818696285	1.8913562	1.3752658
25.528014335753614	1.8506378	1.3603815
25.54598549124664	1.8308613	1.3530933
25.56395728568544	1.8812991	1.3716046
25.58192971958028	1.9108318	1.3823284
25.59990279344156	1.9226657	1.3866022
25.617876507779833	1.8667921	1.366306
25.635850863105826	1.8278637	1.3519851
25.653825859930386	1.8424118	1.3573546
25.671801498764548	1.911557	1.3825907
25.68977778011949	1.9481438	1.3957592
25.707754704506524	1.9019129	1.3790985
25.725732272437153	1.8726363	1.368443
25.743710484423012	1.8315825	1.3533597
25.761689340975888	1.792584	1.3388741
25.77966884260774	1.7835572	1.3354988
25.797648989830662	1.7962039	1.3402253
25.815629783156922	1.8662903	1.3661224
25.83361122309895	1.8698651	1.3674301
25.85159331016929	1.8383003	1.3558394
25.869576044880695	1.8063172	1.3439931
25.887559427746034	1.8418229	1.3571378
25.90554345927836	1.8266301	1.3515288
25.92352813999086	1.7954873	1.339958
25.94151347039689	1.7767427	1.3329451
25.959499451009965	1.8102344	1.3454496
25.97748608234374	1.8857902	1.3732408
25.995473364912062	1.8894575	1.3745754
26.013461299228904	1.8156637	1.3474656
26.03144988580839	1.7985873	1.3411142
26.04943912516483	1.8004541	1.34181
26.067429017812675	1.7696798	1.3302932
26.085419564266537	1.7684631	1.3298358
26.103410765041186	1.7627851	1.3276992
26.12140262065155	1.7751244	1.332338
26.139395131612723	1.8206055	1.3492981
26.157388298439948	1.8271122	1.3517071
26.17538212164861	1.8493297	1.3599006
26.193376601754295	1.8477738	1.3593284
26.211371739272714	1.8487777	1.3596976
26.229367534719746	1.8209888	1.3494402
26.247363988611433	1.8230823	1.3502157
26.26536110146397	1.8688166	1.3670467
26.283358873793727	1.8654584	1.3658178
26.301357306117204	1.837394	1.3555051
26.319356398951104	1.8236203	1.3504149
26.33735615281224	1.8386335	1.3559623
26.35535656821762	1.8455827	1.3585223
26.373357645684404	1.8670107	1.366386
26.39135938572991	1.9074707	1.3811121
26.409361788871614	1.8473268	1.359164
26.427364855627165	1.7992003	1.3413427
26.445368586514352	1.7609023	1.3269899
26.46337298205115	1.7933254	1.339151
26.48137804275568	1.8287705	1.3523204
26.499383769146217	1.8161054	1.3476295
26.517390161741215	1.8135241	1.3466715
26.53539722105928	1.8419203	1.3571737
26.553404947619182	1.8952092	1.376666
26.571413341939856	1.8908414	1.3750787
26.589422404540397	1.8436537	1.357812
26.60743213594006	1.7637343	1.3280566
26.62544253665827	1.7303708	1.3154355
26.64345360721459	1.7374051	1.3181067
26.66146534812879	1.774516	1.3321096
26.679477759920758	1.7916602	1.3385291
26.69749084311057	1.8052354	1.3435905
26.71550459821847	1.811619	1.345964
26.733519025764842	1.8364413	1.3551536
26.751534126270258	1.8420285	1.3572135
26.769549900255434	1.8526424	1.3611181
26.787566348241267	1.8424268	1.3573602
26.80558347074881	1.8488028	1.3597069
26.823601268299267	1.8357908	1.3549136
26.841619741414036	1.8021976	1.3424596
26.85963889061465	1.7512385	1.3233436
26.877658716422832	1.7606919	1.3269106
26.89567921936045	1.8178861	1.3482901
26.913700399949544	1.8143238	1.3469684
26.93172225871233	1.8166014	1.3478136
26.949744796171174	1.8208067	1.3493727
26.967768012848605	1.8185109	1.3485217
26.98579190926733	1.789948	1.3378894
27.003816485950225	1.7748333	1.3322287
27.021841743420318	1.7476218	1.3219764
27.039867682200814	1.7396944	1.3189747
27.057894302815072	1.7577916	1.3258173
27.07592160578664	1.8126559	1.3463491
27.0939495916392	1.8613038	1.3642961
27.111978260896635	1.8493031	1.3598908
27.13000761408296	1.7992889	1.3413757
27.148037651722397	1.7999926	1.341638
27.166068374339304	1.7974716	1.3406982
27.184099782458215	1.7698578	1.33036
27.20213187660384	1.7845668	1.3358768
27.22016465730105	1.7969334	1.3404975
27.23819812507487	1.8304087	1.352926
27.256232280450533	1.7861925	1.3364851
27.274267123953383	1.7870475	1.336805
27.292302656108987	1.7882886	1.3372691
27.31033887744306	1.8182771	1.348435
27.32837578848146	1.8214997	1.3496295
27.34641338975026	1.7955718	1.3399894
27.364451681775673	1.799417	1.3414235
27.382490665084074	1.8146818	1.3471012
27.400530340202046	1.7889475	1.3375154
27.41857070765629	1.795833	1.3400869
27.436611767973726	1.829739	1.3526784
27.454653521681404	1.7988285	1.3412042
27.472695969306564	1.7942746	1.3395053
27.490739111376627	1.8026619	1.3426324
27.508782948419153	1.8078439	1.3445609
27.526827480961902	1.787329	1.3369102
27.54487270953279	1.865637	1.3658832
27.562918634659898	1.8770396	1.3700509
27.580965256871508	1.7977464	1.3408006
27.599012576696026	1.7259996	1.313773
27.617060594662068	1.7664298	1.329071
27.63510931129842	1.821474	1.34962
27.65315872713401	1.8152192	1.3473006
27.67120884269797	1.8324898	1.3536949
27.68925965851958	1.826	1.3512957
27.707311175128307	1.8668762	1.3663368
27.725363393053787	1.859351	1.3635802
27.74341631282583	1.8379062	1.355694
27.7614699349744	1.8254195	1.3510809
27.77952426002968	1.9595971	1.3998561
27.797579288521973	2.0601437	1.43532
27.815635020981784	2.5652013	1.6016246
27.83369145793979	2.6019764	1.6130643
27.85174859992682	2.412281	1.553152
27.869806447473923	2.290236	1.5133525
27.887865001112267	2.0077212	1.4169408
27.905924261373233	1.9444501	1.3944354
27.92398422878836	1.9137375	1.383379
27.94204490388936	1.8974684	1.3774862
27.96010628720813	1.8702809	1.3675821
27.978168379276728	1.862561	1.3647567
27.9962311806274	1.861232	1.3642697
28.014294691792568	1.8314142	1.3532976
28.0323589133048	1.8394028	1.3562459
28.050423845696887	1.8599703	1.3638073
28.068489489501758	1.8691992	1.3671865
28.086555845252523	1.8924363	1.3756585
28.104622913482487	1.8812147	1.3715738
28.122690694725115	1.8452901	1.3584145
28.14075918951405	1.8398572	1.3564134
28.15882839838312	1.8281319	1.3520843
28.176898321866304	1.8490291	1.3597901
28.1949689604978	1.8860539	1.3733368
28.213040314811945	1.8762876	1.3697765
28.23111238534327	1.8876579	1.3739207
28.249185172626493	1.9086741	1.3815477
28.267258677196473	1.9267402	1.3880707
28.285332899588294	1.8831732	1.3722876
28.303407840337172	1.8770908	1.3700696
28.321483499978545	1.8529558	1.3612332
28.33955987904799	1.8791746	1.3708299
28.357636978081285	1.9376109	1.3919809
28.37571479761439	2.0022902	1.4150231
28.393793338183425	2.001247	1.4146544
28.41187260032469	2.0048647	1.4159324
28.429952584574686	1.9741343	1.405039
28.448033291470065	1.9632571	1.4011627
28.46611472154769	2.0249393	1.4230037
28.484196875344566	2.0435834	1.4295396
28.502279753397914	1.9939659	1.4120786
28.52036335624511	1.9525436	1.3973345
28.538447684423716	2.0060558	1.416353
28.556532738471482	2.0589564	1.4349064
28.574618518926325	1.9895737	1.4105225
28.59270502632635	1.9461719	1.3950527
28.61079226120985	1.9780762	1.406441
28.628880224115274	1.9831073	1.4082284
28.646968915581287	1.985557	1.4090979
28.66505833614671	2.0239744	1.4226645
28.68314848635055	2.0365622	1.4270817
28.701239366732004	2.032281	1.4255809
28.71933097783044	2.0565605	1.4340713
28.737423320185403	2.1204526	1.4561774
28.75551639433665	2.103138	1.45022
28.773610200824074	2.1097379	1.4524937
28.791704740187793	2.0714037	1.4392372
28.80980001296809	2.0447433	1.4299452
28.827896019705413	2.0623279	1.4360807
28.845992760940433	2.11491	1.454273
28.86409023721397	2.1199946	1.4560201
28.88218844906704	2.1785452	1.4759896
28.900287397040845	2.25237	1.5007899
28.918387081676755	2.2569616	1.5023187
28.936487503516343	2.2683806	1.5061144
28.954588663101365	2.3274186	1.5255879
28.97269056097374	2.3415864	1.5302243
28.990793197675597	2.376062	1.541448
29.00889657374923	2.354415	1.5344102
29.027000689737125	2.393985	1.5472507
29.04510554618196	2.3946466	1.5474646
29.06321114362659	2.4310715	1.5591893
29.08131748261405	2.4768898	1.5738138
29.099424563687567	2.5302513	1.5906763
29.11753238739057	2.5211673	1.5878184
29.13564095426663	2.498666	1.580717
29.15375026485954	2.5718522	1.6036996
29.171860319713275	2.5884135	1.6088547
29.18997111937199	2.6120665	1.6161889
29.20808266438002	2.657289	1.6301193
29.226194955281898	2.700284	1.643254
29.244307992622335	2.7497146	1.6582264
29.26242177694624	2.7308643	1.6525327
29.2805363087987	2.749711	1.6582253
29.29865158872498	2.8137252	1.6774162
29.316767617270557	2.9097865	1.7058096
29.334884394981064	2.9073403	1.7050924
29.353001922402367	2.9502919	1.7176414
29.37112020008047	3.0521903	1.7470518
29.389239228561596	3.1387336	1.7716471
29.407359008392152	3.3411214	1.8278735
29.42547954011872	3.8269365	1.9562557
29.44360082428809	4.5108647	2.1238797
29.46172286144722	5.4952145	2.3441873
29.479845652143283	7.014216	2.6484365
29.497969196923606	9.104253	3.0173254
29.516093496335728	11.647858	3.4128957
29.5342185509274	14.373579	3.7912502
29.55234436124651	16.537645	4.0666504
29.570470927841175	17.80764	4.21991
29.588598251259686	17.500696	4.1833835
29.60672633205055	16.080744	4.0100803
29.624855170762405	13.982514	3.73932
29.642984767944146	11.235826	3.3519883
29.66111512414481	8.659105	2.9426358
29.67924623991366	6.498844	2.549283
29.697378115800138	4.9905024	2.2339432
29.71551075235387	4.114089	2.0283217
29.733644150124675	3.7275436	1.9306848
29.751778309662576	3.553286	1.8850162
29.769913231517766	3.3751233	1.8371508
29.78804891624066	3.3318532	1.8253365
29.806185364381818	3.337133	1.8267821
29.82432257649206	3.37494	1.837101
29.842460553122333	3.3529124	1.8310959
29.86059929482382	3.3012738	1.8169408
29.878738802147872	3.2869585	1.8129971
29.896879075646048	3.3699903	1.8357533
29.915020115870114	3.28798	1.8132788
29.933161923371976	3.2350113	1.7986137
29.951304498703777	3.2965047	1.8156279
29.969447842417857	3.2513995	1.8031638
29.987591955066733	3.2340589	1.7983489
30.005736837203123	3.2148476	1.7929996
30.023882489379943	3.2121677	1.7922522
30.04202891215028	3.1777928	1.7826365
30.060176106067455	3.20643	1.7906507
30.078324071684946	3.1701746	1.7804984
30.09647280955646	3.1168668	1.765465
30.114622320235863	3.075118	1.7536014
30.132772604277257	3.07946	1.754839
30.1509236622349	3.0856616	1.7566051
30.16907549466328	3.0504556	1.7465553
30.18722810211705	3.059426	1.7491215
30.205381485151097	3.0658312	1.7509515
30.22353564432045	3.074697	1.7534814
30.241690580180403	3.0682776	1.75165
30.25984629328638	3.032952	1.7415372
30.278002784194037	3.052108	1.7470284
30.296160053459246	3.0346363	1.7420207
30.314318101638033	2.999382	1.7318724
30.332476929286646	2.9068122	1.7049376
30.35063653696153	2.856635	1.6901582
30.368796925219307	2.8032112	1.6742793
30.386958094616844	2.86745	1.6933546
30.40512004571115	2.8958564	1.7017215
30.423282779059463	2.8886185	1.6995937
30.441446295219233	2.8699296	1.6940867
30.459610594748067	2.892645	1.7007778
30.47777567820382	2.8944435	1.7013065
30.495941546144504	2.9009128	1.7032067
30.51410819912835	2.8342788	1.6835316
30.532275637713795	2.7198923	1.6492096
30.55044386245946	2.6703765	1.6341287
30.56861287392416	2.7264955	1.6512103
30.586782672666956	2.7708602	1.6645901
30.604953259247047	2.7781222	1.66677
30.623124634223885	2.776176	1.6661861
30.641296798157075	2.8147779	1.67773
30.659469751606462	2.8257127	1.6809856
30.677643495132074	2.790526	1.6704867
30.695818029294152	2.7591052	1.6610554
30.713993354653116	2.7650023	1.6628296
30.73216947176962	2.732143	1.6529195
30.75034638120448	2.6823373	1.6377842
30.768524083518756	2.6908529	1.6403819
30.786702579273673	2.7231421	1.6501945
30.80488186903069	2.8139076	1.6774706
30.82306195335144	2.9963462	1.7309958
30.841242832797782	3.163725	1.7786863
30.85942450793176	3.3884475	1.8407736
30.877606979315637	3.6702776	1.9157969
30.895790247511883	4.051395	2.0128076
30.913974313083134	4.4941907	2.1199505
30.932159176592283	4.7648244	2.1828477
30.95034483860237	4.8011937	2.1911626
30.968531299676698	4.570316	2.1378298
30.98671856037873	4.260559	2.0641122
31.00490662127215	3.8333926	1.9579052
31.023095482920848	3.4151409	1.84801
31.04128514588892	3.0668674	1.7512474
31.059475610740662	2.7721732	1.6649845
31.07766687804056	2.580376	1.6063548
31.09585894835335	2.5079546	1.5836523
31.11405182224393	2.4752579	1.5732952
31.132245500277417	2.438076	1.5614339
31.15043998301914	2.464823	1.5699755
31.168635271034628	2.4220824	1.5563041
31.18683136488964	2.4278147	1.5581447
31.20502826515008	2.4902399	1.5780494
31.223225972382135	2.449115	1.5649649
31.241424487152155	2.4151068	1.5540614
31.259623810026692	2.4503937	1.5653733
31.27782394157253	2.4993854	1.5809444
31.296024882356644	2.4886448	1.577544
31.314226632946237	2.5065134	1.5831972
31.332429193908684	2.4551914	1.566905
31.350632565811598	2.3557544	1.5348467
31.368836749222787	2.3184137	1.5226338
31.387041744710295	2.4644203	1.5698472
31.40524755284232	2.4975705	1.5803704
31.423454174187317	2.4771852	1.5739076
31.441661609313922	2.4104145	1.5525509
31.459869858791002	2.4435477	1.5631851
31.478078923187628	2.3848376	1.544292
31.496288803073064	2.328316	1.525882
31.514499499016807	2.4187222	1.5552242
31.532711011588546	2.4287882	1.558457
31.550923341358178	2.3259575	1.525109
31.56913648889584	2.2585742	1.5028554
31.587350454771844	2.282187	1.5106909
31.605565239556732	2.3166203	1.5220448
31.62378084382127	2.327909	1.5257486
31.641997268136382	2.2918696	1.5138922
31.660214513073274	2.2217507	1.4905539
31.67843257920331	2.2238488	1.4912574
31.6966514670981	2.240757	1.4969158
31.71487117732944	2.2459753	1.4986578
31.733091710469346	2.2666626	1.505544
31.751313067090052	2.3108532	1.5201491
31.769535247764008	2.247148	1.4990491
31.787758253063878	2.2156801	1.4885161
31.805982083562526	2.2662337	1.5054015
31.824206739833024	2.2965746	1.5154454
31.84243222244869	2.3332474	1.527497
31.860658531983013	2.2770724	1.5089972
31.878885669009737	2.2887487	1.5128611
31.897113634102784	2.2521417	1.5007137
31.91534242783632	2.2352653	1.4950804
31.933572050784694	2.2522058	1.500735
31.951802503522508	2.2087066	1.4861718
31.970033786624548	2.2007663	1.483498
31.988265900665834	2.1695511	1.4729396
32.006498846221575	2.1551578	1.4680456
32.02473262386724	2.1716604	1.4736555
32.04296723417845	2.1648002	1.471326
32.0612026777311	2.1528924	1.4672738
32.07943895510129	2.1569567	1.4686581
32.097676066865304	2.1833177	1.4776053
32.115914013599685	2.1685135	1.4725873
32.13415279588115	2.1143496	1.4540803
32.152392414286666	2.0800543	1.4422393
32.1706328693934	2.1060085	1.4512093
32.18887416177875	2.072872	1.4397472
32.20711629202032	2.0264716	1.4235419
32.225359260695924	2.0508175	1.4320675
32.243603068383614	2.0857701	1.4442196
32.26184771566166	2.0857372	1.4442081
32.28009320310852	2.1373248	1.4619592
32.2983395313029	2.122298	1.456811
32.31658670082372	2.0550294	1.4335374
32.33483471225012	2.0782387	1.4416097
32.35308356616143	2.148	1.4656057
32.371333263137245	2.0567434	1.4341351
32.38958380375734	1.9613302	1.400475
32.407835188601744	2.0076008	1.4168983
32.42608741825067	2.147367	1.4653897
32.444340493284585	2.1189966	1.4556774
32.46259441428416	2.0438602	1.4296364
32.48084918183028	2.0594985	1.4350953
32.49910479650405	2.0547812	1.4334508
32.51736125888683	2.0050747	1.4160066
32.53561856956014	2.0083237	1.4171534
32.5538767291058	2.0301142	1.4248208
32.572135738105764	2.0095217	1.417576
32.59039559714228	2.015526	1.4196923
32.608656306797776	2.0851119	1.4439917
32.62691786765491	2.0544264	1.4333271
32.645180280296586	2.0203075	1.4213753
32.663443545305896	1.9556293	1.3984382
32.68170766326619	1.9327335	1.3902279
32.69997263476099	1.9646829	1.4016715
32.7182384603741	2.0325093	1.425661
32.7365051406895	2.0240686	1.4226977
32.75477267629144	1.9873904	1.4097483
32.77304106776434	1.922964	1.3867098
32.79131031569289	2.0020666	1.414944
32.809580420661966	2.0211632	1.4216762
32.827851383256714	1.9748164	1.4052817
32.84612320406245	2.0130482	1.4188193
32.86439588366476	2.0698795	1.4387076
32.88266942264945	2.017528	1.4203972
32.9009438216025	2.0794258	1.4420215
32.9192190811102	2.1112301	1.4530072
32.937495201758985	2.0413222	1.4287485
32.95577218413556	2.0073698	1.4168167
32.974050028826866	1.9921498	1.4114354
32.992328736420035	1.9627408	1.4009786
33.010608307502444	1.9703832	1.4037033
33.02888874266169	1.9899788	1.4106661
33.047170042485604	1.939638	1.3927089
33.06545220756225	1.9460962	1.3950255
33.083735238479896	1.9988213	1.4137968
33.10201913582707	1.9982425	1.4135921
33.12030390019248	1.90958	1.3818755
33.138589532165135	1.8809342	1.3714715
33.15687603233419	1.882004	1.3718615
33.17516340128909	1.8768857	1.3699948
33.19345163961947	1.9180015	1.3849193
33.211740747915215	1.965551	1.4019811
33.23003072676643	1.941386	1.3933363
33.248321576763466	1.9126881	1.3829997
33.266613298496885	1.9681957	1.402924
33.28490589255747	1.9013335	1.3788885
33.30319935953626	1.8801535	1.3711869
33.32149370002451	1.9298398	1.3891867
33.339788914613706	2.057613	1.4344382
33.358085003895575	2.1242428	1.4574783
33.376381968462034	2.1387768	1.4624557
33.39467980890529	2.0553493	1.433649
33.41297852581774	1.986325	1.4093704
33.43127811979204	1.986085	1.4092853
33.44957859142105	2.0201454	1.4213182
33.467879941297866	1.9009635	1.3787544
33.486182170015844	1.8854858	1.37313
33.50448527816853	1.8670931	1.3664161
33.522789266349754	1.8152939	1.3473284
33.541094135153514	1.8413595	1.356967
33.55939988517411	1.8748806	1.3692628
33.57770651700602	1.8964565	1.377119
33.59601403124398	1.9701217	1.4036102
33.61432242848296	1.9848293	1.4088397
33.632631709318154	1.9646238	1.4016504
33.650941874344994	1.9220068	1.3863646
33.66925292415916	1.9188738	1.3852342
33.68756485935654	1.9388285	1.3924183
33.70587768053328	1.9466535	1.3952253
33.724191388285746	1.887058	1.3737023
33.74250598321054	1.7851278	1.3360868
33.760821465904506	1.7842157	1.3357453
33.77913783696474	1.8280163	1.3520415
33.79745509698852	1.87373	1.3688426
33.815773246573414	1.9835706	1.4083929
33.8340922863172	2.0660338	1.4373704
33.852412216817896	1.981586	1.4076881
33.87073303867377	2.0202172	1.4213434
33.889054752483304	2.021675	1.4218562
33.907377358845245	1.9645157	1.4016118
33.92570085835853	1.8456289	1.3585392
33.94402525162239	1.8014553	1.342183
33.96235053923627	1.8643739	1.3654208
33.980676721799824	1.9500929	1.3964573
33.999003799912984	1.9336115	1.3905436
34.01733177417592	1.9340196	1.3906903
34.03566064518901	1.8960371	1.3769666
34.0539904135529	1.8058264	1.3438104
34.07232107986846	1.798781	1.3411864
34.090652644736785	1.9182446	1.385007
34.108985108759235	1.8988864	1.3780009
34.12731847253742	1.7507371	1.3231542
34.14565273667313	1.8172221	1.3480438
34.16398790176847	2.0783572	1.4416509
34.18232396842574	2.1442258	1.4643176
34.20066093724749	1.9845704	1.4087478
34.21899880883651	1.8852702	1.3730514
34.23733758379583	1.8921441	1.3755523
34.25567726272874	2.043998	1.4296846
34.27401784623872	2.157351	1.4687923
34.29235933492957	2.1670806	1.4721007
34.31070172940526	2.0041537	1.4156814
34.32904503027003	1.8876623	1.3739222
34.347389238128386	1.8953964	1.3767339
34.36573435358502	1.9238666	1.3870353
34.38408037724492	2.0141459	1.419206
34.402427309713296	2.0113266	1.4182124
34.42077515159559	1.9846863	1.4087889
34.43912390349752	1.9661213	1.4021845
34.45747356602499	1.9294945	1.3890624
34.47582413978423	1.9177725	1.3848367
34.49417562538163	1.950147	1.3964766
34.51252802342388	1.978776	1.4066898
34.53088133451789	1.9273903	1.3883048
34.54923555927084	1.8821607	1.3719186
34.567590698290104	1.7667127	1.3291775
34.58594675218336	1.8933665	1.3759966
34.6043037215585	1.9557722	1.3984892
34.62266160702365	1.9911793	1.4110916
34.641020409187234	2.0377657	1.4275033
34.65938012865785	1.9710257	1.4039322
34.677740766044394	1.9078254	1.3812405
34.69610232195598	2.0866976	1.4445406
34.714464797002016	2.1503868	1.4664197
34.73282819179208	2.134649	1.4610438
34.751192506936064	2.0960658	1.4477797
34.76955774304408	2.0025983	1.4151319
34.7879239007265	1.9441516	1.3943284
34.80629098059391	1.8961703	1.377015
34.824658983257194	1.9544839	1.3980286
34.843027909327446	2.0707846	1.4390221
34.86139775941603	2.123761	1.457313
34.879768534134534	2.0192876	1.4210163
34.89814023409483	1.9472997	1.3954568
34.91651285990901	1.9314576	1.389769
34.93488641218944	1.8203555	1.3492055
34.95326089154871	1.9641764	1.4014908
34.97163629859967	1.9857017	1.4091493
34.99001263395542	1.8742408	1.3690292
35.00838989822934	1.8358787	1.354946
35.02676809203499	1.8721008	1.3682474
35.04514721598624	2.0662587	1.4374486
35.063527270697215	2.1026545	1.4500532
35.081908256782256	1.9265506	1.3880024
35.10029017485597	1.862551	1.3647531
35.11867302553321	1.8197848	1.348994
35.137056809429104	1.8307079	1.3530365
35.155441527159006	1.8580812	1.3631145
35.173827179338524	2.1513393	1.4667444
35.19221376658354	2.1577778	1.4689376
35.21060128951017	1.9759021	1.4056679
35.2289897487348	1.8693502	1.3672419
35.24737914487405	1.8634388	1.3650783
35.26576947854479	1.9086645	1.3815442
35.28416075036418	1.7892172	1.3376162
35.30255296094958	1.7768784	1.332996
35.32094611091867	1.7263083	1.3138906
35.33934020088932	1.6508527	1.2848551
35.35773523147969	1.9814321	1.4076335
35.3761312033082	2.243979	1.4979917
35.394528116993506	2.2310996	1.4936866
35.41292597315452	2.2253432	1.4917585
35.431324772410434	2.036757	1.42715
35.449724515380666	2.2481105	1.4993701
35.46812520268491	2.4659624	1.5703384
35.486526834943106	2.3731248	1.540495
35.504929412775454	1.9397676	1.3927554
35.52333293680242	1.5912378	1.2614428
35.54173740764471	1.6180587	1.2720294
35.560142825923286	1.8464874	1.3588551
35.5785491922594	1.783369	1.3354284
35.59695650727454	1.6015368	1.2655184
35.61536477159042	1.0391313	1.019378
