0.008763373481513119	0.0	0.0
0.026290120649546365	0.17179282	0.414479
0.043816868432600686	0.21030399	0.45858914
0.06134361724069026	0.2828581	0.5318441
0.07887036748382949	0.25503236	0.50500727
0.0963971195720331	0.15008548	0.38740867
0.11392387391531617	0.059880782	0.2447055
0.1314506309236943	0.0	0.0
0.1489773910071836	0.036462735	0.19095218
0.16650415457580078	0.11411465	0.3378086
0.18403092203956356	0.11839032	0.34407896
0.20155769380849	0.17086425	0.4133573
0.2190844702925996	0.14958118	0.38675725
0.2366112519019124	0.11544031	0.33976507
0.2541380390464497	0.10592062	0.32545447
0.27166483213623416	0.03466489	0.1861851
0.28919163158128947	0.051948622	0.22792241
0.3067184377916406	0.089740254	0.29956678
0.324245251177314	0.12615158	0.35517824
0.34177207214833777	0.16483986	0.40600476
0.3592989011147415	0.15415278	0.39262295
0.37682573848655654	0.13824275	0.3718101
0.39435258467381573	0.13903032	0.3728677
0.41187944008655414	0.13464648	0.36694205
0.42940630513480854	0.15432593	0.3928434
0.446933180228618	0.17194045	0.41465703
0.4644600657780234	0.14946686	0.38660944
0.48198696219306775	0.18461545	0.429669
0.49951386988379676	0.17311311	0.41606864
0.5170407892602581	0.16375205	0.40466288
0.5345677207325025	0.12603281	0.35501102
0.5520946647105822	0.121959575	0.3492271
0.5696216216045534	0.14124288	0.37582293
0.5871485918244737	0.14842033	0.3852536
0.6046755757804043	0.15371041	0.39205918
0.6222025738824094	0.19482818	0.44139346
0.6397295865405557	0.19388686	0.44032586
0.6572566141649129	0.20181419	0.44923735
0.6747836571655547	0.19169948	0.43783498
0.6923107159525568	0.16987512	0.4121591
0.7098377909359992	0.17099354	0.41351366
0.7273648825259653	0.1807976	0.42520303
0.7448919911325411	0.20631154	0.4542153
0.762419117165817	0.18621136	0.43152216
0.7799462610358868	0.16319074	0.40396872
0.7974734231528482	0.11812458	0.34369257
0.8150006039268024	0.15761761	0.39701086
0.8325278037678551	0.17007123	0.41239694
0.8500550230861152	0.22712533	0.4765767
0.8675822622916969	0.24661584	0.49660432
0.8851095217947171	0.25888968	0.508812
0.9026368020052984	0.27196345	0.5215011
0.9201641033335665	0.26462135	0.5144136
0.9376914261896523	0.28780293	0.5364727
0.9552187709836915	0.24390954	0.493872
0.9727461381258234	0.20661455	0.45454875
0.990273528026193	0.19280703	0.43909797
1.0078009410949496	0.22106484	0.47017533
1.0253283777422473	0.22391875	0.47320053
1.0428558383782454	0.2423286	0.49226883
1.0603833234131086	0.26952866	0.5191615
1.0779108332570058	0.38227564	0.6182844
1.0954383683201119	0.4180442	0.6465634
1.112965929012607	0.43055716	0.6561685
1.1304935157446763	0.46889985	0.6847626
1.1480211289265108	0.4924227	0.70172834
1.1655487689683062	1.4643143	1.2100886
1.1830764362802655	1.7806028	1.3343923
1.200604131272596	2.1367457	1.4617611
1.2181318543555117	2.2521577	1.5007191
1.235659605939232	2.2921524	1.5139856
1.253187386433982	3.9740303	1.993497
1.270715196249994	6.446546	2.539005
1.2882430357975057	11.893382	3.4486783
1.3057709054867608	16.813137	4.1003823
1.3232988057280106	22.664701	4.760746
1.3408267369315112	27.533443	5.247232
1.358354699507526	31.198832	5.5855913
1.3758826938663256	35.50312	5.9584494
1.3934107204181858	37.299866	6.107362
1.410938779573391	37.649384	6.1359096
1.4284668717422309	38.18828	6.1796665
1.4459949973350033	37.98037	6.162822
1.4635231567620117	38.168148	6.1780376
1.4810513504335687	37.323154	6.1092677
1.4985795787599925	36.44337	6.0368347
1.5161078421516088	35.820488	5.985022
1.5336361410187505	34.8271	5.9014487
1.5511644757717598	34.960594	5.9127483
1.5686928468209842	36.087387	6.007278
1.58622125457678	36.930992	6.0770874
1.6037496994495108	37.9896	6.1635704
1.621278181849548	37.372593	6.1133127
1.6388067021872719	37.86778	6.1536803
1.6563352608730693	37.584465	6.130617
1.673863858317336	37.142086	6.094431
1.6913924949304753	36.375202	6.0311856
1.7089211711228998	35.004166	5.916432
1.7264498873050296	33.87648	5.8203506
1.7439786438872935	33.007427	5.745209
1.7615074412801288	32.248188	5.6787486
1.779036279893981	31.536291	5.6157184
1.796565160139305	30.439503	5.5172005
1.814094082426564	29.77681	5.4568133
1.8316230471662298	28.905043	5.376341
1.849152054768784	28.44034	5.3329487
1.8666811056447168	27.96924	5.288595
1.8842102002045273	27.328508	5.227668
1.901739338858724	26.566175	5.1542387
1.9192685220178245	26.014162	5.100408
1.9367977500923557	25.450232	5.044822
1.9543270234928547	24.948421	4.9948397
1.971856342629867	24.313696	4.930892
1.9893857079139496	23.41459	4.8388624
2.006915119755667	22.71859	4.7664022
2.0244445785655945	22.224808	4.714319
2.0419740847543175	22.167315	4.7082176
2.0595036387324317	21.821741	4.671375
2.0770332409105414	21.27888	4.6129036
2.094562891699263	20.780777	4.5585938
2.1120925915092217	20.247986	4.4997764
2.129622340751053	19.771378	4.4465017
2.1471521398354043	187.96042	13.709866
2.1646819891729323	444.2054	21.076181
2.182211889174303	440.42804	20.986378
2.1997418402501974	453.0492	21.284952
2.2172718428113023	432.92465	20.80684
2.234801897268317	321.0637	17.918251
2.2523320040319548	17.492668	4.1824236
2.269862163512935	17.175304	4.14431
2.287392376121992	16.847538	4.104575
2.304922642269869	16.6074	4.0752177
2.322452962367322	16.244097	4.0303965
2.3399833368251164	15.981819	3.9977267
2.357513766054032	15.640981	3.954868
2.3750442504648586	15.305664	3.9122455
2.3925747904683963	14.9255085	3.8633547
2.410105386475459	14.591949	3.819941
2.4276360388968707	14.24617	3.77441
2.445166748143469	14.081214	3.7524943
2.4626975146261025	13.891296	3.727103
2.4802283387556323	13.594407	3.6870594
2.4977592209429305	13.311124	3.6484413
2.5152901615988825	13.007732	3.6066234
2.5328211611343865	12.80778	3.578796
2.5503522199603523	12.625532	3.5532424
2.5678833384877024	12.420737	3.5243065
2.5854145171273712	12.427556	3.5252738
2.6029457562903064	12.181784	3.4902413
2.620477056387469	11.891581	3.4484172
2.6380084178298326	11.731022	3.425058
2.655539841028383	11.438146	3.3820329
2.673071326394119	11.313927	3.3636181
2.6906028743380523	11.128471	3.3359363
2.708134485271211	11.035136	3.3219175
2.7256661596046325	11.103004	3.332117
2.743197897749369	10.943053	3.3080287
2.760729700116486	10.890611	3.3000925
2.778261567117063	10.544799	3.2472756
2.795793499162193	10.315519	3.2117782
2.8133254966629817	10.194902	3.1929457
2.830857560030551	10.024387	3.1661313
2.8483896896760337	10.055179	3.1709902
2.865921886010578	9.879554	3.1431758
2.883454149445347	9.65625	3.1074507
2.9009864803915177	9.39471	3.065079
2.91851887926028	9.190598	3.0315998
2.9360513464628384	9.042502	3.0070753
2.953583882410413	8.995236	2.999206
2.9711164875142373	8.911067	2.985141
2.9886491621855606	8.877903	2.979581
3.0061819068356455	8.820827	2.9699876
3.023714721875769	8.660611	2.9428916
3.041247607717225	8.464223	2.9093337
3.0587805647713213	8.352158	2.8900099
3.0763135934493806	8.354937	2.8904908
3.0938466941627407	8.155905	2.8558545
3.1113798673227544	8.119582	2.849488
3.1289131133407904	7.936377	2.8171575
3.1464464326282315	7.778897	2.7890673
3.1639798255964786	7.7469606	2.7833362
3.1815132926569443	7.7094746	2.7765942
3.1990468342210603	7.7753067	2.7884238
3.216580450700272	7.731259	2.7805142
3.2341141425060416	7.6816792	2.7715843
3.251647910049847	7.702347	2.7753103
3.2691817537431813	7.5994067	2.7567022
3.286715673997555	7.383046	2.7171762
3.3042496712244938	7.1718674	2.6780343
3.32178374583554	7.0080624	2.6472745
3.339317898242251	7.1153865	2.667468
3.3568521288562034	7.093262	2.663318
3.3743864380889876	7.0481997	2.6548445
3.3919208263522127	6.9781976	2.6416278
3.4094552940575023	6.804276	2.6085007
3.4269898416164972	6.748023	2.5976958
3.444524469440858	6.6826897	2.58509
3.4620591779422587	6.67953	2.5844786
3.479593967532391	6.651966	2.5791407
3.4971288386229658	6.529303	2.5552502
3.5146637916257086	6.457013	2.5410655
3.5321988269523628	6.4873767	2.5470328
3.5497339450146903	6.467669	2.5431612
3.5672691462244708	6.427672	2.5352855
3.5848044309934988	6.297672	2.5095162
3.60233979973359	6.3685365	2.523596
3.619875252856575	6.3482113	2.5195656
3.6374107907743034	6.3137856	2.5127246
3.6549464138986427	6.2142944	2.4928486
3.6724821226414788	6.2504926	2.5000985
3.690017917414714	6.3768024	2.525233
3.7075537986302702	6.531373	2.555655
3.7250897667000857	6.577177	2.5646007
3.7426258220361235	6.6654854	2.5817602
3.7601619650503553	6.93133	2.632742
3.777698196154779	7.4881773	2.7364535
3.7952345157614067	8.568293	2.9271646
3.8127709242822716	9.25348	3.0419533
3.830307422129425	11.422535	3.379724
3.847844009714936	30.227285	5.497935
3.8653806874508954	97.86501	9.892674
3.882917455749409	97.266846	9.862395
3.900454315022606	97.04173	9.850976
3.917991265682631	41.53197	6.4445305
3.9355283081416506	11.024816	3.3203638
3.9530654428118495	8.736173	2.9557018
3.970602670105433	7.50882	2.7402227
3.9881399904346244	6.6281466	2.5745187
4.005677404211669	6.569055	2.563017
4.023214911848827	6.547101	2.5587304
4.0407525137583855	6.6103954	2.571069
4.058290210352644	6.580761	2.5652993
4.075828002043927	6.53332	2.556036
4.0933658892445814	6.469258	2.5434735
4.110903872366966	6.386714	2.527195
4.128441951823468	6.251196	2.5002391
4.145980128026488	6.1440377	2.4787169
4.163518401388452	6.005264	2.450564
4.181056772321807	6.001972	2.4498923
4.1985952412390155	6.042689	2.458188
4.216133808552567	6.1418395	2.4782734
4.233672474674966	6.2642255	2.5028434
4.251211240018741	6.4770017	2.5449953
4.268750104996445	6.7334647	2.594892
4.286289070020643	7.724094	2.7792253
4.303828135503928	9.30931	3.0511162
4.3213673018589125	29.607668	5.441293
4.3389065694982305	90.76206	9.526913
4.356445938834537	166.0821	12.887284
4.3739854102805085	171.54839	13.097648
4.391524984248844	172.43591	13.131486
4.409064661152262	136.51457	11.683945
4.426604441403504	96.94565	9.846098
4.444144325415337	76.28703	8.734245
4.461684313600543	22.303186	4.722625
4.47922440637193	22.77942	4.772779
4.496764604142329	20.92977	4.5749063
4.5143049073245916	18.905027	4.347991
4.531845316331589	16.720194	4.0890336
4.5493858315762195	13.632084	3.6921651
4.566926453471405	11.371289	3.3721342
4.584467182430081	9.403328	3.0664847
4.602008018865218	8.34302	2.8884287
4.619548963189798	7.6209273	2.7606027
4.637090015816834	7.0108576	2.6478024
4.654631177159353	6.7305284	2.5943263
4.672172447630417	6.502428	2.549986
4.689713827643102	6.3352337	2.516989
4.7072553176105085	6.135635	2.4770215
4.724796917945764	5.935702	2.4363296
4.742338629062015	5.870047	2.422818
4.759880451372434	5.8608956	2.4209287
4.777422385290215	5.8463483	2.4179223
4.794964431228581	5.8099937	2.4103928
4.812506589600768	5.6844563	2.3842099
4.830048860820047	5.5826054	2.3627539
4.847591245299709	5.5771008	2.3615887
4.8651337434530655	5.618973	2.3704371
4.882676355693457	5.666872	2.3805194
4.900219082434242	5.672982	2.3818023
4.917761924088813	5.6165824	2.369933
4.935304881070575	5.5935946	2.3650782
4.952847953792969	5.5313864	2.3518898
4.970391142669449	5.4465337	2.333781
4.9879344481135055	5.4734054	2.339531
5.005477870538642	5.507602	2.3468282
5.023021410358394	5.4731636	2.3394794
5.040565067986324	5.4017997	2.3241773
5.05810884383601	5.429309	2.3300877
5.075652738321066	5.44162	2.332728
5.09319675185512	5.4663553	2.338024
5.110740884851836	5.4397216	2.3323212
5.128285137724894	5.3937345	2.3224416
5.145829510888007	5.3263574	2.3078902
5.163374004754908	5.3056874	2.3034077
5.1809186197393595	5.335756	2.3099256
5.198463356255145	5.3551497	2.3141196
5.216008214716077	5.366419	2.316553
5.233553195535998	5.3649697	2.3162405
5.251098299128764	5.412743	2.3265302
5.268643525908272	5.4204793	2.3281922
5.286188876288432	5.3933163	2.3223515
5.3037343506831895	5.2846484	2.2988362
5.32127994950651	5.2277827	2.2864344
5.3388256731723915	5.2151527	2.283671
5.356371522094851	5.1985464	2.2800322
5.373917496687938	5.2276425	2.286404
5.391463597365729	5.2481055	2.2908745
5.40900982454232	5.2160506	2.2838674
5.426556178631843	5.1694465	2.2736416
5.444102660048449	5.108765	2.2602577
5.4616492692063225	5.099704	2.2582524
5.479196006519669	5.1485	2.2690306
5.496742872402727	5.14515	2.2682924
5.514289867269756	5.1323614	2.2654715
5.531836991535049	5.136895	2.2664719
5.549384245612924	5.2148356	2.2836015
5.566931629917724	5.2469654	2.2906256
5.584479144863822	5.2836423	2.2986174
5.6020267908656205	5.281979	2.2982557
5.619574568337545	5.3309627	2.3088877
5.637122477694054	5.3030844	2.3028426
5.654670519349629	5.212566	2.2831044
5.672218693718784	5.150769	2.2695305
5.689767001216059	5.195895	2.2794507
5.707315442256021	5.2425957	2.2896714
5.724864017253266	5.3056707	2.303404
5.7424127266224225	5.2756085	2.2968693
5.75996157077814	5.1886573	2.2778625
5.777510550135105	5.151052	2.269593
5.795059665108022	5.2102933	2.2826066
5.812608916111639	5.2392607	2.288943
5.830158303560715	5.342311	2.311344
5.847707827870055	5.316344	2.3057199
5.86525748945448	5.427309	2.3296585
5.8828072887288485	5.585293	2.3633225
5.900357226108044	5.6719003	2.381575
5.917907302006979	5.7241406	2.3925176
5.9354575168406	6.286959	2.507381
5.9530078710238765	6.879205	2.622824
5.970558364971812	7.422487	2.7244241
5.988108999099438	7.785362	2.7902262
6.005659773821818	8.272145	2.8761337
6.023210689554039	7.987518	2.8262198
6.040761746711227	8.361335	2.8915973
6.058312945708531	7.716764	2.7779064
6.075864286961132	7.285594	2.699184
6.093415770884244	6.6907225	2.586643
6.1109673978931065	6.182553	2.486474
6.128519168402993	5.5807123	2.362353
6.146071082829204	5.3932776	2.322343
6.163623141587075	5.304697	2.3031929
6.181175345091969	5.207365	2.2819653
6.198727693759281	5.190524	2.2782722
6.216280188004435	5.14552	2.268374
6.233832828242885	5.1758113	2.2750409
6.251385614890126	5.2362013	2.2882748
6.268938548361669	5.2217097	2.2851062
6.286491629073067	5.1993256	2.2802029
6.304044857439898	5.1122026	2.261018
6.321598233877777	5.046982	2.246549
6.339151758802344	4.9644637	2.2281077
6.356705432629277	4.974971	2.2304642
6.37425925577428	4.9464784	2.224068
6.391813228653095	4.981754	2.2319844
6.409367351681486	5.0126147	2.2388868
6.426921625275259	5.051361	2.2475233
6.44447604985025	5.018864	2.240282
6.46203062582232	5.037473	2.2444315
6.47958535360737	5.0070767	2.23765
6.497140233621328	5.010254	2.2383597
6.514695266280161	5.079969	2.2538786
6.532250451999859	5.0910964	2.2563457
6.549805791196454	5.159266	2.271402
6.567361284286002	5.11338	2.2612784
6.584916931684597	5.114844	2.2616022
6.602472733808367	5.0274153	2.24219
6.6200286910734665	4.9997535	2.236013
6.637584803896092	4.9797745	2.231541
6.655141072692462	5.013002	2.2389734
6.672697497878842	5.0048943	2.237162
6.690254079871514	4.9718184	2.2297575
6.707810819086808	4.950003	2.2248602
6.725367715941078	5.0068684	2.2376032
6.742924770850719	5.0445995	2.2460186
6.760481984232151	5.0539255	2.2480938
6.778039356501836	4.9445505	2.2236345
6.795596888076266	4.873224	2.207538
6.813154579371963	4.8683634	2.2064369
6.830712430805492	4.9761105	2.2307198
6.84827044279344	5.050462	2.2473233
6.865828615752445	5.0077457	2.2377994
6.883386950099159	5.017171	2.2399042
6.900945446250287	5.0282044	2.2423658
6.918504104622553	5.1339345	2.2658188
6.936062925632727	5.166308	2.2729514
6.953621909697607	5.1915183	2.2784903
6.971181057234028	5.16697	2.273097
6.988740368658859	5.1619854	2.2720003
7.006299844389007	5.1889925	2.277936
7.023859484841407	5.3245435	2.3074973
7.041419290433036	5.489214	2.3429072
7.058979261580902	5.6336403	2.3735292
7.0765393987020495	5.853883	2.4194798
7.094099702213559	6.2232995	2.4946542
7.111660172532549	6.556253	2.560518
7.129220810076164	6.8934507	2.625538
7.146781615261595	7.4708004	2.7332766
7.16434258850606	7.7613263	2.7859156
7.181903730226821	8.246241	2.8716269
7.1994650408411704	8.288584	2.8789902
7.217026520766437	8.311788	2.883017
7.234588170419983	8.402845	2.8987663
7.252149990219215	8.319625	2.884376
7.269711980581568	8.235428	2.8697436
7.2872741419245175	8.100242	2.8460925
7.304836474665574	7.7967086	2.7922587
7.322398979222286	7.4728694	2.733655
7.339961656012233	7.209005	2.684959
7.357524505453039	6.89558	2.6259437
7.375087527962357	6.6213455	2.5731976
7.392650723957886	6.325839	2.5151222
7.410214093857353	5.9806147	2.4455295
7.427777638078528	5.793056	2.4068768
7.445341357039213	5.589312	2.3641727
7.4629052511572525	5.428983	2.3300178
7.480469320850524	5.325943	2.3078005
7.498033566536948	5.2743645	2.2965984
7.5155979886344735	5.1780705	2.2755375
7.5331625875610975	5.127346	2.2643645
7.550727363734844	5.16163	2.271922
7.568292317573788	5.2559776	2.2925918
7.585857449496025	5.328577	2.308371
7.603422759919705	5.2959433	2.3012917
7.620988249263007	5.2644253	2.2944336
7.638553917944147	5.271667	2.2960112
7.656119766381391	5.2793264	2.2976785
7.673685794993023	5.2998986	2.302151
7.691252004197388	5.3251457	2.3076277
7.70881839441285	5.3246794	2.3075266
7.726384966057826	5.3377395	2.310355
7.743951719550762	5.3148494	2.3053956
7.761518655310149	5.302728	2.3027654
7.779085773754511	5.319843	2.3064785
7.796653075302419	5.3352504	2.3098161
7.814220560372475	5.3374248	2.3102868
7.831788229383323	5.346535	2.3122575
7.8493560827536495	5.3564086	2.3143916
7.866924120902174	5.37659	2.3187475
7.884492344247663	5.385212	2.320606
7.9020607532089135	5.41751	2.3275545
7.919629348204771	5.4323215	2.330734
7.937198129654115	5.4448857	2.333428
7.954767097975865	5.46537	2.3378131
7.972336253588986	5.5117736	2.3477166
7.989905596912472	5.556454	2.3572133
8.007475128365371	5.5625854	2.3585134
8.025044848366756	5.5419745	2.3541398
8.042614757335754	5.6047263	2.3674302
8.060184855691523	5.621595	2.3709903
8.07775514385327	5.732472	2.394258
8.095325622240228	5.782476	2.4046779
8.112896291271687	5.82994	2.414527
8.130467151366968	5.8537617	2.4194548
8.148038202945436	5.8954735	2.4280596
8.165609446426497	5.930257	2.435212
8.183180882229594	6.004116	2.4503298
8.200752510774217	6.003101	2.4501226
8.218324332479893	6.0041437	2.4503355
8.235896347766193	5.923409	2.4338055
8.253468557052724	5.9879303	2.4470248
8.27104096075914	6.0481215	2.459293
8.288613559305137	6.1452365	2.4789588
8.306186353110448	6.1970634	2.4893901
8.32375934259485	6.2538295	2.5007658
8.341332528178162	6.2447853	2.498957
8.358905910280246	6.2144156	2.492873
8.376479489321003	6.1684175	2.48363
8.394053265720377	6.238682	2.4977353
8.411627239898356	6.339403	2.5178173
8.42920141227497	6.3462515	2.5191767
8.44677578327029	6.3203354	2.5140278
8.464350353304427	6.2894926	2.5078862
8.48192512279754	6.2997947	2.5099392
8.499500092169827	6.2805133	2.5060952
8.51707526184153	6.2362356	2.4972456
8.534650632232934	6.1928935	2.4885526
8.552226203764365	6.13276	2.476441
8.569801976856192	6.121502	2.4741669
8.587377951928834	6.21093	2.4921737
8.60495412940274	6.2591605	2.5018315
8.622530509698416	6.368818	2.5236516
8.6401070932364	6.4683905	2.543303
8.657683880437283	6.6729975	2.5832145
8.675260871721695	6.8403225	2.615401
8.692838067510303	6.9852204	2.6429567
8.710415468223834	7.080028	2.6608322
8.727993074283043	7.202769	2.6837974
8.745570886108737	7.256129	2.6937203
8.763148904121765	7.3010783	2.7020507
8.78072712874302	7.3003244	2.7019112
8.798305560393441	7.5449586	2.7468088
8.815884199494006	7.66824	2.7691588
8.833463046465745	7.8432293	2.8005767
8.851042101729728	7.9608216	2.821493
8.86862136570707	8.241378	2.87078
8.886200838818924	8.401037	2.8984542
8.903780521486505	8.441962	2.9055054
8.921360414131055	8.574624	2.9282458
8.938940517173874	8.743874	2.957004
8.956520831036297	8.862777	2.9770417
8.97410135613971	9.100234	3.0166595
8.99168209290554	9.241854	3.0400417
9.009263041755265	9.581578	3.0954125
9.026844203110405	9.82768	3.134913
9.044425577392525	9.978955	3.1589484
9.062007165023239	9.971434	3.1577578
9.079588966424197	10.276747	3.2057366
9.097170982017108	10.412531	3.2268453
9.11475321222372	11.486434	3.3891642
9.132335657465825	12.407923	3.522488
9.149918318165264	12.469736	3.5312514
9.167501194743924	13.1039505	3.619938
9.18508428762374	12.780509	3.5749838
9.202667597226693	12.743853	3.5698533
9.220251123974803	12.389279	3.5198407
9.237834868290143	12.101237	3.4786832
9.255418830594836	11.886817	3.4477262
9.273003011311046	11.385063	3.374176
9.290587410860985	11.235305	3.3519106
9.308172029666911	10.63401	3.260983
9.32575686815113	10.32086	3.2126095
9.343341926735997	9.009442	3.0015733
9.360927205843916	8.729015	2.9544907
9.378512705897327	8.512652	2.917645
9.396098427318728	8.302564	2.881417
9.413684370530664	8.220208	2.8670905
9.431270535955722	8.122507	2.8500013
9.448856924016539	8.002082	2.8287952
9.466443535135806	7.8191686	2.7962775
9.484030369736251	7.7655983	2.7866824
9.501617428240658	7.7463803	2.783232
9.519204711071852	7.717236	2.7779913
9.536792218652714	7.7745585	2.7882895
9.55437995140617	7.858588	2.8033173
9.571967909755191	7.9013786	2.810939
9.589556094122802	7.981247	2.82511
9.60714450493207	7.9801397	2.8249142
9.624733142606116	8.066181	2.8401024
9.642322007568108	8.0960865	2.8453622
9.659911100241267	8.06141	2.8392622
9.677500421048851	8.031062	2.8339128
9.695089970414175	8.018078	2.8316212
9.712679748760609	8.059509	2.8389275
9.730269756511557	8.171763	2.8586297
9.747859994090492	8.199682	2.8635087
9.765450461920915	8.254077	2.8729908
9.78304116042639	8.303858	2.8816416
9.800632090030527	8.316637	2.883858
9.81822325115699	8.30343	2.8815672
9.835814644229481	8.306475	2.8820956
9.853406269671762	8.278812	2.8772926
9.870998127907646	8.287198	2.8787494
9.888590219360985	8.2963505	2.8803387
9.906182544455698	8.336511	2.8873017
9.923775103615734	8.364541	2.8921516
9.941367897265108	8.482429	2.9124608
9.958960925827878	8.503165	2.9160187
9.97655418972816	8.578066	2.9288335
9.994147689390106	8.55613	2.9250865
10.011741425237934	8.553499	2.9246366
10.029335397695904	8.52655	2.9200258
10.04692960718833	8.452085	2.9072468
10.06452405413958	8.370266	2.8931413
10.082118738974064	8.291513	2.8794987
10.099713662116246	8.302529	2.881411
10.117308823990651	8.289749	2.8791924
10.134904225021844	8.2551775	2.8731825
10.152499865634445	8.21745	2.8666096
10.170095746253125	8.173018	2.858849
10.18769186730261	8.182906	2.8605778
10.205288229207675	8.208183	2.8649926
10.222884832393145	8.23379	2.8694582
10.2404816772839	8.172981	2.8588426
10.258078764304868	8.137754	2.852675
10.275676093881035	8.114132	2.8485315
10.293273666437438	8.143016	2.853597
10.310871482399158	8.2164755	2.8664396
10.32846954219134	8.188131	2.8614912
10.346067846239173	8.209716	2.8652601
10.363666394967908	8.193397	2.862411
10.38126518880283	8.222979	2.8675737
10.398864228169298	8.287056	2.8787248
10.416463513492713	8.272558	2.8762054
10.434063045198531	8.200767	2.863698
10.451662823712262	8.235951	2.8698347
10.469262849459467	8.268958	2.8755796
10.486863122865758	8.200008	2.8635657
10.504463644356806	8.107042	2.847287
10.522064414358338	8.028951	2.8335402
10.539665433296118	7.932695	2.816504
10.557266701595987	7.9129963	2.8130047
10.574868219683818	7.8227286	2.796914
10.592469987985552	7.787114	2.7905402
10.610072006927185	7.6499043	2.765846
10.627674276934751	7.55665	2.7489362
10.64527679843435	7.4297776	2.725762
10.662879571852143	7.32419	2.706324
10.680482597614331	7.2336626	2.6895468
10.698085876147173	7.170542	2.6777868
10.715689407876988	7.0544705	2.6560254
10.733293193230146	6.974712	2.640968
10.750897232633072	6.845423	2.616376
10.76850152651225	6.7503104	2.598136
10.786106075294207	6.66663	2.5819817
10.803710879405534	6.5647225	2.5621715
10.821315939272877	6.506123	2.5507102
10.83892125532294	6.4507475	2.539832
10.856526827982472	6.418626	2.5335007
10.874132657678285	6.3761706	2.525108
10.891738744837243	6.3099656	2.5119646
10.909345089886271	6.259449	2.501889
10.926951693252343	6.1676006	2.4834654
10.944558555362494	6.112482	2.4723434
10.96216567664381	6.0648937	2.4627006
10.979773057523436	6.003863	2.450278
10.997380698428573	5.9921002	2.4478767
11.014988599786477	5.914955	2.432068
11.032596762024461	5.8620763	2.4211726
11.050205185569892	5.766105	2.4012716
11.067813870850198	5.71777	2.391186
11.085422818292859	5.6676593	2.3806846
11.10303202832541	5.59987	2.3664045
11.120641501375454	5.557305	2.3573937
11.138251237870636	5.441729	2.3327515
11.155861238238671	5.366765	2.316628
11.173471502907317	5.254042	2.2921698
11.191082032304402	5.2451835	2.2902365
11.208692826857805	5.127336	2.264362
11.226303886995465	5.061945	2.2498767
11.243915213145371	4.944149	2.2235444
11.261526805735578	4.913872	2.2167253
11.279138665194196	4.881242	2.2093532
11.296750791949393	4.8396993	2.1999316
11.314363186429393	4.8417172	2.2003903
11.331975849062479	4.772184	2.1845329
11.34958878027699	4.7249064	2.173685
11.36720198050133	4.6853395	2.1645646
11.384815450163948	4.655244	2.1576014
11.402429189693366	4.6060867	2.1461797
11.420043199518153	4.5995946	2.1446664
11.437657480066942	63.587044	7.9741483
11.455272031768422	85.3558	9.23882
11.472886855051353	107.70875	10.378283
11.490501950344528	99.27199	9.963532
11.508117318076819	84.551994	9.195216
11.52573295867715	45.88217	6.773638
11.543348872574514	4.1783824	2.044109
11.560965060197946	4.0936375	2.023274
11.57858152197655	4.0862293	2.0214424
11.59619825833949	4.066205	2.0164833
11.613815269715985	4.039314	2.0098045
11.631432556535323	38.533997	6.207576
11.649050119226837	83.05164	9.113268
11.666667958219929	93.46172	9.667561
11.68428607394406	107.73273	10.379437
11.701904466828756	82.564705	9.086513
11.719523137303586	65.44764	8.089972
11.737142085798196	4.671837	2.1614432
11.754761312742286	3.7662988	1.9406954
11.772380818565619	3.6864622	1.9200162
11.790000603698015	3.635883	1.9067992
11.80762066856935	3.5778332	1.8915161
11.825241013609572	3.5642385	1.8879191
11.842861639248683	3.5445125	1.8826876
11.860482545916748	3.5812516	1.8924195
11.878103734043883	3.5310864	1.8791186
11.895725204060282	3.4935808	1.8691123
11.91334695639619	3.4622698	1.8607175
11.930968991481919	3.4562867	1.8591092
11.948591309747824	3.3924592	1.8418629
11.966213911624347	3.3295975	1.8247185
11.98383679754198	3.3188465	1.8217702
12.001459967931268	3.316171	1.8210356
12.019083423222835	3.2793856	1.8109074
12.036707163847352	3.251535	1.8032013
12.05433119023556	3.2377057	1.7993625
12.071955502818259	3.2098887	1.7916162
12.089580102026313	3.1772504	1.7824843
12.107204988290643	3.1433012	1.7729357
12.12483016204224	3.1598077	1.7775848
12.142455623712152	3.1908553	1.7862965
12.16008137373149	3.1755302	1.7820017
12.177707412531431	3.1480157	1.7742648
12.19533374054321	3.0860891	1.7567269
12.212960358198126	3.0627577	1.7500737
12.230587265927545	3.0834868	1.755986
12.248214464162889	3.0491693	1.7461871
12.265841953335649	3.0085878	1.7345282
12.283469733877375	2.9882207	1.7286471
12.301097806219685	2.9985147	1.731622
12.31872617079425	2.9769688	1.7253895
12.336354828032825	2.9770913	1.725425
12.353983778367205	2.9653416	1.7220167
12.371613022229262	2.964494	1.7217706
12.389242560050928	2.9662735	1.7222873
12.406872392264201	2.931409	1.7121358
12.424502519301143	2.894606	1.7013541
12.442132941593874	2.8791873	1.6968168
12.459763659574586	2.8704498	1.6942402
12.477394673675532	2.8620656	1.691764
12.49502598432903	2.8869097	1.6990908
12.51265759196746	2.8765357	1.6960353
12.530289497023267	2.8647776	1.6925653
12.547921699928967	2.8235133	1.6803313
12.565554201117134	2.7900534	1.6703453
12.583187001020404	2.776056	1.6661501
12.600820100071486	2.7967966	1.6723626
12.618453498703152	2.7843418	1.6686348
12.636087197348235	2.8129003	1.6771703
12.65372119643964	2.8269641	1.6813579
12.671355496410326	2.8260732	1.6810929
12.68899009769333	2.8230748	1.6802008
12.706625000721749	2.8348784	1.6837097
12.724260205928752	2.9137473	1.7069702
12.741895713747551	2.964766	1.7218496
12.759531524611454	2.9967191	1.7311034
12.777167638953818	3.0001154	1.7320842
12.794804057208072	3.0412567	1.74392
12.812440779807702	3.1104217	1.7636387
12.830077807186271	3.275296	1.8097779
12.847715139777405	3.3005989	1.816755
12.865352778014795	3.510917	1.8737441
12.882990722332197	3.6255043	1.9040757
12.90062897316344	3.7117026	1.9265779
12.918267530942412	3.738903	1.9336244
12.935906396103071	3.5870993	1.8939639
12.953545569079449	3.7245667	1.9299136
12.971185050305628	3.58505	1.8934228
12.988824840215775	3.6283915	1.9048337
13.006464939244115	3.6619844	1.9136312
13.024105347824943	3.468571	1.86241
13.041746066392617	3.5152416	1.8748977
13.05938709538157	3.3302622	1.8249006
13.077028435226296	3.370272	1.8358301
13.094670086361363	3.3303306	1.8249193
13.112312049221401	3.2402341	1.800065
13.129954324241112	3.1438558	1.7730922
13.147596911855258	2.9386082	1.7142369
13.165239812498685	2.886317	1.6989164
13.182883026606293	2.7907357	1.6705495
13.200526554613058	2.7051244	1.6447263
13.218170396954017	2.6919146	1.6407055
13.235814554064284	2.712416	1.6469414
13.253459026379034	2.7384136	1.6548153
13.271103814333523	2.7160895	1.6480563
13.288748918363058	2.701439	1.6436055
13.306394338903031	2.6892073	1.6398803
13.32404007638889	2.646886	1.6269253
13.341686131256164	2.6628187	1.6318145
13.359332503940449	2.6898463	1.6400751
13.376979194877402	2.7277546	1.6515915
13.394626204502751	2.7670224	1.6634369
13.412273533252307	2.7666693	1.6633308
13.429921181561937	2.7708852	1.6645976
13.447569149867581	2.7756586	1.6660308
13.465217438605247	2.771443	1.6647651
13.482866048211022	2.748184	1.6577648
13.500514979121052	2.7480965	1.6577383
13.518164231771568	2.6706965	1.6342266
13.535813806598844	2.6772027	1.6362159
13.553463704039254	2.6490085	1.6275775
13.571113924529229	2.680323	1.6371691
13.588764468505275	2.6823485	1.6377877
13.606415336403956	2.7182808	1.648721
13.624066528661917	2.7640877	1.6625546
13.641718045715882	2.829541	1.6821239
13.659369888002635	2.8574622	1.690403
13.67702205595903	2.916817	1.7078692
13.694674550021993	2.9498394	1.7175096
13.712327370628532	3.0235858	1.7388461
13.729980518215713	3.122659	1.7671046
13.747633993220681	3.2413657	1.8003793
13.765287796080647	3.282608	1.8117969
13.7829419272329	3.3407025	1.8277589
13.800596387114801	3.3408842	1.8278086
13.818251176163775	3.3734794	1.8367034
13.835906294817324	3.3971093	1.8431249
13.853561743513023	3.4188514	1.8490136
13.871217522688525	3.4649334	1.8614331
13.888873632781538	3.51216	1.8740758
13.906530074229858	3.585417	1.8935198
13.92418684747135	3.5590024	1.8865318
13.941843952943948	3.533246	1.879693
13.959501391085665	3.4398723	1.8546892
13.977159162334578	3.3832214	1.8393536
13.994817267128846	3.3356998	1.8263898
14.012475705906693	3.2787528	1.8107327
14.030134479106424	3.2462866	1.8017454
14.047793587166414	3.2306414	1.7973984
14.065453030525108	3.1896737	1.7859658
14.083112809621026	3.0878768	1.7572355
14.100772924892766	2.9660134	1.7222118
14.118433376778997	2.8680677	1.693537
14.136094165718458	2.8063354	1.675212
14.153755292149969	2.7604342	1.6614554
14.171416756512416	2.6991296	1.6429027
14.189078559244768	2.6687717	1.6336375
14.20674070078606	2.5943003	1.6106832
14.224403181575408	2.5720398	1.6037581
14.242066002051999	2.519704	1.5873576
14.259729162655093	2.4870615	1.577042
14.277392663824022	2.4493127	1.5650281
14.295056505998208	2.465397	1.5701582
14.312720689617128	2.4695385	1.5714766
14.330385215120348	2.4595182	1.5682851
14.348050082947497	2.4330986	1.5598392
14.3657152935383	2.401995	1.5498371
14.383380847332528	2.4317095	1.559394
14.401046744770051	2.3934472	1.547077
14.418712986290798	2.3673007	1.5386035
14.436379572334793	2.3307445	1.5266776
14.454046503342123	2.3608701	1.5365124
14.471713779752946	2.3839316	1.5439986
14.489381402007504	2.3854713	1.5444971
14.507049370546113	2.37042	1.5396168
14.524717685809168	2.3824522	1.5435194
14.542386348237134	2.4362752	1.5608572
14.560055358270553	2.4791436	1.5745296
14.577724716350051	2.485107	1.5764222
14.595394422916325	2.4213688	1.5560749
14.61306447841015	2.4507623	1.5654911
14.63073488327237	2.469148	1.5713522
14.648405637943917	2.530937	1.5908918
14.6660767428658	2.5167093	1.586414
14.683748198479094	2.5682476	1.6025753
14.701420005224954	2.5767334	1.6052207
14.719092163544628	2.61913	1.6183726
14.73676467387942	2.66397	1.6321672
14.754437536670727	2.721921	1.6498245
14.772110752360014	2.7342708	1.653563
14.78978432138882	2.6686606	1.6336036
14.807458244198777	2.659324	1.6307434
14.82513252123159	2.6408734	1.6250764
14.842807152929028	2.7119095	1.6467876
14.860482139732962	2.6938145	1.6412845
14.87815748208531	2.7133448	1.6472234
14.8958331804281	2.7092016	1.6459652
14.91350923520342	2.6783752	1.6365743
14.931185646853438	2.685008	1.6385994
14.948862415820408	2.6651497	1.6325287
14.966539542546656	2.6988256	1.6428102
14.98421702747459	2.6891882	1.6398745
15.001894871046696	2.7268188	1.6513082
15.019573073705542	2.6921604	1.6407804
15.037251635893766	2.707459	1.6454358
15.054930558054092	2.7183483	1.6487414
15.072609840629323	2.7939045	1.6714977
15.090289484062351	2.9089274	1.7055578
15.107969488796124	3.1851254	1.7846919
15.125649855273691	3.5752213	1.8908255
15.14333058393817	4.0746474	2.0185757
15.161011675232768	5.043423	2.2457566
15.17869312960076	6.3507867	2.5200768
15.196374947485506	8.196884	2.8630202
15.214057129330447	11.35766	3.370113
15.231739675579114	16.276701	4.0344396
15.249422586675102	21.485481	4.6352434
15.267105863062092	24.73274	4.973202
15.284789505183847	24.989126	4.9989123
15.302473513484218	22.841856	4.7793155
15.320157888407127	19.058285	4.3655796
15.337842630396578	14.777585	3.8441625
15.355527739896656	11.43959	3.3822463
15.37321321735153	8.929622	2.9882472
15.39089906320545	6.4962215	2.5487685
15.408585277902748	4.8653913	2.205763
15.42627186188783	3.7376082	1.9332895
15.443958815605198	3.1992738	1.7886513
15.461646139499424	2.8958647	1.701724
15.479333834015168	2.741563	1.6557666
15.497021899597165	2.682577	1.6378574
15.514710336690234	2.6297572	1.6216526
15.53239914573928	2.607069	1.614642
15.550088327189297	2.549613	1.5967507
15.567777881485336	2.5286367	1.5901687
15.58546780907256	2.505338	1.5828259
15.6031581103962	2.5094724	1.5841315
15.620848785901568	2.5110087	1.5846163
15.638539836034063	2.5171037	1.5865383
15.656231261239173	2.494887	1.5795212
15.673923061962451	2.4890697	1.5776786
15.691615238649552	2.452967	1.566195
15.709307791746202	2.4219015	1.5562459
15.727000721698221	2.3810549	1.5430667
15.744694028951498	2.3784533	1.5422235
15.76238771395202	2.3666134	1.5383801
15.780081777145844	2.4035277	1.5503315
15.797776218979125	2.4120305	1.5530713
15.815471039898094	2.416947	1.5546533
15.833166240349064	2.4088898	1.5520599
15.850861820778437	2.4501188	1.5652856
15.868557781632699	2.457225	1.5675539
15.886254123358412	2.4279559	1.55819
15.903950846402232	2.3877888	1.5452472
15.921647951210897	2.3319924	1.5270863
15.939345438231225	2.3152623	1.5215986
15.957043307910133	2.35815	1.5356269
15.974741560694602	2.3961751	1.5479584
15.992440197031714	2.4044268	1.5506214
16.01013921736862	2.3959694	1.547892
16.02783862215259	2.4146497	1.5539143
16.045538411830933	2.409846	1.5523679
16.06323858685107	2.3722215	1.5402018
16.080939147660512	2.363758	1.5374519
16.09864009470684	2.4093702	1.5522146
16.11634142843774	2.4526184	1.5660838
16.134043149300954	2.4690535	1.5713222
16.15174525774433	2.4616802	1.5689743
16.169447754215817	2.4449105	1.5636209
16.18715063916342	2.4433453	1.5631204
16.204853913035244	2.4483297	1.564714
16.222557576279478	2.5001037	1.5811716
16.240261629344403	22.493622	4.742744
16.257966072678386	43.0244	6.5592985
16.275670906729868	38.11768	6.1739516
16.293376131947387	2.548531	1.596412
16.31108174877957	2.5786014	1.6058024
16.328787757675133	2.5971198	1.6115582
16.34649415908287	2.612123	1.6162064
16.364200953451657	2.6357684	1.623505
16.38190814123048	2.647072	1.6269825
16.39961572286839	2.6627324	1.6317881
16.41732369881455	2.6873176	1.639304
16.43503206951817	2.7297165	1.6521854
16.45274083542859	2.7869232	1.6694081
16.47044999699522	2.8391871	1.6849887
16.488159554667558	2.883173	1.6979909
16.505869508895184	2.9071014	1.7050225
16.523579860127786	2.9212482	1.7091659
16.541290608815117	2.9531844	1.7184832
16.559001755407035	2.9976642	1.7313764
16.57671330035348	3.0502105	1.7464852
16.59442524410448	3.124901	1.7677389
16.61213758711015	3.2101953	1.7917018
16.629850329820705	3.3056467	1.8181437
16.647563472686436	3.3954482	1.8426743
16.665277016157724	3.453287	1.8583021
16.682990960685053	3.5107868	1.8737093
16.70070530671898	3.5108953	1.8737383
16.718420054710155	3.5010715	1.8711151
16.736135205109335	3.5895236	1.8946038
16.753850758367335	3.708392	1.9257185
16.771566714935087	3.7693605	1.9414841
16.789283075263597	3.8022277	1.9499302
16.80699983980398	3.8163927	1.9535589
16.82471700900741	3.92301	1.980659
16.84243458332518	4.0465136	2.0115948
16.860152563208665	4.0974646	2.0242195
16.87787094910932	4.112434	2.0279136
16.89558974147871	4.1399374	2.0346837
16.913308940768466	4.2219276	2.054733
16.931028547430333	4.2838745	2.0697522
16.94874856191613	4.330236	2.080922
16.966468984677785	4.375165	2.0916896
16.98418981616729	4.4683747	2.113853
17.00191105683676	4.506922	2.1229513
17.019632707138374	4.5572367	2.1347685
17.03735476752442	4.5883174	2.1420357
17.05507723844728	4.577664	2.1395476
17.072800120359403	4.595414	2.1436918
17.090523413713353	4.6468034	2.1556447
17.108247118961785	4.728909	2.1746054
17.125971236557437	4.780462	2.1864266
17.143695766953133	4.8165917	2.1946735
17.161420710601806	4.7899594	2.1885977
17.179146067956477	4.7414365	2.177484
17.19687183947025	4.751298	2.179747
17.21459802559634	4.774603	2.1850865
17.232324626788028	4.775642	2.1853242
17.25005164349871	4.729036	2.1746347
17.267779076181863	4.6721034	2.161505
17.285506925291074	4.632172	2.1522481
17.30323519127999	4.617375	2.1488078
17.320963874602384	4.5892005	2.142242
17.33869297571211	4.5832853	2.1408608
17.356422495063114	4.524604	2.1271117
17.37415243310944	4.4961557	2.120414
17.391882790305218	4.4982123	2.120899
17.40961356710468	4.509219	2.1234922
17.42734476396215	4.563841	2.1363149
17.445076381332044	4.6133757	2.147877
17.462808419668868	4.659957	2.1586933
17.48054087942723	4.7626305	2.1823452
17.498273761061835	4.9732723	2.2300835
17.51600706502747	5.45302	2.3351703
17.533740791779024	6.1837854	2.4867218
17.551474941771485	7.613795	2.7593105
17.56920951545993	8.795254	2.9656794
17.586944513299528	11.044729	3.3233612
17.60467993574556	12.76376	3.5726404
17.622415783253373	14.526162	3.8113203
17.64015205627843	15.908942	3.9886014
17.657888755276293	17.044807	4.1285357
17.675625880702604	17.564362	4.1909857
17.69336343301311	17.514156	4.184992
17.71110141266366	16.771597	4.095314
17.728839820110178	15.770196	3.9711707
17.746578655808705	14.718793	3.8365078
17.764317920215372	13.057382	3.6134999
17.7820576137864	11.534166	3.3961987
17.79979773697811	9.462498	3.0761173
17.81753829024692	7.6215153	2.7607093
17.835279274049356	5.8940268	2.4277618
17.85302068884201	4.903265	2.2143316
17.870762535081607	4.295052	2.0724506
17.888504813224934	4.0312285	2.007792
17.90624752372891	3.82312	1.9552801
17.923990667050536	3.7001386	1.9235744
17.941734243646895	3.5911553	1.8950344
17.959478253975185	3.5079849	1.8729615
17.9772226984927	3.4826226	1.8661786
17.994967577656833	3.422807	1.850083
18.01271289192506	3.4073987	1.845914
18.030458641754965	3.3824022	1.8391309
18.04820482760425	3.3895516	1.8410735
18.06595144993067	3.3506985	1.8304913
18.083698509192125	3.3003278	1.8166804
18.101446005846576	3.2772956	1.8103303
18.119193940352105	3.2671988	1.8075395
18.136942313166887	3.259976	1.8055403
18.1546911247492	3.2129347	1.792466
18.1724403755574	3.1755986	1.7820209
18.19019006604997	3.1254086	1.7678826
18.207940196685467	3.1397014	1.7719202
18.225690767922575	3.1743393	1.7816676
18.243441780220046	3.1694453	1.7802936
18.261193234036764	3.1297383	1.7691066
18.278945129831676	3.0983381	1.7602097
18.29669746806386	3.081714	1.7554811
18.314450249192483	3.0571573	1.7484728
18.3322034736768	3.041195	1.7439022
18.349957141976184	3.0690863	1.7518808
18.3677112545501	3.0759337	1.753834
18.385465811858108	3.0820482	1.7555763
18.403220814359884	3.0783818	1.7545317
18.420976262515172	3.1082315	1.7630178
18.43873215678387	3.1271715	1.768381
18.456488497625923	3.1664374	1.7794486
18.474245285501407	3.249144	1.8025383
18.492002520870486	3.2885337	1.8134315
18.50976020419343	3.343802	1.8286066
18.527518335930615	3.6497126	1.9104221
18.545276916542516	4.2765474	2.0679815
18.563035946489688	4.4805884	2.11674
18.580795426232832	4.9080577	2.2154136
18.598555356232698	4.753533	2.1802597
18.616315736950185	5.0248456	2.2416167
18.63407656884626	4.6478996	2.1558988
18.65183785238201	4.8614573	2.2048712
18.669599588018617	4.6619973	2.1591659
18.68736177621737	4.717199	2.1719112
18.705124417439652	4.6680927	2.160577
18.72288751214696	4.4641633	2.1128566
18.740651060800886	4.622398	2.1499763
18.758415063863115	4.40254	2.0982232
18.77617952179546	4.565853	2.1367857
18.793944435059814	4.2571173	2.0632782
18.811709804118184	4.2156253	2.0531988
18.829475629432675	4.1527796	2.037837
18.8472419114655	3.951708	1.9878904
18.86500865067897	4.0843606	2.0209801
18.88277584753551	3.7719755	1.9421574
18.90054350249763	3.7999535	1.9493469
18.918311616027957	3.490131	1.8681892
18.936080188589226	3.383613	1.83946
18.953849220644265	3.0684416	1.7516968
18.971618712656007	2.90073	1.7031529
18.9893886650875	2.8722036	1.6947577
19.007159078401887	8.092821	2.8447883
19.024929953062408	32.941986	5.739511
19.042701289532435	32.874233	5.7336054
19.060473088275405	25.422167	5.04204
19.07824534975489	2.678871	1.6367257
19.096018074434568	2.6757593	1.6357749
19.113791262778197	2.6409245	1.6250921
19.13156491524966	2.675592	1.6357237
19.149339032312945	2.674337	1.63534
19.167113614432136	2.6849027	1.6385672
19.184888662071433	2.6279554	1.621097
19.202664175695123	2.5595632	1.5998635
19.220440155767623	2.5314806	1.5910627
19.238216602753447	2.556147	1.5987955
19.2559935171172	2.5573545	1.5991731
19.27377089932361	2.5801258	1.606277
19.291548749837514	2.5834813	1.6073211
19.309327069123835	2.6046233	1.6138846
19.32710585764763	2.6040008	1.6136917
19.344885115874032	2.580793	1.6064847
19.362664844268313	2.570508	1.6032804
19.380445043295822	2.5472322	1.5960051
19.39822571342203	2.5148163	1.5858172
19.41600685511252	2.4923663	1.578723
19.43378846883297	2.490661	1.5781828
19.451570555049173	2.5022452	1.5818486
19.469353114227037	2.4904	1.5781002
19.48713614683254	2.4812467	1.5751973
19.50491965333182	2.483133	1.575796
19.52270363419109	2.5060852	1.5830619
19.540488089876686	2.52184	1.5880302
19.55827302085503	2.5051746	1.5827744
19.576058427592674	2.474991	1.5732105
19.593844310556282	2.4995937	1.5810103
19.611630670212598	2.5474582	1.5960759
19.629417507028506	2.5591214	1.5997254
19.64720482147098	2.5034306	1.5822233
19.6649926140071	2.4879885	1.5773358
19.682780885104084	2.4973497	1.5803006
19.70056963522921	2.5345194	1.5920174
19.718358864849908	2.5522442	1.5975745
19.7361485744337	2.5559309	1.598728
19.753938764448215	2.5809793	1.6065427
19.771729435361202	2.580692	1.6064533
19.789520587640506	2.579571	1.6061043
19.807312221754092	2.5281782	1.5900246
19.825104338170043	2.5061572	1.5830847
19.842896937356517	2.5255244	1.5891899
19.860690019781824	2.5589027	1.599657
19.87848358591436	2.5610845	1.6003388
19.896277636222635	2.5045667	1.5825822
19.914072171175278	2.458642	1.5680058
19.931867191241015	2.470256	1.5717049
19.94966269688869	2.500936	1.5814348
19.967458688587264	2.5442033	1.5950559
19.985255166805807	2.5658033	1.6018125
20.00305213201348	2.557881	1.5993377
20.020849584679578	2.5333838	1.5916607
20.038647525273507	2.4913073	1.5783875
20.05644595426477	2.46906	1.5713242
20.07424487212299	2.4675152	1.5708326
20.092044279317903	2.4805324	1.5749706
20.109844176319353	2.4970071	1.5801921
20.127644563597304	2.471612	1.5721362
20.145445441621817	2.4603581	1.5685529
20.16324681086307	2.4577725	1.5677284
20.181048671791373	2.4666066	1.5705434
20.198851024877122	2.4617448	1.5689949
20.216653870590836	2.4104614	1.552566
20.234457209403146	2.4149094	1.5539979
20.252261041784802	2.4028354	1.5501082
20.270065368206662	2.4077744	1.5517005
20.287870189139685	2.3622031	1.536946
20.305675505054968	2.334438	1.5278867
20.323481316423702	2.35874	1.535819
20.341287623717207	2.3804944	1.5428851
20.359094427406884	2.39299	1.5469292
20.376901727964288	2.4013586	1.5496317
20.39470952586107	2.4168909	1.5546353
20.41251782156899	2.3686223	1.5390329
20.430326615559935	2.347289	1.5320865
20.448135908305886	2.3062532	1.5186353
20.465945700278965	2.3249354	1.524774
20.483755991951384	2.3558376	1.5348738
20.50156678379548	2.392885	1.5468953
20.519378076283708	2.366808	1.5384433
20.537189869888635	2.3464456	1.5318112
20.55500216508294	2.3270495	1.5254669
20.572814962339415	2.352092	1.5336531
20.59062826213098	2.352191	1.5336854
20.60844206493066	2.3599055	1.5361984
20.626256371211593	2.3623528	1.5369947
20.644071181447032	2.3536181	1.5341506
20.66188649611036	2.3256009	1.5249921
20.67970231567506	2.32303	1.524149
20.697518640614742	2.3568618	1.5352074
20.715335471403122	2.3669126	1.5384774
20.73315280851404	2.322016	1.5238162
20.750970652421447	2.3118246	1.5204686
20.768789003599412	2.2950315	1.5149362
20.786607862522136	2.3031008	1.5175971
20.8044272296639	2.3258693	1.5250801
20.82224710549913	2.3415842	1.5302236
20.84006749050237	2.3357522	1.5283169
20.857888385148268	3.8798745	1.9697397
20.8757097899116	46.00263	6.7825236
20.893531705267254	64.83716	8.052153
20.911354131690224	83.84443	9.15666
20.92917706965566	69.08381	8.311667
20.94700051963877	50.14475	7.0812955
20.96482448211493	29.420856	5.4240994
20.982648957559622	4.186671	2.0461357
21.00047394644843	2.2896128	1.5131466
21.01829944925707	2.255145	1.501714
21.036125466461375	2.2395747	1.4965209
21.053951998537297	2.25295	1.500983
21.071779045960906	2.2783341	1.5094151
21.089606609208378	2.270811	1.506921
21.10743468875603	2.2255216	1.4918182
21.12526328508028	2.246822	1.4989403
21.143092398657675	2.2663567	1.5054424
21.16092202996488	2.2641158	1.5046979
21.17875217947867	2.2279494	1.4926317
21.19658284767596	2.22569	1.4918746
21.21441403503377	2.2329404	1.4943026
21.232245742029225	2.1945786	1.481411
21.2500779691396	2.1822398	1.4772406
21.26791071684227	2.1767707	1.4753883
21.28574398561475	2.1897607	1.479784
21.30357777593465	2.1764429	1.4752772
21.321412088279704	2.1935115	1.4810508
21.339246923127792	2.1863987	1.4786476
21.357082280956888	2.1737545	1.4743658
21.3749181622451	2.1512609	1.4667177
21.392754567470647	2.1405742	1.4630702
21.41059149711187	2.10784	1.4518403
21.42842895164726	2.1004987	1.4493097
21.446266931555378	2.1445951	1.4644437
21.464105437314945	2.1934295	1.4810231
21.481944469404798	2.164572	1.4712485
21.49978402830388	2.1467478	1.4651784
21.51762411449127	2.1454353	1.4647305
21.53546472844617	2.1552813	1.4680877
21.553305870647876	2.1122723	1.4533658
21.571147541575865	2.0796027	1.4420828
21.58898974170967	2.0944786	1.4472314
21.60683247152899	2.097819	1.448385
21.62467573151363	2.0772123	1.4412538
21.642519522143523	2.058984	1.434916
21.660363843898722	2.0708709	1.4390521
21.6782086972594	2.0605383	1.4354575
21.696054082705864	2.069773	1.4386705
21.713900000718535	2.0809598	1.4425532
21.73174645177795	2.1141424	1.454009
21.749593436364794	2.1102676	1.452676
21.767440954959845	2.08601	1.4443026
21.785289008044032	2.070917	1.4390681
21.803137596098388	2.0532095	1.4329025
21.820986719604086	2.036786	1.4271601
21.838836379042412	2.0119705	1.4184395
21.85668657489478	2.0118234	1.4183877
21.87453730764273	1.9908872	1.410988
21.892388577767914	1.9798801	1.4070821
21.91024038575213	1.9879242	1.4099376
21.928092732077285	2.0129776	1.4187944
21.945945617225426	2.015887	1.4198194
21.963799041678694	2.0195086	1.4210942
21.981653005919398	31.343338	5.598512
21.999507510429943	78.117935	8.838435
22.01736255569286	73.04695	8.546751
22.035218142190818	4.1453238	2.036007
22.05307427040661	1.9846603	1.4087797
22.07093094082315	2.0031826	1.4153384
22.088788153923474	2.0010562	1.4145869
22.106645910190746	2.011362	1.4182249
22.12450421010827	2.02875	1.4243419
22.142363054159464	2.0278397	1.4240223
22.16022244282787	2.0244112	1.4228181
22.178082376597164	2.0010092	1.4145703
22.195942855951145	2.0033798	1.415408
22.213803881373742	1.9878964	1.4099278
22.231665453349002	2.010346	1.4178667
22.24952757236111	2.0085957	1.4172493
22.26739023889438	1.9929377	1.4117144
22.28525345343323	1.9797263	1.4070275
22.30311721646225	1.9654971	1.4019619
22.320981528466113	1.9662105	1.4022163
22.33884638992964	1.9729009	1.4045999
22.356711801337788	1.9976727	1.4133905
22.37457776317561	1.9760131	1.4057074
22.392444275928337	1.9424511	1.3937185
22.410311340081282	1.9243824	1.3872211
22.428178956119904	1.9529172	1.3974681
22.446047124529805	1.9938538	1.4120389
22.46391584579669	2.01772	1.4204648
22.481785120406414	2.0040894	1.4156586
22.49965494884496	1.9872218	1.4096886
22.51752533159841	1.9890723	1.4103447
22.53539626915302	2.007929	1.4170141
22.553267761995137	1.9984086	1.4136508
22.571139810611264	1.9864364	1.4094099
22.589012415488025	2.0196028	1.4211273
22.60688557711216	1.9961396	1.4128481
22.624759295970566	1.9689884	1.4032065
22.642633572550263	1.9603105	1.4001108
22.660508407338362	1.9774172	1.4062067
22.67838380082217	1.9841453	1.4085969
22.696259753489077	1.9569954	1.3989265
22.714136265826614	1.9314948	1.3897823
22.73201333832246	1.9357108	1.3912983
22.74989097146439	1.9322683	1.3900605
22.76776916574035	1.9534314	1.3976521
22.785647921638393	1.9590908	1.3996753
22.803527239646712	1.9532903	1.3976016
22.82140712025363	1.921132	1.386049
22.839287563947593	1.9090153	1.3816712
22.85716857121719	1.9108287	1.3823273
22.875050142551135	1.9375242	1.3919498
22.892932278438277	1.9202216	1.3857206
22.910814979367604	1.9316516	1.3898387
22.928698245828222	1.92987	1.3891976
22.946582078309387	1.9444058	1.3944196
22.96446647730047	1.9358406	1.3913449
22.98235144329098	1.9534545	1.3976604
23.000236976770562	1.9375306	1.391952
23.018123078229	1.9311844	1.3896706
23.03600974815619	1.923856	1.3870313
23.053896987042194	1.9177327	1.3848222
23.071784795377173	1.9104306	1.3821833
23.08967317365145	1.9189916	1.3852767
23.10756212235546	1.952921	1.3974695
23.125451641979787	1.970339	1.4036876
23.143341733015134	1.9530783	1.3975258
23.161232395952357	1.9171072	1.3845965
23.179123631282426	1.9522043	1.3972131
23.197015439496468	1.9817306	1.4077395
23.214907821085717	1.941718	1.3934554
23.23280077654157	1.9173576	1.3846868
23.250694306355538	1.906738	1.3808469
23.268588411019277	1.9298451	1.3891886
23.28648309102458	1.9332908	1.3904283
23.304378346863356	1.9386503	1.3923542
23.322274179027676	1.9055837	1.3804288
23.340170588009723	1.896006	1.3769554
23.358067574301852	1.9467288	1.3952522
23.37596513839651	1.9610778	1.4003849
23.39386328078629	1.9797741	1.4070444
23.411762001963947	1.9417675	1.3934731
23.429661302422353	1.92233	1.3864812
23.4475611826545	1.9193695	1.385413
23.46546164315356	1.9797189	1.4070249
23.48336268441279	1.9970804	1.413181
23.501264306925638	1.9863845	1.4093915
23.51916651118564	1.9311918	1.3896732
23.537069297686497	1.9472381	1.3954347
23.554972666922037	1.974767	1.405264
23.57287661938623	1.98782	1.4099007
23.59078115557318	1.9531313	1.3975447
23.608686275977128	1.9037555	1.3797665
23.62659198109246	1.8872517	1.3737729
23.6444982714137	1.9292314	1.3889678
23.66240514743549	1.9144562	1.3836387
23.68031260965263	1.8929662	1.375851
23.698220658560068	1.8734282	1.3687323
23.716129294652845	1.8867028	1.373573
23.7340385184262	1.8970317	1.3773277
23.75194833037546	1.9046801	1.3801014
23.769858730996123	1.91092	1.3823603
23.78776972078382	1.9312998	1.3897121
23.80568130023431	1.9941934	1.4121591
23.823593469843495	2.0156155	1.4197237
23.841506230107424	1.991501	1.4112055
23.859419581522275	1.923408	1.3868699
23.87733352458438	1.9085557	1.3815049
23.89524805979019	1.9197611	1.3855544
23.913163187636318	1.9087394	1.3815714
23.931078908619508	1.9092666	1.3817621
23.948995223236633	1.9368484	1.3917071
23.966912131984735	1.9546769	1.3980976
23.98482963536096	1.9958363	1.4127407
24.002747733862616	2.0528543	1.4327785
24.020666427987155	2.083224	1.4433378
24.038585718232156	2.0889935	1.4453351
24.056505605095353	2.0537558	1.4330931
24.074426089074617	2.0796344	1.4420937
24.092347170667946	2.0893648	1.4454635
24.110268850373515	2.0836287	1.443478
24.128191128689586	2.0774972	1.4413526
24.146114006114626	2.089279	1.4454339
24.164037483147187	2.0786932	1.4417673
24.181961560286005	2.0370836	1.4272643
24.199886238029926	2.0310037	1.4251329
24.21781151687797	2.0156868	1.4197488
24.235737397329274	2.0495102	1.4316111
24.253663879883135	2.0879643	1.444979
24.271590965038975	2.170756	1.4733486
24.289518653296376	2.1399844	1.4628686
24.30744694515505	2.1111443	1.4529778
24.32537584111486	2.081041	1.4425814
24.34330534167581	2.0810642	1.4425894
24.361235447338046	2.088783	1.4452623
24.379166158601876	2.0882168	1.4450663
24.39709747596772	2.0732667	1.4398843
24.41502939993615	2.0777988	1.4414572
24.432961931007917	2.0399375	1.4282638
24.450895069683856	1.981694	1.4077265
24.468828816465	1.9503213	1.3965391
24.4867631718525	1.9616445	1.4005872
24.504698136347656	1.9722521	1.404369
24.52263371045192	1.9613827	1.4004937
24.540569894666874	1.9490242	1.3960745
24.558506689494266	1.9688035	1.4031405
24.57644409543597	1.9984548	1.4136672
24.594382112994012	2.0041745	1.4156886
24.61232074267057	1.9645919	1.401639
24.630259984967953	1.9761578	1.4057587
24.64819984038863	1.9923005	1.4114888
24.66614030943522	2.0257125	1.4232752
24.684081392610462	2.0253522	1.4231488
24.702023090417274	1.996887	1.4131125
24.7199654033587	1.992252	1.4114716
24.737908331937927	2.0205283	1.4214529
24.755851876658305	2.032967	1.4258215
24.773796038023324	2.0641727	1.4367229
24.79174081653661	2.0868847	1.4446054
24.809686212701962	2.086611	1.4445107
24.827632227023294	2.0390131	1.4279401
24.8455788600047	2.007666	1.4169214
24.8635261121504	2.0149083	1.4194746
24.88147398396475	2.0781553	1.4415808
24.899422475952303	2.1132922	1.4537166
24.917371588617698	2.127096	1.4584568
24.935321322465768	2.1559305	1.4683087
24.953271678001478	2.2865865	1.5121464
24.97122265572994	2.4943314	1.5793452
24.989174256156414	2.815783	1.6780295
25.00712647978632	3.261414	1.8059386
25.02507932712521	3.839621	1.9594951
25.043032798678798	4.43009	2.1047778
25.060986894952933	5.1151853	2.2616775
25.078941616453637	5.7672606	2.4015121
25.096896963687055	6.5859246	2.5663056
25.114852937159508	7.7125583	2.7771492
25.132809537377444	8.276316	2.8768587
25.150766764847468	8.375028	2.893964
25.168724620076347	7.8293676	2.7981007
25.186683103570985	6.825417	2.61255
25.204642215838426	5.6472692	2.3763983
25.222601957385894	4.2387404	2.0588202
25.24056232872074	3.1741593	1.781617
25.25852333035048	2.5638928	1.6012161
25.276484962782778	2.2609	1.503629
25.294447226525435	2.138525	1.4623697
25.312410122086423	2.0218155	1.4219056
25.330373649973843	1.9403087	1.3929496
25.348337810695988	1.8942672	1.3763238
25.366302604761245	1.8945311	1.3764197
25.384268032678207	1.9153023	1.3839445
25.40223409495558	1.9423529	1.3936832
25.420200792102257	1.9418926	1.3935181
25.438168124627246	1.9046159	1.3800782
25.45613609303974	1.891006	1.3751385
25.474104697849057	1.8899091	1.3747396
25.492073939564698	1.8739167	1.3689108
25.510043818696285	1.8356774	1.3548717
25.528014335753614	1.8295139	1.3525952
25.54598549124664	1.8500541	1.3601669
25.56395728568544	1.9018675	1.3790821
25.58192971958028	1.9464024	1.3951353
25.59990279344156	1.9189868	1.385275
25.617876507779833	1.8670206	1.3663896
25.635850863105826	1.890055	1.3747927
25.653825859930386	1.8980294	1.3776898
25.671801498764548	1.8918798	1.3754562
25.68977778011949	1.8819264	1.3718332
25.707754704506524	1.9136138	1.3833343
25.725732272437153	1.9287944	1.3888104
25.743710484423012	1.9065398	1.3807751
25.761689340975888	1.8996216	1.3782676
25.77966884260774	1.8751448	1.3693593
25.797648989830662	1.909506	1.3818487
25.815629783156922	1.9058068	1.3805096
25.83361122309895	1.8707649	1.3677591
25.85159331016929	1.8665879	1.3662313
25.869576044880695	1.8195777	1.3489172
25.887559427746034	1.7709734	1.3307793
25.90554345927836	1.8098806	1.3453181
25.92352813999086	1.8378897	1.3556879
25.94151347039689	1.8759096	1.3696384
25.959499451009965	1.9302224	1.3893244
25.97748608234374	1.8990005	1.3780422
25.995473364912062	1.8800473	1.3711482
26.013461299228904	1.8614669	1.3643558
26.03144988580839	1.8906863	1.3750223
26.04943912516483	1.8789797	1.3707588
26.067429017812675	1.8604374	1.3639785
26.085419564266537	1.80299	1.3427546
26.103410765041186	1.7864965	1.3365989
26.12140262065155	1.8173355	1.3480859
26.139395131612723	1.8677279	1.3666484
26.157388298439948	1.8587086	1.3633447
26.17538212164861	1.8707743	1.3677624
26.193376601754295	1.8626055	1.364773
26.211371739272714	1.8920213	1.3755076
26.229367534719746	1.8588493	1.3633963
26.247363988611433	1.8499212	1.3601182
26.26536110146397	1.8387504	1.3560053
26.283358873793727	1.8344178	1.3544068
26.301357306117204	1.8459415	1.3586543
26.319356398951104	1.8491526	1.3598355
26.33735615281224	1.8482372	1.3594989
26.35535656821762	1.8024186	1.3425418
26.373357645684404	1.7791855	1.3338611
26.39135938572991	1.8192748	1.348805
26.409361788871614	1.8018839	1.3423427
26.427364855627165	1.7873584	1.3369212
26.445368586514352	1.8234783	1.3503623
26.46337298205115	1.8592083	1.3635279
26.48137804275568	1.8719293	1.3681847
26.499383769146217	1.8472061	1.3591197
26.517390161741215	1.8484323	1.3595706
26.53539722105928	1.8543589	1.3617485
26.553404947619182	1.9139836	1.3834679
26.571413341939856	1.8827289	1.3721257
26.589422404540397	1.8214513	1.3496115
26.60743213594006	1.7704287	1.3305745
26.62544253665827	1.7701029	1.3304521
26.64345360721459	1.783591	1.3355116
26.66146534812879	1.8344086	1.3544034
26.679477759920758	1.8764497	1.3698356
26.69749084311057	1.8445632	1.358147
26.71550459821847	1.8180302	1.3483435
26.733519025764842	1.8076471	1.3444877
26.751534126270258	1.767493	1.329471
26.769549900255434	1.7502228	1.3229599
26.787566348241267	1.8298036	1.3527024
26.80558347074881	1.8725196	1.3684003
26.823601268299267	1.8500524	1.3601663
26.841619741414036	1.825704	1.3511862
26.85963889061465	1.9151258	1.3838807
26.877658716422832	1.9034035	1.3796389
26.89567921936045	1.8510052	1.3605165
26.913700399949544	1.8172348	1.3480484
26.93172225871233	1.7789536	1.3337742
26.949744796171174	1.7956332	1.3400124
26.967768012848605	1.7724556	1.331336
26.98579190926733	1.7770935	1.3330767
27.003816485950225	1.775796	1.33259
27.021841743420318	1.7953414	1.3399035
27.039867682200814	1.7656939	1.3287941
27.057894302815072	1.78649	1.3365964
27.07592160578664	1.8187679	1.3486171
27.0939495916392	1.8499889	1.360143
27.111978260896635	1.8134391	1.34664
27.13000761408296	1.782563	1.3351265
27.148037651722397	1.8089914	1.3449875
27.166068374339304	1.862661	1.3647934
27.184099782458215	1.8257797	1.3512142
27.20213187660384	1.770262	1.3305119
27.22016465730105	1.7364073	1.317728
27.23819812507487	1.7743323	1.3320407
27.256232280450533	1.8152927	1.347328
27.274267123953383	1.8350326	1.3546337
27.292302656108987	1.8375307	1.3555555
27.31033887744306	1.8346276	1.3544843
27.32837578848146	1.8255645	1.3511345
27.34641338975026	1.8404081	1.3566164
27.364451681775673	1.8658218	1.365951
27.382490665084074	1.8593893	1.3635943
27.400530340202046	1.8481659	1.3594726
27.41857070765629	1.8392572	1.3561922
27.436611767973726	1.8540831	1.3616471
27.454653521681404	1.819953	1.3490564
27.472695969306564	1.796547	1.3403534
27.490739111376627	1.8188967	1.3486648
27.508782948419153	1.8553456	1.3621107
27.526827480961902	1.8343209	1.3543711
27.54487270953279	1.7990291	1.3412789
27.562918634659898	1.8357688	1.3549055
27.580965256871508	1.8423561	1.3573341
27.599012576696026	1.8163571	1.3477229
27.617060594662068	1.7900928	1.3379436
27.63510931129842	1.8099952	1.3453606
27.65315872713401	1.8102641	1.3454605
27.67120884269797	1.7744478	1.3320841
27.68925965851958	1.7759478	1.332647
27.707311175128307	1.8007027	1.3419026
27.725363393053787	1.8332765	1.3539854
27.74341631282583	1.8823792	1.3719982
27.7614699349744	1.9175745	1.3847651
27.77952426002968	2.1100593	1.4526043
27.797579288521973	2.132741	1.4603907
27.815635020981784	2.5065632	1.583213
27.83369145793979	2.5995288	1.6123054
27.85174859992682	2.439459	1.5618768
27.869806447473923	2.3038907	1.5178573
27.887865001112267	2.0398083	1.4282186
27.905924261373233	1.9703816	1.4037029
27.92398422878836	1.9206221	1.3858651
27.94204490388936	1.8875331	1.3738753
27.96010628720813	1.8833616	1.3723562
27.978168379276728	1.8936925	1.376115
27.9962311806274	1.8753556	1.3694363
28.014294691792568	1.866659	1.3662573
28.0323589133048	1.8343412	1.3543785
28.050423845696887	1.858056	1.3631053
28.068489489501758	1.8604887	1.3639973
28.086555845252523	1.8530338	1.3612618
28.104622913482487	1.8755959	1.369524
28.122690694725115	1.8893459	1.3745348
28.14075918951405	1.8905349	1.3749672
28.15882839838312	1.9033128	1.379606
28.176898321866304	1.8806734	1.3713765
28.1949689604978	1.8680632	1.3667711
28.213040314811945	1.8669474	1.3663628
28.23111238534327	1.9036638	1.3797332
28.249185172626493	1.9208164	1.3859352
28.267258677196473	1.9249307	1.3874187
28.285332899588294	1.8853635	1.3730854
28.303407840337172	1.8928576	1.3758116
28.321483499978545	1.8859668	1.3733051
28.33955987904799	1.8961343	1.3770019
28.357636978081285	1.896103	1.3769906
28.37571479761439	1.9313416	1.3897272
28.393793338183425	1.9650314	1.4017957
28.41187260032469	1.9571486	1.3989812
28.429952584574686	1.9947616	1.4123603
28.448033291470065	1.982763	1.4081062
28.46611472154769	1.9894881	1.4104922
28.484196875344566	1.9991897	1.4139271
28.502279753397914	1.9885215	1.4101495
28.52036335624511	1.9501724	1.3964857
28.538447684423716	1.9218614	1.3863121
28.556532738471482	1.920025	1.3856497
28.574618518926325	1.9267198	1.3880633
28.59270502632635	1.9301575	1.3893011
28.61079226120985	1.9770477	1.4060752
28.628880224115274	1.9996842	1.414102
28.646968915581287	1.9711354	1.4039713
28.66505833614671	1.975183	1.4054121
28.68314848635055	1.9876105	1.4098264
28.701239366732004	2.0147886	1.4194325
28.71933097783044	2.032555	1.4256771
28.737423320185403	2.0813289	1.4426812
28.75551639433665	2.1256604	1.4579644
28.773610200824074	2.1285443	1.4589531
28.791704740187793	2.1481762	1.4656658
28.80980001296809	2.1876762	1.4790795
28.827896019705413	2.1614485	1.4701866
28.845992760940433	2.1599882	1.4696898
28.86409023721397	2.1947627	1.4814732
28.88218844906704	2.2144277	1.4880953
28.900287397040845	2.2725554	1.5074997
28.918387081676755	2.2906237	1.5134807
28.936487503516343	2.297386	1.515713
28.954588663101365	2.3162925	1.5219371
28.97269056097374	2.3014827	1.5170639
28.990793197675597	2.285498	1.5117863
29.00889657374923	2.3830726	1.5437204
29.027000689737125	2.4071834	1.5515101
29.04510554618196	2.4071252	1.5514913
29.06321114362659	2.382632	1.5435777
29.08131748261405	2.4346461	1.5603353
29.099424563687567	2.5153065	1.5859718
29.11753238739057	2.603465	1.6135256
29.13564095426663	2.6418715	1.6253835
29.15375026485954	2.6158152	1.6173482
29.171860319713275	2.6631434	1.631914
29.18997111937199	2.6860332	1.6389122
29.20808266438002	2.7157128	1.647942
29.226194955281898	2.79698	1.6724174
29.244307992622335	2.9033163	1.703912
29.26242177694624	2.9492054	1.7173251
29.2805363087987	2.883431	1.6980668
29.29865158872498	2.8777835	1.6964031
29.316767617270557	2.9502575	1.7176313
29.334884394981064	2.9532177	1.7184929
29.353001922402367	2.9736125	1.7244166
29.37112020008047	3.07894	1.7546909
29.389239228561596	3.1502328	1.7748895
29.407359008392152	3.3465183	1.8293492
29.42547954011872	3.7534077	1.9373714
29.44360082428809	4.377118	2.0921564
29.46172286144722	5.4221416	2.3285491
29.479845652143283	7.0155888	2.6486957
29.497969196923606	9.26474	3.0438035
29.516093496335728	11.816516	3.437516
29.5342185509274	14.593438	3.8201358
29.55234436124651	16.956007	4.1177673
29.570470927841175	18.383696	4.287621
29.588598251259686	18.055191	4.2491403
29.60672633205055	16.683622	4.084559
29.624855170762405	14.472951	3.8043332
29.642984767944146	11.779806	3.4321723
29.66111512414481	9.158624	3.026322
29.67924623991366	6.8000307	2.6076868
29.697378115800138	5.129222	2.2647786
29.71551075235387	4.17015	2.0420945
29.733644150124675	3.7814252	1.9445887
29.751778309662576	3.6049774	1.8986778
29.769913231517766	3.4665067	1.8618557
29.78804891624066	3.3565178	1.8320801
29.806185364381818	3.35034	1.8303933
29.82432257649206	3.3187518	1.8217442
29.842460553122333	3.3120189	1.8198953
29.86059929482382	3.2902946	1.8139169
29.878738802147872	3.2840655	1.8121991
29.896879075646048	3.3146572	1.8206201
29.915020115870114	3.2944868	1.8150721
29.933161923371976	3.2869818	1.8130035
29.951304498703777	3.248277	1.8022977
29.969447842417857	3.2324665	1.7979062
29.987591955066733	3.210083	1.7916704
30.005736837203123	3.189751	1.7859874
30.023882489379943	3.2288942	1.7969124
30.04202891215028	3.238238	1.7995105
30.060176106067455	3.2223856	1.7951005
30.078324071684946	3.143121	1.772885
30.09647280955646	3.1534896	1.7758068
30.114622320235863	3.2014751	1.7892667
30.132772604277257	3.1684356	1.78001
30.1509236622349	3.1034436	1.7616594
30.16907549466328	3.0414102	1.743964
30.18722810211705	3.0398874	1.7435273
30.205381485151097	3.0874434	1.7571123
30.22353564432045	3.1353533	1.770693
30.241690580180403	3.1757336	1.7820588
30.25984629328638	3.159336	1.7774521
30.278002784194037	3.0416496	1.7440326
30.296160053459246	2.9530964	1.7184576
30.314318101638033	2.9397557	1.7145716
30.332476929286646	2.9969883	1.7311811
30.35063653696153	2.9962454	1.7309666
30.368796925219307	2.9575524	1.7197536
30.386958094616844	2.9135237	1.7069046
30.40512004571115	2.8505132	1.6883463
30.423282779059463	2.8167076	1.678305
30.441446295219233	2.9010997	1.7032615
30.459610594748067	2.9211912	1.7091492
30.47777567820382	2.854157	1.689425
30.495941546144504	2.7949438	1.6718086
30.51410819912835	2.8200285	1.6792941
30.532275637713795	2.8843217	1.6983291
30.55044386245946	2.8596027	1.691036
30.56861287392416	2.8412752	1.6856083
30.586782672666956	2.8577237	1.6904804
30.604953259247047	2.8589754	1.6908505
30.623124634223885	2.843553	1.6862838
30.641296798157075	2.801303	1.6737093
30.659469751606462	2.7904148	1.6704534
30.677643495132074	2.7799823	1.6673279
30.695818029294152	2.7333727	1.6532915
30.713993354653116	2.7494495	1.6581464
30.73216947176962	2.7344818	1.6536269
30.75034638120448	2.7418225	1.6558449
30.768524083518756	2.75521	1.6598825
30.786702579273673	2.7766745	1.6663357
30.80488186903069	2.8538735	1.6893412
30.82306195335144	2.9882312	1.7286501
30.841242832797782	3.1627254	1.7784053
30.85942450793176	3.420978	1.8495886
30.877606979315637	3.7896678	1.9467069
30.895790247511883	4.1213346	2.030107
30.913974313083134	4.508889	2.1234145
30.932159176592283	4.8584538	2.20419
30.95034483860237	4.948094	2.224431
30.968531299676698	4.6791644	2.1631377
30.98671856037873	4.3399553	2.083256
31.00490662127215	4.039619	2.0098803
31.023095482920848	3.6543837	1.9116442
31.04128514588892	3.1204593	1.7664822
31.059475610740662	2.7430449	1.656214
31.07766687804056	2.574836	1.6046295
31.09585894835335	2.4945333	1.5794091
31.11405182224393	2.480166	1.5748543
31.132245500277417	2.5035882	1.5822731
31.15043998301914	2.4929166	1.5788972
31.168635271034628	2.4169214	1.5546451
31.18683136488964	2.3973663	1.5483431
31.20502826515008	2.4001162	1.5492308
31.223225972382135	2.4370575	1.5611078
31.241424487152155	2.4310179	1.5591722
31.259623810026692	2.4559655	1.567152
31.27782394157253	2.459306	1.5682175
31.296024882356644	2.4009051	1.5494854
31.314226632946237	2.3825057	1.5435368
31.332429193908684	2.405002	1.5508069
31.350632565811598	2.5391905	1.5934838
31.368836749222787	2.6008673	1.6127205
31.387041744710295	2.5886483	1.6089277
31.40524755284232	2.5854015	1.6079184
31.423454174187317	2.471085	1.5719686
31.441661609313922	2.4310694	1.5591887
31.459869858791002	2.4484532	1.5647534
31.478078923187628	2.4193087	1.5554127
31.496288803073064	2.4079707	1.5517638
31.514499499016807	2.4124515	1.5532068
31.532711011588546	2.3063874	1.5186795
31.550923341358178	2.24806	1.4993532
31.56913648889584	2.3127973	1.5207884
31.587350454771844	2.3545685	1.5344603
31.605565239556732	2.3244925	1.5246286
31.62378084382127	2.2884302	1.5127559
31.641997268136382	2.248577	1.4995257
31.660214513073274	2.2590344	1.5030085
31.67843257920331	2.3691385	1.5392005
31.6966514670981	2.394426	1.5473933
31.71487117732944	2.328736	1.5260197
31.733091710469346	2.2955205	1.5150975
31.751313067090052	2.326345	1.525236
31.769535247764008	2.2877295	1.5125242
31.787758253063878	2.2504969	1.5001656
31.805982083562526	2.2786167	1.5095087
31.824206739833024	2.310085	1.5198964
31.84243222244869	2.2669768	1.5056483
31.860658531983013	2.227173	1.4923717
31.878885669009737	2.2186263	1.4895054
31.897113634102784	2.1932065	1.4809479
31.91534242783632	2.204213	1.4846592
31.933572050784694	2.20781	1.4858701
31.951802503522508	2.2637758	1.5045849
31.970033786624548	2.2775297	1.5091487
31.988265900665834	2.2383108	1.4960985
32.006498846221575	2.2385988	1.4961948
32.02473262386724	2.2526865	1.5008953
32.04296723417845	2.2590563	1.5030158
32.0612026777311	2.2150779	1.4883138
32.07943895510129	2.1903257	1.4799749
32.097676066865304	2.1611843	1.4700967
32.115914013599685	2.172228	1.4738481
32.13415279588115	2.22965	1.4932013
32.152392414286666	2.211028	1.4869527
32.1706328693934	2.1902192	1.4799389
32.18887416177875	2.1087787	1.4521635
32.20711629202032	2.0527909	1.4327564
32.225359260695924	2.0972855	1.4482008
32.243603068383614	2.1616976	1.4702712
32.26184771566166	2.195923	1.4818647
32.28009320310852	2.274875	1.5082688
32.2983395313029	2.2359195	1.4952991
32.31658670082372	2.1388266	1.4624728
32.33483471225012	2.1454153	1.4647236
32.35308356616143	2.137049	1.461865
32.371333263137245	2.1217985	1.4566394
32.38958380375734	2.1328423	1.4604254
32.407835188601744	2.1235569	1.4572428
32.42608741825067	2.0867622	1.444563
32.444340493284585	2.031684	1.4253715
32.46259441428416	1.9788883	1.4067296
32.48084918183028	2.0020435	1.4149358
32.49910479650405	2.046481	1.4305526
32.51736125888683	2.0698137	1.4386847
32.53561856956014	2.0370128	1.4272395
32.5538767291058	2.068896	1.4383658
32.572135738105764	2.1424325	1.4637051
32.59039559714228	2.1141446	1.4540098
32.608656306797776	2.0448825	1.4299939
32.62691786765491	2.064493	1.4368343
32.645180280296586	2.1104634	1.4527434
32.663443545305896	2.0535452	1.4330196
32.68170766326619	1.9739429	1.4049708
32.69997263476099	1.906361	1.3807104
32.7182384603741	1.9605944	1.4002123
32.7365051406895	2.026591	1.4235839
32.75477267629144	2.0463398	1.4305034
32.77304106776434	2.0232856	1.4224224
32.79131031569289	2.0352623	1.4266262
32.809580420661966	2.005209	1.416054
32.827851383256714	1.9741093	1.40503
32.84612320406245	1.8975153	1.3775033
32.86439588366476	1.8894948	1.374589
32.88266942264945	1.9393644	1.3926107
32.9009438216025	1.9293092	1.3889958
32.9192190811102	1.9532864	1.3976002
32.937495201758985	1.9424294	1.3937106
32.95577218413556	1.9852263	1.4089806
32.974050028826866	1.9867035	1.4095047
32.992328736420035	2.029141	1.4244791
33.010608307502444	2.0111337	1.4181445
33.02888874266169	1.9025998	1.3793476
33.047170042485604	1.8140169	1.3468544
33.06545220756225	1.8959922	1.3769503
33.083735238479896	1.9782611	1.4065067
33.10201913582707	2.0236802	1.4225612
33.12030390019248	2.0269868	1.4237229
33.138589532165135	1.927133	1.3882122
33.15687603233419	1.9282634	1.3886193
33.17516340128909	1.97686	1.4060086
33.19345163961947	1.9468163	1.3952836
33.211740747915215	2.0016978	1.4148136
33.23003072676643	1.9704118	1.4037136
33.248321576763466	1.9642224	1.4015073
33.266613298496885	1.9963037	1.4129062
33.28490589255747	2.0762682	1.4409262
33.30319935953626	2.0223453	1.4220918
33.32149370002451	1.8949325	1.3765655
33.339788914613706	1.8838816	1.3725456
33.358085003895575	1.8884676	1.3742152
33.376381968462034	1.8872511	1.3737726
33.39467980890529	1.9089346	1.381642
33.41297852581774	1.9449482	1.394614
33.43127811979204	2.0243342	1.422791
33.44957859142105	2.0017402	1.4148287
33.467879941297866	1.9302906	1.389349
33.486182170015844	1.8999189	1.3783754
33.50448527816853	2.0174305	1.4203628
33.522789266349754	2.1388395	1.4624772
33.541094135153514	2.0602758	1.435366
33.55939988517411	2.0348883	1.4264951
33.57770651700602	1.9362785	1.3915023
33.59601403124398	1.9452093	1.3947076
33.61432242848296	1.9957428	1.4127076
33.632631709318154	1.9448826	1.3945905
33.650941874344994	1.849174	1.3598434
33.66925292415916	1.8028808	1.342714
33.68756485935654	1.8408877	1.3567932
33.70587768053328	1.8895824	1.3746208
33.724191388285746	1.891764	1.3754141
33.74250598321054	1.8385826	1.3559434
33.760821465904506	1.9196593	1.3855177
33.77913783696474	1.9843416	1.4086666
33.79745509698852	1.9894158	1.4104666
33.815773246573414	1.9625479	1.4009097
33.8340922863172	1.9386878	1.3923677
33.852412216817896	1.9467281	1.395252
33.87073303867377	1.9695436	1.4034042
33.889054752483304	1.9228687	1.3866755
33.907377358845245	1.9337962	1.39061
33.92570085835853	1.8776044	1.370257
33.94402525162239	1.8705498	1.3676804
33.96235053923627	1.9353962	1.3911852
33.980676721799824	1.9904598	1.4108366
33.999003799912984	1.9684666	1.4030205
34.01733177417592	1.9165448	1.3843933
34.03566064518901	1.9258767	1.3877596
34.0539904135529	1.8865439	1.3735151
34.07232107986846	1.8330084	1.3538864
34.090652644736785	1.7416096	1.3197006
34.108985108759235	1.7627289	1.327678
34.12731847253742	1.807361	1.3443813
34.14565273667313	1.8978685	1.3776315
34.16398790176847	1.9606717	1.4002398
34.18232396842574	1.9739904	1.4049877
34.20066093724749	2.0458643	1.4303372
34.21899880883651	2.0921369	1.4464221
34.23733758379583	2.081037	1.44258
34.25567726272874	2.0365922	1.4270922
34.27401784623872	1.9104934	1.382206
34.29235933492957	2.0044887	1.4157996
34.31070172940526	2.0181174	1.4206046
34.32904503027003	1.8421521	1.357259
34.347389238128386	1.6986398	1.3033187
34.36573435358502	1.844533	1.3581358
34.38408037724492	2.0260746	1.4234025
34.402427309713296	2.020623	1.4214861
34.42077515159559	2.0450785	1.4300624
34.43912390349752	2.1036167	1.450385
34.45747356602499	2.0430355	1.4293479
34.47582413978423	2.0687385	1.438311
34.49417562538163	2.0571578	1.4342796
34.51252802342388	2.0788057	1.4418064
34.53088133451789	2.039181	1.4279989
34.54923555927084	1.9512197	1.3968606
34.567590698290104	1.9489839	1.3960601
34.58594675218336	1.9517872	1.3970637
34.6043037215585	2.0179691	1.4205524
34.62266160702365	1.907046	1.3809583
34.641020409187234	1.7963663	1.3402859
34.65938012865785	1.8500398	1.3601617
34.677740766044394	1.9887546	1.4102321
34.69610232195598	2.0784626	1.4416875
34.714464797002016	2.0863318	1.444414
34.73282819179208	1.9847708	1.408819
34.751192506936064	1.8642936	1.3653914
34.76955774304408	1.6972872	1.3027997
34.7879239007265	1.7843047	1.3357787
34.80629098059391	1.8350143	1.354627
34.824658983257194	1.7612984	1.3271391
34.843027909327446	1.8768537	1.3699831
34.86139775941603	2.0388772	1.4278926
34.879768534134534	2.1356175	1.4613752
34.89814023409483	1.9968506	1.4130996
34.91651285990901	1.8791846	1.3708335
34.93488641218944	1.8656101	1.3658733
34.95326089154871	2.0742393	1.4402219
34.97163629859967	2.1579053	1.468981
34.99001263395542	2.0065036	1.416511
35.00838989822934	1.7858988	1.3363752
35.02676809203499	1.6364357	1.2792325
35.04514721598624	1.9033604	1.3796233
35.063527270697215	2.1693566	1.4728736
35.081908256782256	2.1102154	1.452658
35.10029017485597	1.921454	1.3861651
35.11867302553321	1.8685969	1.3669664
35.137056809429104	1.9396601	1.3927168
35.155441527159006	1.7661686	1.3289728
35.173827179338524	1.8094399	1.3451543
35.19221376658354	2.0934446	1.446874
35.21060128951017	2.1191807	1.4557406
35.2289897487348	1.8372276	1.3554437
35.24737914487405	1.9846858	1.4087888
35.26576947854479	2.3188787	1.5227865
35.28416075036418	2.2644663	1.5048144
35.30255296094958	2.1942003	1.4812833
35.32094611091867	2.026567	1.4235754
35.33934020088932	1.7926084	1.3388833
35.35773523147969	1.7401315	1.3191404
35.3761312033082	1.876634	1.369903
35.394528116993506	2.026829	1.4236674
35.41292597315452	2.3073926	1.5190104
35.431324772410434	2.1349247	1.4611381
35.449724515380666	1.8258488	1.3512397
35.46812520268491	1.7055733	1.305976
35.486526834943106	2.130199	1.4595201
35.504929412775454	2.3037956	1.517826
35.52333293680242	1.9741164	1.4050325
35.54173740764471	2.0891201	1.4453789
35.560142825923286	2.1079452	1.4518764
35.5785491922594	1.8365521	1.3551944
35.59695650727454	1.7050029	1.3057576
35.61536477159042	1.4633409	1.2096863
