0.008763373481513119	0.0	0.0
0.026290120649546365	0.0	0.0
0.043816868432600686	0.0	0.0
0.06134361724069026	0.01719954	0.13114701
0.07887036748382949	0.07350938	0.27112612
0.0963971195720331	0.06077644	0.24652877
0.11392387391531617	0.047370777	0.21764828
0.1314506309236943	0.040511053	0.20127358
0.1489773910071836	0.11455591	0.3384611
0.16650415457580078	0.14655568	0.3828259
0.18403092203956356	0.17361076	0.41666624
0.20155769380849	0.18616584	0.43146938
0.2190844702925996	0.2060112	0.45388457
0.2366112519019124	0.1831561	0.4279674
0.2541380390464497	0.15857331	0.39821264
0.27166483213623416	0.09962116	0.3156282
0.28919163158128947	0.12177968	0.34896946
0.3067184377916406	0.07935456	0.28169942
0.324245251177314	0.1015839	0.31872228
0.34177207214833777	0.145749	0.38177088
0.3592989011147415	0.18466179	0.42972293
0.37682573848655654	0.21108943	0.4594447
0.39435258467381573	0.23020078	0.47979245
0.41187944008655414	0.21246767	0.46094215
0.42940630513480854	0.22359446	0.47285774
0.446933180228618	0.16010766	0.40013456
0.4644600657780234	0.14235005	0.37729305
0.48198696219306775	0.118061356	0.34360057
0.49951386988379676	0.13145621	0.3625689
0.5170407892602581	0.13206604	0.36340892
0.5345677207325025	0.11668682	0.34159452
0.5520946647105822	0.12853435	0.35851687
0.5696216216045534	0.15253533	0.39055774
0.5871485918244737	0.20653054	0.4544563
0.6046755757804043	0.21775441	0.46664163
0.6222025738824094	0.18301581	0.42780346
0.6397295865405557	0.13356104	0.36546004
0.6572566141649129	0.13029799	0.3609681
0.6747836571655547	0.16216245	0.402694
0.6923107159525568	0.17379804	0.41689092
0.7098377909359992	0.19805606	0.4450349
0.7273648825259653	0.17056464	0.4129947
0.7448919911325411	0.15717871	0.3964577
0.762419117165817	0.20153542	0.44892696
0.7799462610358868	0.26092216	0.5108054
0.7974734231528482	0.27762634	0.5269026
0.8150006039268024	0.2752012	0.5245962
0.8325278037678551	0.2537603	0.5037463
0.8500550230861152	0.22889802	0.47843286
0.8675822622916969	0.23400392	0.48373953
0.8851095217947171	0.18398157	0.42893073
0.9026368020052984	0.19306047	0.4393865
0.9201641033335665	0.18098426	0.42542246
0.9376914261896523	0.18245944	0.42715272
0.9552187709836915	0.18042809	0.42476827
0.9727461381258234	0.17441756	0.41763327
0.990273528026193	0.19861366	0.44566092
1.0078009410949496	0.19945912	0.44660845
1.0253283777422473	0.18409397	0.42906174
1.0428558383782454	0.20200227	0.44944662
1.0603833234131086	0.23579933	0.48559174
1.0779108332570058	0.27955797	0.5287324
1.0954383683201119	0.29698128	0.5449599
1.112965929012607	0.3561403	0.5967749
1.1304935157446763	0.4830787	0.6950386
1.1480211289265108	0.53964967	0.73460853
1.1655487689683062	1.4639227	1.2099267
1.1830764362802655	1.7897835	1.3378279
1.200604131272596	2.1967196	1.4821335
1.2181318543555117	2.4254754	1.5573938
1.235659605939232	2.4823575	1.57555
1.253187386433982	4.168985	2.0418093
1.270715196249994	6.571097	2.563415
1.2882430357975057	12.092739	3.4774616
1.3057709054867608	16.940533	4.1158876
1.3232988057280106	22.749495	4.769643
1.3408267369315112	27.65819	5.259105
1.358354699507526	31.18881	5.5846944
1.3758826938663256	35.570248	5.96408
1.3934107204181858	37.426945	6.1177564
1.410938779573391	37.704277	6.140381
1.4284668717422309	38.389072	6.1958914
1.4459949973350033	38.142754	6.175982
1.4635231567620117	38.297832	6.1885242
1.4810513504335687	37.45042	6.1196747
1.4985795787599925	36.373127	6.031014
1.5161078421516088	35.72967	5.9774303
1.5336361410187505	35.156345	5.929279
1.5511644757717598	35.51316	5.959292
1.5686928468209842	36.09626	6.008016
1.58622125457678	36.467636	6.038844
1.6037496994495108	37.24418	6.102801
1.621278181849548	36.98281	6.0813494
1.6388067021872719	37.96944	6.161935
1.6563352608730693	37.791557	6.147484
1.673863858317336	37.133442	6.0937214
1.6913924949304753	36.38735	6.0321927
1.7089211711228998	35.469643	5.9556394
1.7264498873050296	34.534428	5.8766
1.7439786438872935	33.576893	5.794557
1.7615074412801288	32.63292	5.712523
1.779036279893981	31.778223	5.6372175
1.796565160139305	30.502659	5.522921
1.814094082426564	30.051071	5.481886
1.8316230471662298	29.191229	5.4028907
1.849152054768784	28.064468	5.2975907
1.8666811056447168	27.330435	5.227852
1.8842102002045273	26.614275	5.1589026
1.901739338858724	26.450027	5.142959
1.9192685220178245	26.130148	5.111766
1.9367977500923557	25.43194	5.043009
1.9543270234928547	24.710619	4.970978
1.971856342629867	23.899483	4.8887095
1.9893857079139496	23.330336	4.8301487
2.006915119755667	22.735056	4.7681293
2.0244445785655945	22.381805	4.7309413
2.0419740847543175	21.88564	4.678209
2.0595036387324317	21.222668	4.6068068
2.0770332409105414	20.775534	4.5580187
2.094562891699263	20.527395	4.530717
2.1120925915092217	20.195229	4.4939103
2.129622340751053	19.968552	4.4686184
2.1471521398354043	188.11424	13.715474
2.1646819891729323	444.46408	21.082317
2.182211889174303	440.65146	20.9917
2.1997418402501974	452.8794	21.280964
2.2172718428113023	432.68338	20.801043
2.234801897268317	320.66272	17.907059
2.2523320040319548	17.205868	4.1479955
2.269862163512935	16.88475	4.1091056
2.287392376121992	16.67979	4.0840898
2.304922642269869	16.276798	4.0344515
2.322452962367322	15.918549	3.9898057
2.3399833368251164	15.568844	3.9457374
2.357513766054032	15.368854	3.920313
2.3750442504648586	15.371154	3.9206064
2.3925747904683963	15.075909	3.8827708
2.410105386475459	14.766731	3.8427505
2.4276360388968707	14.453992	3.8018405
2.445166748143469	14.157094	3.7625914
2.4626975146261025	13.912793	3.7299857
2.4802283387556323	13.761641	3.7096686
2.4977592209429305	13.620545	3.6906023
2.5152901615988825	13.248037	3.6397853
2.5328211611343865	12.849012	3.5845518
2.5503522199603523	12.632501	3.5542228
2.5678833384877024	12.34233	3.5131652
2.5854145171273712	12.139336	3.484155
2.6029457562903064	11.963927	3.4588912
2.620477056387469	11.983506	3.4617202
2.6380084178298326	11.945185	3.4561806
2.655539841028383	11.886172	3.4476328
2.673071326394119	11.7948065	3.4343567
2.6906028743380523	11.580886	3.40307
2.708134485271211	11.484949	3.388945
2.7256661596046325	11.206236	3.3475716
2.743197897749369	10.893363	3.3005095
2.760729700116486	10.817447	3.2889886
2.778261567117063	10.595429	3.255062
2.795793499162193	10.552864	3.2485173
2.8133254966629817	10.279253	3.2061274
2.830857560030551	10.017933	3.1651118
2.8483896896760337	9.751869	3.1227982
2.865921886010578	9.556762	3.0914013
2.883454149445347	9.52711	3.0866017
2.9009864803915177	9.432798	3.0712862
2.91851887926028	9.313167	3.051748
2.9360513464628384	9.245427	3.0406294
2.953583882410413	9.080705	3.0134208
2.9711164875142373	8.92873	2.9880981
2.9886491621855606	8.797272	2.9660194
3.0061819068356455	8.619915	2.935969
3.023714721875769	8.623163	2.9365222
3.041247607717225	8.616392	2.9353693
3.0587805647713213	8.52981	2.9205837
3.0763135934493806	8.441182	2.9053712
3.0938466941627407	8.252644	2.8727415
3.1113798673227544	8.042018	2.8358452
3.1289131133407904	7.883295	2.8077207
3.1464464326282315	7.735911	2.7813506
3.1639798255964786	7.6544313	2.7666643
3.1815132926569443	7.6120596	2.758996
3.1990468342210603	7.618258	2.7601192
3.216580450700272	7.543389	2.7465231
3.2341141425060416	7.509281	2.7403069
3.251647910049847	7.5021577	2.7390068
3.2691817537431813	7.4058313	2.7213657
3.286715673997555	7.284208	2.6989272
3.3042496712244938	7.0907154	2.6628397
3.32178374583554	6.9792013	2.6418178
3.339317898242251	6.955842	2.637393
3.3568521288562034	6.924842	2.6315095
3.3743864380889876	6.874896	2.6220024
3.3919208263522127	6.7518883	2.5984397
3.4094552940575023	6.6215076	2.573229
3.4269898416164972	6.6191177	2.5727646
3.444524469440858	6.611282	2.5712414
3.4620591779422587	6.5682406	2.5628579
3.479593967532391	6.5468416	2.5586796
3.4971288386229658	6.51151	2.551766
3.5146637916257086	6.5255747	2.5545204
3.5321988269523628	6.4538155	2.540436
3.5497339450146903	6.404285	2.530669
3.5672691462244708	6.3511624	2.5201514
3.5848044309934988	6.266863	2.5033703
3.60233979973359	6.2415395	2.4983072
3.619875252856575	6.296426	2.509268
3.6374107907743034	6.351564	2.520231
3.6549464138986427	6.431274	2.5359957
3.6724821226414788	6.4107833	2.5319524
3.690017917414714	6.42359	2.5344803
3.7075537986302702	6.4411707	2.5379462
3.7250897667000857	6.4535804	2.5403898
3.7426258220361235	6.517476	2.552935
3.7601619650503553	6.800942	2.6078615
3.777698196154779	7.271332	2.6965406
3.7952345157614067	8.396226	2.8976243
3.8127709242822716	9.377453	3.0622628
3.830307422129425	11.716653	3.4229596
3.847844009714936	30.601223	5.531837
3.8653806874508954	97.92539	9.895726
3.882917455749409	97.03762	9.850767
3.900454315022606	96.89283	9.843415
3.917991265682631	41.634262	6.4524617
3.9355283081416506	11.297966	3.3612447
3.9530654428118495	9.089613	3.0148985
3.970602670105433	7.76849	2.7872012
3.9881399904346244	6.75447	2.5989363
4.005677404211669	6.6505227	2.5788608
4.023214911848827	6.547361	2.5587811
4.0407525137583855	6.6122518	2.57143
4.058290210352644	6.6301064	2.5748992
4.075828002043927	6.5243363	2.5542781
4.0933658892445814	6.452537	2.5401845
4.110903872366966	6.3514876	2.5202157
4.128441951823468	6.2173553	2.4934626
4.145980128026488	6.17607	2.4851701
4.163518401388452	6.11614	2.473083
4.181056772321807	6.153344	2.4805934
4.1985952412390155	6.207913	2.4915683
4.216133808552567	6.206172	2.491219
4.233672474674966	6.215443	2.493079
4.251211240018741	6.4023485	2.5302863
4.268750104996445	6.6374774	2.5763302
4.286289070020643	7.5419927	2.7462687
4.303828135503928	9.261103	3.043206
4.3213673018589125	29.711725	5.450846
4.3389065694982305	91.023224	9.540609
4.356445938834537	166.29944	12.895714
4.3739854102805085	171.88383	13.110448
4.391524984248844	172.79933	13.145316
4.409064661152262	136.98763	11.704171
4.426604441403504	97.28203	9.863165
4.444144325415337	76.29637	8.734779
4.461684313600543	22.055485	4.6963267
4.47922440637193	22.430954	4.7361326
4.496764604142329	20.729202	4.552933
4.5143049073245916	18.94491	4.3525753
4.531845316331589	16.824717	4.1017942
4.5493858315762195	13.815718	3.71695
4.566926453471405	11.518441	3.393883
4.584467182430081	9.391968	3.0646317
4.602008018865218	8.214011	2.8660097
4.619548963189798	7.5091023	2.7402742
4.637090015816834	7.028298	2.6510937
4.654631177159353	6.8110394	2.6097968
4.672172447630417	6.5511293	2.5595174
4.689713827643102	6.455969	2.54086
4.7072553176105085	6.19047	2.4880655
4.724796917945764	6.010485	2.4516292
4.742338629062015	5.844191	2.4174762
4.759880451372434	5.8648777	2.421751
4.777422385290215	5.8566327	2.420048
4.794964431228581	5.8339252	2.415352
4.812506589600768	5.747547	2.3974042
4.830048860820047	5.6362033	2.374069
4.847591245299709	5.689383	2.3852427
4.8651337434530655	5.6802444	2.3833263
4.882676355693457	5.5802197	2.362249
4.900219082434242	5.5905137	2.3644266
4.917761924088813	5.5775404	2.3616817
4.935304881070575	5.588007	2.3638966
4.952847953792969	5.569735	2.3600285
4.970391142669449	5.553235	2.3565302
4.9879344481135055	5.527778	2.3511229
5.005477870538642	5.4867263	2.3423762
5.023021410358394	5.480196	2.340982
5.040565067986324	5.4443107	2.3333046
5.05810884383601	5.410437	2.3260345
5.075652738321066	5.4301906	2.330277
5.09319675185512	5.409198	2.3257682
5.110740884851836	5.3533525	2.3137312
5.128285137724894	5.2633486	2.294199
5.145829510888007	5.2678323	2.2951758
5.163374004754908	5.3935304	2.3223975
5.1809186197393595	5.3894176	2.321512
5.198463356255145	5.3513784	2.3133047
5.216008214716077	5.26788	2.2951863
5.233553195535998	5.2672296	2.2950447
5.251098299128764	5.3049846	2.3032553
5.268643525908272	5.404479	2.3247535
5.286188876288432	5.438194	2.3319936
5.3037343506831895	5.3553987	2.3141735
5.32127994950651	5.24369	2.2899106
5.3388256731723915	5.187712	2.277655
5.356371522094851	5.1875253	2.2776139
5.373917496687938	5.234811	2.2879708
5.391463597365729	5.1827035	2.2765553
5.40900982454232	5.2273965	2.28635
5.426556178631843	5.334365	2.3096244
5.444102660048449	5.367479	2.316782
5.4616492692063225	5.3768826	2.3188107
5.479196006519669	5.3068953	2.30367
5.496742872402727	5.249197	2.2911127
5.514289867269756	5.2356715	2.288159
5.531836991535049	5.251853	2.2916923
5.549384245612924	5.2339163	2.2877755
5.566931629917724	5.221991	2.2851677
5.584479144863822	5.1510754	2.269598
5.6020267908656205	5.157707	2.2710586
5.619574568337545	5.189015	2.277941
5.637122477694054	5.1992154	2.2801788
5.654670519349629	5.180602	2.2760935
5.672218693718784	5.1714315	2.2740781
5.689767001216059	5.206104	2.2816887
5.707315442256021	5.2288547	2.286669
5.724864017253266	5.257805	2.2929904
5.7424127266224225	5.2760644	2.2969685
5.75996157077814	5.3050017	2.303259
5.777510550135105	5.388949	2.321411
5.795059665108022	5.3617973	2.3155556
5.812608916111639	5.4219112	2.3284998
5.830158303560715	5.5198264	2.349431
5.847707827870055	5.5921855	2.3647802
5.86525748945448	5.646082	2.3761485
5.8828072887288485	5.630793	2.3729293
5.900357226108044	5.562742	2.3585467
5.917907302006979	5.5773005	2.361631
5.9354575168406	6.215826	2.493156
5.9530078710238765	6.9581556	2.6378317
5.970558364971812	7.581774	2.7535021
5.988108999099438	7.862099	2.8039434
6.005659773821818	8.338541	2.887653
6.023210689554039	7.958427	2.8210685
6.040761746711227	8.325124	2.885329
6.058312945708531	7.6627016	2.7681584
6.075864286961132	7.2617807	2.6947691
6.093415770884244	6.72488	2.5932374
6.1109673978931065	6.2959194	2.5091672
6.128519168402993	5.7323318	2.394229
6.146071082829204	5.4961123	2.344379
6.163623141587075	5.3579082	2.3147156
6.181175345091969	5.305372	2.3033395
6.198727693759281	5.3020163	2.3026106
6.216280188004435	5.2466455	2.2905557
6.233832828242885	5.1841	2.276862
6.251385614890126	5.20847	2.2822073
6.268938548361669	5.191903	2.2785747
6.286491629073067	5.17874	2.2756846
6.304044857439898	5.1845765	2.2769666
6.321598233877777	5.1761236	2.2751095
6.339151758802344	5.1928716	2.2787874
6.356705432629277	5.148994	2.2691395
6.37425925577428	5.191592	2.2785065
6.391813228653095	5.1781583	2.2755568
6.409367351681486	5.1094055	2.2603993
6.426921625275259	5.0480375	2.2467837
6.44447604985025	5.0044975	2.2370734
6.46203062582232	5.0326576	2.2433586
6.47958535360737	5.0219545	2.2409718
6.497140233621328	5.03131	2.2430582
6.514695266280161	5.0486174	2.246913
6.532250451999859	4.9954996	2.2350614
6.549805791196454	5.012907	2.2389522
6.567361284286002	4.9676976	2.2288332
6.584916931684597	4.9897428	2.2337732
6.602472733808367	4.970692	2.2295048
6.6200286910734665	4.9670053	2.228678
6.637584803896092	4.9956493	2.235095
6.655141072692462	5.0311675	2.2430265
6.672697497878842	5.072042	2.2521195
6.690254079871514	5.058705	2.2491565
6.707810819086808	5.0879016	2.2556376
6.725367715941078	5.027954	2.24231
6.742924770850719	5.0454955	2.246218
6.760481984232151	5.0242352	2.2414806
6.778039356501836	5.014804	2.2393758
6.795596888076266	5.0293465	2.2426205
6.813154579371963	5.013925	2.2391796
6.830712430805492	5.0979414	2.257862
6.84827044279344	5.123313	2.2634737
6.865828615752445	5.1472635	2.268758
6.883386950099159	5.1409616	2.2673688
6.900945446250287	5.171838	2.2741675
6.918504104622553	5.1295953	2.2648609
6.936062925632727	5.124229	2.263676
6.953621909697607	5.105832	2.2596087
6.971181057234028	5.126999	2.2642877
6.988740368658859	5.1636167	2.2723594
7.006299844389007	5.2724233	2.2961757
7.023859484841407	5.380491	2.3195884
7.041419290433036	5.4075203	2.3254075
7.058979261580902	5.431617	2.3305829
7.0765393987020495	5.6651907	2.380166
7.094099702213559	6.1432953	2.4785671
7.111660172532549	6.564639	2.5621552
7.129220810076164	6.901972	2.6271603
7.146781615261595	7.4748383	2.734015
7.16434258850606	7.725202	2.7794247
7.181903730226821	8.235901	2.8698258
7.1994650408411704	8.283297	2.8780718
7.217026520766437	8.36464	2.8921688
7.234588170419983	8.640937	2.939547
7.252149990219215	8.674957	2.945328
7.269711980581568	8.553894	2.924704
7.2872741419245175	8.335729	2.8871663
7.304836474665574	7.883867	2.8078225
7.322398979222286	7.600097	2.7568274
7.339961656012233	7.24456	2.691572
7.357524505453039	6.893165	2.6254838
7.375087527962357	6.576574	2.5644832
7.392650723957886	6.2948613	2.5089562
7.410214093857353	6.0440545	2.4584658
7.427777638078528	5.8381586	2.4162283
7.445341357039213	5.6603045	2.3791394
7.4629052511572525	5.4813843	2.3412356
7.480469320850524	5.379695	2.319417
7.498033566536948	5.3650317	2.316254
7.5155979886344735	5.3101773	2.304382
7.5331625875610975	5.269414	2.2955203
7.550727363734844	5.218905	2.2844923
7.568292317573788	5.152203	2.2698464
7.585857449496025	5.20283	2.2809713
7.603422759919705	5.190189	2.2781987
7.620988249263007	5.2478065	2.2908092
7.638553917944147	5.247681	2.2907817
7.656119766381391	5.297515	2.3016331
7.673685794993023	5.3237886	2.3073337
7.691252004197388	5.2741055	2.2965422
7.70881839441285	5.228157	2.2865164
7.726384966057826	5.2330956	2.287596
7.743951719550762	5.282844	2.2984438
7.761518655310149	5.3136706	2.30514
7.779085773754511	5.3482366	2.3126254
7.796653075302419	5.391487	2.3219576
7.814220560372475	5.364284	2.3160925
7.831788229383323	5.381998	2.3199134
7.8493560827536495	5.355886	2.3142786
7.866924120902174	5.383054	2.3201408
7.884492344247663	5.421079	2.3283212
7.9020607532089135	5.446205	2.3337107
7.919629348204771	5.406153	2.3251135
7.937198129654115	5.3699074	2.317306
7.954767097975865	5.389782	2.3215904
7.972336253588986	5.3948493	2.3226814
7.989905596912472	5.446954	2.333871
8.007475128365371	5.4535584	2.3352854
8.025044848366756	5.4983053	2.3448465
8.042614757335754	5.6580744	2.3786707
8.060184855691523	5.7398453	2.3957975
8.07775514385327	5.907528	2.4305406
8.095325622240228	5.926317	2.434403
8.112896291271687	5.958372	2.4409778
8.130467151366968	5.9880166	2.4470425
8.148038202945436	5.999368	2.4493608
8.165609446426497	6.0042925	2.4503658
8.183180882229594	6.039914	2.4576237
8.200752510774217	6.070455	2.4638293
8.218324332479893	6.148676	2.4796524
8.235896347766193	6.1620417	2.482346
8.253468557052724	6.160786	2.482093
8.27104096075914	6.1845145	2.4868684
8.288613559305137	6.1767693	2.4853108
8.306186353110448	6.250473	2.5000947
8.32375934259485	6.246183	2.4992366
8.341332528178162	6.3183417	2.513631
8.358905910280246	6.2989116	2.5097632
8.376479489321003	6.280861	2.5061646
8.394053265720377	6.3236003	2.514677
8.411627239898356	6.4467287	2.5390408
8.42920141227497	6.493443	2.5482235
8.44677578327029	6.437003	2.5371249
8.464350353304427	6.2999086	2.5099618
8.48192512279754	6.2267427	2.4953442
8.499500092169827	6.1632524	2.48259
8.51707526184153	6.1745734	2.484869
8.534650632232934	6.229072	2.495811
8.552226203764365	6.199555	2.4898906
8.569801976856192	6.1907477	2.4881213
8.587377951928834	6.197246	2.4894269
8.60495412940274	6.275334	2.5050616
8.622530509698416	6.3567877	2.5212672
8.6401070932364	6.507414	2.5509634
8.657683880437283	6.6032853	2.569686
8.675260871721695	6.7902555	2.6058118
8.692838067510303	6.9706116	2.6401916
8.710415468223834	7.0815163	2.6611118
8.727993074283043	7.1713533	2.6779382
8.745570886108737	7.1117635	2.666789
8.763148904121765	7.1600227	2.6758218
8.78072712874302	7.1927485	2.68193
8.798305560393441	7.4731174	2.7337003
8.815884199494006	7.6458473	2.7651126
8.833463046465745	7.848962	2.8016
8.851042101729728	8.097282	2.8455725
8.86862136570707	8.3998995	2.898258
8.886200838818924	8.556787	2.9251986
8.903780521486505	8.570387	2.9275224
8.921360414131055	8.624093	2.9366806
8.938940517173874	8.786774	2.9642494
8.956520831036297	8.965139	2.9941843
8.97410135613971	9.264294	3.0437303
8.99168209290554	9.375457	3.0619369
9.009263041755265	9.624647	3.1023614
9.026844203110405	9.760808	3.1242292
9.044425577392525	9.958902	3.155773
9.062007165023239	10.1354065	3.1836152
9.079588966424197	10.518783	3.2432673
9.097170982017108	10.643987	3.2625124
9.11475321222372	11.514843	3.3933527
9.132335657465825	12.333454	3.5119019
9.149918318165264	12.421179	3.5243692
9.167501194743924	12.991849	3.6044207
9.18508428762374	12.648212	3.5564325
9.202667597226693	12.5771	3.5464208
9.220251123974803	12.303882	3.507689
9.237834868290143	12.068671	3.4739993
9.255418830594836	11.863279	3.4443111
9.273003011311046	11.367442	3.3715637
9.290587410860985	11.066861	3.3266892
9.308172029666911	10.312068	3.2112408
9.32575686815113	9.987979	3.1603763
9.343341926735997	8.654664	2.941881
9.360927205843916	8.478752	2.9118297
9.378512705897327	8.377901	2.8944604
9.396098427318728	8.211869	2.8656359
9.413684370530664	8.153755	2.855478
9.431270535955722	8.101652	2.8463402
9.448856924016539	8.005931	2.8294754
9.466443535135806	7.8386626	2.799761
9.484030369736251	7.773604	2.7881184
9.501617428240658	7.793734	2.791726
9.519204711071852	7.8015156	2.7931194
9.536792218652714	7.816534	2.7958064
9.55437995140617	7.9110155	2.8126528
9.571967909755191	8.004711	2.8292599
9.589556094122802	8.005551	2.8294084
9.60714450493207	7.9847164	2.8257241
9.624733142606116	7.971662	2.8234131
9.642322007568108	8.080407	2.8426056
9.659911100241267	8.115706	2.8488078
9.677500421048851	8.149856	2.8547952
9.695089970414175	8.084293	2.8432891
9.712679748760609	8.09607	2.8453593
9.730269756511557	8.087759	2.8438985
9.747859994090492	8.141694	2.8533654
9.765450461920915	8.158245	2.856264
9.78304116042639	8.23875	2.8703225
9.800632090030527	8.31972	2.8843925
9.81822325115699	8.303077	2.881506
9.835814644229481	8.30702	2.8821902
9.853406269671762	8.318612	2.8842003
9.870998127907646	8.403142	2.8988173
9.888590219360985	8.478189	2.9117332
9.906182544455698	8.456526	2.9080107
9.923775103615734	8.430864	2.903595
9.941367897265108	8.417935	2.901368
9.958960925827878	8.432784	2.9039257
9.97655418972816	8.408104	2.899673
9.994147689390106	8.402087	2.8986354
10.011741425237934	8.494147	2.914472
10.029335397695904	8.484783	2.9128652
10.04692960718833	8.4337845	2.9040978
10.06452405413958	8.343954	2.8885903
10.082118738974064	8.375267	2.8940053
10.099713662116246	8.464685	2.9094133
10.117308823990651	8.516066	2.9182298
10.134904225021844	8.533499	2.9212153
10.152499865634445	8.497791	2.9150972
10.170095746253125	8.364396	2.8921266
10.18769186730261	8.248945	2.8720977
10.205288229207675	8.213675	2.8659508
10.222884832393145	8.219754	2.8670113
10.2404816772839	8.225966	2.8680947
10.258078764304868	8.114543	2.8486037
10.275676093881035	8.092162	2.8446727
10.293273666437438	8.075553	2.8417518
10.310871482399158	8.1233	2.8501403
10.32846954219134	8.175524	2.8592873
10.346067846239173	8.259304	2.8739004
10.363666394967908	8.260484	2.8741057
10.38126518880283	8.250509	2.87237
10.398864228169298	8.256277	2.8733737
10.416463513492713	8.285006	2.8783686
10.434063045198531	8.313627	2.883336
10.451662823712262	8.291304	2.8794625
10.469262849459467	8.311261	2.8829257
10.486863122865758	8.288593	2.8789916
10.504463644356806	8.232582	2.8692477
10.522064414358338	8.112453	2.8482368
10.539665433296118	7.9641676	2.8220856
10.557266701595987	7.9271193	2.815514
10.574868219683818	7.8951535	2.8098316
10.592469987985552	7.814393	2.7954235
10.610072006927185	7.7164564	2.777851
10.627674276934751	7.646922	2.765307
10.64527679843435	7.5438075	2.7465992
10.662879571852143	7.46166	2.7316039
10.680482597614331	7.3105435	2.7038016
10.698085876147173	7.222591	2.6874878
10.715689407876988	7.103283	2.6651986
10.733293193230146	7.0269766	2.6508446
10.750897232633072	6.8688426	2.6208477
10.76850152651225	6.7051706	2.5894344
10.786106075294207	6.6029224	2.5696151
10.803710879405534	6.5591908	2.5610917
10.821315939272877	6.548979	2.5590973
10.83892125532294	6.464213	2.5424817
10.856526827982472	6.3289514	2.5157406
10.874132657678285	6.3233013	2.5146174
10.891738744837243	6.321137	2.514187
10.909345089886271	6.3411927	2.5181725
10.926951693252343	6.276393	2.505273
10.944558555362494	6.2399673	2.4979928
10.96216567664381	6.167784	2.4835024
10.979773057523436	6.092375	2.4682736
10.997380698428573	6.015437	2.4526389
11.014988599786477	5.877388	2.4243324
11.032596762024461	5.810396	2.4104764
11.050205185569892	5.759684	2.3999343
11.067813870850198	5.7272415	2.3931656
11.085422818292859	5.656413	2.3783214
11.10303202832541	5.6044345	2.3673687
11.120641501375454	5.5492687	2.3556886
11.138251237870636	5.476644	2.340223
11.155861238238671	5.360458	2.3152664
11.173471502907317	5.273745	2.2964635
11.191082032304402	5.1869516	2.277488
11.208692826857805	5.1764355	2.2751782
11.226303886995465	5.155498	2.2705722
11.243915213145371	5.0718536	2.2520776
11.261526805735578	4.938703	2.2223194
11.279138665194196	4.8954864	2.2125745
11.296750791949393	4.880426	2.2091687
11.314363186429393	4.852532	2.2028463
11.331975849062479	4.800513	2.1910071
11.34958878027699	4.7684126	2.1836696
11.36720198050133	4.724376	2.173563
11.384815450163948	4.626106	2.1508384
11.402429189693366	4.5333023	2.1291554
11.420043199518153	4.5176687	2.125481
11.437657480066942	63.50421	7.968953
11.455272031768422	85.20738	9.230784
11.472886855051353	107.62433	10.374214
11.490501950344528	99.22073	9.96096
11.508117318076819	84.58191	9.196842
11.52573295867715	45.947884	6.7784867
11.543348872574514	4.206889	2.0510702
11.560965060197946	4.1526046	2.037794
11.57858152197655	4.128725	2.0319264
11.59619825833949	4.153799	2.0380871
11.613815269715985	4.132079	2.0327516
11.631432556535323	38.621246	6.2145996
11.649050119226837	83.123795	9.117225
11.666667958219929	93.54663	9.67195
11.68428607394406	107.77717	10.381578
11.701904466828756	82.56378	9.086461
11.719523137303586	65.35118	8.084007
11.737142085798196	4.6007285	2.1449308
11.754761312742286	3.7327607	1.9320353
11.772380818565619	3.6945112	1.9221112
11.790000603698015	3.6578968	1.9125628
11.80762066856935	3.5918455	1.8952165
11.825241013609572	3.5575504	1.886147
11.842861639248683	3.5526588	1.8848498
11.860482545916748	3.5051317	1.8721997
11.878103734043883	3.5270948	1.8780562
11.895725204060282	3.5548606	1.8854338
11.91334695639619	3.5535173	1.8850776
11.930968991481919	3.5442011	1.8826048
11.948591309747824	3.4695556	1.8626744
11.966213911624347	3.3983305	1.8434561
11.98383679754198	3.3543322	1.8314836
12.001459967931268	3.3091912	1.8191183
12.019083423222835	3.25254	1.80348
12.036707163847352	3.1957104	1.787655
12.05433119023556	3.2155378	1.793192
12.071955502818259	3.2550845	1.8041853
12.089580102026313	3.195579	1.7876183
12.107204988290643	3.1810706	1.7835556
12.12483016204224	3.155447	1.7763578
12.142455623712152	3.1308522	1.7694215
12.16008137373149	3.1561036	1.7765425
12.177707412531431	3.1505046	1.7749661
12.19533374054321	3.1687033	1.7800852
12.212960358198126	3.1255717	1.7679286
12.230587265927545	3.1040266	1.7618247
12.248214464162889	3.093561	1.7588521
12.265841953335649	3.0675118	1.7514313
12.283469733877375	3.0339818	1.7418329
12.301097806219685	3.0013385	1.7324371
12.31872617079425	2.9806342	1.7264513
12.336354828032825	3.014118	1.7361215
12.353983778367205	2.9876642	1.7284861
12.371613022229262	2.9938035	1.7302611
12.389242560050928	3.0083754	1.7344669
12.406872392264201	2.9986954	1.7316742
12.424502519301143	2.9884834	1.728723
12.442132941593874	2.9525828	1.7183081
12.459763659574586	2.9329245	1.7125783
12.477394673675532	2.918924	1.708486
12.49502598432903	2.9103081	1.7059625
12.51265759196746	2.8733346	1.6950914
12.530289497023267	2.891176	1.7003459
12.547921699928967	2.886352	1.6989267
12.565554201117134	2.870022	1.694114
12.583187001020404	2.8372543	1.6844151
12.600820100071486	2.823698	1.6803863
12.618453498703152	2.8137343	1.677419
12.636087197348235	2.8192627	1.6790661
12.65372119643964	2.8017347	1.6738383
12.671355496410326	2.8203444	1.6793882
12.68899009769333	2.8748298	1.6955323
12.706625000721749	2.919992	1.7087984
12.724260205928752	2.9870243	1.7283009
12.741895713747551	3.0126262	1.7356918
12.759531524611454	3.0165305	1.7368162
12.777167638953818	2.9727037	1.724153
12.794804057208072	2.997312	1.7312747
12.812440779807702	3.075629	1.7537471
12.830077807186271	3.281409	1.811466
12.847715139777405	3.3068764	1.8184819
12.865352778014795	3.553048	1.884953
12.882990722332197	3.6719372	1.91623
12.90062897316344	3.7196145	1.9286302
12.918267530942412	3.759473	1.9389361
12.935906396103071	3.6450186	1.9091932
12.953545569079449	3.8198235	1.9544369
12.971185050305628	3.65109	1.9107826
12.988824840215775	3.6271152	1.9044987
13.006464939244115	3.629545	1.9051365
13.024105347824943	3.5097702	1.873438
13.041746066392617	3.5643814	1.887957
13.05938709538157	3.3676147	1.8351063
13.077028435226296	3.3474693	1.829609
13.094670086361363	3.2786205	1.8106961
13.112312049221401	3.19948	1.788709
13.129954324241112	3.13072	1.769384
13.147596911855258	2.9208632	1.7090533
13.165239812498685	2.9169374	1.7079043
13.182883026606293	2.856075	1.6899927
13.200526554613058	2.8189082	1.6789604
13.218170396954017	2.759705	1.661236
13.235814554064284	2.7460816	1.6571305
13.253459026379034	2.757081	1.660446
13.271103814333523	2.7136302	1.64731
13.288748918363058	2.6943772	1.6414558
13.306394338903031	2.721336	1.6496472
13.32404007638889	2.6895523	1.6399854
13.341686131256164	2.6918182	1.6406761
13.359332503940449	2.711004	1.6465126
13.376979194877402	2.7420456	1.6559123
13.394626204502751	2.779283	1.6671182
13.412273533252307	2.7562878	1.6602072
13.429921181561937	2.7017317	1.6436945
13.447569149867581	2.7051842	1.6447444
13.465217438605247	2.7277212	1.6515814
13.482866048211022	2.7410212	1.6556029
13.500514979121052	2.772797	1.6651717
13.518164231771568	2.7164938	1.6481789
13.535813806598844	2.6457653	1.6265808
13.553463704039254	2.6160963	1.6174351
13.571113924529229	2.6753626	1.6356536
13.588764468505275	2.736263	1.6541654
13.606415336403956	2.785526	1.6689895
13.624066528661917	2.7756548	1.6660297
13.641718045715882	2.804645	1.6747074
13.659369888002635	2.845572	1.6868824
13.67702205595903	2.8998032	1.7028809
13.694674550021993	2.9547508	1.7189388
13.712327370628532	3.0231245	1.7387135
13.729980518215713	3.1175926	1.7656705
13.747633993220681	3.2413402	1.8003722
13.765287796080647	3.3394434	1.8274144
13.7829419272329	3.365432	1.8345114
13.800596387114801	3.335375	1.826301
13.818251176163775	3.3422487	1.8281817
13.835906294817324	3.3895493	1.8410728
13.853561743513023	3.4493341	1.8572383
13.871217522688525	3.4942336	1.8692869
13.888873632781538	3.5052469	1.8722304
13.906530074229858	3.5788083	1.8917738
13.92418684747135	3.5904846	1.8948574
13.941843952943948	3.5728865	1.890208
13.959501391085665	3.5116055	1.8739278
13.977159162334578	3.4405	1.8548585
13.994817267128846	3.3836195	1.8394618
14.012475705906693	3.3348348	1.826153
14.030134479106424	3.2530687	1.8036265
14.047793587166414	3.1763449	1.7822303
14.065453030525108	3.104939	1.7620836
14.083112809621026	3.021254	1.7381755
14.100772924892766	2.9943995	1.7304333
14.118433376778997	2.939154	1.7143961
14.136094165718458	2.883344	1.6980412
14.153755292149969	2.8318212	1.6828016
14.171416756512416	2.7232304	1.6502213
14.189078559244768	2.6724102	1.6347508
14.20674070078606	2.6012537	1.6128403
14.224403181575408	2.5927365	1.6101977
14.242066002051999	2.563627	1.601133
14.259729162655093	2.557716	1.5992861
14.277392663824022	2.4982016	1.58057
14.295056505998208	2.4602573	1.5685208
14.312720689617128	2.407855	1.5517265
14.330385215120348	2.4020243	1.5498465
14.348050082947497	2.4066057	1.5513239
14.3657152935383	2.4270446	1.5578974
14.383380847332528	2.4301112	1.5588814
14.401046744770051	2.396309	1.5480015
14.418712986290798	2.4142997	1.5538017
14.436379572334793	2.4296067	1.5587195
14.454046503342123	2.4433606	1.5631253
14.471713779752946	2.3938723	1.5472144
14.489381402007504	2.3917773	1.5465372
14.507049370546113	2.416752	1.5545907
14.524717685809168	2.4283469	1.5583154
14.542386348237134	2.4310043	1.5591679
14.560055358270553	2.437639	1.561294
14.577724716350051	2.489934	1.5779525
14.595394422916325	2.5114744	1.5847632
14.61306447841015	2.524297	1.5888036
14.63073488327237	2.510767	1.58454
14.648405637943917	2.5283484	1.5900781
14.6660767428658	2.5410666	1.5940723
14.683748198479094	2.5886562	1.6089301
14.701420005224954	2.63202	1.6223501
14.719092163544628	2.696259	1.6420289
14.73676467387942	2.7231612	1.6502004
14.754437536670727	2.734331	1.6535813
14.772110752360014	2.7633286	1.6623262
14.78978432138882	2.7629628	1.6622162
14.807458244198777	2.760906	1.6615974
14.82513252123159	2.7370756	1.654411
14.842807152929028	2.757092	1.6604494
14.860482139732962	2.736264	1.6541656
14.87815748208531	2.721107	1.6495779
14.8958331804281	2.6630092	1.6318729
14.91350923520342	2.6346571	1.6231627
14.931185646853438	2.6721752	1.634679
14.948862415820408	2.7181706	1.6486876
14.966539542546656	2.7452543	1.6568809
14.98421702747459	2.6956375	1.6418396
15.001894871046696	2.6714547	1.6344585
15.019573073705542	2.684561	1.638463
15.037251635893766	2.7042384	1.6444569
15.054930558054092	2.7092469	1.645979
15.072609840629323	2.7437115	1.6564152
15.090289484062351	2.815879	1.6780581
15.107969488796124	3.1103663	1.7636231
15.125649855273691	3.5627537	1.8875258
15.14333058393817	4.060542	2.0150788
15.161011675232768	5.064447	2.2504325
15.17869312960076	6.447671	2.5392265
15.196374947485506	8.4075165	2.8995717
15.214057129330447	11.650856	3.413335
15.231739675579114	16.40695	4.0505495
15.249422586675102	21.541664	4.6412997
15.267105863062092	24.60536	4.960379
15.284789505183847	24.812248	4.9811893
15.302473513484218	22.603031	4.7542644
15.320157888407127	18.921675	4.349905
15.337842630396578	14.653488	3.8279874
15.355527739896656	11.346394	3.3684409
15.37321321735153	8.777152	2.962626
15.39089906320545	6.407237	2.5312521
15.408585277902748	4.827311	2.1971142
15.42627186188783	3.748668	1.9361477
15.443958815605198	3.2268589	1.796346
15.461646139499424	2.9665003	1.7223531
15.479333834015168	2.781098	1.6676624
15.497021899597165	2.7225258	1.6500078
15.514710336690234	2.6532705	1.6288862
15.53239914573928	2.6101604	1.615599
15.550088327189297	2.5810664	1.6065698
15.567777881485336	2.5621228	1.6006632
15.58546780907256	2.556746	1.5989828
15.6031581103962	2.5505273	1.5970371
15.620848785901568	2.5431259	1.5947181
15.638539836034063	2.5129168	1.5852182
15.656231261239173	2.5030081	1.5820898
15.673923061962451	2.4960809	1.579899
15.691615238649552	2.4783509	1.5742779
15.709307791746202	2.4200423	1.5556486
15.727000721698221	2.4022632	1.5499237
15.744694028951498	2.4312825	1.559257
15.76238771395202	2.4372127	1.5611575
15.780081777145844	2.4315846	1.559354
15.797776218979125	2.4153335	1.5541344
15.815471039898094	2.398498	1.5487086
15.833166240349064	2.3962386	1.5479789
15.850861820778437	2.398249	1.5486281
15.868557781632699	2.450483	1.5654019
15.886254123358412	2.4811304	1.5751604
15.903950846402232	2.4891882	1.5777161
15.921647951210897	2.4478517	1.5645611
15.939345438231225	2.4452631	1.5637337
15.957043307910133	2.447515	1.5644536
15.974741560694602	2.458253	1.5678817
15.992440197031714	2.4385147	1.5615745
16.01013921736862	2.4355068	1.560611
16.02783862215259	2.4355657	1.56063
16.045538411830933	2.4484115	1.5647401
16.06323858685107	2.4529736	1.5661972
16.080939147660512	2.4545982	1.5667157
16.09864009470684	2.444625	1.5635296
16.11634142843774	2.4316049	1.5593604
16.134043149300954	2.3994782	1.5490249
16.15174525774433	2.4272053	1.5579491
16.169447754215817	2.454732	1.5667584
16.18715063916342	2.4915073	1.5784509
16.204853913035244	2.477655	1.5740569
16.222557576279478	2.4713635	1.5720571
16.240261629344403	22.45242	4.7383986
16.257966072678386	42.994583	6.5570254
16.275670906729868	38.10271	6.1727395
16.293376131947387	2.5199268	1.5874277
16.31108174877957	2.5337672	1.5917811
16.328787757675133	2.6105294	1.6157132
16.34649415908287	2.6372592	1.6239641
16.364200953451657	2.6481268	1.6273066
16.38190814123048	2.616515	1.6175646
16.39961572286839	2.6612682	1.6313394
16.41732369881455	2.6770542	1.6361706
16.43503206951817	2.7276835	1.6515701
16.45274083542859	2.746046	1.6571198
16.47044999699522	2.7728674	1.665193
16.488159554667558	2.781562	1.6678016
16.505869508895184	2.8069475	1.6753948
16.523579860127786	2.883203	1.6979997
16.541290608815117	2.9213793	1.7092043
16.559001755407035	2.9725935	1.7241211
16.57671330035348	3.0570066	1.7484298
16.59442524410448	3.1556973	1.7764282
16.61213758711015	3.232181	1.7978268
16.629850329820705	3.2363787	1.7989938
16.647563472686436	3.3216856	1.8225492
16.665277016157724	3.3409903	1.8278376
16.682990960685053	3.4446025	1.8559641
16.70070530671898	3.473755	1.8638012
16.718420054710155	3.5340326	1.8799022
16.736135205109335	3.592921	1.8955002
16.753850758367335	3.642571	1.908552
16.771566714935087	3.7244246	1.9298768
16.789283075263597	3.7704992	1.9417773
16.80699983980398	3.828044	1.9565388
16.82471700900741	3.8757522	1.968693
16.84243458332518	3.9436476	1.9858619
16.860152563208665	4.0309024	2.0077107
16.87787094910932	4.114385	2.0283947
16.89558974147871	4.1835246	2.0453665
16.913308940768466	4.2925425	2.0718453
16.931028547430333	4.3369875	2.0825436
16.94874856191613	4.3554688	2.086976
16.966468984677785	4.354283	2.0866919
16.98418981616729	4.399691	2.097544
17.00191105683676	4.453703	2.1103797
17.019632707138374	4.497118	2.120641
17.03735476752442	4.5615544	2.1357796
17.05507723844728	4.6169586	2.148711
17.072800120359403	4.6370387	2.1533785
17.090523413713353	4.602497	2.145343
17.108247118961785	4.6484346	2.1560228
17.125971236557437	4.708696	2.1699529
17.143695766953133	4.7625647	2.1823301
17.161420710601806	4.774966	2.1851695
17.179146067956477	4.7630086	2.1824317
17.19687183947025	4.759643	2.1816607
17.21459802559634	4.777313	2.1857066
17.232324626788028	4.8194904	2.1953337
17.25005164349871	4.809359	2.193025
17.267779076181863	4.750711	2.1796126
17.285506925291074	4.6800766	2.1633484
17.30323519127999	4.64971	2.1563187
17.320963874602384	4.6552706	2.1576076
17.33869297571211	4.6113143	2.147397
17.356422495063114	4.603146	2.1454945
17.37415243310944	4.5496893	2.1330001
17.391882790305218	4.597831	2.1442554
17.40961356710468	4.6320333	2.152216
17.42734476396215	4.5981536	2.1443305
17.445076381332044	4.517311	2.1253967
17.462808419668868	4.541479	2.1310747
17.48054087942723	4.710028	2.17026
17.498273761061835	5.0831456	2.2545834
17.51600706502747	5.5717306	2.3604515
17.533740791779024	6.3323665	2.5164194
17.551474941771485	7.7740417	2.7881968
17.56920951545993	8.946447	2.9910612
17.586944513299528	11.197317	3.3462393
17.60467993574556	12.921328	3.5946248
17.622415783253373	14.704575	3.8346543
17.64015205627843	16.148312	4.018496
17.657888755276293	17.161043	4.142589
17.675625880702604	17.575397	4.192302
17.69336343301311	17.367514	4.1674347
17.71110141266366	16.596329	4.073859
17.728839820110178	15.66651	3.9580941
17.746578655808705	14.811434	3.8485625
17.764317920215372	13.280152	3.6441944
17.7820576137864	11.724422	3.4240944
17.79979773697811	9.634021	3.1038718
17.81753829024692	7.6730313	2.7700238
17.835279274049356	5.9148273	2.432042
17.85302068884201	4.9007626	2.2137666
17.870762535081607	4.2757893	2.0677981
17.888504813224934	3.9567857	1.9891671
17.90624752372891	3.7670093	1.9408785
17.923990667050536	3.6537645	1.9114823
17.941734243646895	3.5963774	1.8964117
17.959478253975185	3.5321019	1.8793887
17.9772226984927	3.484228	1.8666086
17.994967577656833	3.4112015	1.8469439
18.01271289192506	3.377761	1.8378686
18.030458641754965	3.4046223	1.8451619
18.04820482760425	3.4008446	1.8441379
18.06595144993067	3.3694541	1.8356073
18.083698509192125	3.3175604	1.8214171
18.101446005846576	3.3408535	1.8278002
18.119193940352105	3.3000443	1.8166023
18.136942313166887	3.2760222	1.8099785
18.1546911247492	3.2508538	1.8030124
18.1724403755574	3.2425146	1.8006984
18.19019006604997	3.2455032	1.801528
18.207940196685467	3.1794322	1.7830962
18.225690767922575	3.1267266	1.7682552
18.243441780220046	3.1000588	1.7606984
18.261193234036764	3.0867863	1.7569252
18.278945129831676	3.0922377	1.758476
18.29669746806386	3.0614061	1.7496874
18.314450249192483	3.0287526	1.7403312
18.3322034736768	3.0590024	1.7490004
18.349957141976184	3.0832148	1.7559085
18.3677112545501	3.0807807	1.7552153
18.385465811858108	3.0342593	1.7419126
18.403220814359884	3.0403247	1.7436527
18.420976262515172	3.0845568	1.7562907
18.43873215678387	3.134124	1.7703457
18.456488497625923	3.1608572	1.77788
18.474245285501407	3.2397406	1.799928
18.492002520870486	3.3087325	1.8189921
18.50976020419343	3.4052927	1.8453436
18.527518335930615	3.729783	1.9312646
18.545276916542516	4.3340473	2.0818374
18.563035946489688	4.4699306	2.114221
18.580795426232832	4.876762	2.2083392
18.598555356232698	4.7153983	2.1714969
18.616315736950185	5.078677	2.253592
18.63407656884626	4.748902	2.1791975
18.65183785238201	4.938499	2.2222733
18.669599588018617	4.6641994	2.1596758
18.68736177621737	4.645666	2.1553807
18.705124417439652	4.6218266	2.1498435
18.72288751214696	4.410701	2.1001668
18.740651060800886	4.5606666	2.1355717
18.758415063863115	4.299335	2.0734837
18.77617952179546	4.4386625	2.1068134
18.793944435059814	4.224238	2.055295
18.811709804118184	4.243397	2.0599508
18.829475629432675	4.2494245	2.0614133
18.8472419114655	4.043919	2.0109499
18.86500865067897	4.12358	2.03066
18.88277584753551	3.771413	1.9420127
18.90054350249763	3.785814	1.9457169
18.918311616027957	3.4658144	1.8616698
18.936080188589226	3.3467782	1.8294202
18.953849220644265	3.067682	1.75148
18.971618712656007	2.927767	1.7110718
18.9893886650875	2.8925366	1.7007459
19.007159078401887	8.022895	2.8324716
19.024929953062408	32.87463	5.73364
19.042701289532435	32.813023	5.7282653
19.060473088275405	25.375975	5.037457
19.07824534975489	2.648957	1.6275617
19.096018074434568	2.6065762	1.6144894
19.113791262778197	2.6026173	1.6132629
19.13156491524966	2.5923052	1.6100637
19.149339032312945	2.5908554	1.6096134
19.167113614432136	2.573768	1.6042967
19.184888662071433	2.5590518	1.5997037
19.202664175695123	2.5699906	1.603119
19.220440155767623	2.6051989	1.6140628
19.238216602753447	2.5935373	1.6104463
19.2559935171172	2.5574656	1.5992078
19.27377089932361	2.5343895	1.5919766
19.291548749837514	2.5160644	1.5862107
19.309327069123835	2.5164795	1.5863415
19.32710585764763	2.5353615	1.5922818
19.344885115874032	2.5461435	1.595664
19.362664844268313	2.532695	1.5914444
19.380445043295822	2.511646	1.5848173
19.39822571342203	2.5085309	1.5838342
19.41600685511252	2.5039916	1.5824006
19.43378846883297	2.5248241	1.5889695
19.451570555049173	2.51207	1.584951
19.469353114227037	2.4831536	1.5758026
19.48713614683254	2.4695673	1.5714856
19.50491965333182	2.4893563	1.5777694
19.52270363419109	2.5298069	1.5905367
19.540488089876686	2.529008	1.5902855
19.55827302085503	2.5096016	1.5841722
19.576058427592674	2.5105486	1.5844711
19.593844310556282	2.5011187	1.5814925
19.611630670212598	2.4977345	1.5804223
19.629417507028506	2.496974	1.5801816
19.64720482147098	2.5372427	1.5928725
19.6649926140071	2.532299	1.5913199
19.682780885104084	2.5081384	1.5837103
19.70056963522921	2.4953117	1.5796555
19.718358864849908	2.484068	1.5760926
19.7361485744337	2.493753	1.5791621
19.753938764448215	2.5021775	1.5818273
19.771729435361202	2.5003963	1.5812641
19.789520587640506	2.5065806	1.5832185
19.807312221754092	2.4764056	1.5736599
19.825104338170043	2.4819288	1.5754138
19.842896937356517	2.5061	1.5830666
19.860690019781824	2.5479007	1.5962145
19.87848358591436	2.5478747	1.5962063
19.896277636222635	2.5542285	1.5981954
19.914072171175278	2.5749352	1.6046605
19.931867191241015	2.5339146	1.5918274
19.94966269688869	2.5121198	1.5849668
19.967458688587264	2.5173643	1.5866205
19.985255166805807	2.5122976	1.5850229
20.00305213201348	2.482918	1.5757278
20.020849584679578	2.4774177	1.5739815
20.038647525273507	2.4782896	1.5742584
20.05644595426477	2.465819	1.5702926
20.07424487212299	2.4622893	1.5691683
20.092044279317903	2.4858422	1.5766554
20.109844176319353	2.4850683	1.5764099
20.127644563597304	2.4604304	1.5685759
20.145445441621817	2.4535508	1.5663815
20.16324681086307	2.4489162	1.5649014
20.181048671791373	2.4428244	1.5629537
20.198851024877122	2.4397955	1.5619844
20.216653870590836	2.4446216	1.5635285
20.234457209403146	2.4407907	1.562303
20.252261041784802	2.4198663	1.555592
20.270065368206662	2.4201126	1.5556711
20.287870189139685	2.4240966	1.556951
20.305675505054968	2.4238083	1.5568585
20.323481316423702	2.4009707	1.5495065
20.341287623717207	2.3674443	1.5386502
20.359094427406884	2.3575444	1.5354297
20.376901727964288	2.3799467	1.5427076
20.39470952586107	2.3983734	1.5486683
20.41251782156899	2.3931358	1.5469763
20.430326615559935	2.358736	1.5358177
20.448135908305886	2.365252	1.5379376
20.465945700278965	2.3795996	1.542595
20.483755991951384	2.3930705	1.5469552
20.50156678379548	2.3378754	1.5290112
20.519378076283708	2.3178148	1.5224371
20.537189869888635	2.3062947	1.518649
20.55500216508294	2.3011608	1.5169578
20.572814962339415	2.363633	1.5374111
20.59062826213098	2.4135246	1.5535523
20.60844206493066	2.4230068	1.556601
20.626256371211593	2.3668537	1.5384582
20.644071181447032	2.3153796	1.5216372
20.66188649611036	2.3153782	1.5216367
20.67970231567506	2.3540332	1.5342859
20.697518640614742	2.3682535	1.5389131
20.715335471403122	2.3333664	1.527536
20.73315280851404	2.2971895	1.5156482
20.750970652421447	2.281973	1.51062
20.768789003599412	2.3314	1.5268922
20.786607862522136	2.3760483	1.5414436
20.8044272296639	2.3709688	1.539795
20.82224710549913	2.333472	1.5275706
20.84006749050237	2.2987359	1.5161582
20.857888385148268	3.8355663	1.9584602
20.8757097899116	45.944847	6.7782626
20.893531705267254	64.842964	8.052513
20.911354131690224	83.86321	9.157686
20.92917706965566	69.10731	8.313081
20.94700051963877	50.17192	7.083214
20.96482448211493	29.453281	5.427088
20.982648957559622	4.200385	2.049484
21.00047394644843	2.2920778	1.513961
21.01829944925707	2.2748857	1.5082724
21.036125466461375	2.2470746	1.4990245
21.053951998537297	2.241548	1.49718
21.071779045960906	2.2396793	1.4965558
21.089606609208378	2.2318678	1.4939437
21.10743468875603	2.217395	1.489092
21.12526328508028	2.2128842	1.4875766
21.143092398657675	2.2172267	1.4890355
21.16092202996488	2.2253115	1.4917479
21.17875217947867	2.2089963	1.4862692
21.19658284767596	2.1943502	1.481334
21.21441403503377	2.1830385	1.4775109
21.232245742029225	2.2037075	1.484489
21.2500779691396	2.2251012	1.4916773
21.26791071684227	2.223945	1.4912897
21.28574398561475	2.1909592	1.480189
21.30357777593465	2.2018092	1.4838494
21.321412088279704	2.2176032	1.489162
21.339246923127792	2.251758	1.5005859
21.357082280956888	2.2267506	1.49223
21.3749181622451	2.1879916	1.4791862
21.392754567470647	2.1505082	1.4664611
21.41059149711187	2.1659772	1.471726
21.42842895164726	2.1691935	1.4728183
21.446266931555378	2.1844747	1.4779968
21.464105437314945	2.171796	1.4737015
21.481944469404798	2.1748164	1.4747258
21.49978402830388	2.1642387	1.4711351
21.51762411449127	2.135119	1.4612046
21.53546472844617	2.1228611	1.4570042
21.553305870647876	2.1079102	1.4518644
21.571147541575865	2.1014175	1.4496267
21.58898974170967	2.0940857	1.4470956
21.60683247152899	2.093198	1.4467889
21.62467573151363	2.103063	1.4501941
21.642519522143523	2.1058044	1.451139
21.660363843898722	2.1013985	1.4496201
21.6782086972594	2.0548658	1.4334804
21.696054082705864	2.0347419	1.4264438
21.713900000718535	2.0298905	1.4247422
21.73174645177795	2.0400088	1.4282888
21.749593436364794	2.0470529	1.4307525
21.767440954959845	2.0484126	1.4312277
21.785289008044032	2.0279317	1.4240546
21.803137596098388	2.0264173	1.4235228
21.820986719604086	2.0421164	1.4290264
21.838836379042412	2.0754433	1.4406399
21.85668657489478	2.079205	1.4419448
21.87453730764273	2.0877986	1.4449216
21.892388577767914	2.0806699	1.4424528
21.91024038575213	2.0640721	1.436688
21.928092732077285	2.0380466	1.4276017
21.945945617225426	1.9869527	1.4095931
21.963799041678694	1.9849806	1.4088933
21.981653005919398	31.295372	5.594227
21.999507510429943	78.09071	8.836895
22.01736255569286	73.038315	8.546246
22.035218142190818	4.1692734	2.04188
22.05307427040661	1.9966727	1.4130367
22.07093094082315	1.9798492	1.4070711
22.088788153923474	1.9621176	1.4007561
22.106645910190746	1.977135	1.4061064
22.12450421010827	1.965034	1.4017967
22.142363054159464	1.9851882	1.4089671
22.16022244282787	2.0147238	1.4194096
22.178082376597164	2.0063238	1.4164476
22.195942855951145	1.9967134	1.4130511
22.213803881373742	1.9888804	1.4102767
22.231665453349002	1.9982809	1.4136057
22.24952757236111	2.0000312	1.4142246
22.26739023889438	1.9654459	1.4019436
22.28525345343323	1.9516487	1.3970143
22.30311721646225	1.9425887	1.3937678
22.320981528466113	1.957889	1.3992459
22.33884638992964	1.9716215	1.4041444
22.356711801337788	1.9466871	1.3952373
22.37457776317561	1.9390032	1.392481
22.392444275928337	1.9386442	1.392352
22.410311340081282	1.997211	1.4132272
22.428178956119904	2.0278976	1.4240427
22.446047124529805	2.018341	1.4206833
22.46391584579669	1.9820567	1.4078554
22.481785120406414	1.958602	1.3995006
22.49965494884496	1.9905726	1.4108765
22.51752533159841	1.9947501	1.4123563
22.53539626915302	1.9859554	1.4092393
22.553267761995137	1.9641345	1.4014758
22.571139810611264	1.9617866	1.400638
22.589012415488025	1.9545114	1.3980384
22.60688557711216	1.9493054	1.3961753
22.624759295970566	1.9544528	1.3980174
22.642633572550263	1.9508194	1.3967173
22.660508407338362	1.9680067	1.4028566
22.67838380082217	1.943529	1.3941051
22.696259753489077	1.9379865	1.3921158
22.714136265826614	1.9550365	1.3982263
22.73201333832246	1.9609294	1.4003319
22.74989097146439	1.9546001	1.3980701
22.76776916574035	1.9389257	1.3924532
22.785647921638393	1.9399004	1.3928031
22.803527239646712	1.9375533	1.3919603
22.82140712025363	1.9805702	1.4073273
22.839287563947593	1.9791054	1.4068068
22.85716857121719	1.9433377	1.3940364
22.875050142551135	1.9321275	1.3900099
22.892932278438277	1.893492	1.3760421
22.910814979367604	1.905978	1.3805716
22.928698245828222	1.9229945	1.3867208
22.946582078309387	1.9458609	1.3949412
22.96446647730047	1.9581357	1.3993341
22.98235144329098	1.9276713	1.388406
23.000236976770562	1.913222	1.3831927
23.018123078229	1.9242338	1.3871676
23.03600974815619	1.964968	1.4017731
23.053896987042194	1.9874077	1.4097545
23.071784795377173	1.9733534	1.404761
23.08967317365145	1.9672683	1.4025935
23.10756212235546	1.9681287	1.4029001
23.125451641979787	1.9411215	1.3932414
23.143341733015134	1.9281069	1.3885629
23.161232395952357	1.9383924	1.3922616
23.179123631282426	1.933281	1.3904247
23.197015439496468	1.9288317	1.3888239
23.214907821085717	1.9218453	1.3863064
23.23280077654157	1.9420028	1.3935575
23.250694306355538	1.9220167	1.3863682
23.268588411019277	1.9321045	1.3900017
23.28648309102458	1.9391763	1.3925431
23.304378346863356	1.9853865	1.4090375
23.322274179027676	2.0073514	1.4168103
23.340170588009723	2.0595725	1.435121
23.358067574301852	1.991963	1.4113692
23.37596513839651	1.9398211	1.3927746
23.39386328078629	1.888271	1.3741437
23.411762001963947	1.8863574	1.3734473
23.429661302422353	1.8781161	1.3704438
23.4475611826545	1.9065764	1.3807883
23.46546164315356	1.9354978	1.3912216
23.48336268441279	1.953134	1.3975457
23.501264306925638	1.934612	1.3909034
23.51916651118564	1.9172322	1.3846415
23.537069297686497	1.950279	1.396524
23.554972666922037	1.9564385	1.3987274
23.57287661938623	1.9712936	1.4040276
23.59078115557318	1.9822584	1.407927
23.608686275977128	2.0192	1.4209856
23.62659198109246	1.9769785	1.4060507
23.6444982714137	1.9248444	1.3873876
23.66240514743549	1.922355	1.3864902
23.68031260965263	1.9535567	1.3976969
23.698220658560068	1.9425217	1.3937438
23.716129294652845	1.897609	1.3775373
23.7340385184262	1.8889755	1.3744
23.75194833037546	1.9029917	1.3794897
23.769858730996123	1.9399165	1.3928088
23.78776972078382	1.951142	1.3968328
23.80568130023431	1.9303788	1.3893807
23.823593469843495	1.9344214	1.3908348
23.841506230107424	1.981678	1.4077208
23.859419581522275	1.9794168	1.4069175
23.87733352458438	1.9147761	1.3837544
23.89524805979019	1.8873508	1.3738089
23.913163187636318	1.8624232	1.3647063
23.931078908619508	1.9257239	1.3877045
23.948995223236633	1.9768041	1.4059887
23.966912131984735	2.0380108	1.4275892
23.98482963536096	2.1075525	1.4517412
24.002747733862616	2.113202	1.4536856
24.020666427987155	2.08065	1.4424459
24.038585718232156	2.060612	1.4354832
24.056505605095353	2.0475483	1.4309257
24.074426089074617	2.072268	1.4395374
24.092347170667946	2.0787833	1.4417986
24.110268850373515	2.073795	1.4400678
24.128191128689586	2.0648785	1.4369684
24.146114006114626	2.0123801	1.4185839
24.164037483147187	2.0448258	1.4299741
24.181961560286005	2.082234	1.4429947
24.199886238029926	2.1198962	1.4559864
24.21781151687797	2.074311	1.4402468
24.235737397329274	2.073386	1.4399257
24.253663879883135	2.0638533	1.4366118
24.271590965038975	2.0774212	1.4413261
24.289518653296376	2.0545034	1.4333539
24.30744694515505	2.073946	1.4401201
24.32537584111486	2.0971828	1.4481653
24.34330534167581	2.0957515	1.447671
24.361235447338046	2.0989945	1.4487907
24.379166158601876	2.0874717	1.4448085
24.39709747596772	2.0898588	1.4456344
24.41502939993615	2.1046593	1.4507444
24.432961931007917	2.0929642	1.4467081
24.450895069683856	2.0673132	1.4378154
24.468828816465	2.0313747	1.425263
24.4867631718525	1.9905342	1.4108629
24.504698136347656	1.9563731	1.398704
24.52263371045192	1.9110252	1.3823984
24.540569894666874	1.9194777	1.3854522
24.558506689494266	1.907218	1.3810207
24.57644409543597	1.9584478	1.3994455
24.594382112994012	1.9918116	1.4113156
24.61232074267057	1.9740188	1.4049978
24.630259984967953	1.9654119	1.4019315
24.64819984038863	1.9694487	1.4033705
24.66614030943522	1.9675198	1.402683
24.684081392610462	1.9352148	1.39112
24.702023090417274	1.9988747	1.4138156
24.7199654033587	2.0540383	1.4331917
24.737908331937927	2.0085664	1.417239
24.755851876658305	1.9773498	1.4061826
24.773796038023324	1.9829319	1.4081662
24.79174081653661	2.0434813	1.4295039
24.809686212701962	2.097248	1.4481878
24.827632227023294	2.1351595	1.4612185
24.8455788600047	2.139342	1.462649
24.8635261121504	2.167742	1.4723253
24.88147398396475	2.19849	1.4827305
24.899422475952303	2.1965196	1.482066
24.917371588617698	2.1335626	1.4606719
24.935321322465768	2.1394289	1.4626787
24.953271678001478	2.2058656	1.4852157
24.97122265572994	2.4878302	1.5772856
24.989174256156414	2.8260348	1.6810814
25.00712647978632	3.3126113	1.8200581
25.02507932712521	3.882287	1.970352
25.043032798678798	4.498689	2.1210113
25.060986894952933	5.203646	2.28115
25.078941616453637	5.918686	2.4328349
25.096896963687055	6.867952	2.6206777
25.114852937159508	7.982885	2.8253999
25.132809537377444	8.450709	2.9070103
25.150766764847468	8.479655	2.9119847
25.168724620076347	7.880054	2.8071434
25.186683103570985	6.7259474	2.5934432
25.204642215838426	5.475231	2.3399212
25.222601957385894	4.042134	2.010506
25.24056232872074	3.0625765	1.7500218
25.25852333035048	2.5670106	1.6021893
25.276484962782778	2.2995818	1.5164372
25.294447226525435	2.1045694	1.4507134
25.312410122086423	2.0163074	1.4199674
25.330373649973843	1.9963498	1.4129224
25.348337810695988	1.9559518	1.3985535
25.366302604761245	1.9288732	1.3888388
25.384268032678207	1.9226387	1.3865925
25.40223409495558	1.9431173	1.3939574
25.420200792102257	1.9886265	1.4101866
25.438168124627246	1.9778872	1.4063737
25.45613609303974	1.9252522	1.3875346
25.474104697849057	1.8917005	1.375391
25.492073939564698	1.9428445	1.3938596
25.510043818696285	1.9733839	1.4047718
25.528014335753614	1.9195611	1.3854823
25.54598549124664	1.8495684	1.3599883
25.56395728568544	1.8232914	1.350293
25.58192971958028	1.8453687	1.3584435
25.59990279344156	1.8705152	1.3676678
25.617876507779833	1.9039197	1.379826
25.635850863105826	1.9480292	1.3957181
25.653825859930386	1.9300611	1.3892664
25.671801498764548	1.8899626	1.3747591
25.68977778011949	1.8712387	1.3679323
25.707754704506524	1.863162	1.3649769
25.725732272437153	1.8610083	1.3641877
25.743710484423012	1.8557123	1.3622453
25.761689340975888	1.8728113	1.3685069
25.77966884260774	1.8707979	1.3677711
25.797648989830662	1.8476157	1.3592703
25.815629783156922	1.8230935	1.3502198
25.83361122309895	1.8113909	1.3458792
25.85159331016929	1.8008559	1.3419597
25.869576044880695	1.8247889	1.3508475
25.887559427746034	1.896581	1.3771641
25.90554345927836	1.9680804	1.4028829
25.92352813999086	1.9348938	1.3910046
25.94151347039689	1.8641653	1.3653444
25.959499451009965	1.8248992	1.3508883
25.97748608234374	1.8294232	1.3525617
25.995473364912062	1.8396544	1.3563386
26.013461299228904	1.8171253	1.3480079
26.03144988580839	1.8164941	1.3477738
26.04943912516483	1.8255104	1.3511145
26.067429017812675	1.8695835	1.3673271
26.085419564266537	1.852224	1.3609644
26.103410765041186	1.8110498	1.3457525
26.12140262065155	1.8023744	1.3425254
26.139395131612723	1.8076282	1.3444806
26.157388298439948	1.8627037	1.364809
26.17538212164861	1.9091614	1.3817241
26.193376601754295	1.8983345	1.3778006
26.211371739272714	1.8650916	1.3656836
26.229367534719746	1.8630526	1.3649368
26.247363988611433	1.8912543	1.3752288
26.26536110146397	1.8501517	1.3602028
26.283358873793727	1.8116833	1.3459878
26.301357306117204	1.8178041	1.3482597
26.319356398951104	1.8524013	1.3610295
26.33735615281224	1.8020644	1.34241
26.35535656821762	1.7797722	1.334081
26.373357645684404	1.7746542	1.3321614
26.39135938572991	1.8187021	1.3485926
26.409361788871614	1.8686754	1.366995
26.427364855627165	1.8358873	1.3549492
26.445368586514352	1.8075396	1.3444477
26.46337298205115	1.8119366	1.346082
26.48137804275568	1.8434632	1.357742
26.499383769146217	1.8365602	1.3551975
26.517390161741215	1.869729	1.3673804
26.53539722105928	1.8734187	1.3687289
26.553404947619182	1.8637432	1.3651898
26.571413341939856	1.7980089	1.3408985
26.589422404540397	1.8015265	1.3422096
26.60743213594006	1.8231298	1.3502332
26.62544253665827	1.8433586	1.3577034
26.64345360721459	1.849625	1.3600092
26.66146534812879	1.8619477	1.364532
26.679477759920758	1.8349824	1.3546152
26.69749084311057	1.7523528	1.3237647
26.71550459821847	1.7578255	1.3258301
26.733519025764842	1.8282093	1.3521129
26.751534126270258	1.8727539	1.3684859
26.769549900255434	1.8891691	1.3744705
26.787566348241267	1.901298	1.3788756
26.80558347074881	1.8692818	1.3672168
26.823601268299267	1.8453257	1.3584276
26.841619741414036	1.8035195	1.3429518
26.85963889061465	1.8020351	1.342399
26.877658716422832	1.8161987	1.3476641
26.89567921936045	1.7927676	1.3389428
26.913700399949544	1.8018597	1.3423337
26.93172225871233	1.7875189	1.3369813
26.949744796171174	1.8347874	1.3545432
26.967768012848605	1.8162094	1.3476682
26.98579190926733	1.7936184	1.3392605
27.003816485950225	1.7792882	1.3338996
27.021841743420318	1.8271714	1.351729
27.039867682200814	1.8184477	1.3484983
27.057894302815072	1.8091258	1.3450375
27.07592160578664	1.8034613	1.3429301
27.0939495916392	1.8315679	1.3533543
27.111978260896635	1.837387	1.3555025
27.13000761408296	1.8024757	1.3425632
27.148037651722397	1.8204588	1.3492438
27.166068374339304	1.8635705	1.3651265
27.184099782458215	1.8958265	1.3768902
27.20213187660384	1.8377606	1.3556403
27.22016465730105	1.7894194	1.3376918
27.23819812507487	1.7891833	1.3376036
27.256232280450533	1.853593	1.3614672
27.274267123953383	1.8541195	1.3616606
27.292302656108987	1.7971376	1.3405737
27.31033887744306	1.7826066	1.335143
27.32837578848146	1.7761298	1.3327153
27.34641338975026	1.8340116	1.3542569
27.364451681775673	1.8806716	1.3713758
27.382490665084074	1.8579968	1.3630836
27.400530340202046	1.8200289	1.3490845
27.41857070765629	1.8170829	1.3479922
27.436611767973726	1.8483411	1.3595371
27.454653521681404	1.8277193	1.3519317
27.472695969306564	1.7548889	1.3247222
27.490739111376627	1.7977437	1.3407997
27.508782948419153	1.862657	1.3647919
27.526827480961902	1.8928689	1.3758157
27.54487270953279	1.867183	1.366449
27.562918634659898	1.8345407	1.3544521
27.580965256871508	1.8128277	1.3464129
27.599012576696026	1.8143736	1.3469869
27.617060594662068	1.7995989	1.3414913
27.63510931129842	1.83292	1.3538537
27.65315872713401	1.880066	1.371155
27.67120884269797	1.8980985	1.377715
27.68925965851958	1.8659885	1.3660119
27.707311175128307	1.8398905	1.3564256
27.725363393053787	1.8479851	1.3594062
27.74341631282583	1.8921067	1.3755387
27.7614699349744	1.9007955	1.3786933
27.77952426002968	2.0727613	1.4397087
27.797579288521973	2.1169314	1.4549679
27.815635020981784	2.540732	1.5939673
27.83369145793979	2.5951111	1.6109349
27.85174859992682	2.456546	1.5673373
27.869806447473923	2.3259692	1.5251129
27.887865001112267	2.0259135	1.4233459
27.905924261373233	1.9024905	1.379308
27.92398422878836	1.8800077	1.3711337
27.94204490388936	1.8841617	1.3726476
27.96010628720813	1.8750696	1.3693318
27.978168379276728	1.862014	1.3645563
27.9962311806274	1.8671095	1.3664222
28.014294691792568	1.8888859	1.3743675
28.0323589133048	1.9035882	1.3797058
28.050423845696887	1.845139	1.358359
28.068489489501758	1.831437	1.3533059
28.086555845252523	1.8592924	1.3635588
28.104622913482487	1.8972998	1.3774251
28.122690694725115	1.9038477	1.3797998
28.14075918951405	1.8701671	1.3675406
28.15882839838312	1.9005516	1.3786049
28.176898321866304	1.9105114	1.3822125
28.1949689604978	1.9352307	1.3911257
28.213040314811945	1.9108793	1.3823456
28.23111238534327	1.9005119	1.3785906
28.249185172626493	1.9297839	1.3891666
28.267258677196473	1.9671066	1.4025358
28.285332899588294	1.9627488	1.4009813
28.303407840337172	1.9434932	1.3940923
28.321483499978545	1.9162467	1.3842856
28.33955987904799	1.9147655	1.3837506
28.357636978081285	1.9198272	1.3855783
28.37571479761439	1.9567931	1.3988543
28.393793338183425	1.9716693	1.4041615
28.41187260032469	1.997924	1.4134793
28.429952584574686	2.040466	1.4284488
28.448033291470065	2.0064757	1.4165012
28.46611472154769	1.9774153	1.406206
28.484196875344566	1.9822396	1.4079204
28.502279753397914	1.9884479	1.4101233
28.52036335624511	2.0020564	1.4149404
28.538447684423716	1.9828509	1.4081374
28.556532738471482	1.9870638	1.4096324
28.574618518926325	1.9696922	1.4034573
28.59270502632635	1.9513472	1.3969063
28.61079226120985	1.9543318	1.3979741
28.628880224115274	2.0159109	1.4198277
28.646968915581287	2.0160482	1.4198761
28.66505833614671	2.0678055	1.4379866
28.68314848635055	2.0889268	1.445312
28.701239366732004	2.0646446	1.4368871
28.71933097783044	2.0343454	1.4263048
28.737423320185403	2.0619988	1.4359661
28.75551639433665	2.072841	1.4397364
28.773610200824074	2.0978692	1.4484023
28.791704740187793	2.1043816	1.4506487
28.80980001296809	2.1610544	1.4700525
28.827896019705413	2.1494296	1.4660933
28.845992760940433	2.1513665	1.4667537
28.86409023721397	2.168509	1.4725858
28.88218844906704	2.2133238	1.4877244
28.900287397040845	2.2661598	1.5053769
28.918387081676755	2.3068175	1.5188211
28.936487503516343	2.2936478	1.5144794
28.954588663101365	2.262562	1.5041815
28.97269056097374	2.2879376	1.512593
28.990793197675597	2.3749874	1.5410994
29.00889657374923	2.452843	1.5661554
29.027000689737125	2.4564536	1.5673077
29.04510554618196	2.426983	1.5578778
29.06321114362659	2.4307318	1.5590805
29.08131748261405	2.4454591	1.5637964
29.099424563687567	2.5025218	1.5819361
29.11753238739057	2.5605114	1.6001598
29.13564095426663	2.5329053	1.5915104
29.15375026485954	2.5320003	1.591226
29.171860319713275	2.6060224	1.6143179
29.18997111937199	2.6922214	1.640799
29.20808266438002	2.6876843	1.6394159
29.226194955281898	2.7249393	1.6507391
29.244307992622335	2.8541968	1.6894368
29.26242177694624	2.9195533	1.70867
29.2805363087987	2.8776042	1.6963502
29.29865158872498	2.8923945	1.7007041
29.316767617270557	2.8911133	1.7003274
29.334884394981064	2.9447565	1.7160293
29.353001922402367	2.9726713	1.7241436
29.37112020008047	3.0055058	1.7336395
29.389239228561596	3.1048706	1.7620643
29.407359008392152	3.3531568	1.8311627
29.42547954011872	3.7581859	1.9386041
29.44360082428809	4.4353313	2.1060226
29.46172286144722	5.5109787	2.3475473
29.479845652143283	7.1515784	2.6742435
29.497969196923606	9.342418	3.056537
29.516093496335728	11.887629	3.447844
29.5342185509274	14.651012	3.8276641
29.55234436124651	16.867409	4.106995
29.570470927841175	18.067305	4.250565
29.588598251259686	17.676874	4.2043877
29.60672633205055	16.403913	4.0501747
29.624855170762405	14.224013	3.7714736
29.642984767944146	11.351313	3.369171
29.66111512414481	8.652784	2.9415615
29.67924623991366	6.5450573	2.558331
29.697378115800138	5.110751	2.2606971
29.71551075235387	4.15317	2.0379329
29.733644150124675	3.677707	1.9177349
29.751778309662576	3.471746	1.8632622
29.769913231517766	3.4008667	1.8441439
29.78804891624066	3.3358908	1.8264421
29.806185364381818	3.2781982	1.8105795
29.82432257649206	3.335565	1.826353
29.842460553122333	3.4172072	1.8485689
29.86059929482382	3.4263093	1.8510293
29.878738802147872	3.4176354	1.8486848
29.896879075646048	3.3473485	1.829576
29.915020115870114	3.3047016	1.8178838
29.933161923371976	3.2928555	1.8146226
29.951304498703777	3.299118	1.8163475
29.969447842417857	3.2523887	1.8034381
29.987591955066733	3.1368363	1.7711116
30.005736837203123	3.0379546	1.742973
30.023882489379943	3.056466	1.7482752
30.04202891215028	3.1388853	1.7716899
30.060176106067455	3.198921	1.7885528
30.078324071684946	3.1775944	1.7825809
30.09647280955646	3.1265683	1.7682105
30.114622320235863	3.1368494	1.7711153
30.132772604277257	3.1096094	1.7634084
30.1509236622349	3.1127286	1.7642927
30.16907549466328	3.1871889	1.78527
30.18722810211705	3.1912885	1.7864177
30.205381485151097	3.107232	1.7627343
30.22353564432045	3.050445	1.7465523
30.241690580180403	3.0122104	1.7355721
30.25984629328638	3.0824745	1.7556977
30.278002784194037	3.1593764	1.7774634
30.296160053459246	3.1141148	1.7646855
30.314318101638033	3.0299861	1.7406856
30.332476929286646	3.024952	1.7392389
30.35063653696153	2.9854772	1.7278533
30.368796925219307	2.9478648	1.7169347
30.386958094616844	2.9611485	1.7207989
30.40512004571115	2.906277	1.7047806
30.423282779059463	2.8849928	1.6985266
30.441446295219233	2.902488	1.703669
30.459610594748067	2.8910778	1.7003169
30.47777567820382	2.9043562	1.7042172
30.495941546144504	2.9226372	1.7095722
30.51410819912835	2.892371	1.7006972
30.532275637713795	2.8575444	1.6904273
30.55044386245946	2.8930075	1.7008843
30.56861287392416	2.8873792	1.699229
30.586782672666956	2.8831525	1.6979848
30.604953259247047	2.9007921	1.7031713
30.623124634223885	2.898131	1.7023897
30.641296798157075	2.8039012	1.6744853
30.659469751606462	2.77203	1.6649414
30.677643495132074	2.7713103	1.6647253
30.695818029294152	2.7352996	1.6538742
30.713993354653116	2.7294354	1.6521003
30.73216947176962	2.7673361	1.6635312
30.75034638120448	2.7236893	1.6503603
30.768524083518756	2.7962098	1.6721871
30.786702579273673	2.836101	1.6840727
30.80488186903069	2.913451	1.7068834
30.82306195335144	2.9873412	1.7283926
30.841242832797782	3.1505997	1.7749928
30.85942450793176	3.4039128	1.8449696
30.877606979315637	3.795944	1.9483182
30.895790247511883	4.11812	2.0293152
30.913974313083134	4.5499816	2.1330686
30.932159176592283	4.8362284	2.1991427
30.95034483860237	4.8620996	2.2050169
30.968531299676698	4.6933436	2.1664126
30.98671856037873	4.443041	2.1078522
31.00490662127215	4.069243	2.0172365
31.023095482920848	3.58407	1.893164
31.04128514588892	3.0627868	1.7500819
31.059475610740662	2.732346	1.6529809
31.07766687804056	2.624533	1.620041
31.09585894835335	2.5803483	1.6063462
31.11405182224393	2.5944483	1.6107291
31.132245500277417	2.6659038	1.6327596
31.15043998301914	2.6275969	1.6209863
31.168635271034628	2.5532382	1.5978855
31.18683136488964	2.522403	1.5882075
31.20502826515008	2.4688232	1.5712489
31.223225972382135	2.3676715	1.538724
31.241424487152155	2.3262043	1.5251899
31.259623810026692	2.3766952	1.5416534
31.27782394157253	2.4200501	1.5556511
31.296024882356644	2.448933	1.5649067
31.314226632946237	2.4485457	1.564783
31.332429193908684	2.4899306	1.5779514
31.350632565811598	2.5648425	1.6015126
31.368836749222787	2.6089497	1.6152244
31.387041744710295	2.614715	1.6170081
31.40524755284232	2.498856	1.580777
31.423454174187317	2.4659028	1.5703193
31.441661609313922	2.5574148	1.5991919
31.459869858791002	2.630902	1.6220056
31.478078923187628	2.5896635	1.6092432
31.496288803073064	2.4247835	1.5571716
31.514499499016807	2.3154123	1.5216479
31.532711011588546	2.2870388	1.5122958
31.550923341358178	2.3556108	1.5347999
31.56913648889584	2.3519783	1.5336161
31.587350454771844	2.2718518	1.5072663
31.605565239556732	2.2751045	1.508345
31.62378084382127	2.3256068	1.524994
31.641997268136382	2.339811	1.5296441
31.660214513073274	2.3497634	1.5328938
31.67843257920331	2.343934	1.5309912
31.6966514670981	2.345804	1.5316018
31.71487117732944	2.4045632	1.5506654
31.733091710469346	2.4589934	1.5681179
31.751313067090052	2.3848083	1.5442824
31.769535247764008	2.3201537	1.523205
31.787758253063878	2.3477805	1.5322468
31.805982083562526	2.355293	1.5346963
31.824206739833024	2.3131015	1.5208884
31.84243222244869	2.3199909	1.5231516
31.860658531983013	2.263637	1.5045388
31.878885669009737	2.2227838	1.4909003
31.897113634102784	2.256393	1.5021294
31.91534242783632	2.368728	1.5390673
31.933572050784694	2.3387907	1.5293105
31.951802503522508	2.2662952	1.5054219
31.970033786624548	2.2442424	1.4980795
31.988265900665834	2.2290418	1.4929976
32.006498846221575	2.1025076	1.4500027
32.02473262386724	2.092115	1.4464145
32.04296723417845	2.187261	1.4789392
32.0612026777311	2.2274342	1.492459
32.07943895510129	2.2277014	1.4925486
32.097676066865304	2.156115	1.4683715
32.115914013599685	2.2190275	1.4896401
32.13415279588115	2.2230048	1.4909744
32.152392414286666	2.184102	1.4778708
32.1706328693934	2.1441238	1.4642826
32.18887416177875	2.1597087	1.4695947
32.20711629202032	2.155688	1.4682262
32.225359260695924	2.1512032	1.466698
32.243603068383614	2.0762377	1.4409156
32.26184771566166	2.060073	1.4352955
32.28009320310852	2.1429636	1.4638865
32.2983395313029	2.1175623	1.4551846
32.31658670082372	2.0151837	1.4195716
32.33483471225012	2.009713	1.4176434
32.35308356616143	2.0885015	1.4451648
32.371333263137245	2.145627	1.464796
32.38958380375734	2.1495075	1.4661199
32.407835188601744	2.1114085	1.4530686
32.42608741825067	2.061828	1.4359066
32.444340493284585	2.036496	1.4270585
32.46259441428416	2.0215015	1.4217951
32.48084918183028	2.0496602	1.4316634
32.49910479650405	2.0383992	1.4277252
32.51736125888683	2.0332825	1.4259322
32.53561856956014	1.9485625	1.3959092
32.5538767291058	1.9494785	1.3962373
32.572135738105764	1.9980272	1.4135159
32.59039559714228	2.0308046	1.425063
32.608656306797776	2.1052668	1.4509537
32.62691786765491	2.1560874	1.4683621
32.645180280296586	2.0814571	1.4427255
32.663443545305896	2.1057825	1.4511315
32.68170766326619	2.1696694	1.4729798
32.69997263476099	2.1828732	1.477455
32.7182384603741	2.120902	1.4563317
32.7365051406895	2.0773637	1.4413062
32.75477267629144	2.0513053	1.4322379
32.77304106776434	2.0399718	1.4282758
32.79131031569289	2.119402	1.4558166
32.809580420661966	2.0639205	1.4366351
32.827851383256714	2.0190232	1.4209234
32.84612320406245	2.0337026	1.4260795
32.86439588366476	2.0319705	1.425472
32.88266942264945	2.073033	1.4398031
32.9009438216025	2.1371033	1.4618834
32.9192190811102	2.1298492	1.4594003
32.937495201758985	2.0671177	1.4377475
32.95577218413556	2.0334334	1.4259851
32.974050028826866	2.0188627	1.4208668
32.992328736420035	1.9706707	1.4038057
33.010608307502444	1.9654866	1.4019581
33.02888874266169	2.0084717	1.4172056
33.047170042485604	2.0261	1.4234114
33.06545220756225	2.0018332	1.4148616
33.083735238479896	2.0111551	1.418152
33.10201913582707	2.046868	1.430688
33.12030390019248	1.967729	1.4027576
33.138589532165135	1.8665125	1.3662037
33.15687603233419	1.8792679	1.3708639
33.17516340128909	2.0338833	1.4261428
33.19345163961947	2.0542426	1.433263
33.211740747915215	2.021263	1.4217112
33.23003072676643	1.979085	1.4067996
33.248321576763466	1.9669706	1.4024873
33.266613298496885	2.0140233	1.4191629
33.28490589255747	1.9749961	1.4053456
33.30319935953626	1.879277	1.3708673
33.32149370002451	1.8417046	1.3570942
33.339788914613706	1.8083882	1.3447633
33.358085003895575	1.9079127	1.3812722
33.376381968462034	2.0045133	1.4158083
33.39467980890529	2.0242782	1.4227713
33.41297852581774	1.923761	1.3869971
33.43127811979204	1.9244862	1.3872585
33.44957859142105	2.0183063	1.4206711
33.467879941297866	2.0259073	1.4233437
33.486182170015844	2.095953	1.4477407
33.50448527816853	2.011641	1.4183233
33.522789266349754	1.8819846	1.3718544
33.541094135153514	1.7736843	1.3317974
33.55939988517411	1.7970939	1.3405573
33.57770651700602	1.8302455	1.3528657
33.59601403124398	1.8897419	1.3746789
33.61432242848296	1.9242249	1.3871644
33.632631709318154	1.9256085	1.387663
33.650941874344994	1.8775567	1.3702396
33.66925292415916	1.9320775	1.3899919
33.68756485935654	1.9761744	1.4057647
33.70587768053328	1.9457705	1.3949088
33.724191388285746	2.0894072	1.4454782
33.74250598321054	2.105493	1.4510317
33.760821465904506	1.9573867	1.3990663
33.77913783696474	1.894792	1.3765144
33.79745509698852	1.9366971	1.3916527
33.815773246573414	2.0073307	1.416803
33.8340922863172	2.037446	1.4273913
33.852412216817896	2.0440261	1.4296944
33.87073303867377	2.0144951	1.4193292
33.889054752483304	2.0006466	1.4144422
33.907377358845245	1.9913505	1.4111522
33.92570085835853	2.029517	1.4246112
33.94402525162239	1.9921176	1.4114239
33.96235053923627	1.9644707	1.4015958
33.980676721799824	2.075346	1.4406061
33.999003799912984	2.0908306	1.4459704
34.01733177417592	2.0198493	1.421214
34.03566064518901	1.994716	1.4123442
34.0539904135529	2.06095	1.4356009
34.07232107986846	1.9338182	1.390618
34.090652644736785	1.7943131	1.3395197
34.108985108759235	1.8291341	1.3524549
34.12731847253742	1.9603832	1.4001368
34.14565273667313	1.9921488	1.411435
34.16398790176847	1.9914405	1.4111841
34.18232396842574	1.891916	1.3754694
34.20066093724749	1.8855689	1.3731601
34.21899880883651	1.9811832	1.4075451
34.23733758379583	2.0446496	1.4299124
34.25567726272874	2.071217	1.4391724
34.27401784623872	2.1431603	1.4639536
34.29235933492957	2.038941	1.4279149
34.31070172940526	1.9951226	1.4124881
34.32904503027003	1.9846509	1.4087764
34.347389238128386	1.9641163	1.4014693
34.36573435358502	1.9135921	1.3833264
34.38408037724492	1.8999435	1.3783844
34.402427309713296	1.8887353	1.3743126
34.42077515159559	1.8905249	1.3749636
34.43912390349752	1.8506213	1.3603754
34.45747356602499	1.7231644	1.3126936
34.47582413978423	1.7533085	1.3241255
34.49417562538163	1.9131005	1.3831488
34.51252802342388	2.1028578	1.4501234
34.53088133451789	2.166496	1.4719021
34.54923555927084	2.122361	1.4568325
34.567590698290104	2.0066836	1.4165746
34.58594675218336	1.9482863	1.3958102
34.6043037215585	2.0247633	1.4229418
34.62266160702365	2.060171	1.4353296
34.641020409187234	2.0169902	1.4202077
34.65938012865785	1.8949244	1.3765625
34.677740766044394	1.8531934	1.3613205
34.69610232195598	1.893401	1.3760091
34.714464797002016	1.837249	1.3554516
34.73282819179208	2.0657666	1.4372774
34.751192506936064	2.110406	1.4527236
34.76955774304408	2.0574496	1.4343812
34.7879239007265	2.0332723	1.4259286
34.80629098059391	1.9628427	1.4010149
34.824658983257194	1.9989364	1.4138374
34.843027909327446	1.9922993	1.4114883
34.86139775941603	1.8466299	1.3589076
34.879768534134534	1.8865939	1.3735334
34.89814023409483	2.1475878	1.4654651
34.91651285990901	2.1447506	1.4644967
34.93488641218944	2.1517518	1.4668851
34.95326089154871	2.1948242	1.481494
34.97163629859967	2.047358	1.4308592
34.99001263395542	1.8934803	1.376038
35.00838989822934	1.7386508	1.3185791
35.02676809203499	1.7491674	1.3225609
35.04514721598624	1.9130256	1.3831217
35.063527270697215	1.919439	1.3854382
35.081908256782256	1.896597	1.37717
35.10029017485597	1.9140068	1.3834764
35.11867302553321	1.8034961	1.3429431
35.137056809429104	1.9134136	1.3832619
35.155441527159006	2.0011802	1.4146308
35.173827179338524	2.0984347	1.4485974
35.19221376658354	2.0741575	1.4401935
35.21060128951017	2.2226062	1.4908408
35.2289897487348	2.3550682	1.5346231
35.24737914487405	2.2383637	1.4961162
35.26576947854479	2.1869807	1.4788444
35.28416075036418	2.1694067	1.4728906
35.30255296094958	1.9195056	1.3854623
35.32094611091867	1.9646167	1.4016478
35.33934020088932	2.228156	1.4927009
35.35773523147969	2.3530943	1.5339799
35.3761312033082	2.3591394	1.535949
35.394528116993506	2.0253546	1.4231496
35.41292597315452	1.6636509	1.2898259
35.431324772410434	1.5952488	1.2630316
35.449724515380666	1.7476057	1.3219703
35.46812520268491	1.9178103	1.3848503
35.486526834943106	1.9761081	1.4057411
35.504929412775454	2.1287715	1.459031
35.52333293680242	1.8916174	1.3753608
35.54173740764471	1.6447611	1.2824824
35.560142825923286	1.8336786	1.3541338
35.5785491922594	2.1801763	1.476542
35.59695650727454	2.3280964	1.5258101
35.61536477159042	1.9318032	1.3898933
