0.008763373481513119	0.0	0.0
0.026290120649546365	0.14626539	0.3824466
0.043816868432600686	0.1255995	0.3544002
0.06134361724069026	0.08669658	0.29444283
0.07887036748382949	0.06743495	0.25968242
0.0963971195720331	0.1786692	0.4226928
0.11392387391531617	0.16953094	0.41174135
0.1314506309236943	0.14681782	0.38316813
0.1489773910071836	0.09232113	0.30384392
0.16650415457580078	0.094118096	0.30678672
0.18403092203956356	0.15310025	0.39128026
0.20155769380849	0.1924116	0.43864748
0.2190844702925996	0.18267368	0.42740342
0.2366112519019124	0.1330105	0.36470607
0.2541380390464497	0.119775176	0.34608552
0.27166483213623416	0.1083916	0.3292288
0.28919163158128947	0.11652459	0.341357
0.3067184377916406	0.09998424	0.31620285
0.324245251177314	0.09873084	0.31421465
0.34177207214833777	0.118687466	0.34451047
0.3592989011147415	0.13815682	0.37169454
0.37682573848655654	0.17888956	0.42295337
0.39435258467381573	0.19468129	0.44122702
0.41187944008655414	0.16037644	0.4004703
0.42940630513480854	0.1612088	0.40150815
0.446933180228618	0.15829653	0.39786497
0.4644600657780234	0.17439209	0.41760278
0.48198696219306775	0.15429768	0.39280742
0.49951386988379676	0.098938204	0.31454444
0.5170407892602581	0.08648472	0.29408285
0.5345677207325025	0.08576248	0.2928523
0.5520946647105822	0.102417395	0.32002717
0.5696216216045534	0.12703389	0.35641813
0.5871485918244737	0.1480291	0.3847455
0.6046755757804043	0.155624	0.3944921
0.6222025738824094	0.157874	0.39733362
0.6397295865405557	0.14494517	0.38071665
0.6572566141649129	0.13116434	0.36216617
0.6747836571655547	0.12655462	0.35574517
0.6923107159525568	0.15397224	0.39239296
0.7098377909359992	0.18415867	0.4291371
0.7273648825259653	0.19197418	0.4381486
0.7448919911325411	0.21554558	0.46426886
0.762419117165817	0.20549892	0.45331988
0.7799462610358868	0.18632355	0.43165213
0.7974734231528482	0.17598441	0.41950497
0.8150006039268024	0.18017732	0.424473
0.8325278037678551	0.173955	0.41707912
0.8500550230861152	0.18431231	0.4293161
0.8675822622916969	0.19519602	0.44180992
0.8851095217947171	0.16133334	0.4016632
0.9026368020052984	0.18845603	0.43411523
0.9201641033335665	0.1440291	0.37951165
0.9376914261896523	0.16666389	0.40824488
0.9552187709836915	0.15732244	0.39663893
0.9727461381258234	0.17185049	0.41454855
0.990273528026193	0.21273959	0.461237
1.0078009410949496	0.23207425	0.48174086
1.0253283777422473	0.26687682	0.5166012
1.0428558383782454	0.31468192	0.5609652
1.0603833234131086	0.3105212	0.5572443
1.0779108332570058	0.38230425	0.6183076
1.0954383683201119	0.35191777	0.59322655
1.112965929012607	0.38424	0.61987096
1.1304935157446763	0.49023443	0.7001674
1.1480211289265108	0.5158582	0.7182327
1.1655487689683062	1.3973898	1.1821125
1.1830764362802655	1.6902	1.300077
1.200604131272596	2.1270351	1.4584359
1.2181318543555117	2.3212395	1.5235615
1.235659605939232	2.3716247	1.5400081
1.253187386433982	3.9506154	1.9876155
1.270715196249994	6.584536	2.566035
1.2882430357975057	11.973448	3.460267
1.3057709054867608	16.620762	4.076857
1.3232988057280106	21.989758	4.689324
1.3408267369315112	26.259903	5.1244416
1.358354699507526	29.96843	5.474343
1.3758826938663256	34.187824	5.8470354
1.3934107204181858	36.341164	6.028363
1.410938779573391	37.182617	6.097755
1.4284668717422309	37.67413	6.1379256
1.4459949973350033	37.40595	6.11604
1.4635231567620117	36.737183	6.0611205
1.4810513504335687	35.672356	5.972634
1.4985795787599925	34.865734	5.9047213
1.5161078421516088	34.57579	5.8801184
1.5336361410187505	34.28126	5.85502
1.5511644757717598	34.494537	5.873205
1.5686928468209842	35.268753	5.9387503
1.58622125457678	36.07144	6.0059505
1.6037496994495108	36.949123	6.078579
1.621278181849548	36.901962	6.0746984
1.6388067021872719	37.37086	6.113171
1.6563352608730693	37.048428	6.086742
1.673863858317336	36.2064	6.0171757
1.6913924949304753	35.7222	5.976805
1.7089211711228998	34.356167	5.8614135
1.7264498873050296	33.33908	5.7740006
1.7439786438872935	32.113533	5.66688
1.7615074412801288	31.495165	5.6120553
1.779036279893981	31.218164	5.5873218
1.796565160139305	30.698645	5.5406356
1.814094082426564	30.055153	5.482258
1.8316230471662298	28.99132	5.384359
1.849152054768784	27.98603	5.2901826
1.8666811056447168	27.139189	5.2095284
1.8842102002045273	26.33922	5.132175
1.901739338858724	25.957697	5.0948696
1.9192685220178245	25.329165	5.032809
1.9367977500923557	24.6063	4.960474
1.9543270234928547	24.29331	4.9288244
1.971856342629867	23.960876	4.8949847
1.9893857079139496	23.57145	4.855044
2.006915119755667	22.796984	4.7746186
2.0244445785655945	21.80621	4.669712
2.0419740847543175	21.389078	4.6248326
2.0595036387324317	21.189907	4.6032495
2.0770332409105414	20.75214	4.555452
2.094562891699263	20.43085	4.5200496
2.1120925915092217	19.61552	4.4289412
2.129622340751053	19.531897	4.4194903
2.1471521398354043	187.89001	13.707298
2.1646819891729323	444.2788	21.077923
2.182211889174303	440.30078	20.983345
2.1997418402501974	452.4366	21.270557
2.2172718428113023	432.24484	20.790499
2.234801897268317	320.29474	17.89678
2.2523320040319548	16.826134	4.101967
2.269862163512935	16.651632	4.0806413
2.287392376121992	16.26775	4.03333
2.304922642269869	15.859856	3.9824433
2.322452962367322	15.633758	3.9539547
2.3399833368251164	15.265074	3.9070544
2.357513766054032	15.02869	3.8766854
2.3750442504648586	14.702042	3.8343241
2.3925747904683963	14.390184	3.7934396
2.410105386475459	14.440894	3.8001177
2.4276360388968707	14.209435	3.7695405
2.445166748143469	14.044058	3.7475402
2.4626975146261025	13.716538	3.7035844
2.4802283387556323	13.362613	3.6554909
2.4977592209429305	13.106055	3.6202285
2.5152901615988825	12.926672	3.5953681
2.5328211611343865	12.627019	3.5534518
2.5503522199603523	12.492171	3.5344267
2.5678833384877024	12.248676	3.499811
2.5854145171273712	11.894587	3.448853
2.6029457562903064	11.701183	3.4206994
2.620477056387469	11.757471	3.428917
2.6380084178298326	11.890681	3.4482868
2.655539841028383	11.769769	3.4307096
2.673071326394119	11.467741	3.3864052
2.6906028743380523	10.976407	3.313066
2.708134485271211	10.781496	3.2835188
2.7256661596046325	10.772164	3.2820976
2.743197897749369	10.871276	3.2971618
2.760729700116486	10.644197	3.2625446
2.778261567117063	10.3250475	3.2132611
2.795793499162193	10.009104	3.1637168
2.8133254966629817	9.825607	3.1345825
2.830857560030551	9.695008	3.1136808
2.8483896896760337	9.586087	3.0961406
2.865921886010578	9.467905	3.076996
2.883454149445347	9.419216	3.0690742
2.9009864803915177	9.309676	3.0511763
2.91851887926028	9.122716	3.0203834
2.9360513464628384	9.003878	3.000646
2.953583882410413	8.920728	2.9867587
2.9711164875142373	8.798289	2.966191
2.9886491621855606	8.750217	2.9580767
3.0061819068356455	8.630177	2.9377162
3.023714721875769	8.469963	2.91032
3.041247607717225	8.311041	2.8828876
3.0587805647713213	8.28315	2.8780463
3.0763135934493806	8.147565	2.854394
3.0938466941627407	8.173969	2.8590155
3.1113798673227544	8.059213	2.8388753
3.1289131133407904	8.063021	2.839546
3.1464464326282315	7.957216	2.8208537
3.1639798255964786	7.8196087	2.7963564
3.1815132926569443	7.5485153	2.747456
3.1990468342210603	7.3272367	2.706887
3.216580450700272	7.292002	2.7003708
3.2341141425060416	7.177017	2.6789956
3.251647910049847	7.3006835	2.7019777
3.2691817537431813	7.2379417	2.6903424
3.286715673997555	7.1387324	2.6718407
3.3042496712244938	7.0271688	2.6508808
3.32178374583554	6.8580074	2.6187797
3.339317898242251	6.84572	2.6164327
3.3568521288562034	6.744927	2.5970998
3.3743864380889876	6.7119107	2.5907357
3.3919208263522127	6.6209416	2.5731192
3.4094552940575023	6.4492517	2.5395377
3.4269898416164972	6.3535347	2.5206218
3.444524469440858	6.2564044	2.5012805
3.4620591779422587	6.2806797	2.5061283
3.479593967532391	6.439344	2.5375862
3.4971288386229658	6.390093	2.5278633
3.5146637916257086	6.370489	2.5239828
3.5321988269523628	6.3755436	2.524984
3.5497339450146903	6.3496428	2.5198498
3.5672691462244708	6.3055224	2.51108
3.5848044309934988	6.1630797	2.4825552
3.60233979973359	6.159168	2.4817672
3.619875252856575	6.1719	2.484331
3.6374107907743034	6.1448607	2.478883
3.6549464138986427	6.155954	2.4811194
3.6724821226414788	6.1349945	2.476892
3.690017917414714	6.111158	2.4720757
3.7075537986302702	6.201347	2.4902503
3.7250897667000857	6.2276807	2.495532
3.7426258220361235	6.4202228	2.5338159
3.7601619650503553	6.7074385	2.5898724
3.777698196154779	7.2411714	2.6909425
3.7952345157614067	8.361412	2.8916106
3.8127709242822716	9.114612	3.0190415
3.830307422129425	11.100348	3.3317184
3.847844009714936	29.851818	5.4636817
3.8653806874508954	97.33049	9.865622
3.882917455749409	96.72824	9.835052
3.900454315022606	96.45177	9.820986
3.917991265682631	40.92726	6.397442
3.9355283081416506	10.566823	3.250665
3.9530654428118495	8.597935	2.9322236
3.970602670105433	7.443948	2.72836
3.9881399904346244	6.5938644	2.567852
4.005677404211669	6.416134	2.5330088
4.023214911848827	6.3384395	2.5176258
4.0407525137583855	6.3685203	2.5235927
4.058290210352644	6.485317	2.5466287
4.075828002043927	6.3928547	2.5284095
4.0933658892445814	6.302733	2.5105245
4.110903872366966	6.1672025	2.4833853
4.128441951823468	6.092959	2.468392
4.145980128026488	6.117171	2.4732914
4.163518401388452	6.0833645	2.4664478
4.181056772321807	6.0605297	2.4618144
4.1985952412390155	6.000926	2.4496787
4.216133808552567	6.0572906	2.4611564
4.233672474674966	6.137467	2.4773912
4.251211240018741	6.305305	2.5110366
4.268750104996445	6.5782266	2.5648053
4.286289070020643	7.7212324	2.7787106
4.303828135503928	9.431947	3.0711474
4.3213673018589125	29.592506	5.4398994
4.3389065694982305	90.66904	9.522029
4.356445938834537	165.69852	12.872394
4.3739854102805085	171.35042	13.090089
4.391524984248844	172.26558	13.124998
4.409064661152262	136.33318	11.67618
4.426604441403504	96.73801	9.835548
4.444144325415337	75.85424	8.709434
4.461684313600543	21.754122	4.6641316
4.47922440637193	22.201523	4.711849
4.496764604142329	20.45585	4.5228143
4.5143049073245916	18.632349	4.3165207
4.531845316331589	16.514257	4.0637736
4.5493858315762195	13.572189	3.6840453
4.566926453471405	11.233292	3.3516104
4.584467182430081	9.185442	3.0307493
4.602008018865218	8.076901	2.841989
4.619548963189798	7.3944383	2.7192717
4.637090015816834	6.890682	2.625011
4.654631177159353	6.6485195	2.5784724
4.672172447630417	6.3154216	2.5130503
4.689713827643102	6.0762053	2.464996
4.7072553176105085	5.8640776	2.4215858
4.724796917945764	5.7786155	2.403875
4.742338629062015	5.782451	2.4046729
4.759880451372434	5.7299905	2.39374
4.777422385290215	5.728122	2.3933496
4.794964431228581	5.6760635	2.3824492
4.812506589600768	5.662073	2.379511
4.830048860820047	5.546636	2.3551297
4.847591245299709	5.513419	2.348067
4.8651337434530655	5.4629908	2.337304
4.882676355693457	5.4458637	2.3336375
4.900219082434242	5.447037	2.3338888
4.917761924088813	5.466373	2.3380275
4.935304881070575	5.4979477	2.3447702
4.952847953792969	5.4818397	2.341333
4.970391142669449	5.439422	2.3322568
4.9879344481135055	5.396893	2.3231213
5.005477870538642	5.4011545	2.3240385
5.023021410358394	5.344289	2.3117719
5.040565067986324	5.3404646	2.3109446
5.05810884383601	5.40956	2.3258462
5.075652738321066	5.4812093	2.3411982
5.09319675185512	5.4095645	2.3258471
5.110740884851836	5.2759113	2.2969353
5.128285137724894	5.1693206	2.273614
5.145829510888007	5.1942015	2.2790792
5.163374004754908	5.1789684	2.2757347
5.1809186197393595	5.1731653	2.2744594
5.198463356255145	5.1599903	2.2715611
5.216008214716077	5.2274814	2.2863686
5.233553195535998	5.264255	2.2943964
5.251098299128764	5.2562394	2.292649
5.268643525908272	5.2401342	2.289134
5.286188876288432	5.3042917	2.3031049
5.3037343506831895	5.3319	2.3090909
5.32127994950651	5.273765	2.296468
5.3388256731723915	5.2119613	2.282972
5.356371522094851	5.1362457	2.2663286
5.373917496687938	5.1322823	2.265454
5.391463597365729	5.15301	2.2700243
5.40900982454232	5.0886793	2.25581
5.426556178631843	5.143109	2.2678423
5.444102660048449	5.10702	2.2598717
5.4616492692063225	5.180745	2.276125
5.479196006519669	5.170706	2.2739186
5.496742872402727	5.156229	2.270733
5.514289867269756	5.1490083	2.2691426
5.531836991535049	5.083845	2.2547383
5.549384245612924	5.0790772	2.2536807
5.566931629917724	5.063471	2.2502158
5.584479144863822	5.043246	2.2457173
5.6020267908656205	5.046872	2.2465246
5.619574568337545	4.9684653	2.2290056
5.637122477694054	4.928174	2.219949
5.654670519349629	4.870751	2.2069778
5.672218693718784	4.8934436	2.212113
5.689767001216059	4.999779	2.2360187
5.707315442256021	5.091223	2.256374
5.724864017253266	5.0650144	2.2505586
5.7424127266224225	5.0197906	2.240489
5.75996157077814	4.995001	2.2349498
5.777510550135105	5.0233607	2.2412856
5.795059665108022	5.068238	2.2512746
5.812608916111639	5.132414	2.2654831
5.830158303560715	5.2057037	2.2816012
5.847707827870055	5.2174892	2.2841823
5.86525748945448	5.361977	2.3155944
5.8828072887288485	5.413764	2.3267496
5.900357226108044	5.4096036	2.3258555
5.917907302006979	5.5029254	2.3458314
5.9354575168406	6.1052823	2.470887
5.9530078710238765	6.6597977	2.5806584
5.970558364971812	7.1712275	2.6779149
5.988108999099438	7.44515	2.7285802
6.005659773821818	7.8310056	2.7983935
6.023210689554039	7.5666523	2.7507548
6.040761746711227	7.9171443	2.8137422
6.058312945708531	7.475774	2.7341862
6.075864286961132	7.166231	2.6769817
6.093415770884244	6.6105385	2.5710967
6.1109673978931065	6.0888987	2.4675694
6.128519168402993	5.541449	2.3540282
6.146071082829204	5.419573	2.3279977
6.163623141587075	5.316271	2.3057039
6.181175345091969	5.182155	2.2764347
6.198727693759281	5.093311	2.2568364
6.216280188004435	5.0326924	2.2433662
6.233832828242885	5.0278273	2.2422817
6.251385614890126	5.049919	2.2472024
6.268938548361669	5.080151	2.2539191
6.286491629073067	5.023407	2.2412958
6.304044857439898	5.0513053	2.247511
6.321598233877777	4.996554	2.2352972
6.339151758802344	5.006665	2.237558
6.356705432629277	5.0131507	2.2390065
6.37425925577428	4.9930863	2.2345214
6.391813228653095	5.020781	2.24071
6.409367351681486	4.9990015	2.2358446
6.426921625275259	4.967091	2.228697
6.44447604985025	4.998167	2.2356582
6.46203062582232	4.9903536	2.2339098
6.47958535360737	4.975486	2.2305796
6.497140233621328	4.9058366	2.2149124
6.514695266280161	4.854898	2.2033832
6.532250451999859	4.8551416	2.2034385
6.549805791196454	4.901921	2.2140281
6.567361284286002	4.945269	2.2237961
6.584916931684597	4.9248514	2.2192006
6.602472733808367	4.9481316	2.2244396
6.6200286910734665	4.925258	2.2192922
6.637584803896092	4.8880014	2.2108824
6.655141072692462	4.923959	2.2189994
6.672697497878842	4.962751	2.2277234
6.690254079871514	4.935912	2.2216914
6.707810819086808	4.8848705	2.2101743
6.725367715941078	4.8902326	2.211387
6.742924770850719	4.865558	2.205801
6.760481984232151	4.8756757	2.2080932
6.778039356501836	4.8259354	2.1968012
6.795596888076266	4.84364	2.2008271
6.813154579371963	4.853168	2.2029908
6.830712430805492	4.840684	2.2001555
6.84827044279344	4.8846307	2.21012
6.865828615752445	4.924136	2.2190394
6.883386950099159	4.9606247	2.227246
6.900945446250287	4.8847523	2.2101476
6.918504104622553	4.88169	2.2094548
6.936062925632727	4.9319124	2.2207909
6.953621909697607	5.0084	2.2379456
6.971181057234028	5.0486484	2.2469196
6.988740368658859	5.120753	2.262908
7.006299844389007	5.2051444	2.2814786
7.023859484841407	5.301919	2.3025897
7.041419290433036	5.341216	2.3111072
7.058979261580902	5.447627	2.3340151
7.0765393987020495	5.6560507	2.3782454
7.094099702213559	6.026398	2.4548724
7.111660172532549	6.4034452	2.530503
7.129220810076164	6.8008037	2.607835
7.146781615261595	7.371293	2.7150126
7.16434258850606	7.5473056	2.747236
7.181903730226821	7.9880915	2.8263211
7.1994650408411704	8.086826	2.8437345
7.217026520766437	8.2526655	2.8727453
7.234588170419983	8.417849	2.901353
7.252149990219215	8.381724	2.8951209
7.269711980581568	8.293315	2.8798115
7.2872741419245175	8.16726	2.857842
7.304836474665574	7.7429953	2.7826238
7.322398979222286	7.479701	2.7349043
7.339961656012233	7.189852	2.68139
7.357524505453039	6.833925	2.6141777
7.375087527962357	6.5266447	2.55473
7.392650723957886	6.2283154	2.4956594
7.410214093857353	5.8901377	2.4269605
7.427777638078528	5.7480817	2.3975158
7.445341357039213	5.597486	2.3659008
7.4629052511572525	5.42312	2.3287594
7.480469320850524	5.315536	2.3055446
7.498033566536948	5.219224	2.284562
7.5155979886344735	5.1568213	2.2708635
7.5331625875610975	5.1001315	2.258347
7.550727363734844	5.0890503	2.2558923
7.568292317573788	5.0829387	2.2545373
7.585857449496025	5.13283	2.265575
7.603422759919705	5.090913	2.2563052
7.620988249263007	5.0898337	2.256066
7.638553917944147	4.989008	2.2336087
7.656119766381391	5.0495143	2.2471125
7.673685794993023	5.075964	2.25299
7.691252004197388	5.136909	2.266475
7.70881839441285	5.143166	2.267855
7.726384966057826	5.1155276	2.2617533
7.743951719550762	5.160457	2.271664
7.761518655310149	5.1603804	2.271647
7.779085773754511	5.180679	2.2761104
7.796653075302419	5.1871133	2.2775235
7.814220560372475	5.1517262	2.2697415
7.831788229383323	5.1814923	2.2762892
7.8493560827536495	5.1832075	2.276666
7.866924120902174	5.273316	2.2963703
7.884492344247663	5.299479	2.3020597
7.9020607532089135	5.279828	2.2977877
7.919629348204771	5.2924376	2.30053
7.937198129654115	5.3105574	2.3044646
7.954767097975865	5.3857675	2.3207257
7.972336253588986	5.4020057	2.3242216
7.989905596912472	5.442133	2.332838
8.007475128365371	5.4528775	2.3351398
8.025044848366756	5.4770427	2.3403082
8.042614757335754	5.5327644	2.3521829
8.060184855691523	5.5390196	2.3535123
8.07775514385327	5.6859727	2.3845277
8.095325622240228	5.7599297	2.3999853
8.112896291271687	5.8228254	2.413053
8.130467151366968	5.8493414	2.4185412
8.148038202945436	5.8952966	2.428023
8.165609446426497	5.8701396	2.422837
8.183180882229594	5.8840165	2.4256992
8.200752510774217	5.885745	2.4260554
8.218324332479893	5.9144115	2.4319563
8.235896347766193	5.8923683	2.4274201
8.253468557052724	5.8890786	2.4267423
8.27104096075914	5.9426494	2.4377549
8.288613559305137	6.053315	2.4603486
8.306186353110448	6.144934	2.4788978
8.32375934259485	6.1552973	2.480987
8.341332528178162	6.1172004	2.4732974
8.358905910280246	6.12678	2.4752333
8.376479489321003	6.150486	2.4800174
8.394053265720377	6.2392354	2.4978461
8.411627239898356	6.3577404	2.521456
8.42920141227497	6.3680186	2.5234933
8.44677578327029	6.302559	2.5104897
8.464350353304427	6.1149607	2.4728446
8.48192512279754	6.0564685	2.4609892
8.499500092169827	6.0259876	2.4547887
8.51707526184153	6.043719	2.4583976
8.534650632232934	6.0552506	2.460742
8.552226203764365	6.090107	2.4678142
8.569801976856192	6.0665717	2.463041
8.587377951928834	6.1542215	2.4807703
8.60495412940274	6.1561317	2.4811554
8.622530509698416	6.222697	2.4945333
8.6401070932364	6.2556505	2.5011299
8.657683880437283	6.3490124	2.5197246
8.675260871721695	6.521168	2.5536578
8.692838067510303	6.7562137	2.5992718
8.710415468223834	6.9923296	2.6443014
8.727993074283043	7.137091	2.6715336
8.745570886108737	7.1042814	2.6653857
8.763148904121765	7.1522036	2.6743605
8.78072712874302	7.1560726	2.6750836
8.798305560393441	7.4144144	2.7229424
8.815884199494006	7.54528	2.7468674
8.833463046465745	7.7537937	2.7845635
8.851042101729728	7.901066	2.8108835
8.86862136570707	8.185975	2.8611143
8.886200838818924	8.311047	2.8828886
8.903780521486505	8.364524	2.8921487
8.921360414131055	8.442253	2.9055555
8.938940517173874	8.562932	2.9262488
8.956520831036297	8.686551	2.9472957
8.97410135613971	8.906212	2.9843278
8.99168209290554	9.067491	3.0112274
9.009263041755265	9.373255	3.061577
9.026844203110405	9.677745	3.1109073
9.044425577392525	9.878005	3.1429293
9.062007165023239	9.963006	3.156423
9.079588966424197	10.187307	3.1917562
9.097170982017108	10.268789	3.2044952
9.11475321222372	11.1578865	3.3403423
9.132335657465825	11.915259	3.4518487
9.149918318165264	12.063398	3.4732404
9.167501194743924	12.6424055	3.5556161
9.18508428762374	12.2671175	3.5024445
9.202667597226693	12.211924	3.4945562
9.220251123974803	11.887278	3.4477932
9.237834868290143	11.677156	3.4171855
9.255418830594836	11.472347	3.3870854
9.273003011311046	11.053071	3.324616
9.290587410860985	10.883868	3.2990708
9.308172029666911	10.3409	3.215727
9.32575686815113	10.078584	3.1746786
9.343341926735997	8.800879	2.9666274
9.360927205843916	8.50466	2.916275
9.378512705897327	8.346618	2.8890514
9.396098427318728	8.099357	2.8459368
9.413684370530664	8.033737	2.8343847
9.431270535955722	7.8617773	2.8038862
9.448856924016539	7.7819734	2.789619
9.466443535135806	7.633706	2.7629163
9.484030369736251	7.6634164	2.7682877
9.501617428240658	7.5908165	2.7551436
9.519204711071852	7.6194034	2.7603266
9.536792218652714	7.5930166	2.755543
9.55437995140617	7.5857105	2.754217
9.571967909755191	7.6418834	2.7643957
9.589556094122802	7.6283097	2.7619395
9.60714450493207	7.6983995	2.774599
9.624733142606116	7.7179093	2.7781126
9.642322007568108	7.8442645	2.8007615
9.659911100241267	7.886945	2.8083706
9.677500421048851	7.9316254	2.8163142
9.695089970414175	7.9344053	2.8168077
9.712679748760609	7.9964185	2.8277938
9.730269756511557	8.009017	2.8300207
9.747859994090492	8.147917	2.8544557
9.765450461920915	8.16551	2.8575356
9.78304116042639	8.2391205	2.8703868
9.800632090030527	8.211775	2.8656194
9.81822325115699	8.185232	2.8609846
9.835814644229481	8.197744	2.8631704
9.853406269671762	8.282272	2.8778937
9.870998127907646	8.30387	2.8816438
9.888590219360985	8.301874	2.8812973
9.906182544455698	8.27295	2.8762736
9.923775103615734	8.266908	2.8752232
9.941367897265108	8.32374	2.8850892
9.958960925827878	8.280155	2.8775258
9.97655418972816	8.263595	2.874647
9.994147689390106	8.286197	2.8785756
10.011741425237934	8.351477	2.889892
10.029335397695904	8.285455	2.8784466
10.04692960718833	8.2051115	2.8644567
10.06452405413958	8.179254	2.8599393
10.082118738974064	8.20003	2.8635695
10.099713662116246	8.119046	2.849394
10.117308823990651	8.098318	2.8457544
10.134904225021844	8.076532	2.841924
10.152499865634445	8.11371	2.8484576
10.170095746253125	8.147962	2.8544633
10.18769186730261	8.144405	2.8538404
10.205288229207675	8.1005745	2.8461509
10.222884832393145	8.088082	2.8439555
10.2404816772839	8.044891	2.8363519
10.258078764304868	8.034791	2.8345706
10.275676093881035	7.9922824	2.8270626
10.293273666437438	8.018075	2.8316205
10.310871482399158	8.104983	2.8469253
10.32846954219134	8.156187	2.8559039
10.346067846239173	8.189756	2.8617752
10.363666394967908	8.128586	2.8510675
10.38126518880283	8.016433	2.8313305
10.398864228169298	8.050204	2.8372881
10.416463513492713	8.062808	2.8395085
10.434063045198531	8.140544	2.853164
10.451662823712262	8.235373	2.8697338
10.469262849459467	8.321942	2.8847778
10.486863122865758	8.293872	2.8799083
10.504463644356806	8.225458	2.868006
10.522064414358338	8.100324	2.8461068
10.539665433296118	7.9800887	2.8249052
10.557266701595987	7.9062624	2.8118076
10.574868219683818	7.8321323	2.7985947
10.592469987985552	7.8156796	2.7956536
10.610072006927185	7.655153	2.7667947
10.627674276934751	7.5203857	2.7423322
10.64527679843435	7.356697	2.7123232
10.662879571852143	7.278844	2.6979332
10.680482597614331	7.1218667	2.6686826
10.698085876147173	6.9581757	2.6378355
10.715689407876988	6.8077497	2.6091664
10.733293193230146	6.758336	2.59968
10.750897232633072	6.7430725	2.5967426
10.76850152651225	6.6919427	2.586879
10.786106075294207	6.60781	2.5705662
10.803710879405534	6.4903264	2.547612
10.821315939272877	6.38286	2.5264323
10.83892125532294	6.3577805	2.5214639
10.856526827982472	6.307248	2.5114236
10.874132657678285	6.274087	2.5048127
10.891738744837243	6.2141547	2.4928207
10.909345089886271	6.139251	2.4777513
10.926951693252343	6.0696397	2.4636638
10.944558555362494	6.0062633	2.450768
10.96216567664381	5.993383	2.4481387
10.979773057523436	5.955403	2.4403694
10.997380698428573	5.8037367	2.4090946
11.014988599786477	5.6699095	2.3811572
11.032596762024461	5.6145406	2.369502
11.050205185569892	5.6032176	2.3671117
11.067813870850198	5.545018	2.3547862
11.085422818292859	5.4694924	2.3386946
11.10303202832541	5.4027014	2.324371
11.120641501375454	5.3670974	2.3166997
11.138251237870636	5.276321	2.2970243
11.155861238238671	5.1948686	2.2792253
11.173471502907317	5.1099596	2.260522
11.191082032304402	5.0313625	2.24307
11.208692826857805	4.967257	2.2287345
11.226303886995465	4.9366274	2.2218523
11.243915213145371	4.955744	2.22615
11.261526805735578	4.961725	2.227493
11.279138665194196	4.9236245	2.2189243
11.296750791949393	4.818143	2.1950269
11.314363186429393	4.7107162	2.1704185
11.331975849062479	4.6348486	2.15287
11.34958878027699	4.5561743	2.1345196
11.36720198050133	4.515289	2.1249208
11.384815450163948	4.5030355	2.1220357
11.402429189693366	4.4930124	2.1196728
11.420043199518153	4.4409356	2.1073527
11.437657480066942	63.384514	7.961439
11.455272031768422	85.11291	9.225666
11.472886855051353	107.49475	10.367968
11.490501950344528	99.08416	9.9541025
11.508117318076819	84.365204	9.185053
11.52573295867715	45.729042	6.7623253
11.543348872574514	4.010676	2.0026672
11.560965060197946	4.0569935	2.014198
11.57858152197655	4.089862	2.0223408
11.59619825833949	4.069944	2.0174103
11.613815269715985	3.9992797	1.9998199
11.631432556535323	38.49914	6.2047677
11.649050119226837	83.03119	9.112145
11.666667958219929	93.450356	9.666972
11.68428607394406	107.69163	10.377458
11.701904466828756	82.46693	9.08113
11.719523137303586	65.32252	8.082234
11.737142085798196	4.5495586	2.1329694
11.754761312742286	3.6670375	1.9149511
11.772380818565619	3.6160018	1.9015788
11.790000603698015	3.5907135	1.8949178
11.80762066856935	3.5905187	1.8948665
11.825241013609572	3.5714846	1.8898371
11.842861639248683	3.5254629	1.8776217
11.860482545916748	3.5060344	1.8724407
11.878103734043883	3.5057468	1.8723639
11.895725204060282	3.4634237	1.8610276
11.91334695639619	3.432171	1.852612
11.930968991481919	3.356516	1.8320796
11.948591309747824	3.350788	1.8305159
11.966213911624347	3.3249595	1.8234471
11.98383679754198	3.292845	1.8146198
12.001459967931268	3.2496078	1.8026669
12.019083423222835	3.1944907	1.7873138
12.036707163847352	3.180347	1.7833527
12.05433119023556	3.1318474	1.7697027
12.071955502818259	3.1113782	1.7639099
12.089580102026313	3.1216497	1.7668191
12.107204988290643	3.1272686	1.7684085
12.12483016204224	3.1150348	1.7649461
12.142455623712152	3.090696	1.7580376
12.16008137373149	3.0689785	1.75185
12.177707412531431	3.0577934	1.7486547
12.19533374054321	3.062705	1.7500585
12.212960358198126	3.0763376	1.7539492
12.230587265927545	3.0753365	1.7536638
12.248214464162889	3.0365703	1.7425758
12.265841953335649	2.996824	1.7311337
12.283469733877375	2.9601865	1.7205193
12.301097806219685	2.987525	1.7284459
12.31872617079425	2.974679	1.7247257
12.336354828032825	2.9514136	1.7179679
12.353983778367205	2.9100378	1.7058833
12.371613022229262	2.8826635	1.6978408
12.389242560050928	2.9296796	1.7116307
12.406872392264201	2.9328303	1.7125509
12.424502519301143	2.9209852	1.709089
12.442132941593874	2.890267	1.7000785
12.459763659574586	2.8611534	1.6914945
12.477394673675532	2.8415377	1.6856861
12.49502598432903	2.8650668	1.6926508
12.51265759196746	2.8315485	1.6827205
12.530289497023267	2.804072	1.6745363
12.547921699928967	2.7440417	1.6565149
12.565554201117134	2.714998	1.6477251
12.583187001020404	2.694219	1.6414076
12.600820100071486	2.6807432	1.6372975
12.618453498703152	2.6543386	1.629214
12.636087197348235	2.6598773	1.630913
12.65372119643964	2.7139456	1.6474057
12.671355496410326	2.7692215	1.6640978
12.68899009769333	2.8407729	1.6854593
12.706625000721749	2.820234	1.6793553
12.724260205928752	2.9004622	1.7030743
12.741895713747551	2.9539075	1.7186935
12.759531524611454	3.025253	1.7393254
12.777167638953818	3.0238035	1.7389086
12.794804057208072	3.0115814	1.7353909
12.812440779807702	3.032399	1.7413784
12.830077807186271	3.1774242	1.782533
12.847715139777405	3.200478	1.788988
12.865352778014795	3.3857994	1.8400542
12.882990722332197	3.4821684	1.8660569
12.90062897316344	3.5781455	1.8915987
12.918267530942412	3.6768394	1.9175086
12.935906396103071	3.553264	1.8850104
12.953545569079449	3.732142	1.9318752
12.971185050305628	3.5797052	1.8920109
12.988824840215775	3.6048753	1.8986509
13.006464939244115	3.6073098	1.8992919
13.024105347824943	3.4403665	1.8548225
13.041746066392617	3.442771	1.8554705
13.05938709538157	3.202569	1.7895722
13.077028435226296	3.2148197	1.7929919
13.094670086361363	3.187387	1.7853254
13.112312049221401	3.115311	1.7650243
13.129954324241112	3.016933	1.736932
13.147596911855258	2.8340538	1.6834648
13.165239812498685	2.8157434	1.6780177
13.182883026606293	2.7716162	1.6648172
13.200526554613058	2.6858742	1.6388637
13.218170396954017	2.6556797	1.6296257
13.235814554064284	2.6354468	1.6234059
13.253459026379034	2.6682081	1.633465
13.271103814333523	2.6666548	1.6329895
13.288748918363058	2.693968	1.6413312
13.306394338903031	2.6728675	1.6348907
13.32404007638889	2.6293204	1.6215179
13.341686131256164	2.6899376	1.6401029
13.359332503940449	2.7002378	1.64324
13.376979194877402	2.7204545	1.64938
13.394626204502751	2.7068708	1.6452571
13.412273533252307	2.7172515	1.6484088
13.429921181561937	2.737771	1.6546211
13.447569149867581	2.7686598	1.663929
13.465217438605247	2.788117	1.6697656
13.482866048211022	2.7555344	1.6599803
13.500514979121052	2.728153	1.6517122
13.518164231771568	2.6799839	1.6370656
13.535813806598844	2.675513	1.6356995
13.553463704039254	2.6627758	1.6318014
13.571113924529229	2.6492727	1.6276586
13.588764468505275	2.6627169	1.6317834
13.606415336403956	2.6983697	1.6426716
13.624066528661917	2.706234	1.6450635
13.641718045715882	2.7379577	1.6546775
13.659369888002635	2.759695	1.661233
13.67702205595903	2.7990227	1.673028
13.694674550021993	2.9016912	1.7034351
13.712327370628532	2.9919102	1.7297139
13.729980518215713	3.0736485	1.7531824
13.747633993220681	3.0921264	1.7584443
13.765287796080647	3.1567423	1.7767223
13.7829419272329	3.2163239	1.7934113
13.800596387114801	3.2733698	1.8092456
13.818251176163775	3.3063939	1.8183492
13.835906294817324	3.3295035	1.8246927
13.853561743513023	3.3507686	1.8305105
13.871217522688525	3.3528965	1.8310916
13.888873632781538	3.3986695	1.843548
13.906530074229858	3.428404	1.851595
13.92418684747135	3.4598048	1.8600551
13.941843952943948	3.4652064	1.8615065
13.959501391085665	3.4542968	1.8585739
13.977159162334578	3.3772154	1.8377202
13.994817267128846	3.3333619	1.8257496
14.012475705906693	3.285631	1.8126309
14.030134479106424	3.2386475	1.7996242
14.047793587166414	3.1102867	1.7636005
14.065453030525108	2.9888024	1.7288153
14.083112809621026	2.9179144	1.7081904
14.100772924892766	2.8922606	1.7006648
14.118433376778997	2.903598	1.7039948
14.136094165718458	2.8462868	1.6870942
14.153755292149969	2.7735102	1.665386
14.171416756512416	2.745021	1.6568105
14.189078559244768	2.6796026	1.6369492
14.20674070078606	2.6283693	1.6212246
14.224403181575408	2.5594711	1.5998347
14.242066002051999	2.4893782	1.5777763
14.259729162655093	2.433573	1.5599914
14.277392663824022	2.4235973	1.5567907
14.295056505998208	2.4042497	1.5505643
14.312720689617128	2.3989856	1.5488659
14.330385215120348	2.434078	1.5601532
14.348050082947497	2.4333718	1.5599269
14.3657152935383	2.429637	1.5587293
14.383380847332528	2.3812537	1.5431311
14.401046744770051	2.3844924	1.5441802
14.418712986290798	2.3702946	1.539576
14.436379572334793	2.3578155	1.535518
14.454046503342123	2.3650768	1.5378807
14.471713779752946	2.3918612	1.5465643
14.489381402007504	2.3977413	1.5484642
14.507049370546113	2.3743093	1.5408794
14.524717685809168	2.3818142	1.5433128
14.542386348237134	2.4063764	1.55125
14.560055358270553	2.4262123	1.5576303
14.577724716350051	2.4595618	1.568299
14.595394422916325	2.437073	1.5611128
14.61306447841015	2.4519033	1.5658555
14.63073488327237	2.433813	1.5600682
14.648405637943917	2.4847622	1.5763129
14.6660767428658	2.5106719	1.58451
14.683748198479094	2.5490189	1.5965647
14.701420005224954	2.596103	1.6112427
14.719092163544628	2.6411068	1.6251483
14.73676467387942	2.675589	1.6357228
14.754437536670727	2.6787348	1.6366841
14.772110752360014	2.653994	1.6291084
14.78978432138882	2.6231046	1.6196002
14.807458244198777	2.6565912	1.6299052
14.82513252123159	2.6835427	1.6381522
14.842807152929028	2.7023535	1.6438837
14.860482139732962	2.673182	1.6349869
14.87815748208531	2.6679325	1.6333807
14.8958331804281	2.6597443	1.6308722
14.91350923520342	2.616782	1.617647
14.931185646853438	2.651289	1.6282779
14.948862415820408	2.6458385	1.6266034
14.966539542546656	2.6687698	1.633637
14.98421702747459	2.6468177	1.6269044
15.001894871046696	2.6260178	1.6204993
15.019573073705542	2.5806482	1.6064396
15.037251635893766	2.5497952	1.5968078
15.054930558054092	2.568232	1.6025704
15.072609840629323	2.6078014	1.6148689
15.090289484062351	2.7240508	1.6504699
15.107969488796124	2.8887048	1.699619
15.125649855273691	3.1410687	1.7723061
15.14333058393817	3.5085118	1.8731022
15.161011675232768	4.0688815	2.0171468
15.17869312960076	4.7547092	2.1805296
15.196374947485506	5.462637	2.3372285
15.214057129330447	6.8359823	2.614571
15.231739675579114	8.990424	2.9984035
15.249422586675102	13.447071	3.6670249
15.267105863062092	17.801243	4.219152
15.284789505183847	24.629364	4.962798
15.302473513484218	29.210184	5.4046445
15.320157888407127	33.191425	5.7612
15.337842630396578	32.170593	5.6719127
15.355527739896656	29.51381	5.4326615
15.37321321735153	23.057158	4.801787
15.39089906320545	15.771388	3.9713206
15.408585277902748	10.077272	3.174472
15.42627186188783	6.261322	2.5022633
15.443958815605198	4.5815444	2.1404543
15.461646139499424	3.7953365	1.9481623
15.479333834015168	3.3911223	1.8415
15.497021899597165	3.0614424	1.7496978
15.514710336690234	2.8108542	1.6765603
15.53239914573928	2.6669512	1.6330802
15.550088327189297	2.588208	1.6087909
15.567777881485336	2.5346904	1.592071
15.58546780907256	2.5289948	1.5902814
15.6031581103962	2.522516	1.588243
15.620848785901568	2.513681	1.5854592
15.638539836034063	2.4374886	1.5612458
15.656231261239173	2.4160147	1.5543535
15.673923061962451	2.4312441	1.5592448
15.691615238649552	2.467837	1.5709351
15.709307791746202	2.4515095	1.5657297
15.727000721698221	2.4257286	1.5574751
15.744694028951498	2.3876495	1.5452021
15.76238771395202	2.381093	1.543079
15.780081777145844	2.3758764	1.5413878
15.797776218979125	2.366436	1.5383224
15.815471039898094	2.368862	1.5391108
15.833166240349064	2.39553	1.54775
15.850861820778437	2.3896606	1.5458527
15.868557781632699	2.3980718	1.5485709
15.886254123358412	2.401614	1.5497142
15.903950846402232	2.4243588	1.5570353
15.921647951210897	2.4199774	1.5556277
15.939345438231225	2.4416366	1.5625737
15.957043307910133	2.4860775	1.57673
15.974741560694602	2.533459	1.5916843
15.992440197031714	2.5495126	1.5967194
16.01013921736862	2.5186832	1.587036
16.02783862215259	2.4846623	1.5762812
16.045538411830933	2.4605803	1.5686237
16.06323858685107	2.42409	1.5569489
16.080939147660512	2.4327986	1.5597432
16.09864009470684	2.4021795	1.5498966
16.11634142843774	2.377376	1.5418742
16.134043149300954	2.4291253	1.5585651
16.15174525774433	2.470013	1.5716275
16.169447754215817	2.480702	1.5750244
16.18715063916342	2.4424343	1.5628289
16.204853913035244	2.4217434	1.5561951
16.222557576279478	2.4507563	1.5654892
16.240261629344403	22.46092	4.7392955
16.257966072678386	42.974655	6.5555058
16.275670906729868	38.064445	6.169639
16.293376131947387	2.474873	1.5731729
16.31108174877957	2.4844248	1.5762058
16.328787757675133	2.4972594	1.580272
16.34649415908287	2.5173542	1.5866172
16.364200953451657	2.520103	1.5874832
16.38190814123048	2.5566723	1.5989598
16.39961572286839	2.6219566	1.6192456
16.41732369881455	2.6881769	1.6395661
16.43503206951817	2.7206557	1.649441
16.45274083542859	2.788374	1.6698425
16.47044999699522	2.8455598	1.6868787
16.488159554667558	2.9052887	1.7044908
16.505869508895184	2.925435	1.7103903
16.523579860127786	2.9483657	1.7170806
16.541290608815117	2.98019	1.7263227
16.559001755407035	3.04527	1.7450702
16.57671330035348	3.164066	1.7787822
16.59442524410448	3.304124	1.817725
16.61213758711015	3.4733863	1.8637023
16.629850329820705	3.473291	1.8636767
16.647563472686436	3.4735687	1.8637513
16.665277016157724	3.3984401	1.8434858
16.682990960685053	3.4161572	1.848285
16.70070530671898	3.457303	1.8593824
16.718420054710155	3.5137494	1.8744998
16.736135205109335	3.5589628	1.8865213
16.753850758367335	3.5680494	1.8889282
16.771566714935087	3.6199622	1.9026198
16.789283075263597	3.6929739	1.9217112
16.80699983980398	3.745849	1.9354196
16.82471700900741	3.7828846	1.9449639
16.84243458332518	3.8238025	1.9554546
16.860152563208665	3.921649	1.9803153
16.87787094910932	3.9625158	1.9906069
16.89558974147871	4.076619	2.019064
16.913308940768466	4.119149	2.0295687
16.931028547430333	4.192706	2.0476098
16.94874856191613	4.212716	2.0524902
16.966468984677785	4.293059	2.0719697
16.98418981616729	4.3711333	2.0907257
17.00191105683676	4.424857	2.1035345
17.019632707138374	4.4546185	2.1105967
17.03735476752442	4.46999	2.114235
17.05507723844728	4.4823747	2.117162
17.072800120359403	4.5437675	2.1316116
17.090523413713353	4.6060104	2.1461618
17.108247118961785	4.5940776	2.14338
17.125971236557437	4.576447	2.1392632
17.143695766953133	4.5746717	2.1388483
17.161420710601806	4.615959	2.1484783
17.179146067956477	4.639664	2.153988
17.19687183947025	4.663186	2.1594412
17.21459802559634	4.6604247	2.1588018
17.232324626788028	4.6234026	2.15021
17.25005164349871	4.5650845	2.1366057
17.267779076181863	4.5757966	2.1391113
17.285506925291074	4.598236	2.1443498
17.30323519127999	4.6164694	2.148597
17.320963874602384	4.57208	2.1382422
17.33869297571211	4.511223	2.1239638
17.356422495063114	4.464688	2.1129808
17.37415243310944	4.4788456	2.1163282
17.391882790305218	4.495344	2.1202226
17.40961356710468	4.4653687	2.113142
17.42734476396215	4.5013433	2.1216369
17.445076381332044	4.621697	2.1498132
17.462808419668868	4.708288	2.169859
17.48054087942723	4.7619205	2.1821826
17.498273761061835	4.8226247	2.1960475
17.51600706502747	5.187841	2.2776833
17.533740791779024	5.808856	2.4101567
17.551474941771485	6.743034	2.5967352
17.56920951545993	8.653833	2.9417398
17.586944513299528	9.877144	3.1427925
17.60467993574556	12.657421	3.5577269
17.622415783253373	15.1840315	3.8966694
17.64015205627843	17.85298	4.225279
17.657888755276293	20.19312	4.493675
17.675625880702604	21.680235	4.6562037
17.69336343301311	20.147707	4.48862
17.71110141266366	17.89461	4.230202
17.728839820110178	15.290713	3.910334
17.746578655808705	12.337052	3.512414
17.764317920215372	10.327858	3.2136984
17.7820576137864	8.658866	2.942595
17.79979773697811	7.2620826	2.6948252
17.81753829024692	6.047226	2.4591107
17.835279274049356	5.269541	2.295548
17.85302068884201	4.606337	2.1462379
17.870762535081607	4.1691027	2.0418382
17.888504813224934	3.926214	1.9814676
17.90624752372891	3.7528365	1.9372239
17.923990667050536	3.6977625	1.9229567
17.941734243646895	3.5899947	1.8947282
17.959478253975185	3.512496	1.8741654
17.9772226984927	3.4250295	1.8506836
17.994967577656833	3.3652806	1.8344702
18.01271289192506	3.3528435	1.8310771
18.030458641754965	3.368772	1.8354214
18.04820482760425	3.3934011	1.8421186
18.06595144993067	3.3599195	1.8330083
18.083698509192125	3.332555	1.8255287
18.101446005846576	3.2841485	1.812222
18.119193940352105	3.20652	1.7906759
18.136942313166887	3.2028937	1.7896631
18.1546911247492	3.1989424	1.7885587
18.1724403755574	3.204205	1.7900293
18.19019006604997	3.1552167	1.7762929
18.207940196685467	3.1449533	1.7734016
18.225690767922575	3.1330762	1.7700498
18.243441780220046	3.0986547	1.7602996
18.261193234036764	3.0632598	1.7502171
18.278945129831676	3.0058358	1.7337346
18.29669746806386	2.9892972	1.7289584
18.314450249192483	2.998068	1.731493
18.3322034736768	2.9935791	1.7301962
18.349957141976184	3.0201976	1.7378715
18.3677112545501	3.0045757	1.7333713
18.385465811858108	2.9987767	1.7316977
18.403220814359884	2.995587	1.7307764
18.420976262515172	2.9985151	1.7316221
18.43873215678387	3.0765197	1.754001
18.456488497625923	3.1440763	1.7731544
18.474245285501407	3.2662327	1.8072722
18.492002520870486	3.3159451	1.8209736
18.50976020419343	3.3800766	1.8384985
18.527518335930615	3.6658454	1.9146397
18.545276916542516	4.2218	2.0547018
18.563035946489688	4.407152	2.0993218
18.580795426232832	4.8426948	2.2006123
18.598555356232698	4.6929827	2.1663294
18.616315736950185	4.9928713	2.2344735
18.63407656884626	4.654495	2.1574278
18.65183785238201	4.8868046	2.2106118
18.669599588018617	4.7106733	2.1704085
18.68736177621737	4.717948	2.1720839
18.705124417439652	4.6746645	2.1620972
18.72288751214696	4.4567842	2.1111097
18.740651060800886	4.5900793	2.142447
18.758415063863115	4.3313975	2.081201
18.77617952179546	4.517163	2.125362
18.793944435059814	4.291229	2.0715282
18.811709804118184	4.258678	2.0636566
18.829475629432675	4.1889434	2.046691
18.8472419114655	3.9924188	1.9981037
18.86500865067897	4.1371284	2.0339932
18.88277584753551	3.8553743	1.9635108
18.90054350249763	3.8267665	1.9562123
18.918311616027957	3.4878976	1.8675914
18.936080188589226	3.3196235	1.8219833
18.953849220644265	3.0121107	1.7355434
18.971618712656007	2.8503356	1.6882937
18.9893886650875	2.804945	1.674797
19.007159078401887	7.964076	2.8220694
19.024929953062408	32.832626	5.729976
19.042701289532435	32.756767	5.723353
19.060473088275405	25.338646	5.0337505
19.07824534975489	2.6371465	1.6239294
19.096018074434568	2.62792	1.621086
19.113791262778197	2.592991	1.6102767
19.13156491524966	2.5516953	1.5974027
19.149339032312945	2.550219	1.5969405
19.167113614432136	2.544513	1.595153
19.184888662071433	2.5300834	1.5906236
19.202664175695123	2.5271847	1.5897121
19.220440155767623	2.5186434	1.5870234
19.238216602753447	2.5641017	1.6012813
19.2559935171172	2.5405576	1.5939127
19.27377089932361	2.5197875	1.5873839
19.291548749837514	2.4860969	1.5767361
19.309327069123835	2.4964857	1.5800271
19.32710585764763	2.5000653	1.5811595
19.344885115874032	2.4907758	1.5782192
19.362664844268313	2.4603083	1.568537
19.380445043295822	2.4668124	1.570609
19.39822571342203	2.4975579	1.5803664
19.41600685511252	2.5302947	1.59069
19.43378846883297	2.516461	1.5863357
19.451570555049173	2.5221186	1.588118
19.469353114227037	2.4967415	1.580108
19.48713614683254	2.5230417	1.5884086
19.50491965333182	2.532065	1.5912464
19.52270363419109	2.5228555	1.5883499
19.540488089876686	2.4963307	1.5799781
19.55827302085503	2.4947994	1.5794934
19.576058427592674	2.4842756	1.5761585
19.593844310556282	2.4756997	1.5734357
19.611630670212598	2.4964817	1.5800258
19.629417507028506	2.507345	1.5834599
19.64720482147098	2.4886394	1.5775422
19.6649926140071	2.4731288	1.5726185
19.682780885104084	2.4758081	1.5734701
19.70056963522921	2.4637587	1.5696365
19.718358864849908	2.4431324	1.5630523
19.7361485744337	2.4261432	1.5576081
19.753938764448215	2.4689445	1.5712875
19.771729435361202	2.5184612	1.586966
19.789520587640506	2.5445497	1.5951644
19.807312221754092	2.5468051	1.5958713
19.825104338170043	2.5144963	1.5857164
19.842896937356517	2.4861126	1.5767411
19.860690019781824	2.5029662	1.5820765
19.87848358591436	2.4973102	1.580288
19.896277636222635	2.4866447	1.5769099
19.914072171175278	2.5196438	1.5873386
19.931867191241015	2.5045187	1.5825671
19.94966269688869	2.4887521	1.577578
19.967458688587264	2.4767566	1.5737715
19.985255166805807	2.461125	1.5687972
20.00305213201348	2.4954808	1.579709
20.020849584679578	2.4790895	1.5745125
20.038647525273507	2.445638	1.5638535
20.05644595426477	2.395219	1.5476495
20.07424487212299	2.386114	1.5447052
20.092044279317903	2.4104452	1.5525608
20.109844176319353	2.396669	1.5481179
20.127644563597304	2.3864453	1.5448123
20.145445441621817	2.4005258	1.549363
20.16324681086307	2.4097638	1.5523413
20.181048671791373	2.4287186	1.5584346
20.198851024877122	2.4063034	1.5512264
20.216653870590836	2.4052236	1.5508783
20.234457209403146	2.3947763	1.5475065
20.252261041784802	2.3738537	1.5407315
20.270065368206662	2.3748446	1.541053
20.287870189139685	2.360703	1.5364579
20.305675505054968	2.3802712	1.5428127
20.323481316423702	2.3923573	1.5467247
20.341287623717207	2.3891246	1.5456793
20.359094427406884	2.3506258	1.5331751
20.376901727964288	2.2758472	1.5085912
20.39470952586107	2.2321835	1.4940493
20.41251782156899	2.2689695	1.5063099
20.430326615559935	2.30958	1.5197302
20.448135908305886	2.3546994	1.534503
20.465945700278965	2.3626935	1.5371056
20.483755991951384	2.3768852	1.541715
20.50156678379548	2.322268	1.523899
20.519378076283708	2.3089333	1.5195174
20.537189869888635	2.2928762	1.5142246
20.55500216508294	2.2929459	1.5142477
20.572814962339415	2.3317838	1.527018
20.59062826213098	2.3523285	1.5337303
20.60844206493066	2.3556342	1.5348076
20.626256371211593	2.3246222	1.5246712
20.644071181447032	2.32798	1.525772
20.66188649611036	2.340504	1.5298705
20.67970231567506	2.32782	1.5257195
20.697518640614742	2.2848155	1.5115607
20.715335471403122	2.2991507	1.5162951
20.73315280851404	2.315511	1.5216804
20.750970652421447	2.2894943	1.5131075
20.768789003599412	2.2602746	1.503421
20.786607862522136	2.2403734	1.4967877
20.8044272296639	2.2740219	1.5079861
20.82224710549913	2.314094	1.5212147
20.84006749050237	2.313839	1.5211308
20.857888385148268	3.8359272	1.9585524
20.8757097899116	45.93854	6.7777977
20.893531705267254	64.79038	8.049248
20.911354131690224	83.79797	9.154123
20.92917706965566	69.062546	8.310388
20.94700051963877	50.14957	7.081636
20.96482448211493	29.464914	5.428159
20.982648957559622	4.2010307	2.0496416
21.00047394644843	2.2447524	1.4982498
21.01829944925707	2.2081063	1.4859698
21.036125466461375	2.235726	1.4952345
21.053951998537297	2.2372317	1.4957379
21.071779045960906	2.2222295	1.4907144
21.089606609208378	2.2090394	1.4862838
21.10743468875603	2.1835082	1.4776698
21.12526328508028	2.1912801	1.4802973
21.143092398657675	2.2058175	1.4851995
21.16092202996488	2.226196	1.4920442
21.17875217947867	2.1789358	1.4761219
21.19658284767596	2.1552546	1.4680785
21.21441403503377	2.150415	1.4664294
21.232245742029225	2.1529903	1.4673072
21.2500779691396	2.1159136	1.454618
21.26791071684227	2.0989938	1.4487904
21.28574398561475	2.115724	1.4545529
21.30357777593465	2.151473	1.4667901
21.321412088279704	2.1681576	1.4724665
21.339246923127792	2.1402473	1.4629585
21.357082280956888	2.1669786	1.472066
21.3749181622451	2.1994543	1.4830557
21.392754567470647	2.189325	1.4796368
21.41059149711187	2.1608126	1.4699702
21.42842895164726	2.1068	1.451482
21.446266931555378	2.0872512	1.4447322
21.464105437314945	2.0865443	1.4444876
21.481944469404798	2.0884354	1.445142
21.49978402830388	2.084676	1.4438407
21.51762411449127	2.0739646	1.4401265
21.53546472844617	2.0893412	1.4454553
21.553305870647876	2.089698	1.4455788
21.571147541575865	2.0770895	1.4412111
21.58898974170967	2.0550745	1.4335531
21.60683247152899	2.042329	1.4291008
21.62467573151363	2.016962	1.4201978
21.642519522143523	2.056816	1.4341605
21.660363843898722	2.0441723	1.4297456
21.6782086972594	2.0388112	1.4278694
21.696054082705864	2.0247808	1.4229479
21.713900000718535	2.010854	1.4180459
21.73174645177795	2.0242925	1.4227763
21.749593436364794	2.040808	1.4285685
21.767440954959845	2.044215	1.4297605
21.785289008044032	2.0190248	1.420924
21.803137596098388	1.996473	1.412966
21.820986719604086	1.9928341	1.4116777
21.838836379042412	1.9763235	1.4058177
21.85668657489478	2.0083168	1.417151
21.87453730764273	2.031535	1.4253192
21.892388577767914	2.0424936	1.4291583
21.91024038575213	2.006351	1.4164572
21.928092732077285	2.02744	1.423882
21.945945617225426	2.0489237	1.4314063
21.963799041678694	2.0620866	1.4359968
21.981653005919398	31.38719	5.602427
21.999507510429943	78.188194	8.842409
22.01736255569286	73.14578	8.55253
22.035218142190818	4.207027	2.0511038
22.05307427040661	2.0144494	1.419313
22.07093094082315	1.969397	1.403352
22.088788153923474	1.9995451	1.4140527
22.106645910190746	1.9666872	1.4023863
22.12450421010827	1.9607474	1.4002669
22.142363054159464	1.9535377	1.3976902
22.16022244282787	1.9730904	1.4046674
22.178082376597164	2.0062633	1.4164262
22.195942855951145	2.031047	1.4251481
22.213803881373742	2.0222511	1.4220588
22.231665453349002	1.9972113	1.4132273
22.24952757236111	1.9848808	1.408858
22.26739023889438	1.9534688	1.3976655
22.28525345343323	1.915136	1.3838844
22.30311721646225	1.9321129	1.3900046
22.320981528466113	1.9969237	1.4131255
22.33884638992964	2.0498834	1.4317414
22.356711801337788	2.0455797	1.4302377
22.37457776317561	2.0088768	1.4173485
22.392444275928337	1.9502656	1.3965191
22.410311340081282	1.9333853	1.3904623
22.428178956119904	1.9399465	1.3928196
22.446047124529805	1.9909717	1.411018
22.46391584579669	2.0178275	1.4205025
22.481785120406414	1.9754297	1.4054998
22.49965494884496	1.9336869	1.3905706
22.51752533159841	1.9213108	1.3861135
22.53539626915302	1.9303458	1.3893689
22.553267761995137	1.924198	1.3871547
22.571139810611264	1.9357383	1.3913082
22.589012415488025	1.9754652	1.4055125
22.60688557711216	1.9695735	1.403415
22.624759295970566	1.973993	1.4049886
22.642633572550263	2.0008688	1.4145207
22.660508407338362	1.9934282	1.4118881
22.67838380082217	1.974932	1.4053227
22.696259753489077	1.956668	1.3988096
22.714136265826614	1.9502867	1.3965267
22.73201333832246	1.948551	1.3959051
22.74989097146439	1.96111	1.4003963
22.76776916574035	1.9514502	1.3969432
22.785647921638393	1.8874798	1.3738558
22.803527239646712	1.8485729	1.3596224
22.82140712025363	1.8373235	1.3554791
22.839287563947593	1.8328646	1.3538333
22.85716857121719	1.8759934	1.3696691
22.875050142551135	1.9020845	1.3791608
22.892932278438277	1.881949	1.3718414
22.910814979367604	1.8862067	1.3733925
22.928698245828222	1.8806053	1.3713516
22.946582078309387	1.9101071	1.3820662
22.96446647730047	1.9178914	1.3848796
22.98235144329098	1.9080663	1.3813277
23.000236976770562	1.8921444	1.3755524
23.018123078229	1.8935795	1.376074
23.03600974815619	1.8998678	1.3783569
23.053896987042194	1.9000716	1.3784308
23.071784795377173	1.8897014	1.3746641
23.08967317365145	1.9277444	1.3884324
23.10756212235546	1.9759372	1.4056803
23.125451641979787	1.9493988	1.3962088
23.143341733015134	1.9081821	1.3813697
23.161232395952357	1.8960509	1.3769716
23.179123631282426	1.9142785	1.3835745
23.197015439496468	1.9676372	1.4027249
23.214907821085717	1.9498253	1.3963615
23.23280077654157	1.9524959	1.3973174
23.250694306355538	1.9418308	1.3934959
23.268588411019277	1.9562652	1.3986655
23.28648309102458	1.9512509	1.3968718
23.304378346863356	1.9419267	1.3935302
23.322274179027676	1.929953	1.3892275
23.340170588009723	1.8898561	1.3747203
23.358067574301852	1.8503745	1.3602847
23.37596513839651	1.8150548	1.3472397
23.39386328078629	1.8381432	1.3557814
23.411762001963947	1.869479	1.367289
23.429661302422353	1.8936489	1.3760991
23.4475611826545	1.9139606	1.3834597
23.46546164315356	1.9454256	1.3947852
23.48336268441279	1.9500724	1.3964499
23.501264306925638	1.9451673	1.3946925
23.51916651118564	1.9054615	1.3803846
23.537069297686497	1.8944445	1.3763882
23.554972666922037	1.9024413	1.3792901
23.57287661938623	1.9104365	1.3821855
23.59078115557318	1.9011414	1.3788189
23.608686275977128	1.943209	1.3939903
23.62659198109246	1.9877076	1.4098608
23.6444982714137	2.0257804	1.4232992
23.66240514743549	2.0046935	1.415872
23.68031260965263	1.9649112	1.401753
23.698220658560068	1.9260315	1.3878154
23.716129294652845	1.902332	1.3792505
23.7340385184262	1.8785466	1.3706008
23.75194833037546	1.8800391	1.3711451
23.769858730996123	1.869418	1.3672667
23.78776972078382	1.8529122	1.3612171
23.80568130023431	1.8863802	1.3734555
23.823593469843495	1.8904084	1.3749212
23.841506230107424	1.8928516	1.3758094
23.859419581522275	1.8526083	1.3611056
23.87733352458438	1.8783214	1.3705187
23.89524805979019	1.9034091	1.3796409
23.913163187636318	1.9296799	1.3891292
23.931078908619508	1.9714558	1.4040854
23.948995223236633	2.022513	1.4221509
23.966912131984735	2.0120742	1.418476
23.98482963536096	2.0569606	1.4342108
24.002747733862616	2.094084	1.447095
24.020666427987155	2.0621667	1.4360247
24.038585718232156	1.9880025	1.4099654
24.056505605095353	1.9520189	1.3971467
24.074426089074617	1.9830612	1.4082121
24.092347170667946	2.0299363	1.4247583
24.110268850373515	2.0904589	1.4458419
24.128191128689586	2.1335604	1.4606712
24.146114006114626	2.0853872	1.444087
24.164037483147187	2.0494652	1.4315953
24.181961560286005	2.0497797	1.4317051
24.199886238029926	2.0793328	1.4419892
24.21781151687797	2.0946758	1.4472995
24.235737397329274	2.0618505	1.4359145
24.253663879883135	2.0628543	1.436264
24.271590965038975	2.082128	1.4429581
24.289518653296376	2.1104827	1.4527501
24.30744694515505	2.0844615	1.4437664
24.32537584111486	2.0438335	1.4296271
24.34330534167581	2.004326	1.4157423
24.361235447338046	2.0276542	1.4239572
24.379166158601876	2.034908	1.426502
24.39709747596772	2.026347	1.4234982
24.41502939993615	2.039608	1.4281485
24.432961931007917	2.0162015	1.4199301
24.450895069683856	1.9711257	1.4039679
24.468828816465	1.9263328	1.387924
24.4867631718525	1.9432745	1.3940138
24.504698136347656	1.9841044	1.4085824
24.52263371045192	1.9843853	1.4086821
24.540569894666874	1.9635057	1.4012514
24.558506689494266	1.9648542	1.4017326
24.57644409543597	1.9708035	1.403853
24.594382112994012	1.9656043	1.4020001
24.61232074267057	1.9588596	1.3995926
24.630259984967953	1.9517171	1.3970387
24.64819984038863	1.9627975	1.4009987
24.66614030943522	2.007747	1.4169499
24.684081392610462	1.9978045	1.4134371
24.702023090417274	1.9846022	1.4087591
24.7199654033587	2.0017104	1.4148182
24.737908331937927	2.0085473	1.4172323
24.755851876658305	2.0448089	1.4299681
24.773796038023324	2.051108	1.432169
24.79174081653661	2.1183264	1.4554472
24.809686212701962	2.1821291	1.4772031
24.827632227023294	2.2640605	1.5046796
24.8455788600047	2.2562685	1.5020881
24.8635261121504	2.2245214	1.491483
24.88147398396475	2.1561584	1.4683863
24.899422475952303	2.0849962	1.4439516
24.917371588617698	2.0822556	1.4430023
24.935321322465768	2.1461866	1.4649869
24.953271678001478	2.2767646	1.5088952
24.97122265572994	2.5024488	1.581913
24.989174256156414	2.8077457	1.675633
25.00712647978632	3.3318443	1.8253341
25.02507932712521	4.3289933	2.0806234
25.043032798678798	5.864807	2.4217365
25.060986894952933	7.52311	2.7428288
25.078941616453637	8.952787	2.992121
25.096896963687055	9.833412	3.1358273
25.114852937159508	10.541552	3.2467756
25.132809537377444	10.391891	3.2236454
25.150766764847468	9.80804	3.131779
25.168724620076347	8.6026325	2.9330244
25.186683103570985	7.387219	2.717944
25.204642215838426	5.9092903	2.4309032
25.222601957385894	4.718898	2.1723025
25.24056232872074	3.6213346	1.9029804
25.25852333035048	2.900612	1.7031183
25.276484962782778	2.446949	1.5642726
25.294447226525435	2.1869352	1.478829
25.312410122086423	2.0537786	1.433101
25.330373649973843	2.0010355	1.4145796
25.348337810695988	1.928692	1.3887736
25.366302604761245	1.8872805	1.3737832
25.384268032678207	1.908524	1.3814934
25.40223409495558	1.9438572	1.3942227
25.420200792102257	1.9620153	1.4007195
25.438168124627246	1.9339964	1.390682
25.45613609303974	1.8809489	1.3714769
25.474104697849057	1.8511039	1.3605528
25.492073939564698	1.8673809	1.3665215
25.510043818696285	1.8766148	1.3698959
25.528014335753614	1.9035708	1.3796995
25.54598549124664	1.9100251	1.3820366
25.56395728568544	1.9184185	1.3850698
25.58192971958028	1.8571819	1.3627846
25.59990279344156	1.8153217	1.3473388
25.617876507779833	1.8197446	1.3489791
25.635850863105826	1.8277692	1.3519502
25.653825859930386	1.826983	1.3516593
25.671801498764548	1.8227471	1.3500916
25.68977778011949	1.8126509	1.3463472
25.707754704506524	1.8329774	1.3538749
25.725732272437153	1.8905647	1.3749781
25.743710484423012	1.9210343	1.3860139
25.761689340975888	1.901246	1.3788568
25.77966884260774	1.8521158	1.3609246
25.797648989830662	1.8336064	1.3541073
25.815629783156922	1.8431342	1.3576207
25.83361122309895	1.8501152	1.3601894
25.85159331016929	1.8665396	1.3662136
25.869576044880695	1.9040734	1.3798816
25.887559427746034	1.8682551	1.3668413
25.90554345927836	1.8917553	1.3754109
25.92352813999086	1.890659	1.3750124
25.94151347039689	1.9035976	1.3797092
25.959499451009965	1.8593174	1.363568
25.97748608234374	1.8526754	1.3611302
25.995473364912062	1.8523736	1.3610194
26.013461299228904	1.877059	1.3700581
26.03144988580839	1.8673035	1.3664931
26.04943912516483	1.879633	1.3709971
26.067429017812675	1.8419104	1.35717
26.085419564266537	1.8041128	1.3431727
26.103410765041186	1.8107268	1.3456324
26.12140262065155	1.8394498	1.3562632
26.139395131612723	1.8274065	1.351816
26.157388298439948	1.8301017	1.3528125
26.17538212164861	1.7911059	1.338322
26.193376601754295	1.8117348	1.346007
26.211371739272714	1.8905774	1.3749827
26.229367534719746	1.8912703	1.3752346
26.247363988611433	1.8402351	1.3565526
26.26536110146397	1.8416445	1.357072
26.283358873793727	1.8457683	1.3585906
26.301357306117204	1.8450176	1.3583143
26.319356398951104	1.8462363	1.3587627
26.33735615281224	1.8711989	1.3679178
26.35535656821762	1.8343219	1.3543714
26.373357645684404	1.7969375	1.3404989
26.39135938572991	1.7981173	1.3409389
26.409361788871614	1.8065804	1.3440909
26.427364855627165	1.8023432	1.3425138
26.445368586514352	1.7856456	1.3362805
26.46337298205115	1.796465	1.3403227
26.48137804275568	1.8260438	1.3513119
26.499383769146217	1.8028972	1.34272
26.517390161741215	1.7840344	1.3356775
26.53539722105928	1.8244231	1.3507121
26.553404947619182	1.8317846	1.3534343
26.571413341939856	1.7841679	1.3357275
26.589422404540397	1.769775	1.330329
26.60743213594006	1.8287841	1.3523254
26.62544253665827	1.7817544	1.3348237
26.64345360721459	1.7712417	1.33088
26.66146534812879	1.8113056	1.3458476
26.679477759920758	1.8743285	1.3690612
26.69749084311057	1.890702	1.375028
26.71550459821847	1.8673916	1.3665254
26.733519025764842	1.843604	1.3577938
26.751534126270258	1.8300822	1.3528053
26.769549900255434	1.8233318	1.3503081
26.787566348241267	1.7932818	1.3391347
26.80558347074881	1.7688934	1.3299975
26.823601268299267	1.7539654	1.3243736
26.841619741414036	1.7601408	1.326703
26.85963889061465	1.7720158	1.3311708
26.877658716422832	1.7433711	1.3203678
26.89567921936045	1.7574406	1.3256849
26.913700399949544	1.7577116	1.3257872
26.93172225871233	1.7711211	1.3308347
26.949744796171174	1.7855467	1.3362435
26.967768012848605	1.8062255	1.3439589
26.98579190926733	1.8427335	1.3574733
27.003816485950225	1.8526574	1.3611236
27.021841743420318	1.8323338	1.3536372
27.039867682200814	1.8099048	1.345327
27.057894302815072	1.8054311	1.3436633
27.07592160578664	1.8232093	1.3502626
27.0939495916392	1.8376566	1.3556019
27.111978260896635	1.8530811	1.3612792
27.13000761408296	1.8170464	1.3479786
27.148037651722397	1.779992	1.3341634
27.166068374339304	1.7894886	1.3377177
27.184099782458215	1.832834	1.353822
27.20213187660384	1.8690562	1.3671343
27.22016465730105	1.8303286	1.3528963
27.23819812507487	1.8017251	1.3422836
27.256232280450533	1.792522	1.338851
27.274267123953383	1.8266732	1.3515447
27.292302656108987	1.8237234	1.350453
27.31033887744306	1.9105096	1.3822118
27.32837578848146	1.9244261	1.3872368
27.34641338975026	1.9125898	1.3829641
27.364451681775673	1.879915	1.3711
27.382490665084074	1.8218508	1.3497596
27.400530340202046	1.7972068	1.3405994
27.41857070765629	1.8336263	1.3541145
27.436611767973726	1.8433573	1.357703
27.454653521681404	1.8281422	1.3520881
27.472695969306564	1.7616702	1.3272792
27.490739111376627	1.7546089	1.3246166
27.508782948419153	1.7567935	1.3254409
27.526827480961902	1.7923976	1.3388046
27.54487270953279	1.8284992	1.35222
27.562918634659898	1.834533	1.3544493
27.580965256871508	1.8208504	1.3493888
27.599012576696026	1.8183936	1.3484782
27.617060594662068	1.8572387	1.3628055
27.63510931129842	1.8509123	1.3604823
27.65315872713401	1.8372058	1.3554356
27.67120884269797	1.8234378	1.3503473
27.68925965851958	1.8407092	1.3567274
27.707311175128307	1.8463949	1.3588212
27.725363393053787	1.8870912	1.3737143
27.74341631282583	1.9259535	1.3877872
27.7614699349744	1.8935938	1.3760791
27.77952426002968	2.0717525	1.4393584
27.797579288521973	2.1490152	1.4659519
27.815635020981784	2.640022	1.6248145
27.83369145793979	2.7321308	1.6529158
27.85174859992682	2.5701149	1.6031578
27.869806447473923	2.4111838	1.5527987
27.887865001112267	2.0723224	1.4395564
27.905924261373233	1.918619	1.3851422
27.92398422878836	1.8608305	1.3641226
27.94204490388936	1.8720331	1.3682226
27.96010628720813	1.8947386	1.376495
27.978168379276728	1.9087015	1.3815577
27.9962311806274	1.9073596	1.3810719
28.014294691792568	1.8953297	1.3767097
28.0323589133048	1.8752202	1.3693868
28.050423845696887	1.8691137	1.3671553
28.068489489501758	1.8932757	1.3759636
28.086555845252523	1.8612211	1.3642658
28.104622913482487	1.8508856	1.3604726
28.122690694725115	1.9036095	1.3797135
28.14075918951405	1.9231726	1.386785
28.15882839838312	1.9023228	1.3792472
28.176898321866304	1.8977932	1.3776041
28.1949689604978	1.8815509	1.3716964
28.213040314811945	1.8489422	1.3597581
28.23111238534327	1.8673431	1.3665076
28.249185172626493	1.9072535	1.3810335
28.267258677196473	1.9127606	1.3830259
28.285332899588294	1.9288727	1.3888386
28.303407840337172	1.9323033	1.3900732
28.321483499978545	1.9548123	1.398146
28.33955987904799	1.9605057	1.4001806
28.357636978081285	1.9800247	1.4071335
28.37571479761439	1.9873734	1.4097424
28.393793338183425	2.0276983	1.4239727
28.41187260032469	2.0568159	1.4341604
28.429952584574686	2.068391	1.4381902
28.448033291470065	2.0489092	1.4314011
28.46611472154769	2.0290987	1.4244643
28.484196875344566	2.0129833	1.4187964
28.502279753397914	2.0074193	1.4168342
28.52036335624511	2.0049405	1.4159592
28.538447684423716	2.0129359	1.4187797
28.556532738471482	1.9592955	1.3997483
28.574618518926325	1.9574977	1.399106
28.59270502632635	2.0045812	1.4158323
28.61079226120985	2.0364861	1.4270551
28.628880224115274	1.9893702	1.4104503
28.646968915581287	1.9813206	1.407594
28.66505833614671	1.9889891	1.4103153
28.68314848635055	2.000636	1.4144385
28.701239366732004	2.0718665	1.4393979
28.71933097783044	2.1623416	1.4704902
28.737423320185403	2.1594064	1.4694918
28.75551639433665	2.1252792	1.4578338
28.773610200824074	2.0703995	1.4388883
28.791704740187793	2.0903518	1.445805
28.80980001296809	2.1038299	1.4504585
28.827896019705413	2.1184225	1.4554802
28.845992760940433	2.1052728	1.4509559
28.86409023721397	2.0945425	1.4472535
28.88218844906704	2.1461024	1.4649582
28.900287397040845	2.2183406	1.4894094
28.918387081676755	2.2306454	1.4935346
28.936487503516343	2.2351215	1.4950323
28.954588663101365	2.221006	1.490304
28.97269056097374	2.1836236	1.4777089
28.990793197675597	2.2413285	1.4971067
29.00889657374923	2.3110201	1.520204
29.027000689737125	2.3730514	1.5404712
29.04510554618196	2.370617	1.5396808
29.06321114362659	2.3543727	1.5343965
29.08131748261405	2.3596168	1.5361044
29.099424563687567	2.4193308	1.5554198
29.11753238739057	2.4521642	1.5659387
29.13564095426663	2.48736	1.5771366
29.15375026485954	2.5682552	1.6025777
29.171860319713275	2.6185234	1.6181852
29.18997111937199	2.6444454	1.626175
29.20808266438002	2.6875868	1.639386
29.226194955281898	2.7535646	1.6593868
29.244307992622335	2.863426	1.6921661
29.26242177694624	2.8737106	1.6952022
29.2805363087987	2.8552678	1.6897538
29.29865158872498	2.802124	1.6739546
29.316767617270557	2.8124087	1.6770238
29.334884394981064	2.887745	1.6993366
29.353001922402367	2.967149	1.7225415
29.37112020008047	3.030195	1.7407455
29.389239228561596	3.164091	1.7787893
29.407359008392152	3.3559437	1.8319235
29.42547954011872	3.6068945	1.8991826
29.44360082428809	4.043413	2.010824
29.46172286144722	4.8474655	2.2016962
29.479845652143283	6.5641236	2.5620546
29.497969196923606	9.368575	3.0608127
29.516093496335728	13.259868	3.64141
29.5342185509274	16.923294	4.1137934
29.55234436124651	20.049776	4.477698
29.570470927841175	21.38058	4.6239142
29.588598251259686	21.207653	4.605177
29.60672633205055	19.36705	4.400801
29.624855170762405	16.171585	4.021391
29.642984767944146	12.78588	3.5757349
29.66111512414481	9.621028	3.1017783
29.67924623991366	7.158753	2.6755846
29.697378115800138	5.3136435	2.305134
29.71551075235387	4.4022517	2.0981543
29.733644150124675	3.920153	1.9799376
29.751778309662576	3.60556	1.8988312
29.769913231517766	3.4417522	1.855196
29.78804891624066	3.4817863	1.8659545
29.806185364381818	3.5340006	1.8798938
29.82432257649206	3.4598536	1.8600682
29.842460553122333	3.3666484	1.8348429
29.86059929482382	3.2909224	1.81409
29.878738802147872	3.2003715	1.7889582
29.896879075646048	3.208518	1.7912337
29.915020115870114	3.2808197	1.8113033
29.933161923371976	3.2359235	1.7988673
29.951304498703777	3.2284513	1.7967892
29.969447842417857	3.2892542	1.8136301
29.987591955066733	3.2445192	1.8012549
30.005736837203123	3.2040875	1.7899965
30.023882489379943	3.1825438	1.7839686
30.04202891215028	3.149374	1.7746476
30.060176106067455	3.1295192	1.7690448
30.078324071684946	3.1897593	1.7859898
30.09647280955646	3.2420027	1.8005562
30.114622320235863	3.2095864	1.7915318
30.132772604277257	3.1632462	1.7785517
30.1509236622349	3.1128366	1.7643232
30.16907549466328	3.1286635	1.7688029
30.18722810211705	3.1292548	1.76897
30.205381485151097	3.0453794	1.7451016
30.22353564432045	3.0194125	1.7376456
30.241690580180403	3.0780094	1.7544256
30.25984629328638	3.0616522	1.7497578
30.278002784194037	2.9961953	1.7309521
30.296160053459246	2.9991958	1.7318187
30.314318101638033	3.0021796	1.7326798
30.332476929286646	3.0100589	1.7349521
30.35063653696153	2.9637346	1.7215501
30.368796925219307	2.9572783	1.7196739
30.386958094616844	2.9283912	1.7112542
30.40512004571115	2.8618097	1.6916884
30.423282779059463	2.8424342	1.685952
30.441446295219233	2.8656693	1.6928288
30.459610594748067	2.888637	1.6995991
30.47777567820382	2.8677104	1.6934315
30.495941546144504	2.8522882	1.6888719
30.51410819912835	2.8509219	1.6884673
30.532275637713795	2.8940341	1.7011861
30.55044386245946	2.8858716	1.6987853
30.56861287392416	2.8273163	1.6814625
30.586782672666956	2.8124444	1.6770344
30.604953259247047	2.8363328	1.6841415
30.623124634223885	2.8604338	1.6912817
30.641296798157075	2.8027658	1.6741463
30.659469751606462	2.7720723	1.6649542
30.677643495132074	2.8237243	1.680394
30.695818029294152	2.788114	1.6697646
30.713993354653116	2.6857364	1.6388216
30.73216947176962	2.694279	1.6414258
30.75034638120448	2.6861372	1.6389439
30.768524083518756	2.6723511	1.6347327
30.786702579273673	2.7328055	1.6531199
30.80488186903069	2.907237	1.7050622
30.82306195335144	3.1227002	1.7671163
30.841242832797782	3.4351993	1.8534291
30.85942450793176	3.7422469	1.9344888
30.877606979315637	4.038953	2.0097146
30.895790247511883	4.371523	2.0908186
30.913974313083134	4.887307	2.2107255
30.932159176592283	5.3043313	2.3031135
30.95034483860237	5.5724154	2.3605964
30.968531299676698	5.6370506	2.3742473
30.98671856037873	5.425951	2.3293672
31.00490662127215	4.9564123	2.2263002
31.023095482920848	4.3816495	2.093239
31.04128514588892	3.871936	1.9677236
31.059475610740662	3.3007457	1.8167955
31.07766687804056	2.866055	1.6929427
31.09585894835335	2.6648693	1.6324427
31.11405182224393	2.5465274	1.5957843
31.132245500277417	2.4915497	1.5784644
31.15043998301914	2.472017	1.5722649
31.168635271034628	2.4880457	1.5773541
31.18683136488964	2.4336894	1.5600287
31.20502826515008	2.381278	1.543139
31.223225972382135	2.412554	1.5532398
31.241424487152155	2.4434087	1.5631406
31.259623810026692	2.4754748	1.5733641
31.27782394157253	2.460328	1.5685433
31.296024882356644	2.4441752	1.5633858
31.314226632946237	2.5264354	1.5894765
31.332429193908684	2.5040302	1.5824128
31.350632565811598	2.4892187	1.5777258
31.368836749222787	2.5471027	1.5959646
31.387041744710295	2.5407674	1.5939785
31.40524755284232	2.4781165	1.5742035
31.423454174187317	2.4306316	1.5590483
31.441661609313922	2.444635	1.5635328
31.459869858791002	2.4316895	1.5593876
31.478078923187628	2.4716854	1.5721595
31.496288803073064	2.4400895	1.5620786
31.514499499016807	2.4392617	1.5618136
31.532711011588546	2.3952188	1.5476495
31.550923341358178	2.3964314	1.5480411
31.56913648889584	2.3423176	1.5304632
31.587350454771844	2.3081841	1.5192709
31.605565239556732	2.302027	1.5172433
31.62378084382127	2.3608055	1.5364913
31.641997268136382	2.3576498	1.535464
31.660214513073274	2.3842728	1.5441091
31.67843257920331	2.3968625	1.5481803
31.6966514670981	2.316859	1.5221232
31.71487117732944	2.2273679	1.4924369
31.733091710469346	2.2975924	1.5157812
31.751313067090052	2.409125	1.5521357
31.769535247764008	2.4498446	1.565198
31.787758253063878	2.3360724	1.5284215
31.805982083562526	2.3133256	1.5209621
31.824206739833024	2.2499938	1.499998
31.84243222244869	2.2004626	1.4833956
31.860658531983013	2.14531	1.4646877
31.878885669009737	2.2239006	1.4912748
31.897113634102784	2.3201911	1.5232173
31.91534242783632	2.3294296	1.5262469
31.933572050784694	2.219696	1.4898645
31.951802503522508	2.1629524	1.4706979
31.970033786624548	2.2022684	1.4840041
31.988265900665834	2.2687106	1.5062239
32.006498846221575	2.2461855	1.4987279
32.02473262386724	2.2161553	1.4886757
32.04296723417845	2.246105	1.4987011
32.0612026777311	2.2799747	1.5099585
32.07943895510129	2.2407176	1.4969027
32.097676066865304	2.176	1.4751271
32.115914013599685	2.1559434	1.4683131
32.13415279588115	2.1496003	1.4661515
32.152392414286666	2.173828	1.4743906
32.1706328693934	2.2023022	1.4840156
32.18887416177875	2.2760758	1.5086669
32.20711629202032	2.283714	1.5111963
32.225359260695924	2.2502027	1.5000676
32.243603068383614	2.191446	1.4803534
32.26184771566166	2.138138	1.4622374
32.28009320310852	2.1655667	1.4715865
32.2983395313029	2.2159982	1.4886229
32.31658670082372	2.2442079	1.4980681
32.33483471225012	2.2183015	1.4893963
32.35308356616143	2.1999872	1.4832354
32.371333263137245	2.1583898	1.4691459
32.38958380375734	2.1581342	1.469059
32.407835188601744	2.1604722	1.4698545
32.42608741825067	2.155522	1.4681697
32.444340493284585	2.1199145	1.4559926
32.46259441428416	2.1093843	1.452372
32.48084918183028	2.0532374	1.4329122
32.49910479650405	2.0255487	1.4232178
32.51736125888683	1.9562862	1.398673
32.53561856956014	1.9924048	1.4115257
32.5538767291058	2.044181	1.4297487
32.572135738105764	2.0528693	1.4327837
32.59039559714228	2.023788	1.4225991
32.608656306797776	2.0205212	1.4214504
32.62691786765491	2.0569277	1.4341993
32.645180280296586	2.0858762	1.4442563
32.663443545305896	2.0437298	1.4295908
32.68170766326619	1.9884856	1.4101367
32.69997263476099	1.9665664	1.4023432
32.7182384603741	1.9816366	1.4077061
32.7365051406895	1.9580729	1.3993115
32.75477267629144	1.912071	1.3827765
32.77304106776434	1.93785	1.3920668
32.79131031569289	1.9954426	1.4126014
32.809580420661966	1.9971728	1.4132136
32.827851383256714	1.9507158	1.3966802
32.84612320406245	1.8968873	1.3772753
32.86439588366476	1.8498205	1.3600811
32.88266942264945	1.8186239	1.3485637
32.9009438216025	1.890717	1.3750335
32.9192190811102	1.9469438	1.3953292
32.937495201758985	1.9473548	1.3954766
32.95577218413556	1.8658602	1.3659649
32.974050028826866	1.8747047	1.3691986
32.992328736420035	1.953563	1.3976991
33.010608307502444	1.928922	1.3888564
33.02888874266169	1.9523375	1.3972607
33.047170042485604	1.9587778	1.3995634
33.06545220756225	1.9368137	1.3916945
33.083735238479896	1.9529227	1.3974701
33.10201913582707	2.023655	1.4225522
33.12030390019248	1.9842663	1.4086399
33.138589532165135	1.8891656	1.3744693
33.15687603233419	1.965873	1.4020959
33.17516340128909	2.0072367	1.4167699
33.19345163961947	1.8957856	1.3768753
33.211740747915215	1.8273873	1.3518089
33.23003072676643	1.9100753	1.3820547
33.248321576763466	1.9886984	1.4102122
33.266613298496885	1.9822625	1.4079285
33.28490589255747	1.965995	1.4021394
33.30319935953626	1.8890296	1.3744197
33.32149370002451	1.8376497	1.3555994
33.339788914613706	1.951478	1.3969531
33.358085003895575	2.0739841	1.4401333
33.376381968462034	2.0479515	1.4310665
33.39467980890529	2.0363886	1.4270209
33.41297852581774	2.0950627	1.4474331
33.43127811979204	1.9612532	1.4004475
33.44957859142105	1.951337	1.3969027
33.467879941297866	1.898203	1.3777529
33.486182170015844	1.9643856	1.4015654
33.50448527816853	2.0121953	1.4185187
33.522789266349754	2.0320144	1.4254874
33.541094135153514	2.0529292	1.4328047
33.55939988517411	2.0545666	1.433376
33.57770651700602	1.8882772	1.374146
33.59601403124398	1.8104666	1.3455359
33.61432242848296	1.8219256	1.3497872
33.632631709318154	1.8156726	1.347469
33.650941874344994	1.7932141	1.3391094
33.66925292415916	1.8383772	1.3558677
33.68756485935654	1.8657503	1.3659247
33.70587768053328	1.8339422	1.3542312
33.724191388285746	1.9065654	1.3807844
33.74250598321054	2.0118344	1.4183915
33.760821465904506	1.9912114	1.4111029
33.77913783696474	1.876026	1.369681
33.79745509698852	1.9390656	1.3925034
33.815773246573414	1.952623	1.3973628
33.8340922863172	1.913102	1.3831493
33.852412216817896	1.8889544	1.3743924
33.87073303867377	1.9263409	1.3879268
33.889054752483304	2.0296054	1.4246422
33.907377358845245	2.0197804	1.4211898
33.92570085835853	1.986693	1.409501
33.94402525162239	1.9873503	1.4097341
33.96235053923627	1.9464293	1.3951449
33.980676721799824	1.9463288	1.3951088
33.999003799912984	1.7950666	1.339801
34.01733177417592	1.7202171	1.3115705
34.03566064518901	1.8046701	1.3433801
34.0539904135529	1.8744888	1.3691198
34.07232107986846	1.8964105	1.3771023
34.090652644736785	1.9459269	1.3949648
34.108985108759235	1.9694548	1.4033726
34.12731847253742	1.8939295	1.3762012
34.14565273667313	1.8748001	1.3692334
34.16398790176847	1.9764674	1.4058689
34.18232396842574	1.9123468	1.3828763
34.20066093724749	1.769111	1.3300793
34.21899880883651	1.8020117	1.3423903
34.23733758379583	1.8921919	1.3755697
34.25567726272874	1.8679467	1.3667284
34.27401784623872	1.8821098	1.3719001
34.29235933492957	1.9450544	1.3946521
34.31070172940526	2.0254462	1.4231817
34.32904503027003	2.062951	1.4362977
34.347389238128386	1.9967399	1.4130604
34.36573435358502	1.8419639	1.3571897
34.38408037724492	1.9068182	1.3808758
34.402427309713296	1.9710102	1.4039267
34.42077515159559	1.9205055	1.385823
34.43912390349752	1.8272433	1.3517556
34.45747356602499	1.9251199	1.3874869
34.47582413978423	1.9692184	1.4032884
34.49417562538163	1.9774826	1.4062299
34.51252802342388	1.9800417	1.4071395
34.53088133451789	1.9511081	1.3968207
34.54923555927084	1.8862407	1.3734047
34.567590698290104	1.8898551	1.37472
34.58594675218336	1.8584143	1.3632367
34.6043037215585	1.8871256	1.373727
34.62266160702365	2.1044707	1.4506794
34.641020409187234	2.1442275	1.4643182
34.65938012865785	1.9495434	1.3962605
34.677740766044394	1.813597	1.3466985
34.69610232195598	1.7213081	1.3119863
34.714464797002016	1.7342968	1.3169271
34.73282819179208	1.7702205	1.3304963
34.751192506936064	1.855582	1.3621975
34.76955774304408	1.9028981	1.3794557
34.7879239007265	1.9129046	1.383078
34.80629098059391	1.8550134	1.3619888
34.824658983257194	1.873823	1.3688766
34.843027909327446	1.9553396	1.3983346
34.86139775941603	1.8971015	1.3773531
34.879768534134534	1.7927699	1.3389436
34.89814023409483	1.9401067	1.3928771
34.91651285990901	2.0724037	1.4395845
34.93488641218944	2.0045874	1.4158345
34.95326089154871	2.0397785	1.4282081
34.97163629859967	2.1225486	1.4568969
34.99001263395542	1.9834356	1.408345
35.00838989822934	1.8128122	1.3464072
35.02676809203499	1.7059785	1.3061311
35.04514721598624	1.7611862	1.3270969
35.063527270697215	1.9332494	1.3904134
35.081908256782256	2.0293658	1.424558
35.10029017485597	2.3139143	1.5211556
35.11867302553321	2.3569608	1.5352397
35.137056809429104	2.1832724	1.4775901
35.155441527159006	2.136455	1.4616617
35.173827179338524	1.9912338	1.4111109
35.19221376658354	1.9065198	1.3807678
35.21060128951017	1.775851	1.3326106
35.2289897487348	1.7350243	1.3172033
35.24737914487405	1.7089067	1.3072516
35.26576947854479	1.9237359	1.386988
35.28416075036418	2.2527514	1.5009168
35.30255296094958	2.1372938	1.4619486
35.32094611091867	1.9196324	1.3855081
35.33934020088932	2.0336502	1.426061
35.35773523147969	2.1422503	1.4636428
35.3761312033082	2.2469907	1.4989966
35.394528116993506	2.2006319	1.4834527
35.41292597315452	1.9313377	1.3897258
35.431324772410434	2.0592701	1.4350157
35.449724515380666	2.314039	1.5211966
35.46812520268491	2.344976	1.5313314
35.486526834943106	2.1785688	1.4759976
35.504929412775454	2.0392194	1.4280124
35.52333293680242	2.3185318	1.5226725
35.54173740764471	2.3785727	1.5422622
35.560142825923286	1.9877253	1.409867
35.5785491922594	1.5746747	1.2548604
35.59695650727454	1.0781809	1.0383549
35.61536477159042	0.8177855	0.90431494
