0.008763373481513119	0.0	0.0
0.026290120649546365	0.14626539	0.3824466
0.043816868432600686	0.1255995	0.3544002
0.06134361724069026	0.09818326	0.3133421
0.07887036748382949	0.11250248	0.3354139
0.0963971195720331	0.058300674	0.24145533
0.11392387391531617	0.094744205	0.30780548
0.1314506309236943	0.050638713	0.22503047
0.1489773910071836	0.040195506	0.20048817
0.16650415457580078	0.06180748	0.24861111
0.18403092203956356	0.1042174	0.3228272
0.20155769380849	0.12027474	0.3468065
0.2190844702925996	0.12510785	0.35370588
0.2366112519019124	0.09464961	0.30765176
0.2541380390464497	0.13805975	0.3715639
0.27166483213623416	0.15554243	0.39438868
0.28919163158128947	0.11565601	0.34008235
0.3067184377916406	0.11918328	0.34522933
0.324245251177314	0.12072814	0.34745955
0.34177207214833777	0.12877874	0.35885754
0.3592989011147415	0.13140127	0.36249313
0.37682573848655654	0.13155994	0.36271194
0.39435258467381573	0.1191913	0.34524092
0.41187944008655414	0.09742671	0.31213254
0.42940630513480854	0.078036636	0.27935037
0.446933180228618	0.09107798	0.30179128
0.4644600657780234	0.16273834	0.4034084
0.48198696219306775	0.19200383	0.4381824
0.49951386988379676	0.23071744	0.48033056
0.5170407892602581	0.2589334	0.508855
0.5345677207325025	0.27434805	0.52378243
0.5520946647105822	0.23304442	0.48274675
0.5696216216045534	0.19286077	0.43915915
0.5871485918244737	0.16668467	0.40827033
0.6046755757804043	0.12901269	0.35918337
0.6222025738824094	0.18766256	0.43320036
0.6397295865405557	0.19861737	0.4456651
0.6572566141649129	0.16410857	0.40510318
0.6747836571655547	0.16276938	0.40344688
0.6923107159525568	0.15639798	0.39547184
0.7098377909359992	0.19378154	0.44020626
0.7273648825259653	0.20894383	0.45710373
0.7448919911325411	0.18706669	0.43251207
0.762419117165817	0.16390689	0.40485415
0.7799462610358868	0.14032565	0.37460065
0.7974734231528482	0.1311501	0.36214653
0.8150006039268024	0.17816558	0.42209664
0.8325278037678551	0.1740157	0.4171519
0.8500550230861152	0.18195905	0.42656657
0.8675822622916969	0.16254884	0.40317345
0.8851095217947171	0.15859519	0.39824012
0.9026368020052984	0.20467386	0.45240894
0.9201641033335665	0.21858563	0.4675314
0.9376914261896523	0.23229961	0.4819747
0.9552187709836915	0.2214086	0.47054076
0.9727461381258234	0.21898183	0.46795493
0.990273528026193	0.23960344	0.48949304
1.0078009410949496	0.26515356	0.5149306
1.0253283777422473	0.28217456	0.53120106
1.0428558383782454	0.33783102	0.5812323
1.0603833234131086	0.34684688	0.5889371
1.0779108332570058	0.36384806	0.6031982
1.0954383683201119	0.3201773	0.5658421
1.112965929012607	0.3335964	0.57757807
1.1304935157446763	0.4178038	0.64637744
1.1480211289265108	0.49200112	0.70142794
1.1655487689683062	1.4018445	1.1839951
1.1830764362802655	1.7048342	1.305693
1.200604131272596	2.0381615	1.427642
1.2181318543555117	2.1088502	1.4521881
1.235659605939232	2.13839	1.4623235
1.253187386433982	3.7430782	1.9347037
1.270715196249994	6.2557592	2.5011516
1.2882430357975057	11.760427	3.429348
1.3057709054867608	16.810375	4.1000457
1.3232988057280106	22.664665	4.760742
1.3408267369315112	27.348331	5.229563
1.358354699507526	30.820206	5.5515947
1.3758826938663256	34.780666	5.8975134
1.3934107204181858	36.76011	6.0630116
1.410938779573391	37.08326	6.0896025
1.4284668717422309	37.3019	6.107528
1.4459949973350033	36.739056	6.061275
1.4635231567620117	36.943497	6.0781164
1.4810513504335687	36.019573	6.001631
1.4985795787599925	35.360237	5.9464474
1.5161078421516088	34.952404	5.912056
1.5336361410187505	34.207127	5.8486857
1.5511644757717598	34.15977	5.844636
1.5686928468209842	35.027027	5.9183636
1.58622125457678	35.944466	5.9953704
1.6037496994495108	36.806892	6.0668683
1.621278181849548	36.600525	6.0498366
1.6388067021872719	37.137787	6.094078
1.6563352608730693	36.927155	6.0767717
1.673863858317336	36.297962	6.024779
1.6913924949304753	35.529568	5.9606686
1.7089211711228998	34.154293	5.844167
1.7264498873050296	33.383087	5.77781
1.7439786438872935	32.47144	5.6983714
1.7615074412801288	31.409086	5.604381
1.779036279893981	30.667213	5.5377984
1.796565160139305	29.603825	5.44094
1.814094082426564	29.093946	5.3938804
1.8316230471662298	28.213078	5.3115983
1.849152054768784	27.60055	5.2536225
1.8666811056447168	26.997202	5.1958833
1.8842102002045273	26.132246	5.111971
1.901739338858724	25.528175	5.0525413
1.9192685220178245	24.873655	4.9873495
1.9367977500923557	24.292967	4.9287896
1.9543270234928547	23.754313	4.8738394
1.971856342629867	23.294838	4.8264728
1.9893857079139496	22.852053	4.780382
2.006915119755667	22.324549	4.724886
2.0244445785655945	21.72126	4.6606073
2.0419740847543175	21.291725	4.614296
2.0595036387324317	20.81109	4.5619173
2.0770332409105414	20.252192	4.5002437
2.094562891699263	19.887094	4.459495
2.1120925915092217	19.458622	4.411193
2.129622340751053	19.123041	4.37299
2.1471521398354043	187.40465	13.689582
2.1646819891729323	443.78906	21.066301
2.182211889174303	440.13486	20.979391
2.1997418402501974	452.47687	21.271503
2.2172718428113023	432.4712	20.795942
2.234801897268317	320.62473	17.905996
2.2523320040319548	17.275896	4.1564283
2.269862163512935	16.96094	4.1183662
2.287392376121992	16.518576	4.064305
2.304922642269869	16.072603	4.009065
2.322452962367322	15.710442	3.96364
2.3399833368251164	15.345766	3.9173672
2.357513766054032	15.0512495	3.879594
2.3750442504648586	14.82656	3.8505273
2.3925747904683963	14.607509	3.8219771
2.410105386475459	14.484706	3.805878
2.4276360388968707	14.260821	3.7763503
2.445166748143469	14.0992565	3.7548976
2.4626975146261025	13.856584	3.7224433
2.4802283387556323	13.5480585	3.6807687
2.4977592209429305	13.264855	3.6420949
2.5152901615988825	12.947408	3.5982506
2.5328211611343865	12.861819	3.5863378
2.5503522199603523	12.592702	3.5486197
2.5678833384877024	12.421349	3.5243933
2.5854145171273712	12.0426655	3.4702544
2.6029457562903064	11.803085	3.435562
2.620477056387469	11.639002	3.4115982
2.6380084178298326	11.375943	3.3728242
2.655539841028383	11.273886	3.3576608
2.673071326394119	10.986825	3.314638
2.6906028743380523	10.785363	3.2841077
2.708134485271211	10.690756	3.2696722
2.7256661596046325	10.497535	3.23999
2.743197897749369	10.344314	3.2162578
2.760729700116486	10.08596	3.1758401
2.778261567117063	10.008236	3.1635797
2.795793499162193	9.95487	3.155134
2.8133254966629817	9.854398	3.1391716
2.830857560030551	9.753739	3.1230977
2.8483896896760337	9.612067	3.1003335
2.865921886010578	9.474464	3.0780618
2.883454149445347	9.416494	3.0686307
2.9009864803915177	9.396513	3.0653732
2.91851887926028	9.249726	3.0413363
2.9360513464628384	9.254855	3.0421793
2.953583882410413	9.012313	3.0020514
2.9711164875142373	8.756953	2.959215
2.9886491621855606	8.602116	2.9329364
3.0061819068356455	8.408902	2.8998108
3.023714721875769	8.484061	2.9127412
3.041247607717225	8.28825	2.878932
3.0587805647713213	8.163401	2.8571665
3.0763135934493806	8.059617	2.8389466
3.0938466941627407	7.9344964	2.8168237
3.1113798673227544	7.904436	2.811483
3.1289131133407904	7.7631683	2.7862463
3.1464464326282315	7.697533	2.774443
3.1639798255964786	7.5825067	2.7536352
3.1815132926569443	7.566979	2.7508142
3.1990468342210603	7.422006	2.724336
3.216580450700272	7.2716713	2.6966038
3.2341141425060416	7.1706305	2.6778033
3.251647910049847	7.1294475	2.6701026
3.2691817537431813	7.117581	2.6678796
3.286715673997555	7.090945	2.6628828
3.3042496712244938	7.0358915	2.6525254
3.32178374583554	6.9382696	2.6340594
3.339317898242251	6.800335	2.6077452
3.3568521288562034	6.757605	2.5995393
3.3743864380889876	6.711383	2.5906336
3.3919208263522127	6.5785246	2.5648634
3.4094552940575023	6.4297523	2.5356956
3.4269898416164972	6.3961678	2.5290647
3.444524469440858	6.419901	2.5337524
3.4620591779422587	6.410387	2.5318742
3.479593967532391	6.3294635	2.5158424
3.4971288386229658	6.291389	2.508264
3.5146637916257086	6.1906624	2.488104
3.5321988269523628	6.139457	2.4777927
3.5497339450146903	6.0692053	2.4635756
3.5672691462244708	6.0545206	2.4605935
3.5848044309934988	6.0789247	2.4655476
3.60233979973359	6.1058474	2.4710014
3.619875252856575	6.1551957	2.4809668
3.6374107907743034	6.1660256	2.4831483
3.6549464138986427	6.163846	2.4827094
3.6724821226414788	6.1762466	2.4852057
3.690017917414714	6.1872687	2.487422
3.7075537986302702	6.1617246	2.4822822
3.7250897667000857	6.1597953	2.4818935
3.7426258220361235	6.3544784	2.5208092
3.7601619650503553	6.71981	2.5922596
3.777698196154779	7.293413	2.700632
3.7952345157614067	8.253169	2.872833
3.8127709242822716	9.0839615	3.013961
3.830307422129425	11.094805	3.3308864
3.847844009714936	12.469889	3.531273
3.8653806874508954	15.75331	3.969044
3.882917455749409	15.306675	3.9123745
3.900454315022606	15.52637	3.9403515
3.917991265682631	12.522023	3.5386472
3.9355283081416506	10.567422	3.2507572
3.9530654428118495	8.395515	2.8975015
3.970602670105433	7.1816273	2.6798558
3.9881399904346244	6.4555845	2.5407841
4.005677404211669	6.530187	2.555423
4.023214911848827	6.5189056	2.5532148
4.0407525137583855	6.4523163	2.540141
4.058290210352644	6.3622456	2.522349
4.075828002043927	6.283284	2.506648
4.0933658892445814	6.2497196	2.499944
4.110903872366966	6.118481	2.4735563
4.128441951823468	6.1028714	2.4703991
4.145980128026488	6.1051908	2.4708683
4.163518401388452	6.0355816	2.456742
4.181056772321807	6.009845	2.4514985
4.1985952412390155	6.015337	2.4526184
4.216133808552567	6.08157	2.466084
4.233672474674966	6.1339145	2.476674
4.251211240018741	6.406477	2.531102
4.268750104996445	6.635036	2.5758564
4.286289070020643	7.6617384	2.7679846
4.303828135503928	9.289127	3.047807
4.3213673018589125	29.458557	5.4275737
4.3389065694982305	90.599686	9.518387
4.356445938834537	165.6491	12.870474
4.3739854102805085	171.47481	13.094839
4.391524984248844	172.33989	13.127829
4.409064661152262	136.5841	11.68692
4.426604441403504	96.85895	9.841694
4.444144325415337	75.778	8.705056
4.461684313600543	21.757507	4.6644945
4.47922440637193	21.879221	4.677523
4.496764604142329	20.106045	4.4839764
4.5143049073245916	18.299644	4.277808
4.531845316331589	16.216059	4.026917
4.5493858315762195	13.495359	3.673603
4.566926453471405	11.228313	3.3508675
4.584467182430081	9.277642	3.0459223
4.602008018865218	8.137144	2.852568
4.619548963189798	7.379632	2.7165477
4.637090015816834	6.958641	2.6379237
4.654631177159353	6.699469	2.5883334
4.672172447630417	6.41869	2.5335133
4.689713827643102	6.210947	2.4921772
4.7072553176105085	5.9880686	2.447053
4.724796917945764	5.8716674	2.4231524
4.742338629062015	5.7672753	2.4015152
4.759880451372434	5.711953	2.3899693
4.777422385290215	5.587656	2.3638222
4.794964431228581	5.559169	2.357789
4.812506589600768	5.518428	2.3491335
4.830048860820047	5.541887	2.3541212
4.847591245299709	5.5160184	2.3486204
4.8651337434530655	5.4716015	2.3391454
4.882676355693457	5.3760214	2.318625
4.900219082434242	5.450119	2.334549
4.917761924088813	5.4290705	2.3300366
4.935304881070575	5.3496957	2.3129408
4.952847953792969	5.2918773	2.3004081
4.970391142669449	5.2605042	2.2935789
4.9879344481135055	5.3739657	2.3181815
5.005477870538642	5.409531	2.3258398
5.023021410358394	5.463537	2.3374212
5.040565067986324	5.4156303	2.3271506
5.05810884383601	5.376587	2.3187468
5.075652738321066	5.3345437	2.309663
5.09319675185512	5.291635	2.3003554
5.110740884851836	5.2977257	2.301679
5.128285137724894	5.340811	2.3110194
5.145829510888007	5.345755	2.312089
5.163374004754908	5.273379	2.2963839
5.1809186197393595	5.243365	2.2898395
5.198463356255145	5.1960287	2.27948
5.216008214716077	5.1537113	2.2701788
5.233553195535998	5.171397	2.2740707
5.251098299128764	5.2074103	2.281975
5.268643525908272	5.199164	2.2801676
5.286188876288432	5.2033005	2.2810745
5.3037343506831895	5.1953597	2.279333
5.32127994950651	5.126263	2.2641253
5.3388256731723915	5.089313	2.2559507
5.356371522094851	5.101396	2.258627
5.373917496687938	5.136547	2.266395
5.391463597365729	5.2345195	2.2879071
5.40900982454232	5.225324	2.2858968
5.426556178631843	5.174765	2.274811
5.444102660048449	5.135079	2.2660713
5.4616492692063225	5.15055	2.2694824
5.479196006519669	5.1688123	2.273502
5.496742872402727	5.1620183	2.2720075
5.514289867269756	5.097256	2.2577105
5.531836991535049	5.0742273	2.2526045
5.549384245612924	5.1033854	2.2590673
5.566931629917724	5.0742135	2.2526014
5.584479144863822	5.022703	2.2411387
5.6020267908656205	5.019752	2.2404804
5.619574568337545	4.9995956	2.2359776
5.637122477694054	5.0237384	2.2413697
5.654670519349629	4.99822	2.2356699
5.672218693718784	4.9676805	2.2288294
5.689767001216059	5.0529532	2.2478776
5.707315442256021	5.140316	2.2672265
5.724864017253266	5.1301723	2.2649884
5.7424127266224225	5.1494327	2.269236
5.75996157077814	5.115513	2.26175
5.777510550135105	5.087659	2.255584
5.795059665108022	5.0685678	2.251348
5.812608916111639	5.096191	2.2574744
5.830158303560715	5.211001	2.2827616
5.847707827870055	5.2424245	2.2896342
5.86525748945448	5.303598	2.3029542
5.8828072887288485	5.419868	2.328061
5.900357226108044	5.5019	2.345613
5.917907302006979	5.5510592	2.3560686
5.9354575168406	6.021084	2.4537897
5.9530078710238765	6.525628	2.5545309
5.970558364971812	7.0392833	2.6531649
5.988108999099438	7.380044	2.7166235
6.005659773821818	7.803961	2.793557
6.023210689554039	7.535339	2.745057
6.040761746711227	7.95539	2.8205302
6.058312945708531	7.465148	2.7322423
6.075864286961132	7.1093774	2.6663415
6.093415770884244	6.516142	2.5526736
6.1109673978931065	6.048444	2.4593585
6.128519168402993	5.436429	2.3316152
6.146071082829204	5.226271	2.286104
6.163623141587075	5.110974	2.2607462
6.181175345091969	5.0984507	2.2579749
6.198727693759281	5.0933948	2.256855
6.216280188004435	5.0482063	2.2468214
6.233832828242885	5.043895	2.2458618
6.251385614890126	5.054426	2.2482052
6.268938548361669	5.08546	2.2550964
6.286491629073067	5.088752	2.2558262
6.304044857439898	5.053288	2.247952
6.321598233877777	4.9971857	2.2354386
6.339151758802344	4.904129	2.214527
6.356705432629277	4.902861	2.2142406
6.37425925577428	4.847752	2.2017612
6.391813228653095	4.8803935	2.2091613
6.409367351681486	4.8221307	2.195935
6.426921625275259	4.8654923	2.205786
6.44447604985025	4.871058	2.2070475
6.46203062582232	4.8697124	2.2067425
6.47958535360737	4.9017425	2.2139878
6.497140233621328	4.855423	2.2035024
6.514695266280161	4.9158664	2.2171752
6.532250451999859	4.9430265	2.2232919
6.549805791196454	4.956473	2.2263138
6.567361284286002	4.867258	2.2061863
6.584916931684597	4.8634863	2.2053313
6.602472733808367	4.946023	2.2239656
6.6200286910734665	4.9927063	2.2344365
6.637584803896092	5.022275	2.2410433
6.655141072692462	4.9879475	2.2333713
6.672697497878842	4.9394794	2.222494
6.690254079871514	4.867181	2.206169
6.707810819086808	4.834441	2.1987362
6.725367715941078	4.8442245	2.20096
6.742924770850719	4.903971	2.2144911
6.760481984232151	4.92222	2.2186077
6.778039356501836	4.9087615	2.2155726
6.795596888076266	4.984265	2.2325468
6.813154579371963	4.9535637	2.2256603
6.830712430805492	4.8680677	2.2063699
6.84827044279344	4.873322	2.2075603
6.865828615752445	4.9449573	2.223726
6.883386950099159	4.9537807	2.225709
6.900945446250287	4.92405	2.2190201
6.918504104622553	4.815964	2.1945305
6.936062925632727	4.9707394	2.2295156
6.953621909697607	5.0616126	2.2498028
6.971181057234028	5.053824	2.2480712
6.988740368658859	5.029842	2.2427309
7.006299844389007	5.0002275	2.2361188
7.023859484841407	5.0835423	2.2546713
7.041419290433036	5.155096	2.2704837
7.058979261580902	5.2820845	2.2982786
7.0765393987020495	5.503519	2.345958
7.094099702213559	5.9049487	2.43001
7.111660172532549	6.3112855	2.5122273
7.129220810076164	6.657502	2.5802135
7.146781615261595	7.226266	2.6881714
7.16434258850606	7.3686595	2.7145276
7.181903730226821	7.8434496	2.800616
7.1994650408411704	7.916565	2.8136392
7.217026520766437	8.058357	2.8387246
7.234588170419983	8.247951	2.8719246
7.252149990219215	8.201991	2.8639119
7.269711980581568	8.178267	2.859767
7.2872741419245175	8.076701	2.8419538
7.304836474665574	7.7182403	2.778172
7.322398979222286	7.426684	2.7251942
7.339961656012233	7.2180467	2.6866422
7.357524505453039	6.827669	2.6129808
7.375087527962357	6.499316	2.5493755
7.392650723957886	6.138939	2.4776883
7.410214093857353	5.8412547	2.4168687
7.427777638078528	5.6516366	2.3773172
7.445341357039213	5.488682	2.3427937
7.4629052511572525	5.3143907	2.3052962
7.480469320850524	5.185472	2.2771633
7.498033566536948	5.12772	2.264447
7.5155979886344735	5.0565543	2.2486784
7.5331625875610975	4.9938574	2.234694
7.550727363734844	4.9117684	2.216251
7.568292317573788	4.9075027	2.2152884
7.585857449496025	4.9999056	2.2360468
7.603422759919705	5.0674005	2.2510886
7.620988249263007	5.090288	2.2561667
7.638553917944147	5.0686555	2.2513676
7.656119766381391	5.098342	2.2579508
7.673685794993023	5.087165	2.2554743
7.691252004197388	5.128138	2.2645392
7.70881839441285	5.167974	2.2733178
7.726384966057826	5.179747	2.2759058
7.743951719550762	5.209049	2.282334
7.761518655310149	5.1497216	2.2692997
7.779085773754511	5.1623144	2.2720728
7.796653075302419	5.1782355	2.2755737
7.814220560372475	5.149884	2.2693357
7.831788229383323	5.1392207	2.266985
7.8493560827536495	5.173145	2.2744548
7.866924120902174	5.219775	2.2846828
7.884492344247663	5.2831798	2.2985168
7.9020607532089135	5.2804976	2.2979333
7.919629348204771	5.2945857	2.3009968
7.937198129654115	5.2628846	2.2940977
7.954767097975865	5.232346	2.2874322
7.972336253588986	5.308812	2.304086
7.989905596912472	5.3446836	2.3118572
8.007475128365371	5.3567505	2.3144655
8.025044848366756	5.312507	2.3048878
8.042614757335754	5.442729	2.3329656
8.060184855691523	5.57401	2.360934
8.07775514385327	5.8066006	2.409689
8.095325622240228	5.8585024	2.4204342
8.112896291271687	5.8395576	2.4165177
8.130467151366968	5.8377895	2.4161518
8.148038202945436	5.895196	2.4280024
8.165609446426497	5.94179	2.4375787
8.183180882229594	5.9582214	2.4409468
8.200752510774217	5.896209	2.428211
8.218324332479893	5.8982115	2.4286234
8.235896347766193	5.8963175	2.4282334
8.253468557052724	5.9356036	2.4363093
8.27104096075914	5.9418535	2.4375918
8.288613559305137	5.983653	2.4461508
8.306186353110448	5.977066	2.444804
8.32375934259485	6.09147	2.4680903
8.341332528178162	6.1289606	2.4756737
8.358905910280246	6.178011	2.4855604
8.376479489321003	6.1050615	2.4708424
8.394053265720377	6.103842	2.4705954
8.411627239898356	6.114336	2.4727182
8.42920141227497	6.1317973	2.4762466
8.44677578327029	6.1544104	2.4808085
8.464350353304427	6.1706405	2.4840775
8.48192512279754	6.191982	2.4883692
8.499500092169827	6.1562214	2.4811733
8.51707526184153	6.1317415	2.4762354
8.534650632232934	6.112734	2.4723945
8.552226203764365	6.0982366	2.4694607
8.569801976856192	6.0663605	2.4629982
8.587377951928834	6.032804	2.4561768
8.60495412940274	6.0510135	2.4598808
8.622530509698416	6.11217	2.4722803
8.6401070932364	6.2495003	2.4999
8.657683880437283	6.41681	2.5331423
8.675260871721695	6.4972687	2.548974
8.692838067510303	6.6465087	2.5780823
8.710415468223834	6.7629576	2.6005688
8.727993074283043	6.9613013	2.6384277
8.745570886108737	6.983882	2.6427035
8.763148904121765	7.052301	2.6556168
8.78072712874302	7.0863156	2.6620135
8.798305560393441	7.3427296	2.709747
8.815884199494006	7.4496026	2.729396
8.833463046465745	7.6352954	2.7632039
8.851042101729728	7.7605505	2.7857764
8.86862136570707	8.077599	2.8421116
8.886200838818924	8.331641	2.8864582
8.903780521486505	8.389218	2.8964148
8.921360414131055	8.491956	2.914096
8.938940517173874	8.557914	2.9253912
8.956520831036297	8.651955	2.9414206
8.97410135613971	8.884608	2.980706
8.99168209290554	9.033032	3.0055003
9.009263041755265	9.374146	3.0617228
9.026844203110405	9.678229	3.1109853
9.044425577392525	9.876794	3.1427367
9.062007165023239	10.000144	3.1623003
9.079588966424197	10.161672	3.1877377
9.097170982017108	10.151374	3.1861222
9.11475321222372	10.885239	3.2992785
9.132335657465825	11.722011	3.4237423
9.149918318165264	11.884367	3.447371
9.167501194743924	12.466201	3.5307508
9.18508428762374	12.198617	3.492652
9.202667597226693	12.153841	3.4862359
9.220251123974803	11.746201	3.427273
9.237834868290143	11.47283	3.3871565
9.255418830594836	11.3365345	3.366977
9.273003011311046	10.853332	3.2944396
9.290587410860985	10.610035	3.257305
9.308172029666911	10.018305	3.1651707
9.32575686815113	9.804359	3.1311915
9.343341926735997	8.674541	2.9452574
9.360927205843916	8.422629	2.9021766
9.378512705897327	8.237641	2.870129
9.396098427318728	7.9744043	2.8238988
9.413684370530664	7.8888054	2.8087018
9.431270535955722	7.7434225	2.7827005
9.448856924016539	7.751166	2.7840915
9.466443535135806	7.643809	2.7647438
9.484030369736251	7.6681786	2.7691476
9.501617428240658	7.626518	2.761615
9.519204711071852	7.630435	2.762324
9.536792218652714	7.6878386	2.772695
9.55437995140617	7.663576	2.7683165
9.571967909755191	7.657924	2.7672954
9.589556094122802	7.6299615	2.7622385
9.60714450493207	7.668715	2.7692444
9.624733142606116	7.7301292	2.780311
9.642322007568108	7.75956	2.7855988
9.659911100241267	7.842747	2.8004906
9.677500421048851	7.927076	2.8155062
9.695089970414175	7.9429617	2.818326
9.712679748760609	7.9075074	2.8120291
9.730269756511557	7.896412	2.8100555
9.747859994090492	8.003104	2.828976
9.765450461920915	8.066751	2.8402026
9.78304116042639	8.10855	2.8475516
9.800632090030527	8.080037	2.8425405
9.81822325115699	8.061507	2.8392794
9.835814644229481	8.070976	2.8409464
9.853406269671762	8.054252	2.8380013
9.870998127907646	8.18142	2.8603182
9.888590219360985	8.219777	2.8670154
9.906182544455698	8.26858	2.875514
9.923775103615734	8.202613	2.8640203
9.941367897265108	8.255073	2.8731642
9.958960925827878	8.294369	2.8799946
9.97655418972816	8.37045	2.893173
9.994147689390106	8.307533	2.8822792
10.011741425237934	8.216286	2.8664064
10.029335397695904	8.092953	2.8448114
10.04692960718833	8.063559	2.8396406
10.06452405413958	8.068818	2.8405664
10.082118738974064	8.094077	2.845009
10.099713662116246	8.051633	2.83754
10.117308823990651	8.038438	2.835214
10.134904225021844	8.025299	2.832896
10.152499865634445	8.040319	2.8355458
10.170095746253125	8.084569	2.8433375
10.18769186730261	8.101622	2.8463347
10.205288229207675	8.137239	2.8525846
10.222884832393145	8.048056	2.8369095
10.2404816772839	8.008403	2.8299122
10.258078764304868	7.975673	2.8241234
10.275676093881035	7.969606	2.823049
10.293273666437438	8.043014	2.8360207
10.310871482399158	8.145078	2.8539584
10.32846954219134	8.1222315	2.849953
10.346067846239173	8.058169	2.8386915
10.363666394967908	7.948625	2.8193307
10.38126518880283	7.91172	2.812778
10.398864228169298	7.9590793	2.821184
10.416463513492713	8.025443	2.8329213
10.434063045198531	8.052836	2.837752
10.451662823712262	8.0883045	2.8439944
10.469262849459467	8.085017	2.8434165
10.486863122865758	8.011098	2.8303883
10.504463644356806	7.934093	2.8167522
10.522064414358338	7.901414	2.8109453
10.539665433296118	7.864831	2.8044305
10.557266701595987	7.8644786	2.8043678
10.574868219683818	7.773878	2.7881675
10.592469987985552	7.6492176	2.7657218
10.610072006927185	7.5120587	2.7408135
10.627674276934751	7.388629	2.7182033
10.64527679843435	7.258004	2.6940684
10.662879571852143	7.137882	2.6716816
10.680482597614331	6.9817653	2.642303
10.698085876147173	6.927079	2.6319344
10.715689407876988	6.862935	2.6197205
10.733293193230146	6.7803364	2.6039078
10.750897232633072	6.6530614	2.5793529
10.76850152651225	6.519697	2.5533698
10.786106075294207	6.503481	2.5501924
10.803710879405534	6.425559	2.5348687
10.821315939272877	6.3709936	2.5240827
10.83892125532294	6.2886715	2.5077224
10.856526827982472	6.202148	2.4904113
10.874132657678285	6.1456337	2.479039
10.891738744837243	6.109119	2.4716632
10.909345089886271	6.1115746	2.4721599
10.926951693252343	5.9835396	2.4461274
10.944558555362494	5.9273696	2.434619
10.96216567664381	5.815991	2.4116366
10.979773057523436	5.7457542	2.3970304
10.997380698428573	5.7116036	2.3898962
11.014988599786477	5.6375513	2.374353
11.032596762024461	5.5911136	2.3645535
11.050205185569892	5.582105	2.362648
11.067813870850198	5.5593038	2.3578176
11.085422818292859	5.4877243	2.3425891
11.10303202832541	5.386045	2.3207855
11.120641501375454	5.297998	2.301738
11.138251237870636	5.2095613	2.2824464
11.155861238238671	5.171466	2.2740858
11.173471502907317	5.0600715	2.2494602
11.191082032304402	5.0074596	2.2377353
11.208692826857805	4.938829	2.2223477
11.226303886995465	4.9538126	2.225716
11.243915213145371	4.9253616	2.2193155
11.261526805735578	4.8664937	2.206013
11.279138665194196	4.809116	2.1929696
11.296750791949393	4.7909446	2.1888227
11.314363186429393	4.707401	2.1696546
11.331975849062479	4.6680584	2.160569
11.34958878027699	4.5947266	2.1435313
11.36720198050133	4.5783186	2.1397007
11.384815450163948	4.515862	2.1250558
11.402429189693366	4.4442773	2.1081455
11.420043199518153	4.3900356	2.095241
11.437657480066942	63.36629	7.9602947
11.455272031768422	85.08424	9.2241125
11.472886855051353	107.463295	10.36645
11.490501950344528	99.04249	9.952009
11.508117318076819	84.4217	9.188128
11.52573295867715	45.815136	6.7686877
11.543348872574514	4.1302843	2.03231
11.560965060197946	4.094647	2.0235233
11.57858152197655	4.0066204	2.0016544
11.59619825833949	3.964508	1.9911072
11.613815269715985	3.9537106	1.988394
11.631432556535323	38.483765	6.2035284
11.649050119226837	83.04628	9.112973
11.666667958219929	93.40613	9.664684
11.68428607394406	107.66044	10.375955
11.701904466828756	82.47645	9.081655
11.719523137303586	65.33343	8.08291
11.737142085798196	4.554819	2.1342022
11.754761312742286	3.6802306	1.9183927
11.772380818565619	3.6184049	1.9022105
11.790000603698015	3.559548	1.8866764
11.80762066856935	3.5066261	1.8725988
11.825241013609572	3.4437592	1.8557369
11.842861639248683	3.4478297	1.8568332
11.860482545916748	3.4377115	1.8541067
11.878103734043883	3.4651642	1.8614951
11.895725204060282	3.430491	1.8521584
11.91334695639619	3.3886395	1.8408258
11.930968991481919	3.350461	1.8304265
11.948591309747824	3.3167913	1.821206
11.966213911624347	3.2799745	1.81107
11.98383679754198	3.2541134	1.8039161
12.001459967931268	3.2449017	1.8013611
12.019083423222835	3.2514203	1.8031695
12.036707163847352	3.230838	1.7974532
12.05433119023556	3.2054055	1.7903646
12.071955502818259	3.1681652	1.779934
12.089580102026313	3.1533008	1.7757536
12.107204988290643	3.1014538	1.7610945
12.12483016204224	3.0584135	1.748832
12.142455623712152	3.0648715	1.7506775
12.16008137373149	3.0734563	1.7531276
12.177707412531431	3.0837176	1.7560517
12.19533374054321	3.0757127	1.753771
12.212960358198126	3.0506756	1.7466184
12.230587265927545	3.01597	1.7366549
12.248214464162889	2.9643943	1.7217417
12.265841953335649	2.9319742	1.7123009
12.283469733877375	2.9273558	1.7109517
12.301097806219685	2.923438	1.7098064
12.31872617079425	2.9117405	1.7063823
12.336354828032825	2.8834689	1.698078
12.353983778367205	2.8467252	1.6872241
12.371613022229262	2.830563	1.6824278
12.389242560050928	2.8690872	1.693838
12.406872392264201	2.8740337	1.6952975
12.424502519301143	2.877892	1.6964351
12.442132941593874	2.8328454	1.683106
12.459763659574586	2.8360667	1.6840626
12.477394673675532	2.785233	1.6689017
12.49502598432903	2.7796278	1.6672215
12.51265759196746	2.731894	1.6528442
12.530289497023267	2.726891	1.6513301
12.547921699928967	2.7350366	1.6537946
12.565554201117134	2.7362497	1.6541613
12.583187001020404	2.7534194	1.659343
12.600820100071486	2.7831712	1.6682839
12.618453498703152	2.7579308	1.6607019
12.636087197348235	2.7210212	1.6495519
12.65372119643964	2.7161317	1.648069
12.671355496410326	2.753948	1.6595023
12.68899009769333	2.7778673	1.6666936
12.706625000721749	2.7858634	1.6690906
12.724260205928752	2.8618517	1.6917008
12.741895713747551	2.9183836	1.7083278
12.759531524611454	2.9743001	1.7246159
12.777167638953818	2.9363089	1.7135661
12.794804057208072	2.9137213	1.7069626
12.812440779807702	2.9444687	1.7159455
12.830077807186271	3.106829	1.7626199
12.847715139777405	3.2036347	1.78987
12.865352778014795	3.4248824	1.8506438
12.882990722332197	3.5026743	1.8715433
12.90062897316344	3.548954	1.8838668
12.918267530942412	3.5786743	1.8917384
12.935906396103071	3.465207	1.8615067
12.953545569079449	3.6538267	1.9114985
12.971185050305628	3.490228	1.8682152
12.988824840215775	3.533778	1.8798345
13.006464939244115	3.553238	1.8850034
13.024105347824943	3.4239676	1.8503966
13.041746066392617	3.4596004	1.8600001
13.05938709538157	3.2520616	1.8033473
13.077028435226296	3.260825	1.8057754
13.094670086361363	3.2359655	1.7988789
13.112312049221401	3.1683154	1.7799762
13.129954324241112	3.088344	1.7573686
13.147596911855258	2.8808527	1.6973075
13.165239812498685	2.8389876	1.6849296
13.182883026606293	2.762668	1.6621275
13.200526554613058	2.7130704	1.64714
13.218170396954017	2.6948342	1.641595
13.235814554064284	2.6666396	1.6329849
13.253459026379034	2.6458523	1.6266077
13.271103814333523	2.6332679	1.6227347
13.288748918363058	2.6565282	1.6298859
13.306394338903031	2.660797	1.631195
13.32404007638889	2.6400952	1.624837
13.341686131256164	2.6543689	1.6292233
13.359332503940449	2.6449773	1.6263386
13.376979194877402	2.6500616	1.627901
13.394626204502751	2.6823554	1.6377898
13.412273533252307	2.7061186	1.6450285
13.429921181561937	2.7034583	1.6442196
13.447569149867581	2.6781547	1.6365069
13.465217438605247	2.7084093	1.6457245
13.482866048211022	2.6595335	1.6308076
13.500514979121052	2.6477451	1.6271893
13.518164231771568	2.6106691	1.6157565
13.535813806598844	2.6251497	1.6202314
13.553463704039254	2.6593006	1.6307362
13.571113924529229	2.6442926	1.6261281
13.588764468505275	2.656729	1.6299475
13.606415336403956	2.6609519	1.6312424
13.624066528661917	2.6773155	1.6362504
13.641718045715882	2.7370932	1.6544163
13.659369888002635	2.8098304	1.6762549
13.67702205595903	2.9228568	1.7096364
13.694674550021993	2.9748316	1.72477
13.712327370628532	3.016028	1.7366716
13.729980518215713	3.0399122	1.7435344
13.747633993220681	3.1007586	1.760897
13.765287796080647	3.131132	1.7695005
13.7829419272329	3.2035007	1.7898326
13.800596387114801	3.2165418	1.7934719
13.818251176163775	3.2278428	1.7966198
13.835906294817324	3.248125	1.8022555
13.853561743513023	3.322255	1.8227054
13.871217522688525	3.3803048	1.8385606
13.888873632781538	3.457578	1.8594563
13.906530074229858	3.4850311	1.8668238
13.92418684747135	3.4829793	1.8662741
13.941843952943948	3.416675	1.848425
13.959501391085665	3.4060194	1.8455404
13.977159162334578	3.341772	1.8280514
13.994817267128846	3.3628514	1.833808
14.012475705906693	3.240845	1.8002347
14.030134479106424	3.192144	1.7866572
14.047793587166414	3.09642	1.7596648
14.065453030525108	3.0627532	1.7500724
14.083112809621026	2.9890027	1.7288733
14.100772924892766	2.9338775	1.7128565
14.118433376778997	2.9127204	1.7066694
14.136094165718458	2.8636668	1.6922373
14.153755292149969	2.8057563	1.6750392
14.171416756512416	2.7238426	1.6504068
14.189078559244768	2.6380854	1.6242183
14.20674070078606	2.5671806	1.6022424
14.224403181575408	2.4932537	1.579004
14.242066002051999	2.4161463	1.5543958
14.259729162655093	2.3744888	1.5409377
14.277392663824022	2.386913	1.5449637
14.295056505998208	2.388197	1.5453793
14.312720689617128	2.3751972	1.5411675
14.330385215120348	2.3488436	1.5325937
14.348050082947497	2.3248808	1.524756
14.3657152935383	2.322946	1.5241214
14.383380847332528	2.3905263	1.5461327
14.401046744770051	2.3907645	1.5462097
14.418712986290798	2.371642	1.5400137
14.436379572334793	2.3421552	1.5304102
14.454046503342123	2.3308108	1.5266993
14.471713779752946	2.3468988	1.5319592
14.489381402007504	2.3094563	1.5196896
14.507049370546113	2.3168452	1.5221187
14.524717685809168	2.3351195	1.5281098
14.542386348237134	2.4064436	1.5512716
14.560055358270553	2.4407737	1.5622976
14.577724716350051	2.4817023	1.5753419
14.595394422916325	2.4614456	1.5688995
14.61306447841015	2.5007808	1.5813857
14.63073488327237	2.4750936	1.573243
14.648405637943917	2.4898121	1.5779139
14.6660767428658	2.4400024	1.5620507
14.683748198479094	2.481201	1.5751828
14.701420005224954	2.5445848	1.5951755
14.719092163544628	2.6111827	1.6159154
14.73676467387942	2.6267169	1.6207149
14.754437536670727	2.6215456	1.6191188
14.772110752360014	2.6207154	1.6188624
14.78978432138882	2.6252768	1.6202706
14.807458244198777	2.6394777	1.6246469
14.82513252123159	2.656451	1.6298623
14.842807152929028	2.6882408	1.6395855
14.860482139732962	2.6528432	1.6287551
14.87815748208531	2.6186323	1.6182189
14.8958331804281	2.6333199	1.6227508
14.91350923520342	2.6010873	1.6127887
14.931185646853438	2.6129856	1.6164732
14.948862415820408	2.5953975	1.6110238
14.966539542546656	2.622344	1.6193653
14.98421702747459	2.6418364	1.6253726
15.001894871046696	2.658697	1.6305511
15.019573073705542	2.6610947	1.6312861
15.037251635893766	2.6164174	1.6175344
15.054930558054092	2.6154351	1.6172307
15.072609840629323	2.5978556	1.6117865
15.090289484062351	2.7305295	1.6524314
15.107969488796124	2.8599632	1.6911426
15.125649855273691	3.1226618	1.7671055
15.14333058393817	3.5390694	1.8812414
15.161011675232768	4.1308303	2.0324445
15.17869312960076	4.8197227	2.1953866
15.196374947485506	5.4841485	2.341826
15.214057129330447	6.856403	2.6184733
15.231739675579114	8.939217	2.9898522
15.249422586675102	13.335433	3.6517713
15.267105863062092	17.667328	4.203252
15.284789505183847	24.560558	4.955861
15.302473513484218	29.105804	5.3949795
15.320157888407127	32.902813	5.7360973
15.337842630396578	31.713182	5.631446
15.355527739896656	28.951097	5.3806224
15.37321321735153	22.6619	4.760452
15.39089906320545	15.569228	3.9457862
15.408585277902748	10.074689	3.174065
15.42627186188783	6.2886443	2.507717
15.443958815605198	4.5809584	2.1403174
15.461646139499424	3.8516004	1.9625494
15.479333834015168	3.452006	1.8579575
15.497021899597165	3.1126914	1.7642821
15.514710336690234	2.8669457	1.6932057
15.53239914573928	2.6492157	1.6276412
15.550088327189297	2.5069447	1.5833334
15.567777881485336	2.4380612	1.5614293
15.58546780907256	2.4435751	1.5631939
15.6031581103962	2.4614396	1.5688976
15.620848785901568	2.4692857	1.5713961
15.638539836034063	2.423434	1.5567383
15.656231261239173	2.423245	1.5566776
15.673923061962451	2.4256108	1.5574373
15.691615238649552	2.4378247	1.5613534
15.709307791746202	2.4530725	1.5662287
15.727000721698221	2.4518294	1.5658319
15.744694028951498	2.4270835	1.55791
15.76238771395202	2.378435	1.5422175
15.780081777145844	2.3552477	1.5346817
15.797776218979125	2.364332	1.5376384
15.815471039898094	2.3910022	1.5462866
15.833166240349064	2.3748446	1.541053
15.850861820778437	2.3339899	1.5277401
15.868557781632699	2.3537874	1.5342058
15.886254123358412	2.376222	1.5414999
15.903950846402232	2.4465415	1.5641425
15.921647951210897	2.4504023	1.565376
15.939345438231225	2.4703305	1.5717285
15.957043307910133	2.4637415	1.569631
15.974741560694602	2.4861672	1.5767585
15.992440197031714	2.4664373	1.5704895
16.01013921736862	2.4572582	1.5675644
16.02783862215259	2.4683647	1.571103
16.045538411830933	2.4664192	1.5704838
16.06323858685107	2.4299726	1.5588369
16.080939147660512	2.3723593	1.5402465
16.09864009470684	2.3605	1.5363919
16.11634142843774	2.3649976	1.5378549
16.134043149300954	2.4030378	1.5501735
16.15174525774433	2.4063067	1.5512275
16.169447754215817	2.4076765	1.5516689
16.18715063916342	2.3962705	1.5479891
16.204853913035244	2.3616707	1.5367728
16.222557576279478	2.3623378	1.5369898
16.240261629344403	22.377266	4.7304616
16.257966072678386	42.921246	6.5514307
16.275670906729868	38.00663	6.164952
16.293376131947387	2.4392262	1.5618023
16.31108174877957	2.4933043	1.57902
16.328787757675133	2.556593	1.5989349
16.34649415908287	2.5942228	1.6106591
16.364200953451657	2.6160944	1.6174345
16.38190814123048	2.640398	1.6249301
16.39961572286839	2.6578436	1.6302894
16.41732369881455	2.684396	1.6384127
16.43503206951817	2.7110646	1.6465311
16.45274083542859	2.7501395	1.6583544
16.47044999699522	2.8101025	1.676336
16.488159554667558	2.8581288	1.6906002
16.505869508895184	2.8852222	1.6985942
16.523579860127786	2.910381	1.7059839
16.541290608815117	2.9729204	1.7242159
16.559001755407035	3.0168548	1.7369095
16.57671330035348	3.0990608	1.760415
16.59442524410448	3.2032633	1.7897663
16.61213758711015	3.3470109	1.8294837
16.629850329820705	3.4240992	1.8504322
16.647563472686436	3.470142	1.8628317
16.665277016157724	3.4321692	1.8526114
16.682990960685053	3.401486	1.8443118
16.70070530671898	3.395159	1.8425957
16.718420054710155	3.4716473	1.8632357
16.736135205109335	3.5860524	1.8936875
16.753850758367335	3.6491659	1.910279
16.771566714935087	3.6871946	1.9202069
16.789283075263597	3.7227628	1.9294462
16.80699983980398	3.750199	1.9365431
16.82471700900741	3.7975051	1.9487189
16.84243458332518	3.83849	1.9592065
16.860152563208665	3.930801	1.9826248
16.87787094910932	4.0267034	2.0066648
16.89558974147871	4.102334	2.0254219
16.913308940768466	4.163899	2.0405633
16.931028547430333	4.2219133	2.0547295
16.94874856191613	4.2712283	2.066695
16.966468984677785	4.3091097	2.0758395
16.98418981616729	4.363946	2.089006
17.00191105683676	4.3834167	2.093661
17.019632707138374	4.4287252	2.1044536
17.03735476752442	4.478417	2.1162271
17.05507723844728	4.5230985	2.1267576
17.072800120359403	4.5212603	2.1263256
17.090523413713353	4.500303	2.1213918
17.108247118961785	4.519985	2.1260257
17.125971236557437	4.5586104	2.1350904
17.143695766953133	4.6227884	2.150067
17.161420710601806	4.598338	2.1443737
17.179146067956477	4.613155	2.1478257
17.19687183947025	4.621626	2.1497967
17.21459802559634	4.5922356	2.1429503
17.232324626788028	4.5464	2.1322289
17.25005164349871	4.5327015	2.1290143
17.267779076181863	4.6044865	2.1458068
17.285506925291074	4.5718613	2.1381912
17.30323519127999	4.543065	2.1314466
17.320963874602384	4.512398	2.1242404
17.33869297571211	4.529234	2.1281996
17.356422495063114	4.5172777	2.1253889
17.37415243310944	4.50152	2.1216786
17.391882790305218	4.4414115	2.1074657
17.40961356710468	4.431532	2.1051204
17.42734476396215	4.5146112	2.1247613
17.445076381332044	4.6093836	2.1469476
17.462808419668868	4.6291084	2.1515362
17.48054087942723	4.731037	2.1750948
17.498273761061835	4.842826	2.200642
17.51600706502747	5.198884	2.280106
17.533740791779024	5.8463964	2.4179323
17.551474941771485	6.8004904	2.607775
17.56920951545993	8.799098	2.9663274
17.586944513299528	9.971298	3.1577363
17.60467993574556	12.764296	3.5727155
17.622415783253373	15.2632265	3.906818
17.64015205627843	17.875433	4.227935
17.657888755276293	20.00856	4.473093
17.675625880702604	21.339195	4.6194367
17.69336343301311	19.729122	4.4417477
17.71110141266366	17.677414	4.2044516
17.728839820110178	15.14923	3.8922012
17.746578655808705	12.169098	3.4884233
17.764317920215372	9.982191	3.1594605
17.7820576137864	8.24185	2.8708622
17.79979773697811	6.9300156	2.6324923
17.81753829024692	5.8058534	2.4095337
17.835279274049356	5.080492	2.2539947
17.85302068884201	4.3855634	2.0941737
17.870762535081607	4.0218062	2.005444
17.888504813224934	3.8118343	1.952392
17.90624752372891	3.6982372	1.9230801
17.923990667050536	3.6074858	1.8993382
17.941734243646895	3.4971292	1.8700613
17.959478253975185	3.4339397	1.8530892
17.9772226984927	3.3939762	1.8422748
17.994967577656833	3.4058344	1.8454903
18.01271289192506	3.3401551	1.8276092
18.030458641754965	3.287106	1.8130378
18.04820482760425	3.2474718	1.8020743
18.06595144993067	3.2366552	1.7990707
18.083698509192125	3.224399	1.7956612
18.101446005846576	3.2245865	1.7957133
18.119193940352105	3.2068577	1.7907702
18.136942313166887	3.1789544	1.7829622
18.1546911247492	3.1405256	1.7721528
18.1724403755574	3.130801	1.7694069
18.19019006604997	3.1110868	1.7638273
18.207940196685467	3.0649214	1.7506917
18.225690767922575	3.0692203	1.751919
18.243441780220046	3.0575118	1.7485743
18.261193234036764	3.0282006	1.7401726
18.278945129831676	3.0223744	1.7384977
18.29669746806386	3.0331652	1.7415985
18.314450249192483	3.0198016	1.7377577
18.3322034736768	3.0027719	1.7328508
18.349957141976184	2.9910936	1.7294779
18.3677112545501	3.0121331	1.7355498
18.385465811858108	3.0175784	1.7371179
18.403220814359884	3.0440612	1.7447238
18.420976262515172	3.0498924	1.7463942
18.43873215678387	3.0846508	1.7563174
18.456488497625923	3.1305046	1.7693232
18.474245285501407	3.2192957	1.7942396
18.492002520870486	3.2378192	1.7993941
18.50976020419343	3.291382	1.8142166
18.527518335930615	3.5693686	1.8892772
18.545276916542516	4.095812	2.023811
18.563035946489688	4.2786384	2.068487
18.580795426232832	4.7978272	2.1903944
18.598555356232698	4.775745	2.1853478
18.616315736950185	5.13645	2.2663736
18.63407656884626	4.764713	2.1828222
18.65183785238201	4.912968	2.2165217
18.669599588018617	4.6825743	2.1639256
18.68736177621737	4.6461782	2.1554995
18.705124417439652	4.6495543	2.1562824
18.72288751214696	4.404087	2.0985918
18.740651060800886	4.519281	2.12586
18.758415063863115	4.205234	2.0506668
18.77617952179546	4.4271894	2.1040888
18.793944435059814	4.2167773	2.0534794
18.811709804118184	4.227695	2.056136
18.829475629432675	4.2070684	2.0511138
18.8472419114655	4.029682	2.0074067
18.86500865067897	4.1413946	2.0350416
18.88277584753551	3.7922044	1.9473583
18.90054350249763	3.77728	1.9435226
18.918311616027957	3.440381	1.8548265
18.936080188589226	3.3495715	1.8301835
18.953849220644265	3.01627	1.7367412
18.971618712656007	2.8134587	1.6773368
18.9893886650875	2.7742677	1.6656133
19.007159078401887	7.958771	2.8211293
19.024929953062408	32.86584	5.732874
19.042701289532435	32.829296	5.7296853
19.060473088275405	25.364777	5.0363455
19.07824534975489	2.6238737	1.6198375
19.096018074434568	2.5819926	1.606858
19.113791262778197	2.5616746	1.6005232
19.13156491524966	2.5507083	1.5970937
19.149339032312945	2.5568943	1.5990292
19.167113614432136	2.5775914	1.605488
19.184888662071433	2.5986397	1.6120297
19.202664175695123	2.515181	1.5859323
19.220440155767623	2.4819803	1.5754302
19.238216602753447	2.4892151	1.5777247
19.2559935171172	2.4900444	1.5779874
19.27377089932361	2.4570866	1.5675097
19.291548749837514	2.4254277	1.5573784
19.309327069123835	2.4323397	1.559596
19.32710585764763	2.4198918	1.5556002
19.344885115874032	2.4322696	1.5595735
19.362664844268313	2.4713466	1.5720518
19.380445043295822	2.5378857	1.5930743
19.39822571342203	2.5365055	1.592641
19.41600685511252	2.460243	1.5685161
19.43378846883297	2.4264026	1.5576915
19.451570555049173	2.4471018	1.5643215
19.469353114227037	2.4802554	1.5748826
19.48713614683254	2.4913785	1.5784101
19.50491965333182	2.4742467	1.5729738
19.52270363419109	2.454485	1.5666796
19.540488089876686	2.4508443	1.5655173
19.55827302085503	2.4658103	1.5702899
19.576058427592674	2.4710784	1.5719664
19.593844310556282	2.4856012	1.576579
19.611630670212598	2.4616945	1.5689788
19.629417507028506	2.4908273	1.5782355
19.64720482147098	2.4612834	1.5688478
19.6649926140071	2.4430132	1.5630141
19.682780885104084	2.431989	1.5594835
19.70056963522921	2.4385438	1.5615838
19.718358864849908	2.474157	1.5729454
19.7361485744337	2.4748156	1.5731547
19.753938764448215	2.4794962	1.5746416
19.771729435361202	2.4792871	1.5745752
19.789520587640506	2.4881287	1.5773803
19.807312221754092	2.4873674	1.577139
19.825104338170043	2.473087	1.5726051
19.842896937356517	2.5038228	1.5823473
19.860690019781824	2.537766	1.5930368
19.87848358591436	2.5303977	1.5907223
19.896277636222635	2.5156312	1.5860741
19.914072171175278	2.4889317	1.5776348
19.931867191241015	2.4954324	1.5796938
19.94966269688869	2.4881237	1.5773787
19.967458688587264	2.4814777	1.5752707
19.985255166805807	2.4648168	1.5699735
20.00305213201348	2.4227552	1.5565202
20.020849584679578	2.3927252	1.5468436
20.038647525273507	2.3664672	1.5383326
20.05644595426477	2.3686113	1.5390294
20.07424487212299	2.3794343	1.5425415
20.092044279317903	2.3958378	1.5478494
20.109844176319353	2.3964868	1.548059
20.127644563597304	2.369234	1.5392317
20.145445441621817	2.3649623	1.5378433
20.16324681086307	2.3950992	1.5476108
20.181048671791373	2.379146	1.542448
20.198851024877122	2.3655505	1.5380347
20.216653870590836	2.3591902	1.5359656
20.234457209403146	2.3562682	1.535014
20.252261041784802	2.3215885	1.523676
20.270065368206662	2.2795577	1.5098205
20.287870189139685	2.2764416	1.5087881
20.305675505054968	2.311441	1.5203424
20.323481316423702	2.3268533	1.5254027
20.341287623717207	2.3111572	1.520249
20.359094427406884	2.3021455	1.5172822
20.376901727964288	2.316588	1.5220342
20.39470952586107	2.3001008	1.5166084
20.41251782156899	2.290175	1.5133324
20.430326615559935	2.279295	1.5097334
20.448135908305886	2.302543	1.5174133
20.465945700278965	2.3299913	1.526431
20.483755991951384	2.325337	1.5249056
20.50156678379548	2.2833238	1.5110672
20.519378076283708	2.2928612	1.5142196
20.537189869888635	2.293193	1.5143293
20.55500216508294	2.3327553	1.527336
20.572814962339415	2.3332257	1.52749
20.59062826213098	2.3413882	1.5301596
20.60844206493066	2.3140604	1.5212036
20.626256371211593	2.2721286	1.5073582
20.644071181447032	2.2779796	1.5092977
20.66188649611036	2.2844293	1.5114329
20.67970231567506	2.2850466	1.5116371
20.697518640614742	2.2995636	1.5164312
20.715335471403122	2.3031044	1.5175983
20.73315280851404	2.2940845	1.5146235
20.750970652421447	2.2908552	1.5135571
20.768789003599412	2.3268175	1.525391
20.786607862522136	2.357574	1.5354394
20.8044272296639	2.3253853	1.5249214
20.82224710549913	2.2844555	1.5114416
20.84006749050237	2.2592933	1.5030946
20.857888385148268	3.8233898	1.955349
20.8757097899116	45.919456	6.7763896
20.893531705267254	64.77439	8.048254
20.911354131690224	83.7683	9.152503
20.92917706965566	68.99515	8.306332
20.94700051963877	50.03152	7.0732965
20.96482448211493	29.32116	5.4149017
20.982648957559622	4.1333756	2.0330706
21.00047394644843	2.2463017	1.4987667
21.01829944925707	2.2409284	1.496973
21.036125466461375	2.2313776	1.4937797
21.053951998537297	2.2740257	1.5079873
21.071779045960906	2.2232945	1.4910716
21.089606609208378	2.1908185	1.4801414
21.10743468875603	2.152077	1.466996
21.12526328508028	2.168837	1.4726973
21.143092398657675	2.1838186	1.4777749
21.16092202996488	2.1861057	1.4785485
21.17875217947867	2.2021441	1.4839623
21.19658284767596	2.2190642	1.4896524
21.21441403503377	2.226139	1.4920251
21.232245742029225	2.1904926	1.4800313
21.2500779691396	2.183454	1.4776515
21.26791071684227	2.1715565	1.4736202
21.28574398561475	2.1456084	1.4647895
21.30357777593465	2.1277335	1.4586753
21.321412088279704	2.1185718	1.4555315
21.339246923127792	2.101222	1.4495592
21.357082280956888	2.1109755	1.4529196
21.3749181622451	2.1343884	1.4609547
21.392754567470647	2.126284	1.4581783
21.41059149711187	2.101741	1.4497383
21.42842895164726	2.069078	1.438429
21.446266931555378	2.069421	1.4385482
21.464105437314945	2.0503645	1.4319094
21.481944469404798	2.061208	1.4356908
21.49978402830388	2.0521395	1.4325291
21.51762411449127	2.0801923	1.4422872
21.53546472844617	2.0797393	1.4421301
21.553305870647876	2.0636914	1.4365554
21.571147541575865	2.0502136	1.4318566
21.58898974170967	2.0383918	1.4277226
21.60683247152899	2.0341868	1.4262493
21.62467573151363	2.000863	1.4145187
21.642519522143523	2.002759	1.4151887
21.660363843898722	2.01281	1.4187354
21.6782086972594	2.0096521	1.417622
21.696054082705864	1.9648776	1.4017409
21.713900000718535	1.9807464	1.4073899
21.73174645177795	2.030941	1.4251108
21.749593436364794	2.064601	1.4368719
21.767440954959845	2.0273402	1.423847
21.785289008044032	2.0286016	1.4242898
21.803137596098388	2.0345871	1.4263896
21.820986719604086	2.041372	1.4287659
21.838836379042412	1.9967843	1.4130762
21.85668657489478	1.9861575	1.409311
21.87453730764273	1.9825529	1.4080316
21.892388577767914	1.9991139	1.4139003
21.91024038575213	1.998674	1.4137447
21.928092732077285	2.0212996	1.4217242
21.945945617225426	2.021156	1.4216737
21.963799041678694	2.0049863	1.4159753
21.981653005919398	31.287035	5.5934815
21.999507510429943	78.07875	8.836218
22.01736255569286	73.03842	8.546252
22.035218142190818	4.1429877	2.035433
22.05307427040661	1.9604748	1.4001696
22.07093094082315	1.9661801	1.4022055
22.088788153923474	1.948081	1.3957367
22.106645910190746	1.9633495	1.4011958
22.12450421010827	1.9954927	1.4126191
22.142363054159464	2.000743	1.4144762
22.16022244282787	1.9838443	1.4084901
22.178082376597164	1.9564264	1.3987231
22.195942855951145	1.9493241	1.396182
22.213803881373742	1.9478731	1.3956623
22.231665453349002	1.9375193	1.391948
22.24952757236111	1.9541216	1.397899
22.26739023889438	1.9675201	1.4026831
22.28525345343323	1.9862256	1.4093351
22.30311721646225	1.9765652	1.4059037
22.320981528466113	1.9432008	1.3939874
22.33884638992964	1.9149891	1.3838313
22.356711801337788	1.8922412	1.3755876
22.37457776317561	1.8747404	1.3692116
22.392444275928337	1.8948641	1.3765407
22.410311340081282	1.9249728	1.3874339
22.428178956119904	1.9198388	1.3855824
22.446047124529805	1.9336635	1.3905623
22.46391584579669	1.8941455	1.3762796
22.481785120406414	1.8748165	1.3692394
22.49965494884496	1.9144733	1.3836449
22.51752533159841	1.9391444	1.3925316
22.53539626915302	1.9230303	1.3867337
22.553267761995137	1.9199976	1.3856398
22.571139810611264	1.9490263	1.3960754
22.589012415488025	1.9748774	1.4053032
22.60688557711216	1.9578887	1.3992457
22.624759295970566	1.925283	1.3875457
22.642633572550263	1.8953879	1.3767309
22.660508407338362	1.9172753	1.3846571
22.67838380082217	1.9253389	1.3875659
22.696259753489077	1.9417362	1.393462
22.714136265826614	1.951612	1.397001
22.73201333832246	1.9446146	1.3944944
22.74989097146439	1.9357098	1.3912979
22.76776916574035	1.9317018	1.3898567
22.785647921638393	1.92043	1.3857958
22.803527239646712	1.8843144	1.3727033
22.82140712025363	1.918231	1.3850021
22.839287563947593	1.9244679	1.387252
22.85716857121719	1.8990778	1.3780704
22.875050142551135	1.9025611	1.3793336
22.892932278438277	1.9281137	1.3885653
22.910814979367604	1.9556634	1.3984504
22.928698245828222	1.9353082	1.3911536
22.946582078309387	1.8954849	1.3767661
22.96446647730047	1.8940219	1.3762347
22.98235144329098	1.8716778	1.3680928
23.000236976770562	1.9049318	1.3801926
23.018123078229	1.93734	1.3918836
23.03600974815619	1.96589	1.402102
23.053896987042194	1.9173714	1.3846918
23.071784795377173	1.8867211	1.3735796
23.08967317365145	1.8825516	1.372061
23.10756212235546	1.8877506	1.3739544
23.125451641979787	1.8791943	1.3708371
23.143341733015134	1.8734328	1.368734
23.161232395952357	1.8985528	1.3778799
23.179123631282426	1.9219716	1.386352
23.197015439496468	1.9443289	1.3943919
23.214907821085717	1.9542807	1.3979559
23.23280077654157	1.9179096	1.3848861
23.250694306355538	1.916761	1.3844714
23.268588411019277	1.927923	1.3884966
23.28648309102458	1.9536839	1.3977424
23.304378346863356	1.9099622	1.3820138
23.322274179027676	1.8806049	1.3713515
23.340170588009723	1.8562506	1.3624429
23.358067574301852	1.8357188	1.354887
23.37596513839651	1.8406836	1.356718
23.39386328078629	1.9032732	1.3795917
23.411762001963947	1.9255836	1.387654
23.429661302422353	1.9251844	1.3875102
23.4475611826545	1.900271	1.3785032
23.46546164315356	1.9004223	1.378558
23.48336268441279	1.8718884	1.3681698
23.501264306925638	1.8974098	1.377465
23.51916651118564	1.9068658	1.3808931
23.537069297686497	1.9232584	1.3868159
23.554972666922037	1.914755	1.3837467
23.57287661938623	1.9093319	1.3817858
23.59078115557318	1.9053364	1.3803393
23.608686275977128	1.9353775	1.3911785
23.62659198109246	1.9687328	1.4031154
23.6444982714137	1.9772483	1.4061466
23.66240514743549	1.933968	1.3906717
23.68031260965263	1.9104339	1.3821845
23.698220658560068	1.9052099	1.3802934
23.716129294652845	1.8985152	1.3778661
23.7340385184262	1.9246352	1.3873122
23.75194833037546	1.8931326	1.3759116
23.769858730996123	1.8945315	1.3764198
23.78776972078382	1.8583889	1.3632274
23.80568130023431	1.8394525	1.3562641
23.823593469843495	1.8587638	1.3633649
23.841506230107424	1.8952255	1.3766719
23.859419581522275	1.9415402	1.3933916
23.87733352458438	1.9348146	1.3909761
23.89524805979019	1.9479932	1.3957052
23.913163187636318	1.9386678	1.3923604
23.931078908619508	1.9790039	1.4067707
23.948995223236633	2.031307	1.4252393
23.966912131984735	2.045046	1.4300511
23.98482963536096	2.048831	1.4313738
24.002747733862616	1.9957681	1.4127165
24.020666427987155	1.9955944	1.4126551
24.038585718232156	2.0171769	1.4202735
24.056505605095353	2.0504067	1.4319241
24.074426089074617	2.0398064	1.4282179
24.092347170667946	2.0282612	1.4241704
24.110268850373515	2.0385125	1.4277649
24.128191128689586	2.0251477	1.4230769
24.146114006114626	2.0331564	1.425888
24.164037483147187	2.0514846	1.4323004
24.181961560286005	2.0617046	1.4358637
24.199886238029926	2.0420463	1.4290018
24.21781151687797	2.0618625	1.4359187
24.235737397329274	2.0859444	1.4442799
24.253663879883135	2.0411463	1.4286869
24.271590965038975	2.0107708	1.4180166
24.289518653296376	2.001488	1.4147395
24.30744694515505	2.027093	1.4237602
24.32537584111486	2.0423636	1.4291129
24.34330534167581	2.0178344	1.420505
24.361235447338046	2.0064645	1.4164972
24.379166158601876	2.006647	1.4165617
24.39709747596772	1.9748557	1.4052956
24.41502939993615	1.9448195	1.3945678
24.432961931007917	1.9208374	1.3859428
24.450895069683856	1.9181191	1.3849617
24.468828816465	1.9264457	1.3879646
24.4867631718525	1.970228	1.4036481
24.504698136347656	1.9730382	1.4046488
24.52263371045192	1.9716557	1.4041566
24.540569894666874	1.970649	1.4037981
24.558506689494266	1.9832788	1.4082893
24.57644409543597	1.9838327	1.408486
24.594382112994012	1.9579709	1.3992751
24.61232074267057	1.9578527	1.3992329
24.630259984967953	1.9798899	1.4070855
24.64819984038863	1.9884169	1.4101124
24.66614030943522	1.9885476	1.4101588
24.684081392610462	2.00177	1.4148393
24.702023090417274	2.007463	1.4168496
24.7199654033587	2.0088303	1.417332
24.737908331937927	1.9781687	1.4064739
24.755851876658305	1.9913824	1.4111634
24.773796038023324	2.0073507	1.41681
24.79174081653661	2.0364285	1.4270349
24.809686212701962	2.0702715	1.4388438
24.827632227023294	2.09391	1.4470348
24.8455788600047	2.1251674	1.4577954
24.8635261121504	2.108035	1.4519074
24.88147398396475	2.1052463	1.4509467
24.899422475952303	2.036794	1.4271629
24.917371588617698	2.0603378	1.4353877
24.935321322465768	2.1273096	1.45853
24.953271678001478	2.2541583	1.5013855
24.97122265572994	2.4399002	1.5620179
24.989174256156414	2.7331758	1.6532319
25.00712647978632	3.298546	1.81619
25.02507932712521	4.305327	2.0749283
25.043032798678798	5.8918242	2.427308
25.060986894952933	7.5208545	2.7424176
25.078941616453637	8.944309	2.9907038
25.096896963687055	9.729512	3.1192167
25.114852937159508	10.543935	3.2471426
25.132809537377444	10.376528	3.2212617
25.150766764847468	9.761433	3.124329
25.168724620076347	8.454694	2.9076955
25.186683103570985	7.25736	2.6939487
25.204642215838426	5.8611207	2.4209752
25.222601957385894	4.7066126	2.169473
25.24056232872074	3.631579	1.9056702
25.25852333035048	2.9155076	1.7074858
25.276484962782778	2.4422932	1.5627838
25.294447226525435	2.2130208	1.4876225
25.312410122086423	2.0419748	1.4289768
25.330373649973843	1.9405276	1.3930281
25.348337810695988	1.8979266	1.3776525
25.366302604761245	1.8748019	1.3692341
25.384268032678207	1.8807021	1.3713869
25.40223409495558	1.9033507	1.3796197
25.420200792102257	1.9268688	1.388117
25.438168124627246	1.9082128	1.3813808
25.45613609303974	1.9192617	1.3853742
25.474104697849057	1.9001726	1.3784674
25.492073939564698	1.8675869	1.3665968
25.510043818696285	1.8364558	1.3551589
25.528014335753614	1.8358147	1.3549224
25.54598549124664	1.8538898	1.3615762
25.56395728568544	1.875428	1.3694626
25.58192971958028	1.857803	1.3630124
25.59990279344156	1.8183006	1.3484437
25.617876507779833	1.7958194	1.3400818
25.635850863105826	1.779784	1.3340855
25.653825859930386	1.7858148	1.3363438
25.671801498764548	1.8210858	1.3494761
25.68977778011949	1.8062657	1.3439739
25.707754704506524	1.8121659	1.3461671
25.725732272437153	1.7975495	1.3407272
25.743710484423012	1.8371067	1.3553991
25.761689340975888	1.7969836	1.3405162
25.77966884260774	1.8112271	1.3458184
25.797648989830662	1.833177	1.3539487
25.815629783156922	1.8502543	1.3602406
25.83361122309895	1.8450985	1.3583441
25.85159331016929	1.8824983	1.3720416
25.869576044880695	1.8857057	1.37321
25.887559427746034	1.8645875	1.365499
25.90554345927836	1.7913623	1.3384179
25.92352813999086	1.8010064	1.3420159
25.94151347039689	1.8198116	1.3490039
25.959499451009965	1.8453276	1.3584284
25.97748608234374	1.812742	1.3463811
25.995473364912062	1.8049908	1.3434994
26.013461299228904	1.8504468	1.3603113
26.03144988580839	1.8877963	1.373971
26.04943912516483	1.85755	1.3629197
26.067429017812675	1.7821971	1.3349895
26.085419564266537	1.7734126	1.3316954
26.103410765041186	1.810964	1.3457206
26.12140262065155	1.789531	1.3377335
26.139395131612723	1.7622908	1.327513
26.157388298439948	1.7840079	1.3356676
26.17538212164861	1.8003138	1.3417578
26.193376601754295	1.8128469	1.34642
26.211371739272714	1.8268312	1.3516032
26.229367534719746	1.8311577	1.3532027
26.247363988611433	1.8391424	1.3561499
26.26536110146397	1.8192952	1.3488125
26.283358873793727	1.8075516	1.3444521
26.301357306117204	1.818464	1.3485044
26.319356398951104	1.8077366	1.3445209
26.33735615281224	1.8714743	1.3680184
26.35535656821762	1.8966117	1.3771752
26.373357645684404	1.8394167	1.356251
26.39135938572991	1.7908983	1.3382444
26.409361788871614	1.7619168	1.3273721
26.427364855627165	1.7400798	1.3191209
26.445368586514352	1.739102	1.3187501
26.46337298205115	1.7543011	1.3245003
26.48137804275568	1.7544578	1.3245595
26.499383769146217	1.7482909	1.3222295
26.517390161741215	1.7736231	1.3317745
26.53539722105928	1.8026263	1.3426192
26.553404947619182	1.828376	1.3521745
26.571413341939856	1.8375021	1.3555449
26.589422404540397	1.7945979	1.3396261
26.60743213594006	1.7765161	1.3328601
26.62544253665827	1.7430869	1.3202602
26.64345360721459	1.7377924	1.3182535
26.66146534812879	1.7811437	1.334595
26.679477759920758	1.8245983	1.3507769
26.69749084311057	1.7885488	1.3373663
26.71550459821847	1.7443519	1.3207392
26.733519025764842	1.7676691	1.3295372
26.751534126270258	1.8085726	1.3448318
26.769549900255434	1.8024836	1.342566
26.787566348241267	1.7582407	1.3259867
26.80558347074881	1.7608161	1.3269575
26.823601268299267	1.76083	1.3269627
26.841619741414036	1.7858044	1.33634
26.85963889061465	1.80608	1.3439047
26.877658716422832	1.7663845	1.329054
26.89567921936045	1.711831	1.3083696
26.913700399949544	1.7120912	1.308469
26.93172225871233	1.7688739	1.3299901
26.949744796171174	1.8150873	1.3472518
26.967768012848605	1.821535	1.3496425
26.98579190926733	1.8311112	1.3531855
27.003816485950225	1.865126	1.3656962
27.021841743420318	1.8602085	1.3638946
27.039867682200814	1.8210984	1.3494807
27.057894302815072	1.7622498	1.3274976
27.07592160578664	1.7559425	1.3251197
27.0939495916392	1.8049463	1.3434829
27.111978260896635	1.7941786	1.3394696
27.13000761408296	1.800273	1.3417425
27.148037651722397	1.8203114	1.3491892
27.166068374339304	1.8328888	1.3538423
27.184099782458215	1.8053156	1.3436203
27.20213187660384	1.8046508	1.343373
27.22016465730105	1.8092841	1.3450963
27.23819812507487	1.8211286	1.349492
27.256232280450533	1.8139403	1.346826
27.274267123953383	1.7910165	1.3382887
27.292302656108987	1.8121125	1.3461473
27.31033887744306	1.8350854	1.3546532
27.32837578848146	1.8461177	1.3587191
27.34641338975026	1.7642254	1.3282415
27.364451681775673	1.689387	1.2997642
27.382490665084074	1.6657314	1.2906321
27.400530340202046	1.7245697	1.3132287
27.41857070765629	1.7894244	1.3376937
27.436611767973726	1.8115867	1.345952
27.454653521681404	1.8033262	1.3428799
27.472695969306564	1.7951269	1.3398235
27.490739111376627	1.8364394	1.3551528
27.508782948419153	1.8133883	1.346621
27.526827480961902	1.774198	1.3319902
27.54487270953279	1.7349895	1.31719
27.562918634659898	1.7110314	1.308064
27.580965256871508	1.74378	1.3205227
27.599012576696026	1.7974749	1.3406994
27.617060594662068	1.8209525	1.3494267
27.63510931129842	1.7910889	1.3383157
27.65315872713401	1.8065344	1.3440738
27.67120884269797	1.8109004	1.345697
27.68925965851958	1.815604	1.3474435
27.707311175128307	1.816268	1.3476899
27.725363393053787	1.8130625	1.3465002
27.74341631282583	1.8321484	1.3535688
27.7614699349744	1.8996227	1.378268
27.77952426002968	2.1369438	1.461829
27.797579288521973	2.2101035	1.4866416
27.815635020981784	2.6749756	1.6355352
27.83369145793979	2.767992	1.6637284
27.85174859992682	2.6825106	1.6378372
27.869806447473923	2.4952276	1.579629
27.887865001112267	2.0867734	1.4445668
27.905924261373233	1.9094841	1.3818408
27.92398422878836	1.8710136	1.3678501
27.94204490388936	1.8604767	1.3639929
27.96010628720813	1.8334991	1.3540676
27.978168379276728	1.830479	1.352952
27.9962311806274	1.8183287	1.3484542
28.014294691792568	1.7785122	1.3336087
28.0323589133048	1.7775294	1.3332402
28.050423845696887	1.8003213	1.3417605
28.068489489501758	1.8472434	1.3591334
28.086555845252523	1.8656662	1.365894
28.104622913482487	1.9164959	1.3843757
28.122690694725115	1.9667475	1.4024078
28.14075918951405	1.9522936	1.397245
28.15882839838312	1.918419	1.3850701
28.176898321866304	1.9280003	1.3885245
28.1949689604978	1.9588827	1.3996009
28.213040314811945	1.9570646	1.3989513
28.23111238534327	1.9127663	1.3830279
28.249185172626493	1.8420975	1.3572389
28.267258677196473	1.8246267	1.3507874
28.285332899588294	1.8670168	1.3663882
28.303407840337172	1.8726181	1.3684363
28.321483499978545	1.9138461	1.3834183
28.33955987904799	1.9464412	1.3951491
28.357636978081285	1.9643825	1.4015644
28.37571479761439	1.9262933	1.3879097
28.393793338183425	1.9690872	1.4032416
28.41187260032469	1.9886354	1.4101899
28.429952584574686	2.0327623	1.4257498
28.448033291470065	1.9916878	1.4112717
28.46611472154769	1.9698055	1.4034976
28.484196875344566	1.9905612	1.4108725
28.502279753397914	2.0328603	1.4257841
28.52036335624511	2.0101302	1.4177907
28.538447684423716	1.9536911	1.397745
28.556532738471482	1.9136733	1.3833559
28.574618518926325	1.9461641	1.3950498
28.59270502632635	2.0233843	1.4224571
28.61079226120985	2.0613382	1.4357361
28.628880224115274	2.0523252	1.432594
28.646968915581287	2.0146425	1.419381
28.66505833614671	2.0003836	1.4143492
28.68314848635055	2.0316	1.4253421
28.701239366732004	2.0585175	1.4347534
28.71933097783044	2.0576193	1.4344404
28.737423320185403	2.0849628	1.44394
28.75551639433665	2.1080894	1.4519261
28.773610200824074	2.1247628	1.4576566
28.791704740187793	2.1542249	1.4677278
28.80980001296809	2.1543026	1.4677542
28.827896019705413	2.1343436	1.4609393
28.845992760940433	2.127353	1.4585449
28.86409023721397	2.1200824	1.4560503
28.88218844906704	2.1714296	1.4735771
28.900287397040845	2.189179	1.4795874
28.918387081676755	2.2043033	1.4846896
28.936487503516343	2.2402596	1.4967496
28.954588663101365	2.2162838	1.4887189
28.97269056097374	2.2220058	1.4906394
28.990793197675597	2.272725	1.507556
29.00889657374923	2.3337092	1.5276483
29.027000689737125	2.399677	1.5490891
29.04510554618196	2.4187326	1.5552275
29.06321114362659	2.4158278	1.5542933
29.08131748261405	2.4228573	1.556553
29.099424563687567	2.4153526	1.5541404
29.11753238739057	2.3706248	1.5396833
29.13564095426663	2.4584439	1.5679426
29.15375026485954	2.5791368	1.6059691
29.171860319713275	2.6157575	1.6173303
29.18997111937199	2.6046634	1.613897
29.20808266438002	2.7043102	1.6444787
29.226194955281898	2.7975168	1.6725779
29.244307992622335	2.848408	1.6877227
29.26242177694624	2.836631	1.6842301
29.2805363087987	2.7968698	1.6723845
29.29865158872498	2.8405309	1.6853875
29.316767617270557	2.9553623	1.7191167
29.334884394981064	3.0438626	1.7446669
29.353001922402367	3.019734	1.7377381
29.37112020008047	3.0907736	1.7580596
29.389239228561596	3.1996846	1.7887663
29.407359008392152	3.3433938	1.8284949
29.42547954011872	3.60435	1.8985126
29.44360082428809	4.0626817	2.0156095
29.46172286144722	4.8510046	2.2024996
29.479845652143283	6.4396415	2.5376449
29.497969196923606	9.190825	3.0316374
29.516093496335728	13.033923	3.6102526
29.5342185509274	16.534048	4.066208
29.55234436124651	19.47064	4.4125547
29.570470927841175	20.656385	4.5449295
29.588598251259686	20.25345	4.5003834
29.60672633205055	18.601482	4.3129435
29.624855170762405	15.765772	3.9706135
29.642984767944146	12.454802	3.5291362
29.66111512414481	9.186641	3.0309472
29.67924623991366	6.8061223	2.6088545
29.697378115800138	5.1169343	2.2620642
29.71551075235387	4.254655	2.0626814
29.733644150124675	3.8490844	1.9619083
29.751778309662576	3.6334252	1.9061545
29.769913231517766	3.5244155	1.8773427
29.78804891624066	3.4585865	1.8597275
29.806185364381818	3.3764472	1.8375112
29.82432257649206	3.324152	1.8232257
29.842460553122333	3.3265135	1.8238732
29.86059929482382	3.3307066	1.8250223
29.878738802147872	3.2829347	1.811887
29.896879075646048	3.2183313	1.7939708
29.915020115870114	3.2035975	1.7898597
29.933161923371976	3.2503598	1.8028754
29.951304498703777	3.3224175	1.82275
29.969447842417857	3.326482	1.8238646
29.987591955066733	3.3350687	1.826217
30.005736837203123	3.3153515	1.8208107
30.023882489379943	3.3041308	1.8177269
30.04202891215028	3.2931492	1.8147036
30.060176106067455	3.2675014	1.8076231
30.078324071684946	3.2301705	1.7972676
30.09647280955646	3.2195435	1.7943087
30.114622320235863	3.2025833	1.7895763
30.132772604277257	3.1487103	1.7744606
30.1509236622349	3.1177535	1.7657162
30.16907549466328	3.152928	1.7756486
30.18722810211705	3.156902	1.7767673
30.205381485151097	3.0865083	1.7568461
30.22353564432045	3.0810657	1.7552965
30.241690580180403	3.036685	1.7426087
30.25984629328638	2.9635758	1.721504
30.278002784194037	2.984605	1.7276009
30.296160053459246	3.0515888	1.7468797
30.314318101638033	2.9996045	1.7319366
30.332476929286646	2.9525237	1.7182909
30.35063653696153	2.988933	1.7288531
30.368796925219307	3.0198073	1.7377592
30.386958094616844	2.9865084	1.7281517
30.40512004571115	2.886681	1.6990236
30.423282779059463	2.8007886	1.6735557
30.441446295219233	2.7699583	1.6643192
30.459610594748067	2.7709007	1.6646023
30.47777567820382	2.8168905	1.6783595
30.495941546144504	2.8463163	1.6871029
30.51410819912835	2.8544948	1.689525
30.532275637713795	2.8251197	1.6808093
30.55044386245946	2.8045027	1.674665
30.56861287392416	2.8213167	1.6796776
30.586782672666956	2.8297026	1.682172
30.604953259247047	2.858388	1.6906768
30.623124634223885	2.8018312	1.6738671
30.641296798157075	2.7668438	1.6633832
30.659469751606462	2.7791812	1.6670877
30.677643495132074	2.8061905	1.6751688
30.695818029294152	2.76291	1.6622003
30.713993354653116	2.7492812	1.6580956
30.73216947176962	2.737495	1.6545377
30.75034638120448	2.7438247	1.6564494
30.768524083518756	2.8320193	1.6828605
30.786702579273673	2.8404818	1.6853728
30.80488186903069	2.8502145	1.6882578
30.82306195335144	3.0109823	1.7352182
30.841242832797782	3.3439817	1.8286557
30.85942450793176	3.710194	1.9261864
30.877606979315637	3.9959507	1.9989874
30.895790247511883	4.238101	2.0586648
30.913974313083134	4.6241765	2.15039
30.932159176592283	5.1879973	2.2777176
30.95034483860237	5.708375	2.3892205
30.968531299676698	5.73698	2.3951993
30.98671856037873	5.4645677	2.3376415
31.00490662127215	5.185793	2.2772336
31.023095482920848	4.6733646	2.1617966
31.04128514588892	4.004736	2.0011837
31.059475610740662	3.3522956	1.8309275
31.07766687804056	2.80783	1.6756581
31.09585894835335	2.5500836	1.5968981
31.11405182224393	2.4561777	1.5672197
31.132245500277417	2.5046704	1.582615
31.15043998301914	2.4556544	1.5670527
31.168635271034628	2.4475403	1.5644617
31.18683136488964	2.4886625	1.5775496
31.20502826515008	2.4725251	1.5724266
31.223225972382135	2.5213947	1.58789
31.241424487152155	2.5735362	1.6042244
31.259623810026692	2.4924593	1.5787524
31.27782394157253	2.4362712	1.5608559
31.296024882356644	2.4146032	1.5538994
31.314226632946237	2.3742847	1.5408714
31.332429193908684	2.3943563	1.5473708
31.350632565811598	2.4622808	1.5691656
31.368836749222787	2.468954	1.5712906
31.387041744710295	2.4000187	1.5491993
31.40524755284232	2.46581	1.5702899
31.423454174187317	2.4813216	1.5752211
31.441661609313922	2.4475636	1.5644691
31.459869858791002	2.483688	1.5759721
31.478078923187628	2.4845033	1.5762308
31.496288803073064	2.4230888	1.5566274
31.514499499016807	2.3808436	1.5429983
31.532711011588546	2.320423	1.5232934
31.550923341358178	2.3715332	1.5399783
31.56913648889584	2.425337	1.5573493
31.587350454771844	2.4085503	1.5519505
31.605565239556732	2.3733466	1.5405669
31.62378084382127	2.343176	1.5307436
31.641997268136382	2.3092158	1.5196104
31.660214513073274	2.3128457	1.5208043
31.67843257920331	2.3786902	1.5423003
31.6966514670981	2.4082026	1.5518385
31.71487117732944	2.362964	1.5371935
31.733091710469346	2.2867026	1.5121847
31.751313067090052	2.2180998	1.4893286
31.769535247764008	2.2662995	1.5054233
31.787758253063878	2.2723074	1.5074174
31.805982083562526	2.2516375	1.5005457
31.824206739833024	2.2223382	1.4907509
31.84243222244869	2.1617348	1.4702839
31.860658531983013	2.2070694	1.4856209
31.878885669009737	2.2383246	1.4961032
31.897113634102784	2.2563415	1.5021124
31.91534242783632	2.2602432	1.5034105
31.933572050784694	2.2669575	1.5056419
31.951802503522508	2.2337677	1.4945794
31.970033786624548	2.1984868	1.4827296
31.988265900665834	2.2298198	1.4932581
32.006498846221575	2.1755955	1.47499
32.02473262386724	2.0997884	1.4490647
32.04296723417845	2.127325	1.4585352
32.0612026777311	2.172481	1.4739338
32.07943895510129	2.2190964	1.4896632
32.097676066865304	2.216548	1.4888076
32.115914013599685	2.159712	1.4695959
32.13415279588115	2.1694367	1.4729007
32.152392414286666	2.2018564	1.4838654
32.1706328693934	2.1565964	1.4685354
32.18887416177875	2.1494784	1.46611
32.20711629202032	2.217456	1.4891125
32.225359260695924	2.1866536	1.4787338
32.243603068383614	2.1281538	1.4588193
32.26184771566166	2.124962	1.4577249
32.28009320310852	2.0600877	1.4353006
32.2983395313029	1.9952567	1.4125355
32.31658670082372	2.1223009	1.4568119
32.33483471225012	2.211045	1.4869583
32.35308356616143	2.1908836	1.4801633
32.371333263137245	2.1119194	1.4532444
32.38958380375734	2.051747	1.4323921
32.407835188601744	2.0754843	1.4406542
32.42608741825067	2.0852106	1.4440259
32.444340493284585	2.0803695	1.4423486
32.46259441428416	2.1413982	1.4633517
32.48084918183028	2.133973	1.4608124
32.49910479650405	2.027274	1.4238237
32.51736125888683	2.038901	1.4279009
32.53561856956014	2.055493	1.4336991
32.5538767291058	2.0317292	1.4253874
32.572135738105764	2.0365298	1.4270704
32.59039559714228	2.0332506	1.425921
32.608656306797776	2.0278573	1.4240285
32.62691786765491	1.9995145	1.4140419
32.645180280296586	1.9917012	1.4112765
32.663443545305896	2.0154972	1.419682
32.68170766326619	2.0139604	1.4191407
32.69997263476099	1.9876469	1.4098393
32.7182384603741	1.9324507	1.3901261
32.7365051406895	1.9555031	1.398393
32.75477267629144	2.046569	1.4305835
32.77304106776434	2.0483313	1.4311992
32.79131031569289	1.9364245	1.3915547
32.809580420661966	1.8892788	1.3745104
32.827851383256714	1.9185839	1.3851296
32.84612320406245	1.9176778	1.3848025
32.86439588366476	1.9176086	1.3847774
32.88266942264945	1.8728386	1.3685169
32.9009438216025	1.8559576	1.3623353
32.9192190811102	1.9030725	1.379519
32.937495201758985	1.8836131	1.3724478
32.95577218413556	1.887527	1.373873
32.974050028826866	1.93675	1.3916717
32.992328736420035	1.9263849	1.3879427
33.010608307502444	1.9299759	1.3892357
33.02888874266169	1.9381953	1.3921908
33.047170042485604	2.0177863	1.420488
33.06545220756225	1.9939878	1.4120864
33.083735238479896	1.9853414	1.4090215
33.10201913582707	2.048396	1.4312218
33.12030390019248	2.0893884	1.4454716
33.138589532165135	2.024014	1.4226785
33.15687603233419	1.8938422	1.3761694
33.17516340128909	1.918371	1.3850527
33.19345163961947	1.9623923	1.4008541
33.211740747915215	1.9306055	1.3894624
33.23003072676643	1.9570967	1.3989627
33.248321576763466	1.9876833	1.4098523
33.266613298496885	1.9486343	1.3959349
33.28490589255747	1.9095439	1.3818625
33.30319935953626	1.8378457	1.3556716
33.32149370002451	1.8947812	1.3765105
33.339788914613706	2.0635896	1.43652
33.358085003895575	2.0399776	1.4282779
33.376381968462034	1.9602741	1.4000978
33.39467980890529	2.0235403	1.4225119
33.41297852581774	2.0720725	1.4394696
33.43127811979204	1.9179262	1.3848921
33.44957859142105	1.9145489	1.3836722
33.467879941297866	1.9304498	1.3894063
33.486182170015844	1.9279906	1.388521
33.50448527816853	1.9820822	1.4078645
33.522789266349754	2.004232	1.415709
33.541094135153514	1.8547555	1.3618941
33.55939988517411	1.7647314	1.328432
33.57770651700602	1.7514664	1.3234298
33.59601403124398	1.7984004	1.3410445
33.61432242848296	1.8594527	1.3636175
33.632631709318154	1.8373574	1.3554915
33.650941874344994	1.798342	1.3410227
33.66925292415916	1.8605928	1.3640355
33.68756485935654	1.8985871	1.3778923
33.70587768053328	1.9242063	1.3871576
33.724191388285746	1.8926692	1.3757432
33.74250598321054	1.8687044	1.3670057
33.760821465904506	1.95305	1.3975157
33.77913783696474	1.977563	1.4062585
33.79745509698852	1.9076786	1.3811874
33.815773246573414	1.8800197	1.3711381
33.8340922863172	1.9769318	1.4060341
33.852412216817896	2.0755057	1.4406615
33.87073303867377	2.0533376	1.4329472
33.889054752483304	1.9356356	1.3912712
33.907377358845245	1.9090147	1.381671
33.92570085835853	1.8635813	1.3651305
33.94402525162239	1.8224086	1.3499662
33.96235053923627	1.8057497	1.3437818
33.980676721799824	1.8056511	1.3437451
33.999003799912984	1.814143	1.3469012
34.01733177417592	1.9335871	1.3905348
34.03566064518901	2.0507956	1.4320599
34.0539904135529	2.0204802	1.421436
34.07232107986846	1.8563474	1.3624784
34.090652644736785	1.7199429	1.311466
34.108985108759235	1.8616731	1.3644314
34.12731847253742	1.9588622	1.3995936
34.14565273667313	1.9182615	1.3850132
34.16398790176847	1.9146972	1.3837259
34.18232396842574	1.9595433	1.3998369
34.20066093724749	1.9972221	1.413231
34.21899880883651	1.9241378	1.387133
34.23733758379583	1.9874593	1.4097728
34.25567726272874	2.0172067	1.420284
34.27401784623872	2.070217	1.4388248
34.29235933492957	2.0681782	1.4381162
34.31070172940526	2.0375104	1.427414
34.32904503027003	2.049949	1.4317642
34.347389238128386	2.1059291	1.451182
34.36573435358502	2.0822773	1.4430099
34.38408037724492	2.0535293	1.433014
34.402427309713296	1.9994744	1.4140277
34.42077515159559	1.9444729	1.3944436
34.43912390349752	1.9290941	1.3889183
34.45747356602499	1.8488468	1.3597231
34.47582413978423	1.847868	1.3593631
34.49417562538163	1.91895	1.3852617
34.51252802342388	1.9880815	1.4099934
34.53088133451789	2.0292158	1.4245055
34.54923555927084	2.071991	1.4394412
34.567590698290104	1.9367723	1.3916796
34.58594675218336	1.9020051	1.379132
34.6043037215585	1.8691472	1.3671676
34.62266160702365	1.8307663	1.3530581
34.641020409187234	1.8728275	1.3685129
34.65938012865785	1.9228383	1.3866645
34.677740766044394	1.9020509	1.3791486
34.69610232195598	1.974522	1.4051769
34.714464797002016	2.0815725	1.4427656
34.73282819179208	2.149703	1.4661865
34.751192506936064	2.178168	1.4758618
34.76955774304408	1.9956255	1.4126661
34.7879239007265	1.8008678	1.3419641
34.80629098059391	1.8164933	1.3477734
34.824658983257194	1.9798881	1.407085
34.843027909327446	1.8757379	1.3695759
34.86139775941603	1.758673	1.3261497
34.879768534134534	1.9026092	1.379351
34.89814023409483	2.1385486	1.4623777
34.91651285990901	1.9885164	1.4101477
34.93488641218944	1.9185848	1.3851299
34.95326089154871	1.980535	1.4073148
34.97163629859967	1.9759257	1.4056762
34.99001263395542	1.9804724	1.4072926
35.00838989822934	1.9360752	1.3914292
35.02676809203499	1.8315799	1.3533587
35.04514721598624	1.9844067	1.4086897
35.063527270697215	2.0642023	1.4367332
35.081908256782256	2.0474954	1.4309071
35.10029017485597	2.0850868	1.443983
35.11867302553321	2.0255291	1.4232109
35.137056809429104	1.8558726	1.3623042
35.155441527159006	1.7432665	1.3203281
35.173827179338524	1.7975433	1.340725
35.19221376658354	1.8911152	1.3751782
35.21060128951017	1.9916613	1.4112623
35.2289897487348	1.9484638	1.3958739
35.24737914487405	1.8253195	1.3510438
35.26576947854479	1.7482197	1.3222026
35.28416075036418	1.8338413	1.3541939
35.30255296094958	1.9862317	1.4093373
35.32094611091867	1.8520359	1.3608953
35.33934020088932	1.7339997	1.3168142
35.35773523147969	1.7073028	1.306638
35.3761312033082	1.7217098	1.3121394
35.394528116993506	1.8501014	1.3601843
35.41292597315452	1.9198282	1.3855786
35.431324772410434	2.1417487	1.4634714
35.449724515380666	2.2680552	1.5060064
35.46812520268491	2.2820194	1.5106354
35.486526834943106	2.2192953	1.4897299
35.504929412775454	1.8313556	1.3532759
35.52333293680242	1.8408146	1.3567662
35.54173740764471	2.0081882	1.4171056
35.560142825923286	2.2606387	1.5035421
35.5785491922594	2.0469573	1.4307191
35.59695650727454	2.1595442	1.4695388
35.61536477159042	3.0240254	1.7389725
