0.008763373481513119	0.0	0.0
0.026290120649546365	0.0	0.0
0.043816868432600686	0.03550094	0.18841693
0.06134361724069026	0.082251735	0.28679565
0.07887036748382949	0.09020074	0.30033436
0.0963971195720331	0.1586272	0.3982803
0.11392387391531617	0.16209035	0.40260446
0.1314506309236943	0.23806527	0.48791933
0.1489773910071836	0.2064466	0.45436394
0.16650415457580078	0.21278477	0.46128598
0.18403092203956356	0.14678001	0.3831188
0.20155769380849	0.10769222	0.32816494
0.2190844702925996	0.081516586	0.2855111
0.2366112519019124	0.07255666	0.26936343
0.2541380390464497	0.05587014	0.23636866
0.27166483213623416	0.078949876	0.2809802
0.28919163158128947	0.08116502	0.28489476
0.3067184377916406	0.091607586	0.30266744
0.324245251177314	0.08448686	0.29066622
0.34177207214833777	0.115633085	0.34004864
0.3592989011147415	0.12482299	0.353303
0.37682573848655654	0.15132302	0.3890026
0.39435258467381573	0.17291671	0.41583255
0.41187944008655414	0.17961214	0.42380673
0.42940630513480854	0.21340397	0.46195668
0.446933180228618	0.20662896	0.4545646
0.4644600657780234	0.18979822	0.43565837
0.48198696219306775	0.1657549	0.40713006
0.49951386988379676	0.15664709	0.39578667
0.5170407892602581	0.123834334	0.35190102
0.5345677207325025	0.15401407	0.39244625
0.5520946647105822	0.13829395	0.37187895
0.5696216216045534	0.20496464	0.4527302
0.5871485918244737	0.2001878	0.44742352
0.6046755757804043	0.24227683	0.49221626
0.6222025738824094	0.21756062	0.46643394
0.6397295865405557	0.2214799	0.4706165
0.6572566141649129	0.19844401	0.44547054
0.6747836571655547	0.16049193	0.40061444
0.6923107159525568	0.15578653	0.39469802
0.7098377909359992	0.14661476	0.38290307
0.7273648825259653	0.16904509	0.41115093
0.7448919911325411	0.14305653	0.37822813
0.762419117165817	0.16747598	0.4092383
0.7799462610358868	0.1778802	0.42175847
0.7974734231528482	0.17000116	0.41231197
0.8150006039268024	0.17080715	0.4132882
0.8325278037678551	0.18662412	0.43200013
0.8500550230861152	0.2053006	0.4531011
0.8675822622916969	0.2283095	0.47781742
0.8851095217947171	0.24371082	0.49367076
0.9026368020052984	0.22751664	0.47698703
0.9201641033335665	0.2172168	0.46606523
0.9376914261896523	0.179753	0.42397287
0.9552187709836915	0.22209117	0.4712655
0.9727461381258234	0.23311238	0.48281714
0.990273528026193	0.24079396	0.4907076
1.0078009410949496	0.25443012	0.5044107
1.0253283777422473	0.25554788	0.5055174
1.0428558383782454	0.31062132	0.5573341
1.0603833234131086	0.3101388	0.55690104
1.0779108332570058	0.34331435	0.58593035
1.0954383683201119	0.36575314	0.6047753
1.112965929012607	0.40371877	0.6353887
1.1304935157446763	0.45282072	0.6729196
1.1480211289265108	0.5187961	0.720275
1.1655487689683062	1.2919505	1.13664
1.1830764362802655	1.5980784	1.2641512
1.200604131272596	2.019086	1.4209454
1.2181318543555117	2.3561924	1.5349894
1.235659605939232	2.4063601	1.5512447
1.253187386433982	3.9257863	1.9813597
1.270715196249994	6.125208	2.4749157
1.2882430357975057	11.661795	3.414937
1.3057709054867608	16.402729	4.0500283
1.3232988057280106	22.175964	4.7091365
1.3408267369315112	26.959785	5.1922812
1.358354699507526	30.226612	5.4978733
1.3758826938663256	34.271297	5.8541694
1.3934107204181858	36.335617	6.027903
1.410938779573391	37.32919	6.1097617
1.4284668717422309	38.04766	6.1682787
1.4459949973350033	37.568462	6.1293116
1.4635231567620117	37.111835	6.0919485
1.4810513504335687	36.39545	6.032864
1.4985795787599925	36.07314	6.006092
1.5161078421516088	36.101967	6.008491
1.5336361410187505	34.941513	5.9111347
1.5511644757717598	34.509613	5.8744884
1.5686928468209842	34.638687	5.885464
1.58622125457678	35.423836	5.9517927
1.6037496994495108	37.121517	6.092743
1.621278181849548	37.49236	6.1231003
1.6388067021872719	38.34514	6.192345
1.6563352608730693	37.582726	6.130475
1.673863858317336	36.3835	6.0318737
1.6913924949304753	35.52536	5.960315
1.7089211711228998	34.300858	5.8566933
1.7264498873050296	33.27616	5.7685494
1.7439786438872935	32.179325	5.6726823
1.7615074412801288	31.194677	5.5852194
1.779036279893981	30.71997	5.54256
1.796565160139305	29.794079	5.4583955
1.814094082426564	29.30275	5.4132013
1.8316230471662298	28.506529	5.3391504
1.849152054768784	27.839983	5.276361
1.8666811056447168	27.28644	5.2236423
1.8842102002045273	26.700827	5.1672845
1.901739338858724	25.902264	5.0894265
1.9192685220178245	25.204128	5.0203714
1.9367977500923557	24.53421	4.9532022
1.9543270234928547	24.215593	4.920934
1.971856342629867	23.780481	4.8765235
1.9893857079139496	23.141209	4.810531
2.006915119755667	22.681503	4.7625103
2.0244445785655945	22.11941	4.703128
2.0419740847543175	22.147825	4.7061477
2.0595036387324317	21.864683	4.6759686
2.0770332409105414	21.323944	4.6177855
2.094562891699263	20.714737	4.5513444
2.1120925915092217	20.156944	4.4896483
2.129622340751053	19.91686	4.462831
2.1471521398354043	187.95515	13.709674
2.1646819891729323	444.11285	21.073986
2.182211889174303	440.14554	20.979647
2.1997418402501974	452.54507	21.273108
2.2172718428113023	432.62772	20.799706
2.234801897268317	320.7667	17.90996
2.2523320040319548	17.323706	4.1621757
2.269862163512935	16.920559	4.1134605
2.287392376121992	16.474676	4.058901
2.304922642269869	16.111088	4.013862
2.322452962367322	15.7782755	3.9721878
2.3399833368251164	15.51915	3.9394352
2.357513766054032	15.283731	3.9094412
2.3750442504648586	15.094894	3.8852148
2.3925747904683963	14.816848	3.8492658
2.410105386475459	14.53586	3.8125923
2.4276360388968707	14.166188	3.7637997
2.445166748143469	13.853123	3.7219784
2.4626975146261025	13.520019	3.6769578
2.4802283387556323	13.399874	3.6605837
2.4977592209429305	13.355464	3.654513
2.5152901615988825	13.188106	3.6315432
2.5328211611343865	12.95345	3.59909
2.5503522199603523	12.584414	3.5474517
2.5678833384877024	12.347898	3.5139575
2.5854145171273712	12.215276	3.495036
2.6029457562903064	11.961747	3.458576
2.620477056387469	11.894579	3.4488518
2.6380084178298326	11.851146	3.4425492
2.655539841028383	11.684931	3.4183228
2.673071326394119	11.578928	3.4027824
2.6906028743380523	11.326815	3.3655334
2.708134485271211	10.980289	3.313652
2.7256661596046325	10.738242	3.2769258
2.743197897749369	10.478483	3.2370486
2.760729700116486	10.475354	3.236565
2.778261567117063	10.332582	3.2144334
2.795793499162193	10.242471	3.200386
2.8133254966629817	10.137101	3.1838815
2.830857560030551	9.940802	3.1529038
2.8483896896760337	9.696469	3.1139154
2.865921886010578	9.478002	3.0786364
2.883454149445347	9.391464	3.0645497
2.9009864803915177	9.2766	3.045751
2.91851887926028	9.236924	3.0392308
2.9360513464628384	9.057331	3.00954
2.953583882410413	8.906509	2.9843776
2.9711164875142373	8.70901	2.9511032
2.9886491621855606	8.682633	2.946631
3.0061819068356455	8.524452	2.9196665
3.023714721875769	8.507692	2.9167948
3.041247607717225	8.408576	2.8997545
3.0587805647713213	8.4135065	2.9006045
3.0763135934493806	8.2814665	2.8777537
3.0938466941627407	8.147401	2.854365
3.1113798673227544	8.081089	2.8427255
3.1289131133407904	8.0015335	2.8286982
3.1464464326282315	7.874497	2.8061533
3.1639798255964786	7.70314	2.775453
3.1815132926569443	7.6427627	2.7645547
3.1990468342210603	7.614731	2.7594802
3.216580450700272	7.547212	2.747219
3.2341141425060416	7.431079	2.7260005
3.251647910049847	7.4361734	2.726935
3.2691817537431813	7.4631166	2.7318707
3.286715673997555	7.448428	2.7291808
3.3042496712244938	7.359992	2.7129304
3.32178374583554	7.2411003	2.6909292
3.339317898242251	7.0891294	2.6625419
3.3568521288562034	6.861568	2.6194594
3.3743864380889876	6.7949605	2.6067145
3.3919208263522127	6.663063	2.581291
3.4094552940575023	6.548173	2.5589397
3.4269898416164972	6.457793	2.5412188
3.444524469440858	6.3704615	2.5239773
3.4620591779422587	6.377671	2.5254052
3.479593967532391	6.3922334	2.5282867
3.4971288386229658	6.456908	2.5410447
3.5146637916257086	6.4261703	2.534989
3.5321988269523628	6.258002	2.5015998
3.5497339450146903	6.077319	2.465222
3.5672691462244708	5.976942	2.4447784
3.5848044309934988	6.00067	2.4496264
3.60233979973359	6.0486298	2.4593961
3.619875252856575	6.1665072	2.4832454
3.6374107907743034	6.167545	2.4834542
3.6549464138986427	6.1712418	2.4841983
3.6724821226414788	6.138216	2.4775424
3.690017917414714	6.176001	2.485156
3.7075537986302702	6.166896	2.4833236
3.7250897667000857	6.2394834	2.4978957
3.7426258220361235	6.433191	2.5363736
3.7601619650503553	6.7360773	2.5953953
3.777698196154779	7.2041025	2.684046
3.7952345157614067	8.171328	2.8585534
3.8127709242822716	9.064671	3.010759
3.830307422129425	11.527863	3.3952706
3.847844009714936	30.486446	5.5214534
3.8653806874508954	97.965805	9.897768
3.882917455749409	97.151855	9.8565645
3.900454315022606	96.769066	9.837127
3.917991265682631	41.337215	6.4294024
3.9355283081416506	10.945998	3.3084736
3.9530654428118495	8.771503	2.9616723
3.970602670105433	7.4571166	2.7307723
3.9881399904346244	6.548345	2.5589736
4.005677404211669	6.4332747	2.53639
4.023214911848827	6.371713	2.5242252
4.0407525137583855	6.2810283	2.506198
4.058290210352644	6.193855	2.4887457
4.075828002043927	6.174119	2.4847775
4.0933658892445814	6.20989	2.491965
4.110903872366966	6.2882648	2.5076413
4.128441951823468	6.225897	2.4951746
4.145980128026488	6.218787	2.4937496
4.163518401388452	6.176178	2.4851918
4.181056772321807	6.1286263	2.4756062
4.1985952412390155	6.085429	2.4668663
4.216133808552567	6.1083975	2.4715173
4.233672474674966	6.1710215	2.484154
4.251211240018741	6.3500967	2.51994
4.268750104996445	6.596061	2.5682797
4.286289070020643	7.4030113	2.7208476
4.303828135503928	9.078263	3.0130157
4.3213673018589125	29.36139	5.418615
4.3389065694982305	90.61017	9.518937
4.356445938834537	165.80826	12.876656
4.3739854102805085	171.01306	13.077196
4.391524984248844	171.83832	13.108711
4.409064661152262	135.83565	11.654855
4.426604441403504	96.25345	9.810884
4.444144325415337	75.559135	8.692475
4.461684313600543	21.600418	4.647625
4.47922440637193	22.118113	4.7029896
4.496764604142329	20.518042	4.5296845
4.5143049073245916	18.724173	4.3271437
4.531845316331589	16.620127	4.076779
4.5493858315762195	13.688722	3.6998272
4.566926453471405	11.301568	3.3617804
4.584467182430081	9.242504	3.0401487
4.602008018865218	8.130338	2.8513746
4.619548963189798	7.511332	2.740681
4.637090015816834	7.085535	2.661867
4.654631177159353	6.810772	2.6097455
4.672172447630417	6.514628	2.552377
4.689713827643102	6.234145	2.4968271
4.7072553176105085	5.9433804	2.4379048
4.724796917945764	5.725886	2.3928823
4.742338629062015	5.668033	2.380763
4.759880451372434	5.6489286	2.3767476
4.777422385290215	5.6873617	2.384819
4.794964431228581	5.660925	2.3792698
4.812506589600768	5.630278	2.3728206
4.830048860820047	5.563251	2.3586545
4.847591245299709	5.5525813	2.3563917
4.8651337434530655	5.572264	2.3605645
4.882676355693457	5.5168276	2.3487928
4.900219082434242	5.538756	2.3534563
4.917761924088813	5.5409694	2.3539264
4.935304881070575	5.4812512	2.3412073
4.952847953792969	5.448273	2.3341537
4.970391142669449	5.455066	2.3356082
4.9879344481135055	5.4332733	2.3309383
5.005477870538642	5.4658675	2.3379195
5.023021410358394	5.3544707	2.313973
5.040565067986324	5.3721447	2.3177888
5.05810884383601	5.34326	2.3115492
5.075652738321066	5.3638415	2.315997
5.09319675185512	5.3281517	2.308279
5.110740884851836	5.3585925	2.3148634
5.128285137724894	5.335876	2.3099515
5.145829510888007	5.3555417	2.3142045
5.163374004754908	5.3552384	2.314139
5.1809186197393595	5.32267	2.3070912
5.198463356255145	5.3809056	2.3196778
5.216008214716077	5.3296895	2.308612
5.233553195535998	5.276209	2.297
5.251098299128764	5.1438947	2.2680156
5.268643525908272	5.168926	2.2735271
5.286188876288432	5.231245	2.2871916
5.3037343506831895	5.211764	2.2829287
5.32127994950651	5.215946	2.2838447
5.3388256731723915	5.1883187	2.2777882
5.356371522094851	5.2068143	2.2818444
5.373917496687938	5.1220117	2.2631862
5.391463597365729	5.074921	2.2527585
5.40900982454232	4.9999094	2.2360477
5.426556178631843	5.1444	2.268127
5.444102660048449	5.178278	2.275583
5.4616492692063225	5.149513	2.2692537
5.479196006519669	5.1093946	2.260397
5.496742872402727	5.098017	2.257879
5.514289867269756	5.099916	2.2582994
5.531836991535049	5.073909	2.252534
5.549384245612924	5.083743	2.2547157
5.566931629917724	5.090031	2.2561097
5.584479144863822	5.0740843	2.2525728
5.6020267908656205	5.094507	2.2571015
5.619574568337545	5.063458	2.250213
5.637122477694054	5.0660048	2.2507787
5.654670519349629	5.071841	2.2520747
5.672218693718784	5.095922	2.2574148
5.689767001216059	5.166752	2.273049
5.707315442256021	5.0762506	2.2530537
5.724864017253266	5.09212	2.2565727
5.7424127266224225	5.059409	2.249313
5.75996157077814	5.058859	2.2491908
5.777510550135105	5.185039	2.2770681
5.795059665108022	5.2227035	2.2853234
5.812608916111639	5.356551	2.3144224
5.830158303560715	5.457038	2.3360305
5.847707827870055	5.422737	2.3286772
5.86525748945448	5.462893	2.3372834
5.8828072887288485	5.563556	2.358719
5.900357226108044	5.6215496	2.3709807
5.917907302006979	5.612512	2.369074
5.9354575168406	6.211899	2.4923682
5.9530078710238765	6.8631816	2.6197674
5.970558364971812	7.533346	2.7446942
5.988108999099438	7.8868146	2.8083472
6.005659773821818	8.500314	2.9155297
6.023210689554039	8.242433	2.8709638
6.040761746711227	8.655899	2.942091
6.058312945708531	7.9284315	2.815747
6.075864286961132	7.385649	2.7176552
6.093415770884244	6.6691127	2.5824625
6.1109673978931065	6.141488	2.4782026
6.128519168402993	5.571479	2.360398
6.146071082829204	5.371394	2.317627
6.163623141587075	5.2203646	2.2848117
6.181175345091969	5.1853356	2.2771332
6.198727693759281	5.1855206	2.2771738
6.216280188004435	5.16031	2.2716315
6.233832828242885	5.0735283	2.2524495
6.251385614890126	5.144606	2.2681725
6.268938548361669	5.1862664	2.2773376
6.286491629073067	5.167177	2.2731426
6.304044857439898	5.1112347	2.260804
6.321598233877777	5.0270443	2.2421072
6.339151758802344	5.007034	2.2376401
6.356705432629277	4.994418	2.2348194
6.37425925577428	4.944497	2.2236226
6.391813228653095	4.9114203	2.2161725
6.409367351681486	4.929351	2.2202141
6.426921625275259	4.8700595	2.2068212
6.44447604985025	4.907503	2.2152884
6.46203062582232	4.9120145	2.2163064
6.47958535360737	5.0326962	2.2433672
6.497140233621328	5.0573936	2.248865
6.514695266280161	5.071383	2.2519732
6.532250451999859	5.0603766	2.2495282
6.549805791196454	5.106975	2.2598617
6.567361284286002	5.055381	2.2484174
6.584916931684597	5.0498714	2.247192
6.602472733808367	5.0615134	2.2497807
6.6200286910734665	5.0705457	2.2517872
6.637584803896092	5.096138	2.2574627
6.655141072692462	5.012737	2.2389143
6.672697497878842	5.0160813	2.239661
6.690254079871514	4.9349318	2.2214706
6.707810819086808	4.89568	2.2126184
6.725367715941078	4.880426	2.2091687
6.742924770850719	4.9034047	2.2143633
6.760481984232151	4.9870024	2.2331598
6.778039356501836	4.972902	2.2300005
6.795596888076266	4.9505157	2.2249753
6.813154579371963	4.948087	2.2244296
6.830712430805492	4.967949	2.2288897
6.84827044279344	5.0288014	2.2424989
6.865828615752445	5.034905	2.2438593
6.883386950099159	5.031372	2.243072
6.900945446250287	4.9772596	2.2309773
6.918504104622553	5.0112686	2.2385862
6.936062925632727	4.9910603	2.2340682
6.953621909697607	4.962219	2.227604
6.971181057234028	5.0137677	2.2391443
6.988740368658859	5.0898986	2.2560804
7.006299844389007	5.2143245	2.2834895
7.023859484841407	5.3093457	2.3042018
7.041419290433036	5.391975	2.3220627
7.058979261580902	5.442854	2.3329926
7.0765393987020495	5.627348	2.372203
7.094099702213559	5.9296556	2.4350884
7.111660172532549	6.2965326	2.5092893
7.129220810076164	6.654541	2.5796397
7.146781615261595	7.237666	2.6902912
7.16434258850606	7.452098	2.7298532
7.181903730226821	7.745754	2.7831194
7.1994650408411704	7.794819	2.7919202
7.217026520766437	7.97113	2.823319
7.234588170419983	8.328547	2.8859222
7.252149990219215	8.43015	2.903472
7.269711980581568	8.305425	2.8819134
7.2872741419245175	8.086299	2.8436418
7.304836474665574	7.7270207	2.779752
7.322398979222286	7.4313483	2.72605
7.339961656012233	7.157938	2.6754322
7.357524505453039	6.8247175	2.612416
7.375087527962357	6.5257	2.554545
7.392650723957886	6.1892424	2.4878187
7.410214093857353	5.8584547	2.4204245
7.427777638078528	5.7072434	2.3889837
7.445341357039213	5.5534487	2.3565757
7.4629052511572525	5.35378	2.3138237
7.480469320850524	5.230254	2.286975
7.498033566536948	5.1285443	2.264629
7.5155979886344735	5.127527	2.2644043
7.5331625875610975	5.0989537	2.2580862
7.550727363734844	5.10726	2.259925
7.568292317573788	5.0776224	2.2533581
7.585857449496025	5.079988	2.253883
7.603422759919705	5.098933	2.2580817
7.620988249263007	5.1514144	2.2696726
7.638553917944147	5.2531514	2.2919755
7.656119766381391	5.2196097	2.2846465
7.673685794993023	5.2113547	2.2828393
7.691252004197388	5.2027407	2.2809517
7.70881839441285	5.202796	2.280964
7.726384966057826	5.209652	2.2824662
7.743951719550762	5.2345448	2.2879128
7.761518655310149	5.3075433	2.3038106
7.779085773754511	5.2306447	2.2870603
7.796653075302419	5.12037	2.2628233
7.814220560372475	5.0794263	2.2537582
7.831788229383323	5.2087235	2.2822628
7.8493560827536495	5.3291426	2.3084936
7.866924120902174	5.3211617	2.3067644
7.884492344247663	5.271686	2.2960153
7.9020607532089135	5.1746664	2.2747893
7.919629348204771	5.146822	2.2686608
7.937198129654115	5.20093	2.2805548
7.954767097975865	5.273271	2.2963605
7.972336253588986	5.3313265	2.3089666
7.989905596912472	5.3761797	2.318659
8.007475128365371	5.351318	2.3132915
8.025044848366756	5.325418	2.3076868
8.042614757335754	5.4499397	2.3345106
8.060184855691523	5.528145	2.3512008
8.07775514385327	5.71982	2.3916144
8.095325622240228	5.7492614	2.3977618
8.112896291271687	5.836456	2.4158757
8.130467151366968	5.8791537	2.4246967
8.148038202945436	5.964434	2.442219
8.165609446426497	5.948552	2.4389653
8.183180882229594	5.937239	2.436645
8.200752510774217	5.863363	2.4214382
8.218324332479893	5.8380632	2.4162085
8.235896347766193	5.835192	2.4156144
8.253468557052724	5.914354	2.4319444
8.27104096075914	5.92925	2.4350052
8.288613559305137	5.966247	2.4425902
8.306186353110448	5.967564	2.44286
8.32375934259485	6.066515	2.4630296
8.341332528178162	6.1581697	2.481566
8.358905910280246	6.1962833	2.4892335
8.376479489321003	6.1626897	2.4824765
8.394053265720377	6.16516	2.482974
8.411627239898356	6.156558	2.4812412
8.42920141227497	6.1512275	2.480167
8.44677578327029	6.245387	2.4990773
8.464350353304427	6.223396	2.4946735
8.48192512279754	6.217163	2.493424
8.499500092169827	6.18115	2.4861917
8.51707526184153	6.1765237	2.4852612
8.534650632232934	6.1981335	2.4896052
8.552226203764365	6.1667705	2.4832983
8.569801976856192	6.1681886	2.483584
8.587377951928834	6.209637	2.4919143
8.60495412940274	6.1998816	2.4899561
8.622530509698416	6.303283	2.510634
8.6401070932364	6.4998336	2.549477
8.657683880437283	6.681145	2.5847912
8.675260871721695	6.767838	2.601507
8.692838067510303	6.7694817	2.6018229
8.710415468223834	6.8007507	2.6078248
8.727993074283043	6.953849	2.637015
8.745570886108737	7.0422087	2.653716
8.763148904121765	7.0973673	2.6640885
8.78072712874302	7.1100283	2.6664636
8.798305560393441	7.296115	2.701132
8.815884199494006	7.4292045	2.7256567
8.833463046465745	7.595845	2.756056
8.851042101729728	7.715222	2.777629
8.86862136570707	8.011998	2.8305473
8.886200838818924	8.262559	2.8744667
8.903780521486505	8.367205	2.892612
8.921360414131055	8.488904	2.9135723
8.938940517173874	8.58541	2.930087
8.956520831036297	8.688938	2.9477005
8.97410135613971	8.837712	2.972829
8.99168209290554	9.046557	3.0077496
9.009263041755265	9.3557415	3.0587156
9.026844203110405	9.702933	3.1149533
9.044425577392525	9.9439945	3.15341
9.062007165023239	10.006187	3.163256
9.079588966424197	10.227907	3.1981099
9.097170982017108	10.285842	3.2071548
9.11475321222372	11.38038	3.3734818
9.132335657465825	12.352382	3.5145955
9.149918318165264	12.4732485	3.5317485
9.167501194743924	13.058819	3.6136987
9.18508428762374	12.737484	3.5689611
9.202667597226693	12.756038	3.5715597
9.220251123974803	12.516517	3.537869
9.237834868290143	12.213497	3.4947815
9.255418830594836	11.860182	3.4438615
9.273003011311046	11.235245	3.3519018
9.290587410860985	10.928381	3.3058102
9.308172029666911	10.314807	3.2116673
9.32575686815113	10.041776	3.1688762
9.343341926735997	8.794086	2.9654825
9.360927205843916	8.644838	2.9402106
9.378512705897327	8.378317	2.8945322
9.396098427318728	8.1248045	2.8504043
9.413684370530664	8.021434	2.8322136
9.431270535955722	7.925673	2.815257
9.448856924016539	7.885968	2.8081965
9.466443535135806	7.7390947	2.7819228
9.484030369736251	7.681714	2.7715905
9.501617428240658	7.6066957	2.758024
9.519204711071852	7.616421	2.7597864
9.536792218652714	7.6955547	2.7740862
9.55437995140617	7.7749205	2.7883544
9.571967909755191	7.774679	2.7883112
9.589556094122802	7.7809606	2.7894373
9.60714450493207	7.784016	2.789985
9.624733142606116	7.8759937	2.80642
9.642322007568108	7.902225	2.8110898
9.659911100241267	7.904139	2.81143
9.677500421048851	7.9499326	2.8195624
9.695089970414175	7.999666	2.8283682
9.712679748760609	8.083528	2.8431544
9.730269756511557	8.147947	2.854461
9.747859994090492	8.1579	2.8562038
9.765450461920915	8.133919	2.8520026
9.78304116042639	8.069657	2.8407142
9.800632090030527	8.0808115	2.8426769
9.81822325115699	8.12045	2.8496404
9.835814644229481	8.143912	2.853754
9.853406269671762	8.171528	2.8585885
9.870998127907646	8.208877	2.8651137
9.888590219360985	8.24757	2.8718584
9.906182544455698	8.319525	2.8843586
9.923775103615734	8.292926	2.879744
9.941367897265108	8.27611	2.876823
9.958960925827878	8.2934065	2.8798275
9.97655418972816	8.361607	2.8916442
9.994147689390106	8.339208	2.8877687
10.011741425237934	8.285791	2.878505
10.029335397695904	8.269928	2.8757482
10.04692960718833	8.252608	2.8727353
10.06452405413958	8.286802	2.8786807
10.082118738974064	8.253346	2.8728638
10.099713662116246	8.259977	2.8740177
10.117308823990651	8.211847	2.865632
10.134904225021844	8.219193	2.8669136
10.152499865634445	8.182311	2.8604739
10.170095746253125	8.155124	2.8557177
10.18769186730261	8.156519	2.855962
10.205288229207675	8.130969	2.8514855
10.222884832393145	8.1349945	2.8521912
10.2404816772839	8.107563	2.8473783
10.258078764304868	8.106926	2.8472664
10.275676093881035	8.065546	2.8399906
10.293273666437438	8.029045	2.833557
10.310871482399158	8.107476	2.847363
10.32846954219134	8.122512	2.850002
10.346067846239173	8.180152	2.8600965
10.363666394967908	8.113477	2.8484166
10.38126518880283	8.123008	2.850089
10.398864228169298	8.168896	2.858128
10.416463513492713	8.218774	2.8668404
10.434063045198531	8.173938	2.85901
10.451662823712262	8.186578	2.8612196
10.469262849459467	8.20155	2.8638349
10.486863122865758	8.124221	2.850302
10.504463644356806	8.113607	2.8484395
10.522064414358338	8.020166	2.8319898
10.539665433296118	7.9463043	2.818919
10.557266701595987	7.8648562	2.804435
10.574868219683818	7.8199644	2.7964199
10.592469987985552	7.6956873	2.77411
10.610072006927185	7.650098	2.765881
10.627674276934751	7.514841	2.741321
10.64527679843435	7.3360333	2.7085114
10.662879571852143	7.1654887	2.6768432
10.680482597614331	7.0438747	2.6540298
10.698085876147173	6.96847	2.639786
10.715689407876988	6.9111485	2.6289062
10.733293193230146	6.79834	2.6073625
10.750897232633072	6.668747	2.5823917
10.76850152651225	6.5793514	2.5650246
10.786106075294207	6.534511	2.556269
10.803710879405534	6.5081573	2.551109
10.821315939272877	6.437173	2.5371585
10.83892125532294	6.3542585	2.5207655
10.856526827982472	6.2917314	2.5083325
10.874132657678285	6.218098	2.4936116
10.891738744837243	6.1861	2.4871871
10.909345089886271	6.148654	2.4796479
10.926951693252343	6.1175056	2.473359
10.944558555362494	6.067853	2.4633012
10.96216567664381	5.999869	2.449463
10.979773057523436	5.8927855	2.427506
10.997380698428573	5.8021564	2.4087665
11.014988599786477	5.7078614	2.3891132
11.032596762024461	5.7042212	2.3883512
11.050205185569892	5.6574426	2.378538
11.067813870850198	5.6168094	2.3699808
11.085422818292859	5.5194483	2.3493507
11.10303202832541	5.403409	2.3245234
11.120641501375454	5.3192315	2.306346
11.138251237870636	5.172049	2.274214
11.155861238238671	5.1643085	2.2725115
11.173471502907317	5.189758	2.278104
11.191082032304402	5.24656	2.290537
11.208692826857805	5.209585	2.2824516
11.226303886995465	5.0678587	2.2511904
11.243915213145371	4.92983	2.2203221
11.261526805735578	4.8534565	2.203056
11.279138665194196	4.8558884	2.203608
11.296750791949393	4.8731875	2.2075298
11.314363186429393	4.849074	2.2020612
11.331975849062479	4.7941647	2.189558
11.34958878027699	4.7010365	2.1681874
11.36720198050133	4.6716723	2.161405
11.384815450163948	4.621563	2.1497822
11.402429189693366	4.5893426	2.142275
11.420043199518153	4.483628	2.1174579
11.437657480066942	63.4399	7.9649167
11.455272031768422	85.18974	9.229829
11.472886855051353	107.55987	10.371107
11.490501950344528	99.12213	9.95601
11.508117318076819	84.3907	9.186441
11.52573295867715	45.75868	6.7645164
11.543348872574514	4.110975	2.0275538
11.560965060197946	4.079985	2.0198972
11.57858152197655	4.05178	2.0129035
11.59619825833949	4.021431	2.0053506
11.613815269715985	3.9992568	1.9998142
11.631432556535323	38.508957	6.205559
11.649050119226837	83.01642	9.111335
11.666667958219929	93.41063	9.664917
11.68428607394406	107.60889	10.37347
11.701904466828756	82.43076	9.079139
11.719523137303586	65.29322	8.080422
11.737142085798196	4.6042233	2.1457453
11.754761312742286	3.7190661	1.928488
11.772380818565619	3.6767187	1.9174771
11.790000603698015	3.6343691	1.9064021
11.80762066856935	3.6301064	1.9052838
11.825241013609572	3.6307278	1.9054469
11.842861639248683	3.5955973	1.896206
11.860482545916748	3.50725	1.8727653
11.878103734043883	3.4319162	1.8525432
11.895725204060282	3.3386734	1.8272038
11.91334695639619	3.2997115	1.8165108
11.930968991481919	3.3264523	1.8238565
11.948591309747824	3.3908415	1.8414237
11.966213911624347	3.3924634	1.8418641
11.98383679754198	3.303583	1.817576
12.001459967931268	3.2372518	1.7992364
12.019083423222835	3.1846602	1.7845616
12.036707163847352	3.227285	1.7964646
12.05433119023556	3.2262328	1.7961717
12.071955502818259	3.2048635	1.7902132
12.089580102026313	3.1682208	1.7799497
12.107204988290643	3.1776242	1.7825892
12.12483016204224	3.1585603	1.7772338
12.142455623712152	3.1544476	1.7760764
12.16008137373149	3.1139753	1.7646459
12.177707412531431	3.0839965	1.7561312
12.19533374054321	3.0428233	1.744369
12.212960358198126	3.0538437	1.747525
12.230587265927545	3.0481842	1.7459049
12.248214464162889	3.056422	1.7482625
12.265841953335649	3.0573316	1.7485226
12.283469733877375	3.0272877	1.7399102
12.301097806219685	3.018439	1.7373656
12.31872617079425	2.9692771	1.7231591
12.336354828032825	2.945917	1.7163674
12.353983778367205	2.9014373	1.7033606
12.371613022229262	2.8698387	1.6940598
12.389242560050928	2.8857937	1.6987624
12.406872392264201	2.88284	1.6978928
12.424502519301143	2.9070466	1.7050064
12.442132941593874	2.888987	1.699702
12.459763659574586	2.8518267	1.6887352
12.477394673675532	2.8406827	1.6854326
12.49502598432903	2.8393865	1.6850479
12.51265759196746	2.794316	1.6716208
12.530289497023267	2.7840338	1.6685424
12.547921699928967	2.7502196	1.6583786
12.565554201117134	2.7502506	1.6583879
12.583187001020404	2.7608988	1.6615952
12.600820100071486	2.7476742	1.657611
12.618453498703152	2.7537494	1.6594425
12.636087197348235	2.7582238	1.6607901
12.65372119643964	2.780228	1.6674016
12.671355496410326	2.7870908	1.6694583
12.68899009769333	2.8110163	1.6766086
12.706625000721749	2.8237193	1.6803926
12.724260205928752	2.8497784	1.6881287
12.741895713747551	2.8577342	1.6904835
12.759531524611454	2.9003944	1.7030544
12.777167638953818	2.9753945	1.7249331
12.794804057208072	2.982168	1.7268955
12.812440779807702	2.983864	1.7273865
12.830077807186271	3.1269956	1.7683313
12.847715139777405	3.219765	1.7943703
12.865352778014795	3.5077336	1.8728944
12.882990722332197	3.6044712	1.8985445
12.90062897316344	3.659039	1.9128615
12.918267530942412	3.7385275	1.9335272
12.935906396103071	3.6420689	1.9084206
12.953545569079449	3.8537936	1.9631082
12.971185050305628	3.6151187	1.9013466
12.988824840215775	3.6308503	1.9054791
13.006464939244115	3.578108	1.8915888
13.024105347824943	3.4014235	1.8442948
13.041746066392617	3.5091164	1.8732636
13.05938709538157	3.363383	1.8339529
13.077028435226296	3.4247074	1.8505965
13.094670086361363	3.2852492	1.8125256
13.112312049221401	3.160573	1.7778001
13.129954324241112	3.070448	1.7522694
13.147596911855258	2.8476725	1.6875048
13.165239812498685	2.826654	1.6812656
13.182883026606293	2.7701187	1.6643673
13.200526554613058	2.7729752	1.6652253
13.218170396954017	2.744417	1.6566281
13.235814554064284	2.7204802	1.6493878
13.253459026379034	2.683293	1.6380761
13.271103814333523	2.657979	1.6303309
13.288748918363058	2.638933	1.6244793
13.306394338903031	2.6293378	1.6215233
13.32404007638889	2.6097906	1.6154846
13.341686131256164	2.6192088	1.618397
13.359332503940449	2.6128237	1.6164231
13.376979194877402	2.617144	1.617759
13.394626204502751	2.6547012	1.6293254
13.412273533252307	2.6608043	1.6311972
13.429921181561937	2.6855874	1.6387762
13.447569149867581	2.7221193	1.6498847
13.465217438605247	2.6915736	1.6406016
13.482866048211022	2.6402128	1.6248732
13.500514979121052	2.6255183	1.6203451
13.518164231771568	2.6268928	1.6207691
13.535813806598844	2.663372	1.6319841
13.553463704039254	2.6552725	1.6295006
13.571113924529229	2.67473	1.6354603
13.588764468505275	2.7076068	1.6454808
13.606415336403956	2.7530575	1.659234
13.624066528661917	2.788404	1.6698515
13.641718045715882	2.8017755	1.6738505
13.659369888002635	2.8221061	1.6799126
13.67702205595903	2.8529763	1.6890756
13.694674550021993	2.937482	1.7139084
13.712327370628532	3.031971	1.7412555
13.729980518215713	3.1323357	1.7698406
13.747633993220681	3.207433	1.7909307
13.765287796080647	3.2612634	1.8058969
13.7829419272329	3.2891583	1.8136036
13.800596387114801	3.2803364	1.8111699
13.818251176163775	3.2592852	1.8053491
13.835906294817324	3.3126035	1.8200558
13.853561743513023	3.376995	1.8376602
13.871217522688525	3.452644	1.8581291
13.888873632781538	3.4829862	1.866276
13.906530074229858	3.492739	1.8688871
13.92418684747135	3.4972231	1.8700864
13.941843952943948	3.5002215	1.8708879
13.959501391085665	3.4482741	1.8569529
13.977159162334578	3.399694	1.8438259
13.994817267128846	3.3681374	1.8352486
14.012475705906693	3.3107214	1.8195388
14.030134479106424	3.2673476	1.8075806
14.047793587166414	3.1682687	1.7799631
14.065453030525108	3.108497	1.763093
14.083112809621026	2.9848611	1.7276751
14.100772924892766	2.9123075	1.7065485
14.118433376778997	2.8298345	1.6822112
14.136094165718458	2.803103	1.674247
14.153755292149969	2.7494042	1.6581328
14.171416756512416	2.6627839	1.6318039
14.189078559244768	2.5835557	1.6073443
14.20674070078606	2.5043538	1.582515
14.224403181575408	2.4828408	1.5757033
14.242066002051999	2.4831934	1.5758152
14.259729162655093	2.439406	1.5618597
14.277392663824022	2.435538	1.560621
14.295056505998208	2.4344642	1.560277
14.312720689617128	2.4302413	1.5589231
14.330385215120348	2.451954	1.5658716
14.348050082947497	2.4492123	1.564996
14.3657152935383	2.4468648	1.5642458
14.383380847332528	2.4476347	1.5644919
14.401046744770051	2.4088404	1.5520439
14.418712986290798	2.410044	1.5524316
14.436379572334793	2.3924627	1.5467588
14.454046503342123	2.3875895	1.5451827
14.471713779752946	2.3620193	1.5368862
14.489381402007504	2.365637	1.5380628
14.507049370546113	2.354512	1.534442
14.524717685809168	2.3373008	1.5288234
14.542386348237134	2.3206866	1.52338
14.560055358270553	2.326823	1.5253928
14.577724716350051	2.360078	1.5362545
14.595394422916325	2.373271	1.5405425
14.61306447841015	2.4399533	1.562035
14.63073488327237	2.4585145	1.567965
14.648405637943917	2.4670846	1.5706956
14.6660767428658	2.4598515	1.5683913
14.683748198479094	2.486903	1.5769918
14.701420005224954	2.5243428	1.5888181
14.719092163544628	2.6071846	1.6146779
14.73676467387942	2.6454387	1.6264805
14.754437536670727	2.6540177	1.6291156
14.772110752360014	2.6347704	1.6231976
14.78978432138882	2.6551638	1.6294674
14.807458244198777	2.6562145	1.6297897
14.82513252123159	2.6336987	1.6228675
14.842807152929028	2.6627893	1.6318055
14.860482139732962	2.6634674	1.6320133
14.87815748208531	2.7266273	1.6512502
14.8958331804281	2.7263064	1.6511531
14.91350923520342	2.7262397	1.6511328
14.931185646853438	2.7078834	1.6455648
14.948862415820408	2.6568444	1.629983
14.966539542546656	2.6279907	1.6211078
14.98421702747459	2.6019998	1.6130716
15.001894871046696	2.6447735	1.6262759
15.019573073705542	2.6804404	1.6372051
15.037251635893766	2.6815188	1.6375344
15.054930558054092	2.6835883	1.6381661
15.072609840629323	2.7007504	1.643396
15.090289484062351	2.861791	1.6916828
15.107969488796124	3.1493547	1.7746421
15.125649855273691	3.5115576	1.8739151
15.14333058393817	3.9435332	1.9858332
15.161011675232768	4.8744025	2.207805
15.17869312960076	6.2153487	2.49306
15.196374947485506	8.008826	2.829987
15.214057129330447	11.057831	3.3253317
15.231739675579114	15.8418045	3.9801764
15.249422586675102	21.09003	4.592388
15.267105863062092	24.434835	4.9431605
15.284789505183847	25.015179	5.001518
15.302473513484218	23.245636	4.821373
15.320157888407127	19.765936	4.44589
15.337842630396578	15.545065	3.942723
15.355527739896656	12.022926	3.4674091
15.37321321735153	9.2075815	3.0343997
15.39089906320545	6.610097	2.5710108
15.408585277902748	4.8993454	2.2134464
15.42627186188783	3.7923782	1.947403
15.443958815605198	3.2280126	1.7966671
15.461646139499424	2.895535	1.7016271
15.479333834015168	2.6998556	1.6431237
15.497021899597165	2.6419842	1.6254182
15.514710336690234	2.59918	1.6121973
15.53239914573928	2.5479324	1.5962244
15.550088327189297	2.5349207	1.5921434
15.567777881485336	2.5005639	1.5813172
15.58546780907256	2.4929137	1.5788964
15.6031581103962	2.4732647	1.5726616
15.620848785901568	2.4667845	1.5706
15.638539836034063	2.479596	1.5746733
15.656231261239173	2.4339945	1.5601264
15.673923061962451	2.386805	1.5449288
15.691615238649552	2.3570352	1.5352639
15.709307791746202	2.369367	1.5392748
15.727000721698221	2.3944476	1.5474002
15.744694028951498	2.372363	1.5402477
15.76238771395202	2.3335133	1.5275841
15.780081777145844	2.3290565	1.5261247
15.797776218979125	2.3609154	1.536527
15.815471039898094	2.3842475	1.5441009
15.833166240349064	2.399941	1.5491743
15.850861820778437	2.3943825	1.5473793
15.868557781632699	2.4165423	1.5545232
15.886254123358412	2.3673697	1.538626
15.903950846402232	2.3123837	1.5206524
15.921647951210897	2.305028	1.5182319
15.939345438231225	2.3399935	1.5297037
15.957043307910133	2.336285	1.5284911
15.974741560694602	2.3565547	1.5351074
15.992440197031714	2.3968725	1.5481836
16.01013921736862	2.433199	1.5598714
16.02783862215259	2.4250238	1.5572488
16.045538411830933	2.4006553	1.5494049
16.06323858685107	2.3923779	1.5467314
16.080939147660512	2.3956153	1.5477775
16.09864009470684	2.4349277	1.5604255
16.11634142843774	2.4710014	1.571942
16.134043149300954	2.4616318	1.5689588
16.15174525774433	2.4550216	1.5668509
16.169447754215817	2.433927	1.5601048
16.18715063916342	2.417658	1.554882
16.204853913035244	2.409001	1.5520958
16.222557576279478	2.373064	1.5404752
16.240261629344403	22.371008	4.7298
16.257966072678386	42.943966	6.5531645
16.275670906729868	38.04728	6.1682477
16.293376131947387	2.4710371	1.5719533
16.31108174877957	2.5127058	1.5851517
16.328787757675133	2.5669832	1.6021807
16.34649415908287	2.5931077	1.6103129
16.364200953451657	2.6018963	1.6130395
16.38190814123048	2.612207	1.6162323
16.39961572286839	2.6304057	1.6218525
16.41732369881455	2.657605	1.6302162
16.43503206951817	2.6617303	1.631481
16.45274083542859	2.6897418	1.6400433
16.47044999699522	2.7253573	1.6508657
16.488159554667558	2.805765	1.6750418
16.505869508895184	2.8819745	1.6976379
16.523579860127786	2.9500675	1.717576
16.541290608815117	3.0003746	1.7321589
16.559001755407035	3.0113597	1.735327
16.57671330035348	3.05097	1.7467027
16.59442524410448	3.1135406	1.7645228
16.61213758711015	3.1722393	1.7810781
16.629850329820705	3.2049675	1.7902423
16.647563472686436	3.2658758	1.8071735
16.665277016157724	3.3290787	1.8245763
16.682990960685053	3.4130259	1.8474376
16.70070530671898	3.4688199	1.8624768
16.718420054710155	3.4929156	1.8689344
16.736135205109335	3.5482159	1.8836708
16.753850758367335	3.6075225	1.8993479
16.771566714935087	3.6756272	1.9171926
16.789283075263597	3.6936934	1.9218984
16.80699983980398	3.7575433	1.9384384
16.82471700900741	3.8556845	1.9635897
16.84243458332518	3.9034927	1.9757259
16.860152563208665	3.9796207	1.9948987
16.87787094910932	4.0340858	2.0085034
16.89558974147871	4.13938	2.0345466
16.913308940768466	4.159705	2.0395355
16.931028547430333	4.205858	2.050819
16.94874856191613	4.254595	2.062667
16.966468984677785	4.340737	2.0834434
16.98418981616729	4.3758664	2.0918572
17.00191105683676	4.389919	2.0952134
17.019632707138374	4.4295564	2.1046512
17.03735476752442	4.4923544	2.1195176
17.05507723844728	4.5184293	2.1256597
17.072800120359403	4.555312	2.1343176
17.090523413713353	4.6137867	2.1479726
17.108247118961785	4.644258	2.155054
17.125971236557437	4.6751995	2.162221
17.143695766953133	4.658781	2.158421
17.161420710601806	4.6397543	2.1540089
17.179146067956477	4.6636095	2.1595392
17.19687183947025	4.6750345	2.1621828
17.21459802559634	4.6887517	2.1653526
17.232324626788028	4.6722474	2.1615381
17.25005164349871	4.6697936	2.1609704
17.267779076181863	4.665748	2.1600342
17.285506925291074	4.651331	2.1566944
17.30323519127999	4.618479	2.1490645
17.320963874602384	4.6075897	2.1465297
17.33869297571211	4.587978	2.1419566
17.356422495063114	4.519078	2.1258123
17.37415243310944	4.499708	2.1212516
17.391882790305218	4.481398	2.1169312
17.40961356710468	4.523495	2.126851
17.42734476396215	4.561456	2.1357565
17.445076381332044	4.547942	2.1325905
17.462808419668868	4.5435233	2.1315541
17.48054087942723	4.618486	2.1490662
17.498273761061835	4.875302	2.2080085
17.51600706502747	5.3282733	2.3083053
17.533740791779024	6.08429	2.4666355
17.551474941771485	7.42184	2.7243054
17.56920951545993	8.501789	2.9157827
17.586944513299528	10.870054	3.2969766
17.60467993574556	12.810231	3.5791383
17.622415783253373	14.700756	3.8341565
17.64015205627843	16.137049	4.0170946
17.657888755276293	17.330318	4.16297
17.675625880702604	17.906998	4.231666
17.69336343301311	17.75401	4.2135506
17.71110141266366	16.860344	4.106135
17.728839820110178	15.739969	3.967363
17.746578655808705	14.615521	3.8230252
17.764317920215372	12.943529	3.5977116
17.7820576137864	11.29376	3.360619
17.79979773697811	9.169952	3.028193
17.81753829024692	7.189833	2.6813865
17.835279274049356	5.56183	2.3583531
17.85302068884201	4.6329074	2.1524189
17.870762535081607	4.0902376	2.0224335
17.888504813224934	3.8768785	1.968979
17.90624752372891	3.7519586	1.9369973
17.923990667050536	3.6401644	1.9079214
17.941734243646895	3.5280676	1.8783151
17.959478253975185	3.4699059	1.8627683
17.9772226984927	3.4194844	1.8491848
17.994967577656833	3.4134617	1.8475556
18.01271289192506	3.3810608	1.8387661
18.030458641754965	3.3452015	1.8289891
18.04820482760425	3.2670138	1.8074882
18.06595144993067	3.2406216	1.8001727
18.083698509192125	3.2515066	1.8031934
18.101446005846576	3.2933657	1.8147633
18.119193940352105	3.2785358	1.8106728
18.136942313166887	3.2027366	1.7896191
18.1546911247492	3.1547217	1.7761537
18.1724403755574	3.1393075	1.7718091
18.19019006604997	3.14971	1.7747422
18.207940196685467	3.1531286	1.7757051
18.225690767922575	3.0988152	1.7603452
18.243441780220046	3.070649	1.7523267
18.261193234036764	3.0568995	1.7483991
18.278945129831676	3.0581632	1.7487605
18.29669746806386	3.0824609	1.7556938
18.314450249192483	3.0919764	1.7584016
18.3322034736768	3.1050894	1.7621264
18.349957141976184	3.0855715	1.7565795
18.3677112545501	3.0811255	1.7553135
18.385465811858108	3.0332208	1.7416145
18.403220814359884	3.0077145	1.7342764
18.420976262515172	3.0676725	1.7514772
18.43873215678387	3.1450408	1.7734263
18.456488497625923	3.1874576	1.7853452
18.474245285501407	3.248746	1.8024278
18.492002520870486	3.2788558	1.8107611
18.50976020419343	3.3054473	1.8180889
18.527518335930615	3.5622158	1.8873833
18.545276916542516	4.134187	2.0332701
18.563035946489688	4.3222995	2.079014
18.580795426232832	4.787596	2.1880577
18.598555356232698	4.6856914	2.1646457
18.616315736950185	5.011286	2.2385902
18.63407656884626	4.6936646	2.1664867
18.65183785238201	4.9113083	2.2161472
18.669599588018617	4.6714034	2.1613429
18.68736177621737	4.6414294	2.1543977
18.705124417439652	4.5890417	2.1422048
18.72288751214696	4.3962965	2.0967348
18.740651060800886	4.544287	2.1317334
18.758415063863115	4.317352	2.0778239
18.77617952179546	4.4723306	2.1147885
18.793944435059814	4.2038093	2.0503192
18.811709804118184	4.21125	2.052133
18.829475629432675	4.150486	2.0372741
18.8472419114655	3.8975291	1.9742161
18.86500865067897	3.995058	1.9987642
18.88277584753551	3.6887517	1.9206123
18.90054350249763	3.744814	1.9351522
18.918311616027957	3.4252858	1.8507527
18.936080188589226	3.3278768	1.8242469
18.953849220644265	2.9923685	1.7298464
18.971618712656007	2.8275452	1.6815306
18.9893886650875	2.7815506	1.6677982
19.007159078401887	8.014226	2.8309407
19.024929953062408	32.91866	5.7374783
19.042701289532435	32.883602	5.7344227
19.060473088275405	25.407112	5.040547
19.07824534975489	2.633469	1.6227967
19.096018074434568	2.6108856	1.6158235
19.113791262778197	2.6114771	1.6160065
19.13156491524966	2.6137075	1.6166965
19.149339032312945	2.567615	1.6023779
19.167113614432136	2.5395398	1.5935934
19.184888662071433	2.5350668	1.5921893
19.202664175695123	2.5494928	1.5967132
19.220440155767623	2.5699778	1.603115
19.238216602753447	2.56197	1.6006155
19.2559935171172	2.5104876	1.5844518
19.27377089932361	2.4618585	1.5690311
19.291548749837514	2.476508	1.5736924
19.309327069123835	2.5265448	1.5895109
19.32710585764763	2.5163076	1.5862874
19.344885115874032	2.4978538	1.58046
19.362664844268313	2.4922578	1.5786886
19.380445043295822	2.5181866	1.5868795
19.39822571342203	2.5037382	1.5823205
19.41600685511252	2.492886	1.5788876
19.43378846883297	2.476913	1.5738212
19.451570555049173	2.477998	1.5741658
19.469353114227037	2.498351	1.5806173
19.48713614683254	2.537794	1.5930456
19.50491965333182	2.522844	1.5883464
19.52270363419109	2.489746	1.5778929
19.540488089876686	2.4290752	1.558549
19.55827302085503	2.4547446	1.5667624
19.576058427592674	2.5152898	1.5859665
19.593844310556282	2.5440733	1.5950152
19.611630670212598	2.4906213	1.5781703
19.629417507028506	2.4371934	1.5611513
19.64720482147098	2.4410758	1.5623943
19.6649926140071	2.4945772	1.5794231
19.682780885104084	2.4979606	1.5804938
19.70056963522921	2.4690962	1.5713358
19.718358864849908	2.4924688	1.5787555
19.7361485744337	2.5091574	1.584032
19.753938764448215	2.5175316	1.5866731
19.771729435361202	2.4923022	1.5787027
19.789520587640506	2.478208	1.5742326
19.807312221754092	2.4804647	1.5749491
19.825104338170043	2.4875937	1.5772107
19.842896937356517	2.4765213	1.5736967
19.860690019781824	2.4657607	1.5702741
19.87848358591436	2.504124	1.5824424
19.896277636222635	2.5263503	1.5894496
19.914072171175278	2.547433	1.5960679
19.931867191241015	2.5501592	1.5969218
19.94966269688869	2.514812	1.5858159
19.967458688587264	2.4779701	1.574157
19.985255166805807	2.4361374	1.5608131
20.00305213201348	2.4521835	1.5659449
20.020849584679578	2.461718	1.5689863
20.038647525273507	2.4296277	1.5587263
20.05644595426477	2.4105823	1.552605
20.07424487212299	2.3833752	1.5438184
20.092044279317903	2.422309	1.5563768
20.109844176319353	2.4563394	1.5672714
20.127644563597304	2.438418	1.5615435
20.145445441621817	2.4048612	1.5507615
20.16324681086307	2.3753762	1.5412256
20.181048671791373	2.3713062	1.5399046
20.198851024877122	2.3720422	1.5401436
20.216653870590836	2.3997893	1.5491253
20.234457209403146	2.4076498	1.5516603
20.252261041784802	2.401412	1.549649
20.270065368206662	2.388486	1.5454727
20.287870189139685	2.3631344	1.537249
20.305675505054968	2.3339646	1.5277319
20.323481316423702	2.3321576	1.5271404
20.341287623717207	2.3353295	1.5281785
20.359094427406884	2.371973	1.5401211
20.376901727964288	2.3672037	1.538572
20.39470952586107	2.3846805	1.5442411
20.41251782156899	2.353218	1.5340202
20.430326615559935	2.3348222	1.5280125
20.448135908305886	2.3163664	1.5219613
20.465945700278965	2.3623655	1.5369989
20.483755991951384	2.3815799	1.5432369
20.50156678379548	2.3543882	1.5344015
20.519378076283708	2.317767	1.5224214
20.537189869888635	2.310437	1.5200121
20.55500216508294	2.331436	1.526904
20.572814962339415	2.3116834	1.5204221
20.59062826213098	2.2951865	1.5149873
20.60844206493066	2.3168197	1.5221102
20.626256371211593	2.3242354	1.5245444
20.644071181447032	2.3161924	1.5219042
20.66188649611036	2.296883	1.5155472
20.67970231567506	2.2693727	1.5064437
20.697518640614742	2.2783654	1.5094255
20.715335471403122	2.2664335	1.5054679
20.73315280851404	2.2907746	1.5135305
20.750970652421447	2.3021553	1.5172855
20.768789003599412	2.3399525	1.5296903
20.786607862522136	2.3093367	1.5196502
20.8044272296639	2.2970183	1.5155917
20.82224710549913	2.295542	1.5151047
20.84006749050237	2.2997751	1.516501
20.857888385148268	3.805294	1.9507163
20.8757097899116	45.9172	6.776223
20.893531705267254	64.778915	8.048535
20.911354131690224	83.819496	9.155299
20.92917706965566	69.07655	8.311231
20.94700051963877	50.163166	7.082596
20.96482448211493	29.433872	5.425299
20.982648957559622	4.204415	2.050467
21.00047394644843	2.260244	1.5034107
21.01829944925707	2.2196898	1.4898623
21.036125466461375	2.180813	1.4767576
21.053951998537297	2.1576085	1.46888
21.071779045960906	2.194022	1.4812231
21.089606609208378	2.2331064	1.4943582
21.10743468875603	2.2488582	1.4996194
21.12526328508028	2.2048671	1.4848795
21.143092398657675	2.1993341	1.4830152
21.16092202996488	2.2029316	1.4842277
21.17875217947867	2.2320654	1.4940099
21.19658284767596	2.2110577	1.4869626
21.21441403503377	2.2104745	1.4867665
21.232245742029225	2.192345	1.4806569
21.2500779691396	2.2018523	1.483864
21.26791071684227	2.19202	1.4805472
21.28574398561475	2.1769662	1.4754546
21.30357777593465	2.1968658	1.4821827
21.321412088279704	2.184399	1.4779712
21.339246923127792	2.153693	1.4675466
21.357082280956888	2.1509767	1.4666208
21.3749181622451	2.1461265	1.4649664
21.392754567470647	2.1150532	1.4543222
21.41059149711187	2.1127295	1.4535232
21.42842895164726	2.1113415	1.4530456
21.446266931555378	2.163376	1.470842
21.464105437314945	2.1682496	1.4724977
21.481944469404798	2.1652308	1.4714723
21.49978402830388	2.1244683	1.4575557
21.51762411449127	2.1058717	1.4511622
21.53546472844617	2.0992823	1.44889
21.553305870647876	2.0960863	1.4477867
21.571147541575865	2.0991135	1.4488318
21.58898974170967	2.1068778	1.4515088
21.60683247152899	2.1128368	1.4535601
21.62467573151363	2.0895188	1.4455168
21.642519522143523	2.0661757	1.4374198
21.660363843898722	2.0884206	1.4451369
21.6782086972594	2.1168432	1.4549376
21.696054082705864	2.0894585	1.445496
21.713900000718535	2.0428138	1.4292704
21.73174645177795	2.0233622	1.4224494
21.749593436364794	2.0534844	1.4329984
21.767440954959845	2.0475466	1.4309251
21.785289008044032	2.0277097	1.4239768
21.803137596098388	2.0144527	1.4193141
21.820986719604086	2.0389106	1.4279042
21.838836379042412	2.0409827	1.4286296
21.85668657489478	2.0347686	1.4264531
21.87453730764273	1.9722295	1.4043609
21.892388577767914	1.9739352	1.404968
21.91024038575213	1.9601213	1.4000434
21.928092732077285	1.9742069	1.4050647
21.945945617225426	1.9737666	1.4049081
21.963799041678694	1.9848094	1.4088327
21.981653005919398	31.30143	5.594768
21.999507510429943	78.118	8.838439
22.01736255569286	73.06701	8.547924
22.035218142190818	4.1744475	2.0431464
22.05307427040661	1.9761362	1.4057511
22.07093094082315	1.973331	1.404753
22.088788153923474	1.9698802	1.4035242
22.106645910190746	1.9768825	1.4060165
22.12450421010827	1.9757497	1.4056137
22.142363054159464	1.9879605	1.4099505
22.16022244282787	1.9790313	1.4067805
22.178082376597164	2.009402	1.4175338
22.195942855951145	2.008034	1.4170512
22.213803881373742	1.9952865	1.412546
22.231665453349002	1.9487662	1.3959821
22.24952757236111	1.9240254	1.3870925
22.26739023889438	1.9148332	1.383775
22.28525345343323	1.9308075	1.389535
22.30311721646225	1.9604616	1.4001648
22.320981528466113	1.97066	1.4038019
22.33884638992964	1.9760389	1.4057165
22.356711801337788	1.9572049	1.3990014
22.37457776317561	1.9402663	1.3929344
22.392444275928337	1.9335315	1.3905149
22.410311340081282	1.9781815	1.4064784
22.428178956119904	1.9863008	1.4093618
22.446047124529805	1.9625546	1.400912
22.46391584579669	1.9379296	1.3920954
22.481785120406414	1.9490452	1.396082
22.49965494884496	1.973728	1.4048942
22.51752533159841	2.0272672	1.4238213
22.53539626915302	2.0105393	1.4179349
22.553267761995137	1.9719982	1.4042785
22.571139810611264	1.943319	1.3940297
22.589012415488025	1.9460706	1.3950163
22.60688557711216	1.9768751	1.4060138
22.624759295970566	1.9621761	1.400777
22.642633572550263	1.9182494	1.3850088
22.660508407338362	1.8889402	1.3743873
22.67838380082217	1.8849329	1.3729286
22.696259753489077	1.8875709	1.373889
22.714136265826614	1.8874267	1.3738365
22.73201333832246	1.8874167	1.3738328
22.74989097146439	1.9416826	1.3934427
22.76776916574035	1.9713866	1.4040607
22.785647921638393	1.9657549	1.4020538
22.803527239646712	1.9118692	1.3827035
22.82140712025363	1.9032149	1.3795706
22.839287563947593	1.9122761	1.3828508
22.85716857121719	1.9308386	1.3895462
22.875050142551135	1.9096805	1.3819119
22.892932278438277	1.91586	1.384146
22.910814979367604	1.9072962	1.3810489
22.928698245828222	1.9042121	1.3799319
22.946582078309387	1.8774298	1.3701934
22.96446647730047	1.8536452	1.3614864
22.98235144329098	1.821495	1.3496277
23.000236976770562	1.8217615	1.3497264
23.018123078229	1.8570031	1.362719
23.03600974815619	1.8851945	1.3730239
23.053896987042194	1.9259192	1.387775
23.071784795377173	1.9257283	1.3877062
23.08967317365145	1.9202272	1.3857226
23.10756212235546	1.9030641	1.3795159
23.125451641979787	1.9235284	1.3869133
23.143341733015134	1.9384837	1.3922944
23.161232395952357	1.9586198	1.399507
23.179123631282426	1.935348	1.3911679
23.197015439496468	1.9235178	1.3869095
23.214907821085717	1.9548777	1.3981694
23.23280077654157	1.9607502	1.400268
23.250694306355538	1.9589742	1.3996336
23.268588411019277	1.9433312	1.3940341
23.28648309102458	1.9177356	1.3848233
23.304378346863356	1.9335607	1.3905253
23.322274179027676	1.96011	1.4000393
23.340170588009723	2.0013368	1.4146861
23.358067574301852	1.9889951	1.4103174
23.37596513839651	1.954414	1.3980036
23.39386328078629	1.92399	1.3870797
23.411762001963947	1.9038061	1.3797848
23.429661302422353	1.9032267	1.3795749
23.4475611826545	1.9104184	1.3821789
23.46546164315356	1.9184855	1.385094
23.48336268441279	1.9401859	1.3929056
23.501264306925638	1.9319459	1.3899446
23.51916651118564	1.9705184	1.4037515
23.537069297686497	1.9269369	1.3881415
23.554972666922037	1.8851361	1.3730026
23.57287661938623	1.8897899	1.3746963
23.59078115557318	1.884063	1.3726118
23.608686275977128	1.850043	1.3601629
23.62659198109246	1.8402197	1.356547
23.6444982714137	1.8889743	1.3743997
23.66240514743549	1.9216412	1.3862327
23.68031260965263	1.9050785	1.3802458
23.698220658560068	1.9011991	1.3788397
23.716129294652845	1.9053516	1.3803447
23.7340385184262	1.9043925	1.3799973
23.75194833037546	1.8816121	1.3717186
23.769858730996123	1.8761172	1.3697143
23.78776972078382	1.8809505	1.3714775
23.80568130023431	1.8616127	1.3644093
23.823593469843495	1.8830546	1.3722444
23.841506230107424	1.9449513	1.394615
23.859419581522275	1.9833232	1.408305
23.87733352458438	1.9781849	1.4064796
23.89524805979019	1.9723822	1.4044152
23.913163187636318	1.975209	1.4054213
23.931078908619508	1.9378364	1.392062
23.948995223236633	1.9410398	1.3932121
23.966912131984735	1.9381907	1.3921891
23.98482963536096	1.9929879	1.4117322
24.002747733862616	2.019165	1.4209733
24.020666427987155	2.006297	1.4164382
24.038585718232156	2.0012338	1.4146497
24.056505605095353	2.0056458	1.4162083
24.074426089074617	2.070035	1.4387616
24.092347170667946	2.0828385	1.4432043
24.110268850373515	2.0732982	1.4398952
24.128191128689586	2.045341	1.4301542
24.146114006114626	2.0138032	1.4190854
24.164037483147187	2.050756	1.432046
24.181961560286005	2.0711339	1.4391434
24.199886238029926	2.048511	1.431262
24.21781151687797	2.0620198	1.4359735
24.235737397329274	2.0539072	1.4331459
24.253663879883135	2.0252419	1.4231099
24.271590965038975	2.011793	1.4183768
24.289518653296376	2.0089624	1.4173787
24.30744694515505	2.0321205	1.4255246
24.32537584111486	2.0375571	1.4274303
24.34330534167581	2.049715	1.4316826
24.361235447338046	2.0792775	1.44197
24.379166158601876	2.0281029	1.4241148
24.39709747596772	1.9868302	1.4095497
24.41502939993615	1.9554656	1.3983796
24.432961931007917	1.945984	1.3949853
24.450895069683856	1.9080733	1.3813303
24.468828816465	1.9225011	1.3865428
24.4867631718525	1.9584442	1.3994442
24.504698136347656	2.0121415	1.4184997
24.52263371045192	2.0049384	1.4159584
24.540569894666874	1.9902002	1.4107445
24.558506689494266	1.9359608	1.391388
24.57644409543597	1.951118	1.3968242
24.594382112994012	1.928364	1.3886554
24.61232074267057	1.9278835	1.3884825
24.630259984967953	1.9222866	1.3864655
24.64819984038863	1.9767134	1.4059564
24.66614030943522	2.030333	1.4248976
24.684081392610462	2.0016477	1.414796
24.702023090417274	1.9874703	1.4097767
24.7199654033587	2.0073626	1.4168142
24.737908331937927	2.051963	1.4324675
24.755851876658305	2.0325475	1.4256744
24.773796038023324	2.0529013	1.4327949
24.79174081653661	2.1298306	1.4593939
24.809686212701962	2.138271	1.4622828
24.827632227023294	2.1129272	1.4535911
24.8455788600047	2.0961685	1.4478151
24.8635261121504	2.1104584	1.4527416
24.88147398396475	2.1220403	1.4567225
24.899422475952303	2.1036398	1.450393
24.917371588617698	2.0742126	1.4402127
24.935321322465768	2.1398091	1.4628086
24.953271678001478	2.2500727	1.5000242
24.97122265572994	2.4393003	1.561826
24.989174256156414	2.7610102	1.6616287
25.00712647978632	3.1943088	1.7872629
25.02507932712521	3.8256574	1.9559288
25.043032798678798	4.4414945	2.1074853
25.060986894952933	5.2031326	2.2810376
25.078941616453637	5.986228	2.446677
25.096896963687055	6.9904656	2.6439488
25.114852937159508	8.080574	2.8426352
25.132809537377444	8.598524	2.932324
25.150766764847468	8.669156	2.944343
25.168724620076347	8.00806	2.8298516
25.186683103570985	6.832199	2.6138475
25.204642215838426	5.5225654	2.350014
25.222601957385894	4.1893697	2.046795
25.24056232872074	3.2264183	1.7962233
25.25852333035048	2.652453	1.6286353
25.276484962782778	2.3081317	1.5192536
25.294447226525435	2.1578357	1.4689573
25.312410122086423	2.0471952	1.4308023
25.330373649973843	1.9712586	1.4040152
25.348337810695988	1.908054	1.3813232
25.366302604761245	1.885356	1.3730826
25.384268032678207	1.8773695	1.3701713
25.40223409495558	1.8657207	1.3659139
25.420200792102257	1.8821521	1.3719155
25.438168124627246	1.9101458	1.3820802
25.45613609303974	1.9366195	1.3916248
25.474104697849057	1.9392849	1.392582
25.492073939564698	1.9016242	1.3789939
25.510043818696285	1.8662755	1.366117
25.528014335753614	1.8351378	1.3546726
25.54598549124664	1.837128	1.355407
25.56395728568544	1.8798803	1.3710873
25.58192971958028	1.8930093	1.3758668
25.59990279344156	1.8982745	1.3777789
25.617876507779833	1.8922747	1.3755997
25.635850863105826	1.9112053	1.3824635
25.653825859930386	1.9143271	1.3835921
25.671801498764548	1.9179229	1.3848909
25.68977778011949	1.9089427	1.381645
25.707754704506524	1.8626504	1.3647895
25.725732272437153	1.8217058	1.3497058
25.743710484423012	1.776363	1.3328027
25.761689340975888	1.8069453	1.3442267
25.77966884260774	1.8450543	1.3583277
25.797648989830662	1.8640238	1.3652925
25.815629783156922	1.852777	1.3611676
25.83361122309895	1.8472313	1.3591288
25.85159331016929	1.8467221	1.3589416
25.869576044880695	1.809061	1.3450134
25.887559427746034	1.7965983	1.3403724
25.90554345927836	1.8041459	1.343185
25.92352813999086	1.820277	1.3491764
25.94151347039689	1.8130684	1.3465023
25.959499451009965	1.8334403	1.3540459
25.97748608234374	1.8073881	1.3443913
25.995473364912062	1.8584042	1.363233
26.013461299228904	1.8802911	1.371237
26.03144988580839	1.8548634	1.3619337
26.04943912516483	1.7874984	1.3369735
26.067429017812675	1.7802799	1.3342713
26.085419564266537	1.7543966	1.3245363
26.103410765041186	1.7349466	1.3171737
26.12140262065155	1.7522825	1.3237381
26.139395131612723	1.8097099	1.3452545
26.157388298439948	1.8399699	1.3564548
26.17538212164861	1.8258597	1.3512437
26.193376601754295	1.8120639	1.3461293
26.211371739272714	1.8087307	1.3448906
26.229367534719746	1.8029039	1.3427225
26.247363988611433	1.79481	1.3397052
26.26536110146397	1.7768489	1.3329849
26.283358873793727	1.7540892	1.3244203
26.301357306117204	1.7597797	1.3265669
26.319356398951104	1.8026282	1.3426199
26.33735615281224	1.8181498	1.3483878
26.35535656821762	1.791747	1.3385615
26.373357645684404	1.8277264	1.3519343
26.39135938572991	1.8539108	1.361584
26.409361788871614	1.8224543	1.3499831
26.427364855627165	1.8075341	1.3444457
26.445368586514352	1.8083332	1.3447428
26.46337298205115	1.8024198	1.3425423
26.48137804275568	1.7759724	1.3326561
26.499383769146217	1.8076955	1.3445057
26.517390161741215	1.8406429	1.3567029
26.53539722105928	1.8961931	1.3770233
26.553404947619182	1.9091177	1.3817083
26.571413341939856	1.8630207	1.3649251
26.589422404540397	1.8280917	1.3520694
26.60743213594006	1.8568616	1.3626671
26.62544253665827	1.8649061	1.3656156
26.64345360721459	1.8479242	1.3593838
26.66146534812879	1.8136642	1.3467236
26.679477759920758	1.794537	1.3396033
26.69749084311057	1.7812884	1.3346492
26.71550459821847	1.8027638	1.3426704
26.733519025764842	1.840934	1.3568102
26.751534126270258	1.8498385	1.3600876
26.769549900255434	1.8425205	1.3573947
26.787566348241267	1.8237652	1.3504685
26.80558347074881	1.8133233	1.346597
26.823601268299267	1.780256	1.3342624
26.841619741414036	1.7600011	1.3266503
26.85963889061465	1.7659671	1.328897
26.877658716422832	1.8136919	1.3467338
26.89567921936045	1.8384138	1.3558812
26.913700399949544	1.8576602	1.3629601
26.93172225871233	1.8350015	1.3546222
26.949744796171174	1.774502	1.3321043
26.967768012848605	1.7739817	1.3319091
26.98579190926733	1.7655671	1.3287464
27.003816485950225	1.7771834	1.3331105
27.021841743420318	1.771536	1.3309906
27.039867682200814	1.7876486	1.3370297
27.057894302815072	1.8195244	1.3488975
27.07592160578664	1.8634186	1.3650709
27.0939495916392	1.8188181	1.3486357
27.111978260896635	1.7727351	1.331441
27.13000761408296	1.8026675	1.3426346
27.148037651722397	1.8212676	1.3495435
27.166068374339304	1.8012139	1.3420931
27.184099782458215	1.772536	1.3313662
27.20213187660384	1.7924149	1.338811
27.22016465730105	1.8057355	1.3437766
27.23819812507487	1.8015174	1.3422061
27.256232280450533	1.804563	1.3433403
27.274267123953383	1.8335711	1.3540941
27.292302656108987	1.8513435	1.3606409
27.31033887744306	1.8188955	1.3486643
27.32837578848146	1.7982746	1.3409976
27.34641338975026	1.8137696	1.3467627
27.364451681775673	1.85409	1.3616498
27.382490665084074	1.8637066	1.3651764
27.400530340202046	1.8413129	1.3569498
27.41857070765629	1.8203872	1.3492173
27.436611767973726	1.7856771	1.3362923
27.454653521681404	1.7835547	1.3354979
27.472695969306564	1.842164	1.3572634
27.490739111376627	1.858436	1.3632447
27.508782948419153	1.860933	1.3641602
27.526827480961902	1.8658499	1.3659612
27.54487270953279	1.8437358	1.3578423
27.562918634659898	1.7768826	1.3329976
27.580965256871508	1.7985773	1.3411105
27.599012576696026	1.8263935	1.3514413
27.617060594662068	1.8211067	1.3494838
27.63510931129842	1.8184642	1.3485044
27.65315872713401	1.823094	1.35022
27.67120884269797	1.826241	1.3513849
27.68925965851958	1.8173891	1.3481058
27.707311175128307	1.8086828	1.3448728
27.725363393053787	1.8740063	1.3689435
27.74341631282583	1.8702065	1.3675549
27.7614699349744	1.865623	1.3658781
27.77952426002968	2.0407517	1.4285488
27.797579288521973	2.1536808	1.4675424
27.815635020981784	2.4738212	1.5728385
27.83369145793979	2.44888	1.5648898
27.85174859992682	2.3516593	1.5335121
27.869806447473923	2.2830265	1.5109687
27.887865001112267	2.0449853	1.4300299
27.905924261373233	1.922007	1.3863647
27.92398422878836	1.8844601	1.3727564
27.94204490388936	1.8909253	1.3751092
27.96010628720813	1.9036957	1.3797448
27.978168379276728	1.8309685	1.3531328
27.9962311806274	1.814579	1.3470631
28.014294691792568	1.8445896	1.3581567
28.0323589133048	1.886734	1.3735844
28.050423845696887	1.906229	1.3806626
28.068489489501758	1.8947299	1.3764919
28.086555845252523	1.8772457	1.3701261
28.104622913482487	1.8937178	1.3761241
28.122690694725115	1.8511777	1.36058
28.14075918951405	1.8839468	1.3725694
28.15882839838312	1.9143952	1.3836167
28.176898321866304	1.9351679	1.3911031
28.1949689604978	1.946444	1.3951502
28.213040314811945	1.9428854	1.3938743
28.23111238534327	1.9349504	1.391025
28.249185172626493	1.9048982	1.3801805
28.267258677196473	1.8895675	1.3746154
28.285332899588294	1.9598104	1.3999323
28.303407840337172	1.9763744	1.4058359
28.321483499978545	1.8941984	1.3762988
28.33955987904799	1.8646127	1.3655082
28.357636978081285	1.8838496	1.372534
28.37571479761439	1.9188724	1.3852336
28.393793338183425	1.9577907	1.3992108
28.41187260032469	1.923231	1.386806
28.429952584574686	1.9447287	1.3945353
28.448033291470065	1.9586103	1.3995036
28.46611472154769	1.9346564	1.3909192
28.484196875344566	1.9223235	1.3864788
28.502279753397914	1.9663154	1.4022536
28.52036335624511	2.0055754	1.4161834
28.538447684423716	1.9724251	1.4044305
28.556532738471482	1.971363	1.4040524
28.574618518926325	1.951368	1.3969138
28.59270502632635	1.951148	1.396835
28.61079226120985	2.0340576	1.426204
28.628880224115274	2.075249	1.4405724
28.646968915581287	2.0670433	1.4377216
28.66505833614671	2.0716794	1.439333
28.68314848635055	2.127786	1.4586933
28.701239366732004	2.1555407	1.468176
28.71933097783044	2.1805	1.4766517
28.737423320185403	2.1787941	1.4760739
28.75551639433665	2.1264014	1.4582186
28.773610200824074	2.1446922	1.4644767
28.791704740187793	2.159403	1.4694908
28.80980001296809	2.1242073	1.457466
28.827896019705413	2.122161	1.4567639
28.845992760940433	2.0995502	1.4489825
28.86409023721397	2.103166	1.4502296
28.88218844906704	2.1577115	1.4689151
28.900287397040845	2.2125227	1.4874551
28.918387081676755	2.2437654	1.4979204
28.936487503516343	2.2592046	1.5030651
28.954588663101365	2.2748544	1.508262
28.97269056097374	2.295856	1.5152082
28.990793197675597	2.28172	1.5105363
29.00889657374923	2.2707798	1.5069107
29.027000689737125	2.384982	1.5443387
29.04510554618196	2.4513147	1.5656675
29.06321114362659	2.4171515	1.5547191
29.08131748261405	2.3463469	1.5317789
29.099424563687567	2.401914	1.5498109
29.11753238739057	2.4928966	1.5788909
29.13564095426663	2.5378358	1.5930586
29.15375026485954	2.523539	1.5885651
29.171860319713275	2.5230138	1.5883998
29.18997111937199	2.539261	1.5935059
29.20808266438002	2.6486974	1.6274819
29.226194955281898	2.788307	1.6698225
29.244307992622335	2.8445156	1.6865692
29.26242177694624	2.8737378	1.6952102
29.2805363087987	2.88109	1.6973773
29.29865158872498	2.8011756	1.6736712
29.316767617270557	2.7843912	1.6686496
29.334884394981064	2.9193234	1.7086028
29.353001922402367	3.0589523	1.7489861
29.37112020008047	3.1233118	1.7672894
29.389239228561596	3.1692958	1.7802516
29.407359008392152	3.3470945	1.8295066
29.42547954011872	3.7112556	1.9264619
29.44360082428809	4.3381634	2.082826
29.46172286144722	5.3941236	2.3225253
29.479845652143283	6.9301953	2.6325264
29.497969196923606	9.068372	3.0113738
29.516093496335728	11.805477	3.43591
29.5342185509274	14.895349	3.8594491
29.55234436124651	17.518011	4.1854525
29.570470927841175	19.17612	4.3790545
29.588598251259686	19.007973	4.359813
29.60672633205055	17.468416	4.1795235
29.624855170762405	14.997638	3.8726783
29.642984767944146	12.133745	3.4833527
29.66111512414481	9.282973	3.0467973
29.67924623991366	6.8691993	2.6209157
29.697378115800138	5.172955	2.274413
29.71551075235387	4.147073	2.0364363
29.733644150124675	3.685655	1.919806
29.751778309662576	3.4849951	1.8668141
29.769913231517766	3.3987422	1.8435678
29.78804891624066	3.3239777	1.8231779
29.806185364381818	3.28404	1.8121921
29.82432257649206	3.2507145	1.8029737
29.842460553122333	3.2341197	1.7983658
29.86059929482382	3.2664294	1.8073266
29.878738802147872	3.2860641	1.8127505
29.896879075646048	3.2686598	1.8079436
29.915020115870114	3.2457166	1.8015872
29.933161923371976	3.1601572	1.7776831
29.951304498703777	3.1322448	1.769815
29.969447842417857	3.1400833	1.772028
29.987591955066733	3.2047741	1.7901883
30.005736837203123	3.2076921	1.7910031
30.023882489379943	3.1751409	1.7818925
30.04202891215028	3.1562994	1.7765977
30.060176106067455	3.1960578	1.7877522
30.078324071684946	3.1382518	1.7715112
30.09647280955646	3.140516	1.7721502
30.114622320235863	3.1313357	1.7695581
30.132772604277257	3.119965	1.7663423
30.1509236622349	3.115648	1.7651198
30.16907549466328	3.1206608	1.7665392
30.18722810211705	3.091437	1.7582483
30.205381485151097	3.0603893	1.7493968
30.22353564432045	3.0237155	1.7388834
30.241690580180403	3.0553262	1.7479491
30.25984629328638	3.0203173	1.737906
30.278002784194037	2.984172	1.7274756
30.296160053459246	2.9872792	1.7283747
30.314318101638033	2.999586	1.7319313
30.332476929286646	2.9220502	1.7094005
30.35063653696153	2.9630344	1.7213467
30.368796925219307	2.9927063	1.729944
30.386958094616844	2.9372203	1.713832
30.40512004571115	2.872067	1.6947174
30.423282779059463	2.885301	1.6986175
30.441446295219233	2.8517692	1.6887182
30.459610594748067	2.8661547	1.6929722
30.47777567820382	2.8538842	1.6893443
30.495941546144504	2.7835505	1.6683975
30.51410819912835	2.761062	1.6616443
30.532275637713795	2.7739108	1.6655061
30.55044386245946	2.8494053	1.6880182
30.56861287392416	2.8764474	1.6960093
30.586782672666956	2.841299	1.6856153
30.604953259247047	2.7980816	1.6727468
30.623124634223885	2.8383853	1.6847508
30.641296798157075	2.8538637	1.6893382
30.659469751606462	2.8318884	1.6828215
30.677643495132074	2.8146527	1.6776927
30.695818029294152	2.8288512	1.6819189
30.713993354653116	2.7615764	1.6617992
30.73216947176962	2.7175567	1.6485014
30.75034638120448	2.7421281	1.6559372
30.768524083518756	2.7684286	1.6638595
30.786702579273673	2.7215188	1.6497027
30.80488186903069	2.7508192	1.6585593
30.82306195335144	2.9028666	1.70378
30.841242832797782	3.1399767	1.7719979
30.85942450793176	3.5042994	1.8719774
30.877606979315637	3.8703814	1.9673284
30.895790247511883	4.245689	2.060507
30.913974313083134	4.631583	2.1521113
30.932159176592283	4.926015	2.2194626
30.95034483860237	4.9372	2.221981
30.968531299676698	4.793265	2.1893525
30.98671856037873	4.4899545	2.1189513
31.00490662127215	4.138745	2.0343904
31.023095482920848	3.7123837	1.9267547
31.04128514588892	3.1512733	1.7751826
31.059475610740662	2.761434	1.6617563
31.07766687804056	2.5953991	1.6110243
31.09585894835335	2.4921222	1.5786457
31.11405182224393	2.4873278	1.5771264
31.132245500277417	2.4869673	1.5770122
31.15043998301914	2.5145037	1.5857186
31.168635271034628	2.5252311	1.5890976
31.18683136488964	2.502304	1.5818672
31.20502826515008	2.487979	1.5773329
31.223225972382135	2.392158	1.5466603
31.241424487152155	2.3988433	1.54882
31.259623810026692	2.5206902	1.5876682
31.27782394157253	2.537038	1.5928082
31.296024882356644	2.4753344	1.5733196
31.314226632946237	2.4730282	1.5725864
31.332429193908684	2.4370778	1.5611143
31.350632565811598	2.3993714	1.5489905
31.368836749222787	2.379976	1.5427171
31.387041744710295	2.4556372	1.5670472
31.40524755284232	2.524022	1.5887171
31.423454174187317	2.5228343	1.5883433
31.441661609313922	2.54081	1.5939919
31.459869858791002	2.5026298	1.5819702
31.478078923187628	2.3963072	1.548001
31.496288803073064	2.3363917	1.528526
31.514499499016807	2.3653994	1.5379854
31.532711011588546	2.3598065	1.5361662
31.550923341358178	2.3495579	1.5328268
31.56913648889584	2.3497083	1.5328758
31.587350454771844	2.3525667	1.5338079
31.605565239556732	2.2968712	1.5155432
31.62378084382127	2.3009117	1.5168756
31.641997268136382	2.3282776	1.5258695
31.660214513073274	2.3067815	1.5188092
31.67843257920331	2.322266	1.5238984
31.6966514670981	2.3785224	1.5422459
31.71487117732944	2.4598813	1.5684009
31.733091710469346	2.3760273	1.5414368
31.751313067090052	2.3044338	1.5180361
31.769535247764008	2.3335714	1.5276031
31.787758253063878	2.2597554	1.5032482
31.805982083562526	2.1644087	1.471193
31.824206739833024	2.092905	1.4466876
31.84243222244869	2.1758027	1.4750602
31.860658531983013	2.246313	1.4987705
31.878885669009737	2.2812161	1.5103695
31.897113634102784	2.2624366	1.5041398
31.91534242783632	2.2565365	1.5021772
31.933572050784694	2.2227192	1.4908787
31.951802503522508	2.2186413	1.4895104
31.970033786624548	2.2243497	1.4914254
31.988265900665834	2.2564507	1.5021486
32.006498846221575	2.2524304	1.5008099
32.02473262386724	2.2760832	1.5086694
32.04296723417845	2.1895223	1.4797034
32.0612026777311	2.1437132	1.4641424
32.07943895510129	2.1518984	1.466935
32.097676066865304	2.121198	1.4564333
32.115914013599685	2.0980518	1.4484653
32.13415279588115	2.169932	1.4730688
32.152392414286666	2.2507675	1.5002558
32.1706328693934	2.1789343	1.4761214
32.18887416177875	2.178095	1.4758371
32.20711629202032	2.171297	1.4735322
32.225359260695924	2.1902363	1.4799447
32.243603068383614	2.123611	1.4572614
32.26184771566166	2.0924454	1.4465287
32.28009320310852	2.12341	1.4571925
32.2983395313029	2.1311903	1.4598597
32.31658670082372	2.132378	1.4602665
32.33483471225012	2.1753244	1.4748981
32.35308356616143	2.1312559	1.4598821
32.371333263137245	2.0477078	1.4309814
32.38958380375734	2.0140116	1.4191588
32.407835188601744	2.1664774	1.4718958
32.42608741825067	2.238118	1.496034
32.444340493284585	2.2240052	1.4913099
32.46259441428416	2.1565726	1.4685273
32.48084918183028	2.0603976	1.4354085
32.49910479650405	2.0679853	1.4380491
32.51736125888683	2.0602973	1.4353735
32.53561856956014	2.0804994	1.4423937
32.5538767291058	2.1060512	1.4512241
32.572135738105764	2.049271	1.4315275
32.59039559714228	1.9393464	1.3926042
32.608656306797776	1.9792641	1.4068632
32.62691786765491	2.1119459	1.4532535
32.645180280296586	2.1273673	1.4585497
32.663443545305896	2.083985	1.4436015
32.68170766326619	2.0044527	1.415787
32.69997263476099	2.013215	1.4188781
32.7182384603741	2.0714383	1.4392493
32.7365051406895	2.0990329	1.4488039
32.75477267629144	2.0330286	1.4258431
32.77304106776434	2.0100768	1.4177718
32.79131031569289	1.9333023	1.3904324
32.809580420661966	1.8961247	1.3769984
32.827851383256714	1.9142405	1.3835608
32.84612320406245	1.8901054	1.374811
32.86439588366476	1.8382337	1.3558148
32.88266942264945	1.9137309	1.3833766
32.9009438216025	1.8574553	1.3628849
32.9192190811102	1.8727732	1.3684931
32.937495201758985	1.8895738	1.3746177
32.95577218413556	1.9027594	1.3794055
32.974050028826866	1.8602043	1.363893
32.992328736420035	1.8916171	1.3753607
33.010608307502444	1.9443455	1.3943979
33.02888874266169	1.984054	1.4085644
33.047170042485604	1.9996659	1.4140954
33.06545220756225	1.9912629	1.4111211
33.083735238479896	1.9906757	1.4109131
33.10201913582707	1.9684899	1.4030288
33.12030390019248	1.9430611	1.3939372
33.138589532165135	1.9540654	1.3978789
33.15687603233419	1.855262	1.3620801
33.17516340128909	1.8214804	1.3496224
33.19345163961947	1.8472183	1.3591241
33.211740747915215	1.8564696	1.3625233
33.23003072676643	2.0521224	1.4325231
33.248321576763466	2.0792174	1.4419491
33.266613298496885	2.0306642	1.4250138
33.28490589255747	2.0236893	1.4225644
33.30319935953626	1.9826604	1.4080697
33.32149370002451	1.9352283	1.3911248
33.339788914613706	1.9422737	1.3936548
33.358085003895575	1.9227668	1.3866386
33.376381968462034	1.970783	1.4038458
33.39467980890529	1.9783783	1.4065484
33.41297852581774	2.0130088	1.4188055
33.43127811979204	2.01237	1.4185803
33.44957859142105	1.9715629	1.4041235
33.467879941297866	1.8883792	1.374183
33.486182170015844	1.7967982	1.3404471
33.50448527816853	1.7820271	1.3349259
33.522789266349754	1.8133152	1.3465939
33.541094135153514	1.7973984	1.340671
33.55939988517411	1.8177719	1.3482478
33.57770651700602	1.8085091	1.3448082
33.59601403124398	1.855809	1.3622808
33.61432242848296	1.9353741	1.3911773
33.632631709318154	1.9221666	1.3864223
33.650941874344994	1.8906717	1.375017
33.66925292415916	1.9025044	1.379313
33.68756485935654	1.8805422	1.3713286
33.70587768053328	1.8482822	1.3595154
33.724191388285746	1.8416172	1.357062
33.74250598321054	1.9525458	1.3973353
33.760821465904506	1.9912398	1.4111129
33.77913783696474	1.9529306	1.397473
33.79745509698852	1.8255019	1.3511114
33.815773246573414	1.8728685	1.3685279
33.8340922863172	2.0594332	1.4350725
33.852412216817896	2.0413804	1.4287689
33.87073303867377	1.9184473	1.3850802
33.889054752483304	1.8492739	1.3598801
33.907377358845245	1.8433125	1.3576864
33.92570085835853	1.8168145	1.3478926
33.94402525162239	1.8224199	1.3499703
33.96235053923627	1.8752013	1.3693799
33.980676721799824	1.9467568	1.3952622
33.999003799912984	1.9418377	1.3934983
34.01733177417592	1.927588	1.388376
34.03566064518901	1.9349366	1.39102
34.0539904135529	1.9722433	1.4043658
34.07232107986846	1.9253585	1.3875729
34.090652644736785	2.080285	1.4423194
34.108985108759235	2.1955092	1.4817251
34.12731847253742	2.1489155	1.465918
34.14565273667313	1.9868401	1.4095532
34.16398790176847	1.8718091	1.3681407
34.18232396842574	1.820784	1.3493643
34.20066093724749	1.9278934	1.388486
34.21899880883651	1.9944408	1.4122467
34.23733758379583	1.979222	1.4068483
34.25567726272874	1.8406736	1.3567142
34.27401784623872	1.9031894	1.3795613
34.29235933492957	2.0241218	1.4227164
34.31070172940526	2.0184793	1.420732
34.32904503027003	1.8994101	1.3781909
34.347389238128386	2.0291398	1.4244788
34.36573435358502	2.1347685	1.4610847
34.38408037724492	2.0426683	1.4292195
34.402427309713296	2.110314	1.4526919
34.42077515159559	2.1557934	1.4682621
34.43912390349752	1.9771507	1.406112
34.45747356602499	1.9298725	1.3891985
34.47582413978423	1.9597656	1.3999163
34.49417562538163	1.9197456	1.3855488
34.51252802342388	1.8148193	1.3471524
34.53088133451789	1.8773655	1.3701699
34.54923555927084	1.9945036	1.412269
34.567590698290104	1.9906759	1.4109131
34.58594675218336	1.7583687	1.326035
34.6043037215585	1.7014848	1.3044097
34.62266160702365	1.9595711	1.3998468
34.641020409187234	2.0716298	1.4393157
34.65938012865785	2.0531776	1.4328914
34.677740766044394	2.2368402	1.495607
34.69610232195598	2.347555	1.5321733
34.714464797002016	2.148934	1.4659243
34.73282819179208	2.0349844	1.4265288
34.751192506936064	2.1480076	1.4656082
34.76955774304408	2.160836	1.4699782
34.7879239007265	2.1588583	1.4693054
34.80629098059391	2.0630271	1.4363241
34.824658983257194	1.9644982	1.4016056
34.843027909327446	1.8989271	1.3780156
34.86139775941603	2.0534475	1.4329855
34.879768534134534	2.227203	1.4923816
34.89814023409483	2.1496105	1.466155
34.91651285990901	2.0346653	1.426417
34.93488641218944	2.016565	1.4200581
34.95326089154871	2.0153005	1.4196128
34.97163629859967	2.099682	1.449028
34.99001263395542	2.1092262	1.4523176
35.00838989822934	1.9881556	1.4100198
35.02676809203499	1.8935755	1.3760725
35.04514721598624	1.8779798	1.370394
35.063527270697215	2.0860636	1.4443212
35.081908256782256	2.1455195	1.4647592
35.10029017485597	1.7854239	1.3361975
35.11867302553321	1.5977721	1.2640301
35.137056809429104	1.7188323	1.3110424
35.155441527159006	1.7882005	1.3372362
35.173827179338524	1.8727752	1.3684938
35.19221376658354	2.060706	1.4355159
35.21060128951017	2.0982962	1.4485496
35.2289897487348	1.9748917	1.4053084
35.24737914487405	2.0754805	1.4406528
35.26576947854479	2.1448388	1.4645268
35.28416075036418	1.9887203	1.4102199
35.30255296094958	1.850868	1.3604661
35.32094611091867	1.8185704	1.3485438
35.33934020088932	1.9307276	1.3895062
35.35773523147969	1.8894151	1.37456
35.3761312033082	1.9014829	1.3789427
35.394528116993506	1.9215251	1.3861909
35.41292597315452	1.9033701	1.3796269
35.431324772410434	1.8608443	1.3641276
35.449724515380666	2.1948059	1.4814878
35.46812520268491	2.1326294	1.4603525
35.486526834943106	1.9265563	1.3880044
35.504929412775454	1.8479799	1.3594042
35.52333293680242	1.9529451	1.3974781
35.54173740764471	2.253834	1.5012774
35.560142825923286	2.0936685	1.4469514
35.5785491922594	1.5650944	1.2510374
35.59695650727454	0.9390405	0.969041
35.61536477159042	0.6149216	0.7841694
