0.008763373481513119	0.0	0.0
0.026290120649546365	0.0	0.0
0.043816868432600686	0.0	0.0
0.06134361724069026	0.0	0.0
0.07887036748382949	0.008567456	0.09256055
0.0963971195720331	0.056627702	0.23796576
0.11392387391531617	0.09337312	0.30557016
0.1314506309236943	0.08612112	0.293464
0.1489773910071836	0.090780936	0.30129874
0.16650415457580078	0.07890344	0.28089756
0.18403092203956356	0.11041094	0.3322814
0.20155769380849	0.1610467	0.40130624
0.2190844702925996	0.15805061	0.3975558
0.2366112519019124	0.17477478	0.41806075
0.2541380390464497	0.14390291	0.3793454
0.27166483213623416	0.08429005	0.2903275
0.28919163158128947	0.0760322	0.27573937
0.3067184377916406	0.096485674	0.31062144
0.324245251177314	0.14821737	0.3849901
0.34177207214833777	0.18088247	0.4253028
0.3592989011147415	0.14227669	0.37719584
0.37682573848655654	0.11143626	0.3338207
0.39435258467381573	0.12609117	0.35509318
0.41187944008655414	0.10419387	0.32279077
0.42940630513480854	0.12826972	0.35814762
0.446933180228618	0.11558025	0.33997095
0.4644600657780234	0.12995835	0.36049736
0.48198696219306775	0.14407238	0.37956867
0.49951386988379676	0.13926037	0.37317604
0.5170407892602581	0.1689361	0.41101837
0.5345677207325025	0.17125161	0.41382557
0.5520946647105822	0.19302759	0.43934906
0.5696216216045534	0.17358096	0.41663048
0.5871485918244737	0.18565157	0.43087304
0.6046755757804043	0.1735987	0.4166518
0.6222025738824094	0.19522306	0.44184053
0.6397295865405557	0.23595454	0.4857515
0.6572566141649129	0.22968532	0.47925496
0.6747836571655547	0.19886002	0.44593725
0.6923107159525568	0.14590216	0.38197142
0.7098377909359992	0.17295818	0.4158824
0.7273648825259653	0.20723811	0.4552341
0.7448919911325411	0.2151676	0.4638616
0.762419117165817	0.20680743	0.45476085
0.7799462610358868	0.19519776	0.44181192
0.7974734231528482	0.1815359	0.4260703
0.8150006039268024	0.18483803	0.42992795
0.8325278037678551	0.17548057	0.418904
0.8500550230861152	0.17716381	0.4209083
0.8675822622916969	0.17354162	0.41658327
0.8851095217947171	0.17374538	0.41682777
0.9026368020052984	0.16084965	0.40106064
0.9201641033335665	0.17655525	0.42018476
0.9376914261896523	0.18452033	0.4295583
0.9552187709836915	0.20922156	0.45740741
0.9727461381258234	0.23864195	0.48850992
0.990273528026193	0.26854986	0.518218
1.0078009410949496	0.2896696	0.5382096
1.0253283777422473	0.28317857	0.53214526
1.0428558383782454	0.27228847	0.5218127
1.0603833234131086	0.2552384	0.50521123
1.0779108332570058	0.3201089	0.56578165
1.0954383683201119	0.30331632	0.5507416
1.112965929012607	0.36024335	0.60020274
1.1304935157446763	0.4841307	0.695795
1.1480211289265108	0.53004086	0.728039
1.1655487689683062	1.4589392	1.2078656
1.1830764362802655	1.7797017	1.3340546
1.200604131272596	2.202188	1.4839771
1.2181318543555117	2.3649175	1.5378288
1.235659605939232	2.4061208	1.5511676
1.253187386433982	3.9840484	1.9960082
1.270715196249994	6.089587	2.4677088
1.2882430357975057	11.194414	3.3458054
1.3057709054867608	15.798299	3.9747074
1.3232988057280106	21.806604	4.669754
1.3408267369315112	26.782974	5.175227
1.358354699507526	30.687971	5.5396724
1.3758826938663256	34.157757	5.844464
1.3934107204181858	36.317352	6.026388
1.410938779573391	36.701958	6.058214
1.4284668717422309	37.35018	6.1114793
1.4459949973350033	37.047527	6.086668
1.4635231567620117	36.92428	6.076535
1.4810513504335687	36.586216	6.048654
1.4985795787599925	35.68927	5.9740496
1.5161078421516088	35.16685	5.9301643
1.5336361410187505	34.294613	5.85616
1.5511644757717598	34.239265	5.851433
1.5686928468209842	34.750298	5.8949385
1.58622125457678	35.12495	5.9266305
1.6037496994495108	36.316414	6.02631
1.621278181849548	36.13035	6.0108523
1.6388067021872719	36.746635	6.0619
1.6563352608730693	36.419003	6.034816
1.673863858317336	35.39875	5.949685
1.6913924949304753	34.612026	5.8831987
1.7089211711228998	33.59059	5.795739
1.7264498873050296	33.213097	5.7630806
1.7439786438872935	32.628483	5.712135
1.7615074412801288	31.447668	5.607822
1.779036279893981	30.311588	5.505596
1.796565160139305	29.216314	5.405212
1.814094082426564	28.974962	5.3828397
1.8316230471662298	28.376211	5.3269324
1.849152054768784	27.574747	5.2511663
1.8666811056447168	27.123535	5.208026
1.8842102002045273	26.348558	5.133085
1.901739338858724	25.754175	5.074857
1.9192685220178245	25.22929	5.0228767
1.9367977500923557	24.474514	4.947172
1.9543270234928547	24.144066	4.913661
1.971856342629867	23.524197	4.850175
1.9893857079139496	23.064287	4.8025293
2.006915119755667	22.61334	4.7553487
2.0244445785655945	21.87376	4.676939
2.0419740847543175	21.54345	4.6414924
2.0595036387324317	21.107553	4.594296
2.0770332409105414	20.680195	4.5475483
2.094562891699263	20.40824	4.517548
2.1120925915092217	19.740635	4.443043
2.129622340751053	19.51366	4.417427
2.1471521398354043	187.8094	13.704357
2.1646819891729323	444.1662	21.07525
2.182211889174303	440.17493	20.980347
2.1997418402501974	452.38287	21.269295
2.2172718428113023	432.2234	20.789984
2.234801897268317	320.36813	17.89883
2.2523320040319548	16.906225	4.111718
2.269862163512935	16.549519	4.06811
2.287392376121992	16.121313	4.0151353
2.304922642269869	15.865037	3.983094
2.322452962367322	15.649586	3.9559557
2.3399833368251164	15.398664	3.9241133
2.357513766054032	15.080722	3.8833904
2.3750442504648586	14.906201	3.860855
2.3925747904683963	14.645394	3.82693
2.410105386475459	14.413663	3.796533
2.4276360388968707	13.964552	3.7369175
2.445166748143469	13.770125	3.7108119
2.4626975146261025	13.497568	3.6739037
2.4802283387556323	13.314168	3.6488585
2.4977592209429305	13.043082	3.6115208
2.5152901615988825	12.846338	3.584179
2.5328211611343865	12.751277	3.570893
2.5503522199603523	12.554675	3.5432577
2.5678833384877024	12.144257	3.4848611
2.5854145171273712	11.90245	3.4499927
2.6029457562903064	11.677382	3.4172184
2.620477056387469	11.595751	3.4052534
2.6380084178298326	11.520709	3.394217
2.655539841028383	11.134413	3.3368268
2.673071326394119	10.980257	3.313647
2.6906028743380523	10.637118	3.2614596
2.708134485271211	10.549593	3.2480137
2.7256661596046325	10.464845	3.2349412
2.743197897749369	10.237846	3.1996634
2.760729700116486	10.297635	3.208993
2.778261567117063	10.20272	3.1941695
2.795793499162193	10.182141	3.1909468
2.8133254966629817	10.051095	3.1703463
2.830857560030551	9.753017	3.122982
2.8483896896760337	9.599325	3.0982778
2.865921886010578	9.431948	3.0711477
2.883454149445347	9.402673	3.0663779
2.9009864803915177	9.276668	3.0457623
2.91851887926028	9.2037	3.03376
2.9360513464628384	9.105018	3.0174522
2.953583882410413	8.955601	2.992591
2.9711164875142373	8.725515	2.9538984
2.9886491621855606	8.53555	2.9215665
3.0061819068356455	8.434027	2.9041395
3.023714721875769	8.374766	2.8939188
3.041247607717225	8.18926	2.8616881
3.0587805647713213	8.123094	2.850104
3.0763135934493806	8.002645	2.8288946
3.0938466941627407	7.930644	2.81614
3.1113798673227544	7.8047247	2.7936938
3.1289131133407904	7.6723466	2.7699
3.1464464326282315	7.5913982	2.7552493
3.1639798255964786	7.539081	2.7457387
3.1815132926569443	7.4218726	2.7243114
3.1990468342210603	7.4888115	2.7365694
3.216580450700272	7.4937677	2.7374747
3.2341141425060416	7.4702477	2.7331753
3.251647910049847	7.3483415	2.7107825
3.2691817537431813	7.1297956	2.6701677
3.286715673997555	7.0343127	2.6522279
3.3042496712244938	6.9778595	2.641564
3.32178374583554	6.949529	2.636196
3.339317898242251	6.87283	2.6216083
3.3568521288562034	6.662084	2.5811014
3.3743864380889876	6.6605253	2.5807993
3.3919208263522127	6.5801015	2.5651708
3.4094552940575023	6.519774	2.5533848
3.4269898416164972	6.5477595	2.558859
3.444524469440858	6.501701	2.5498433
3.4620591779422587	6.425787	2.5349135
3.479593967532391	6.345436	2.5190148
3.4971288386229658	6.296564	2.5092955
3.5146637916257086	6.2843866	2.506868
3.5321988269523628	6.326132	2.5151803
3.5497339450146903	6.2993474	2.50985
3.5672691462244708	6.290603	2.5081074
3.5848044309934988	6.2290916	2.4958148
3.60233979973359	6.2204704	2.494087
3.619875252856575	6.202984	2.4905791
3.6374107907743034	6.2246957	2.494934
3.6549464138986427	6.1717777	2.4843063
3.6724821226414788	6.157428	2.4814165
3.690017917414714	6.1455507	2.479022
3.7075537986302702	6.121423	2.474151
3.7250897667000857	6.15678	2.4812858
3.7426258220361235	6.3327947	2.5165045
3.7601619650503553	6.6662383	2.5819058
3.777698196154779	7.2423053	2.691153
3.7952345157614067	8.2435875	2.8711648
3.8127709242822716	9.009361	3.0015597
3.830307422129425	11.148723	3.3389702
3.847844009714936	29.998707	5.4771075
3.8653806874508954	97.558975	9.877194
3.882917455749409	96.841896	9.840828
3.900454315022606	96.73677	9.835485
3.917991265682631	41.26087	6.4234624
3.9355283081416506	10.888234	3.2997324
3.9530654428118495	8.680908	2.9463382
3.970602670105433	7.4461293	2.7287598
3.9881399904346244	6.5909686	2.5672882
4.005677404211669	6.401811	2.53018
4.023214911848827	6.29091	2.5081687
4.0407525137583855	6.234907	2.4969797
4.058290210352644	6.2916718	2.5083206
4.075828002043927	6.289509	2.5078893
4.0933658892445814	6.2660627	2.5032105
4.110903872366966	6.1299176	2.475867
4.128441951823468	6.013966	2.452339
4.145980128026488	5.972075	2.4437828
4.163518401388452	5.9782467	2.4450452
4.181056772321807	6.0067816	2.4508736
4.1985952412390155	6.024954	2.4545782
4.216133808552567	6.0174336	2.4530458
4.233672474674966	6.1108923	2.4720218
4.251211240018741	6.296837	2.5093498
4.268750104996445	6.475867	2.5447724
4.286289070020643	7.3908353	2.718609
4.303828135503928	9.017194	3.0028644
4.3213673018589125	29.426039	5.424577
4.3389065694982305	90.66206	9.521663
4.356445938834537	165.89716	12.880107
4.3739854102805085	171.1533	13.082558
4.391524984248844	172.06831	13.117481
4.409064661152262	136.195	11.670261
4.426604441403504	96.505974	9.823746
4.444144325415337	75.66712	8.698685
4.461684313600543	21.575844	4.6449804
4.47922440637193	21.898098	4.67954
4.496764604142329	20.209423	4.495489
4.5143049073245916	18.199486	4.2660856
4.531845316331589	16.043106	4.0053844
4.5493858315762195	12.980871	3.6028976
4.566926453471405	10.873985	3.2975726
4.584467182430081	8.920381	2.9867005
4.602008018865218	7.9105687	2.8125734
4.619548963189798	7.239744	2.6906772
4.637090015816834	6.78426	2.6046612
4.654631177159353	6.6623945	2.5811615
4.672172447630417	6.4649634	2.5426292
4.689713827643102	6.257493	2.5014982
4.7072553176105085	6.0146565	2.4524796
4.724796917945764	5.8309608	2.4147382
4.742338629062015	5.8206973	2.4126122
4.759880451372434	5.7691708	2.4019098
4.777422385290215	5.595164	2.3654099
4.794964431228581	5.5113816	2.3476331
4.812506589600768	5.386676	2.3209214
4.830048860820047	5.3887177	2.321361
4.847591245299709	5.369068	2.317125
4.8651337434530655	5.3794327	2.3193605
4.882676355693457	5.3160834	2.3056633
4.900219082434242	5.2893867	2.2998667
4.917761924088813	5.2890778	2.2997994
4.935304881070575	5.374332	2.3182604
4.952847953792969	5.430226	2.3302846
4.970391142669449	5.475276	2.3399308
4.9879344481135055	5.4699574	2.338794
5.005477870538642	5.4901037	2.343097
5.023021410358394	5.471467	2.3391168
5.040565067986324	5.41898	2.3278704
5.05810884383601	5.3543797	2.3139532
5.075652738321066	5.283835	2.2986593
5.09319675185512	5.2540126	2.2921634
5.110740884851836	5.2815294	2.298158
5.128285137724894	5.311275	2.3046203
5.145829510888007	5.3310266	2.3089015
5.163374004754908	5.2560225	2.2926016
5.1809186197393595	5.266588	2.294905
5.198463356255145	5.2770877	2.2971911
5.216008214716077	5.335814	2.3099382
5.233553195535998	5.315406	2.3055165
5.251098299128764	5.254753	2.2923248
5.268643525908272	5.2047296	2.2813876
5.286188876288432	5.2308593	2.2871072
5.3037343506831895	5.2576156	2.2929492
5.32127994950651	5.2623534	2.293982
5.3388256731723915	5.19228	2.2786574
5.356371522094851	5.1272025	2.2643328
5.373917496687938	5.137428	2.2665894
5.391463597365729	5.1844187	2.2769318
5.40900982454232	5.128788	2.2646828
5.426556178631843	5.0957646	2.25738
5.444102660048449	5.0857325	2.2551568
5.4616492692063225	5.151287	2.2696447
5.479196006519669	5.2053585	2.2815254
5.496742872402727	5.190706	2.278312
5.514289867269756	5.11335	2.2612717
5.531836991535049	4.995126	2.2349777
5.549384245612924	4.9230742	2.2188
5.566931629917724	4.9571996	2.226477
5.584479144863822	5.051128	2.2474713
5.6020267908656205	5.1134987	2.2613046
5.619574568337545	5.1339254	2.2658167
5.637122477694054	5.0510416	2.2474523
5.654670519349629	4.9824905	2.2321494
5.672218693718784	4.9405518	2.2227352
5.689767001216059	5.01102	2.2385309
5.707315442256021	5.028539	2.2424405
5.724864017253266	5.0558763	2.2485275
5.7424127266224225	5.0503387	2.2472959
5.75996157077814	5.0374136	2.2444184
5.777510550135105	5.092653	2.2566907
5.795059665108022	5.0436797	2.2458138
5.812608916111639	5.071608	2.2520232
5.830158303560715	5.166635	2.2730234
5.847707827870055	5.2053986	2.2815342
5.86525748945448	5.3112326	2.3046112
5.8828072887288485	5.3951716	2.3227508
5.900357226108044	5.496643	2.344492
5.917907302006979	5.5605774	2.3580875
5.9354575168406	6.2178426	2.4935603
5.9530078710238765	6.8208623	2.6116781
5.970558364971812	7.2835746	2.6988099
5.988108999099438	7.543933	2.746622
6.005659773821818	7.990766	2.8267944
6.023210689554039	7.716738	2.7779016
6.040761746711227	8.174086	2.8590357
6.058312945708531	7.56519	2.750489
6.075864286961132	7.147293	2.6734421
6.093415770884244	6.6000943	2.5690649
6.1109673978931065	6.07158	2.4640577
6.128519168402993	5.479891	2.3409166
6.146071082829204	5.250622	2.2914236
6.163623141587075	5.120667	2.2628891
6.181175345091969	5.06264	2.2500312
6.198727693759281	5.031503	2.2431014
6.216280188004435	5.0062876	2.2374735
6.233832828242885	5.0713573	2.2519674
6.251385614890126	5.174428	2.274737
6.268938548361669	5.1632986	2.2722893
6.286491629073067	5.0967145	2.2575905
6.304044857439898	5.0181537	2.2401235
6.321598233877777	4.92455	2.2191327
6.339151758802344	4.90588	2.2149222
6.356705432629277	4.888337	2.2109585
6.37425925577428	4.8760753	2.2081838
6.391813228653095	4.827488	2.1971545
6.409367351681486	4.870282	2.2068715
6.426921625275259	4.8810387	2.2093072
6.44447604985025	4.895184	2.2125063
6.46203062582232	4.874121	2.2077413
6.47958535360737	4.8925114	2.2119021
6.497140233621328	4.9426494	2.223207
6.514695266280161	4.908436	2.215499
6.532250451999859	4.8747005	2.2078724
6.549805791196454	4.871959	2.2072515
6.567361284286002	4.903055	2.2142844
6.584916931684597	4.9856787	2.2328634
6.602472733808367	5.012613	2.2388866
6.6200286910734665	4.961825	2.2275155
6.637584803896092	4.8639474	2.205436
6.655141072692462	4.8015146	2.1912358
6.672697497878842	4.831695	2.1981118
6.690254079871514	4.890958	2.211551
6.707810819086808	4.955482	2.2260911
6.725367715941078	4.975538	2.2305913
6.742924770850719	4.9525714	2.2254374
6.760481984232151	4.955861	2.2261763
6.778039356501836	4.9202223	2.2181573
6.795596888076266	4.9292455	2.2201905
6.813154579371963	4.9112906	2.2161431
6.830712430805492	4.8742757	2.207776
6.84827044279344	4.9007964	2.2137742
6.865828615752445	4.9029174	2.2142532
6.883386950099159	4.9291854	2.220177
6.900945446250287	4.934377	2.221346
6.918504104622553	4.8955536	2.2125897
6.936062925632727	4.9352546	2.2215433
6.953621909697607	4.9518604	2.2252777
6.971181057234028	4.98734	2.2332354
6.988740368658859	5.0840325	2.2547798
7.006299844389007	5.1982512	2.2799673
7.023859484841407	5.318637	2.306217
7.041419290433036	5.389584	2.3215477
7.058979261580902	5.4970202	2.3445725
7.0765393987020495	5.690961	2.3855734
7.094099702213559	5.9800014	2.445404
7.111660172532549	6.225032	2.4950013
7.129220810076164	6.5587974	2.561015
7.146781615261595	7.1568513	2.6752293
7.16434258850606	7.422152	2.7243626
7.181903730226821	7.8620625	2.803937
7.1994650408411704	7.933175	2.8165894
7.217026520766437	8.110962	2.847975
7.234588170419983	8.288232	2.878929
7.252149990219215	8.339227	2.8877718
7.269711980581568	8.139725	2.8530202
7.2872741419245175	7.8750005	2.8062432
7.304836474665574	7.4924893	2.7372413
7.322398979222286	7.2509885	2.692766
7.339961656012233	7.108372	2.6661532
7.357524505453039	6.8331695	2.6140332
7.375087527962357	6.4965196	2.5488272
7.392650723957886	6.127473	2.4753733
7.410214093857353	5.811755	2.4107583
7.427777638078528	5.6228385	2.3712525
7.445341357039213	5.462429	2.337184
7.4629052511572525	5.333985	2.3095422
7.480469320850524	5.2799487	2.297814
7.498033566536948	5.2644053	2.294429
7.5155979886344735	5.209454	2.2824228
7.5331625875610975	5.137126	2.266523
7.550727363734844	5.0799174	2.2538671
7.568292317573788	5.066872	2.2509713
7.585857449496025	5.0480227	2.2467806
7.603422759919705	5.064443	2.2504318
7.620988249263007	5.0920677	2.256561
7.638553917944147	5.0961246	2.2574599
7.656119766381391	5.136943	2.2664826
7.673685794993023	5.15935	2.2714202
7.691252004197388	5.1577783	2.2710743
7.70881839441285	5.145729	2.26842
7.726384966057826	5.1109467	2.2607403
7.743951719550762	5.068968	2.251437
7.761518655310149	5.0602355	2.2494967
7.779085773754511	5.1304474	2.265049
7.796653075302419	5.1877713	2.277668
7.814220560372475	5.167622	2.2732403
7.831788229383323	5.171484	2.2740898
7.8493560827536495	5.2132955	2.2832642
7.866924120902174	5.267414	2.2950847
7.884492344247663	5.297004	2.3015223
7.9020607532089135	5.335374	2.3098428
7.919629348204771	5.311948	2.3047664
7.937198129654115	5.2747636	2.2966855
7.954767097975865	5.2072506	2.28194
7.972336253588986	5.159266	2.271402
7.989905596912472	5.1739254	2.2746265
8.007475128365371	5.22785	2.2864492
8.025044848366756	5.282704	2.2984133
8.042614757335754	5.447828	2.3340583
8.060184855691523	5.4853883	2.3420906
8.07775514385327	5.6080565	2.3681335
8.095325622240228	5.6618576	2.3794658
8.112896291271687	5.758417	2.3996701
8.130467151366968	5.8499827	2.4186738
8.148038202945436	5.848614	2.4183908
8.165609446426497	5.8069096	2.409753
8.183180882229594	5.81296	2.4110081
8.200752510774217	5.8250585	2.4135158
8.218324332479893	5.8989615	2.4287777
8.235896347766193	5.944648	2.438165
8.253468557052724	5.973656	2.4441063
8.27104096075914	5.9475236	2.4387546
8.288613559305137	6.0219984	2.4539762
8.306186353110448	6.023171	2.454215
8.32375934259485	6.069608	2.4636574
8.341332528178162	6.109752	2.4717913
8.358905910280246	6.1253324	2.4749408
8.376479489321003	6.1155295	2.4729598
8.394053265720377	6.143116	2.4785311
8.411627239898356	6.1837964	2.4867241
8.42920141227497	6.1412053	2.4781456
8.44677578327029	6.11397	2.4726443
8.464350353304427	6.07639	2.4650335
8.48192512279754	6.0570726	2.461112
8.499500092169827	6.097336	2.4692783
8.51707526184153	6.085447	2.4668698
8.534650632232934	6.035589	2.4567437
8.552226203764365	6.035653	2.4567566
8.569801976856192	6.07707	2.4651713
8.587377951928834	6.164311	2.482803
8.60495412940274	6.213639	2.4927173
8.622530509698416	6.2443686	2.4988735
8.6401070932364	6.2993593	2.5098524
8.657683880437283	6.378185	2.5255067
8.675260871721695	6.414977	2.5327804
8.692838067510303	6.6194935	2.5728376
8.710415468223834	6.7583046	2.599674
8.727993074283043	6.9240794	2.6313646
8.745570886108737	6.941815	2.6347325
8.763148904121765	6.9891434	2.6436987
8.78072712874302	7.0172815	2.6490152
8.798305560393441	7.2616305	2.6947412
8.815884199494006	7.4299154	2.7257872
8.833463046465745	7.59937	2.7566955
8.851042101729728	7.7177753	2.7780883
8.86862136570707	8.158909	2.8563805
8.886200838818924	8.34062	2.8880131
8.903780521486505	8.377251	2.8943481
8.921360414131055	8.383724	2.895466
8.938940517173874	8.471278	2.910546
8.956520831036297	8.634706	2.938487
8.97410135613971	8.894425	2.9823523
8.99168209290554	9.031836	3.0053012
9.009263041755265	9.275563	3.0455809
9.026844203110405	9.512258	3.084195
9.044425577392525	9.70924	3.1159654
9.062007165023239	9.813429	3.1326392
9.079588966424197	10.068895	3.1731522
9.097170982017108	10.118143	3.180903
9.11475321222372	11.063901	3.3262444
9.132335657465825	11.974713	3.46045
9.149918318165264	12.164299	3.4877355
9.167501194743924	12.84367	3.5838065
9.18508428762374	12.562243	3.5443256
9.202667597226693	12.521197	3.5385303
9.220251123974803	12.085397	3.4764056
9.237834868290143	11.718875	3.4232843
9.255418830594836	11.553194	3.398999
9.273003011311046	11.078385	3.3284209
9.290587410860985	10.804547	3.2870271
9.308172029666911	10.14868	3.1856992
9.32575686815113	9.827663	3.1349103
9.343341926735997	8.6304	2.9377542
9.360927205843916	8.309847	2.8826804
9.378512705897327	8.201915	2.8638985
9.396098427318728	8.098979	2.8458705
9.413684370530664	8.146609	2.8542266
9.431270535955722	8.037132	2.8349836
9.448856924016539	7.8343816	2.7989964
9.466443535135806	7.6554456	2.7668476
9.484030369736251	7.6066103	2.7580085
9.501617428240658	7.632628	2.762721
9.519204711071852	7.6901975	2.7731206
9.536792218652714	7.6904736	2.7731702
9.55437995140617	7.681171	2.7714925
9.571967909755191	7.733118	2.7808485
9.589556094122802	7.8205423	2.7965233
9.60714450493207	7.8543816	2.802567
9.624733142606116	7.819962	2.7964194
9.642322007568108	7.825718	2.7974484
9.659911100241267	7.9150553	2.8133707
9.677500421048851	7.97604	2.8241885
9.695089970414175	8.004483	2.8292196
9.712679748760609	8.01918	2.8318157
9.730269756511557	8.022982	2.8324869
9.747859994090492	8.049585	2.8371792
9.765450461920915	8.1148205	2.8486524
9.78304116042639	8.178204	2.8597558
9.800632090030527	8.237905	2.870175
9.81822325115699	8.289709	2.8791854
9.835814644229481	8.314529	2.8834925
9.853406269671762	8.260722	2.8741472
9.870998127907646	8.182885	2.8605742
9.888590219360985	8.138885	2.852873
9.906182544455698	8.1409	2.8532262
9.923775103615734	8.1645355	2.8573651
9.941367897265108	8.053106	2.8377995
9.958960925827878	7.9866047	2.8260581
9.97655418972816	7.989102	2.8265
9.994147689390106	8.045776	2.8365078
10.011741425237934	8.0913105	2.844523
10.029335397695904	8.0734625	2.841384
10.04692960718833	8.043928	2.8361819
10.06452405413958	8.089987	2.8442903
10.082118738974064	8.096224	2.8453865
10.099713662116246	8.06055	2.8391106
10.117308823990651	8.026757	2.8331532
10.134904225021844	8.0757475	2.841786
10.152499865634445	8.194191	2.8625498
10.170095746253125	8.158811	2.8563633
10.18769186730261	8.101591	2.8463295
10.205288229207675	8.0329	2.834237
10.222884832393145	8.0422325	2.8358831
10.2404816772839	8.069024	2.8406029
10.258078764304868	8.118354	2.8492725
10.275676093881035	8.100528	2.8461425
10.293273666437438	7.9557776	2.8205988
10.310871482399158	7.9518495	2.8199024
10.32846954219134	7.9339924	2.8167343
10.346067846239173	8.04593	2.8365347
10.363666394967908	8.121473	2.84982
10.38126518880283	8.0652895	2.8399453
10.398864228169298	8.067324	2.8403034
10.416463513492713	8.041776	2.8358026
10.434063045198531	8.102461	2.8464823
10.451662823712262	8.1325655	2.8517654
10.469262849459467	8.16527	2.8574936
10.486863122865758	8.044885	2.8363507
10.504463644356806	8.02813	2.8333955
10.522064414358338	7.9014935	2.8109596
10.539665433296118	7.8109283	2.7948039
10.557266701595987	7.722144	2.7788746
10.574868219683818	7.5327816	2.7445912
10.592469987985552	7.490216	2.736826
10.610072006927185	7.3506603	2.71121
10.627674276934751	7.2826424	2.6986372
10.64527679843435	7.124096	2.6691003
10.662879571852143	7.0422487	2.6537235
10.680482597614331	7.025565	2.6505783
10.698085876147173	6.9507694	2.6364312
10.715689407876988	6.8520246	2.6176372
10.733293193230146	6.752569	2.5985706
10.750897232633072	6.67751	2.5840878
10.76850152651225	6.5983596	2.5687273
10.786106075294207	6.5131755	2.5520923
10.803710879405534	6.414842	2.532754
10.821315939272877	6.3345366	2.5168505
10.83892125532294	6.2305136	2.4960997
10.856526827982472	6.231107	2.4962187
10.874132657678285	6.236611	2.4973207
10.891738744837243	6.2485986	2.4997196
10.909345089886271	6.1654973	2.483042
10.926951693252343	6.1200304	2.4738696
10.944558555362494	6.0701437	2.463766
10.96216567664381	6.0105114	2.4516344
10.979773057523436	5.956426	2.4405792
10.997380698428573	5.823721	2.4132388
11.014988599786477	5.7177277	2.391177
11.032596762024461	5.623246	2.3713384
11.050205185569892	5.600957	2.3666341
11.067813870850198	5.535917	2.3528528
11.085422818292859	5.5706506	2.3602226
11.10303202832541	5.4709697	2.3390105
11.120641501375454	5.400635	2.3239267
11.138251237870636	5.2537966	2.2921162
11.155861238238671	5.2202263	2.2847815
11.173471502907317	5.1496916	2.2692933
11.191082032304402	5.1147957	2.2615914
11.208692826857805	5.090074	2.2561193
11.226303886995465	5.02031	2.2406049
11.243915213145371	4.927147	2.2197177
11.261526805735578	4.8496094	2.2021828
11.279138665194196	4.8354325	2.1989617
11.296750791949393	4.8093824	2.1930304
11.314363186429393	4.736457	2.1763403
11.331975849062479	4.666925	2.1603067
11.34958878027699	4.6009912	2.144992
11.36720198050133	4.575888	2.1391325
11.384815450163948	4.5707273	2.1379259
11.402429189693366	4.525232	2.1272593
11.420043199518153	4.443214	2.1078932
11.437657480066942	63.379017	7.961094
11.455272031768422	85.12512	9.226328
11.472886855051353	107.499146	10.368179
11.490501950344528	99.05258	9.952517
11.508117318076819	84.35595	9.184549
11.52573295867715	45.754692	6.7642217
11.543348872574514	4.11459	2.0284452
11.560965060197946	4.062444	2.0155506
11.57858152197655	4.025674	2.0064082
11.59619825833949	3.9527478	1.9881519
11.613815269715985	3.9108834	1.9775953
11.631432556535323	38.413063	6.1978273
11.649050119226837	82.990524	9.109914
11.666667958219929	93.38086	9.663377
11.68428607394406	107.6608	10.375972
11.701904466828756	82.43668	9.079465
11.719523137303586	65.25731	8.078199
11.737142085798196	4.527648	2.1278272
11.754761312742286	3.6653037	1.9144983
11.772380818565619	3.628564	1.904879
11.790000603698015	3.6079493	1.8994602
11.80762066856935	3.552953	1.8849279
11.825241013609572	3.5470653	1.8833654
11.842861639248683	3.5070999	1.8727252
11.860482545916748	3.4504669	1.8575432
11.878103734043883	3.4155867	1.8481306
11.895725204060282	3.3589728	1.8327501
11.91334695639619	3.3753572	1.8372145
11.930968991481919	3.383889	1.839535
11.948591309747824	3.3509305	1.8305547
11.966213911624347	3.3289995	1.8245546
11.98383679754198	3.327619	1.8241763
12.001459967931268	3.2974253	1.8158814
12.019083423222835	3.2479942	1.8022193
12.036707163847352	3.2123358	1.792299
12.05433119023556	3.176173	1.7821821
12.071955502818259	3.1550999	1.7762601
12.089580102026313	3.1378386	1.7713945
12.107204988290643	3.146995	1.7739772
12.12483016204224	3.1175272	1.7656521
12.142455623712152	3.111631	1.7639816
12.16008137373149	3.0743637	1.7533864
12.177707412531431	3.0721893	1.7527663
12.19533374054321	3.0743742	1.7533894
12.212960358198126	3.0409312	1.7438266
12.230587265927545	2.9916918	1.7296507
12.248214464162889	2.9875178	1.7284437
12.265841953335649	3.0342982	1.7419237
12.283469733877375	3.030808	1.7409216
12.301097806219685	3.0108252	1.735173
12.31872617079425	2.9826782	1.7270432
12.336354828032825	2.9674191	1.7226199
12.353983778367205	2.8883195	1.6995057
12.371613022229262	2.8388886	1.6849002
12.389242560050928	2.8520682	1.6888068
12.406872392264201	2.854305	1.6894689
12.424502519301143	2.878686	1.6966691
12.442132941593874	2.8489606	1.6878865
12.459763659574586	2.8445222	1.6865711
12.477394673675532	2.7869737	1.6694232
12.49502598432903	2.75445	1.6596535
12.51265759196746	2.7788413	1.6669856
12.530289497023267	2.8108397	1.6765559
12.547921699928967	2.8239703	1.6804672
12.565554201117134	2.8055825	1.6749873
12.583187001020404	2.7544982	1.6596681
12.600820100071486	2.7151287	1.6477648
12.618453498703152	2.7243574	1.6505628
12.636087197348235	2.72463	1.6506454
12.65372119643964	2.734204	1.6535429
12.671355496410326	2.7512786	1.6586978
12.68899009769333	2.797305	1.6725146
12.706625000721749	2.8407886	1.6854639
12.724260205928752	2.909834	1.7058235
12.741895713747551	2.9233446	1.7097791
12.759531524611454	2.9388072	1.714295
12.777167638953818	2.9285486	1.7113003
12.794804057208072	2.9480457	1.7169874
12.812440779807702	2.9798315	1.7262188
12.830077807186271	3.1352575	1.7706659
12.847715139777405	3.143747	1.7730615
12.865352778014795	3.365693	1.8345826
12.882990722332197	3.4941127	1.8692546
12.90062897316344	3.5574784	1.886128
12.918267530942412	3.6373124	1.907174
12.935906396103071	3.5437357	1.8824812
12.953545569079449	3.7166457	1.9278604
12.971185050305628	3.5667367	1.8885806
12.988824840215775	3.553555	1.8850875
13.006464939244115	3.5836835	1.8930619
13.024105347824943	3.428569	1.8516395
13.041746066392617	3.5183492	1.8757263
13.05938709538157	3.2880116	1.8132875
13.077028435226296	3.306295	1.8183221
13.094670086361363	3.2160008	1.7933211
13.112312049221401	3.1277435	1.7685428
13.129954324241112	3.0597506	1.7492143
13.147596911855258	2.8760338	1.6958873
13.165239812498685	2.8179066	1.6786622
13.182883026606293	2.7366047	1.6542686
13.200526554613058	2.689059	1.639835
13.218170396954017	2.688603	1.639696
13.235814554064284	2.687092	1.6392353
13.253459026379034	2.673147	1.6349761
13.271103814333523	2.6253335	1.6202881
13.288748918363058	2.6044664	1.6138359
13.306394338903031	2.5978148	1.6117738
13.32404007638889	2.6124375	1.6163037
13.341686131256164	2.6464841	1.6268018
13.359332503940449	2.6425662	1.6255972
13.376979194877402	2.6421635	1.6254733
13.394626204502751	2.665584	1.6326617
13.412273533252307	2.665362	1.6325936
13.429921181561937	2.6807473	1.6372988
13.447569149867581	2.7045417	1.6445491
13.465217438605247	2.6789074	1.6367369
13.482866048211022	2.624342	1.6199821
13.500514979121052	2.5805042	1.6063948
13.518164231771568	2.5874217	1.6085465
13.535813806598844	2.6181278	1.618063
13.553463704039254	2.6278887	1.6210763
13.571113924529229	2.612907	1.6164489
13.588764468505275	2.6327028	1.6225606
13.606415336403956	2.6741312	1.635277
13.624066528661917	2.7156208	1.647914
13.641718045715882	2.7305753	1.6524452
13.659369888002635	2.8140624	1.6775167
13.67702205595903	2.9158764	1.7075938
13.694674550021993	3.0435605	1.7445803
13.712327370628532	3.1028113	1.7614799
13.729980518215713	3.1842818	1.7844557
13.747633993220681	3.202995	1.7896913
13.765287796080647	3.2256575	1.7960116
13.7829419272329	3.2319157	1.797753
13.800596387114801	3.2577982	1.8049371
13.818251176163775	3.269475	1.808169
13.835906294817324	3.3139737	1.8204323
13.853561743513023	3.3533819	1.8312242
13.871217522688525	3.387589	1.8405404
13.888873632781538	3.4002054	1.8439646
13.906530074229858	3.4107878	1.8468318
13.92418684747135	3.4420004	1.8552629
13.941843952943948	3.4466653	1.8565197
13.959501391085665	3.4519346	1.8579383
13.977159162334578	3.3696303	1.8356553
13.994817267128846	3.3641858	1.8341717
14.012475705906693	3.3004415	1.8167118
14.030134479106424	3.20412	1.7900056
14.047793587166414	3.0839498	1.7561178
14.065453030525108	3.0159068	1.7366366
14.083112809621026	2.9770217	1.7254047
14.100772924892766	2.9437928	1.7157484
14.118433376778997	2.911399	1.7062821
14.136094165718458	2.8238463	1.6804304
14.153755292149969	2.7614865	1.6617721
14.171416756512416	2.6947467	1.6415684
14.189078559244768	2.6260111	1.6204972
14.20674070078606	2.573615	1.6042491
14.224403181575408	2.5090141	1.5839868
14.242066002051999	2.4782176	1.5742356
14.259729162655093	2.472948	1.572561
14.277392663824022	2.4541984	1.5665882
14.295056505998208	2.41888	1.5552748
14.312720689617128	2.3917856	1.5465399
14.330385215120348	2.3940823	1.5472822
14.348050082947497	2.3781884	1.5421376
14.3657152935383	2.3691952	1.539219
14.383380847332528	2.376001	1.5414282
14.401046744770051	2.3379855	1.5290473
14.418712986290798	2.3483484	1.5324322
14.436379572334793	2.3496585	1.5328596
14.454046503342123	2.3801131	1.5427616
14.471713779752946	2.3888762	1.545599
14.489381402007504	2.378993	1.5423985
14.507049370546113	2.3795626	1.5425831
14.524717685809168	2.3858755	1.5446279
14.542386348237134	2.3954291	1.5477175
14.560055358270553	2.3651738	1.5379121
14.577724716350051	2.3602476	1.5363097
14.595394422916325	2.361616	1.536755
14.61306447841015	2.427032	1.5578934
14.63073488327237	2.4567316	1.5673964
14.648405637943917	2.468366	1.5711035
14.6660767428658	2.491347	1.5784001
14.683748198479094	2.5442443	1.5950687
14.701420005224954	2.5765083	1.6051506
14.719092163544628	2.6020553	1.6130887
14.73676467387942	2.5966866	1.6114237
14.754437536670727	2.6117816	1.6161008
14.772110752360014	2.6269011	1.6207718
14.78978432138882	2.6645772	1.6323533
14.807458244198777	2.6616218	1.6314478
14.82513252123159	2.6196146	1.6185224
14.842807152929028	2.634976	1.6232609
14.860482139732962	2.6531606	1.6288525
14.87815748208531	2.6727405	1.6348518
14.8958331804281	2.6293905	1.6215396
14.91350923520342	2.600917	1.6127359
14.931185646853438	2.610748	1.615781
14.948862415820408	2.5835886	1.6073545
14.966539542546656	2.6016786	1.612972
14.98421702747459	2.5545504	1.598296
15.001894871046696	2.5832791	1.6072583
15.019573073705542	2.6023433	1.613178
15.037251635893766	2.618081	1.6180485
15.054930558054092	2.7033591	1.6441895
15.072609840629323	2.7242162	1.65052
15.090289484062351	2.8071887	1.6754668
15.107969488796124	2.874915	1.6955574
15.125649855273691	3.0028007	1.7328591
15.14333058393817	3.3620431	1.8335875
15.161011675232768	3.8816345	1.9701864
15.17869312960076	4.571421	2.1380882
15.196374947485506	5.3668556	2.3166475
15.214057129330447	6.7455935	2.597228
15.231739675579114	8.867264	2.9777951
15.249422586675102	13.505606	3.6749973
15.267105863062092	18.07797	4.2518196
15.284789505183847	25.356846	5.035558
15.302473513484218	30.461119	5.5191593
15.320157888407127	34.708473	5.89139
15.337842630396578	33.61198	5.797584
15.355527739896656	30.659044	5.537061
15.37321321735153	23.76528	4.8749647
15.39089906320545	16.062464	4.0078006
15.408585277902748	10.180248	3.1906502
15.42627186188783	6.2892447	2.5078366
15.443958815605198	4.5699244	2.1377382
15.461646139499424	3.76479	1.9403067
15.479333834015168	3.3187954	1.8217561
15.497021899597165	2.98913	1.7289101
15.514710336690234	2.7199588	1.6492298
15.53239914573928	2.5680306	1.6025076
15.550088327189297	2.4930356	1.5789349
15.567777881485336	2.498747	1.5807426
15.58546780907256	2.5061378	1.5830786
15.6031581103962	2.4892685	1.5777416
15.620848785901568	2.5098948	1.5842648
15.638539836034063	2.5027914	1.5820214
15.656231261239173	2.488974	1.5776483
15.673923061962451	2.426335	1.5576698
15.691615238649552	2.4225335	1.556449
15.709307791746202	2.4293165	1.5586265
15.727000721698221	2.4688385	1.5712538
15.744694028951498	2.449265	1.5650128
15.76238771395202	2.3863864	1.5447934
15.780081777145844	2.3464541	1.531814
15.797776218979125	2.3340626	1.527764
15.815471039898094	2.3651373	1.5379003
15.833166240349064	2.3906186	1.5461625
15.850861820778437	2.4286723	1.5584198
15.868557781632699	2.4566562	1.5673724
15.886254123358412	2.4860644	1.5767258
15.903950846402232	2.511004	1.5846148
15.921647951210897	2.5100062	1.5842999
15.939345438231225	2.4974682	1.580338
15.957043307910133	2.4822402	1.5755126
15.974741560694602	2.5245357	1.5888788
15.992440197031714	2.5194695	1.5872837
16.01013921736862	2.4970677	1.5802113
16.02783862215259	2.4954772	1.579708
16.045538411830933	2.4604986	1.5685977
16.06323858685107	2.4066212	1.5513289
16.080939147660512	2.382845	1.5436466
16.09864009470684	2.381212	1.5431176
16.11634142843774	2.3886065	1.5455117
16.134043149300954	2.400308	1.5492927
16.15174525774433	2.4073741	1.5515715
16.169447754215817	2.434994	1.5604467
16.18715063916342	2.4462285	1.5640423
16.204853913035244	2.4517224	1.5657977
16.222557576279478	2.424092	1.5569496
16.240261629344403	22.393414	4.7321677
16.257966072678386	42.956146	6.554094
16.275670906729868	38.105556	6.17297
16.293376131947387	2.5453112	1.5954032
16.31108174877957	2.5268617	1.5896106
16.328787757675133	2.5252206	1.5890943
16.34649415908287	2.5295439	1.590454
16.364200953451657	2.5823562	1.6069711
16.38190814123048	2.620732	1.6188675
16.39961572286839	2.655636	1.6296122
16.41732369881455	2.6978736	1.6425205
16.43503206951817	2.6864038	1.6390252
16.45274083542859	2.6914206	1.6405549
16.47044999699522	2.6873527	1.6393147
16.488159554667558	2.7710001	1.6646321
16.505869508895184	2.8180666	1.6787097
16.523579860127786	2.8836613	1.6981347
16.541290608815117	2.9533887	1.7185426
16.559001755407035	3.0590658	1.7490185
16.57671330035348	3.1792443	1.7830435
16.59442524410448	3.3104653	1.8194684
16.61213758711015	3.465225	1.8615115
16.629850329820705	3.4713838	1.863165
16.647563472686436	3.4787097	1.86513
16.665277016157724	3.4161797	1.848291
16.682990960685053	3.4201946	1.8493768
16.70070530671898	3.4359505	1.8536317
16.718420054710155	3.4792867	1.8652846
16.736135205109335	3.5187356	1.8758293
16.753850758367335	3.554014	1.8852093
16.771566714935087	3.6015153	1.8977659
16.789283075263597	3.689963	1.9209276
16.80699983980398	3.7769895	1.9434478
16.82471700900741	3.8574173	1.9640309
16.84243458332518	3.9461722	1.9864975
16.860152563208665	4.0007324	2.000183
16.87787094910932	4.026386	2.0065856
16.89558974147871	4.0553255	2.013784
16.913308940768466	4.12591	2.0312335
16.931028547430333	4.233296	2.0574975
16.94874856191613	4.25918	2.0637782
16.966468984677785	4.321431	2.0788052
16.98418981616729	4.3432055	2.0840359
17.00191105683676	4.3447366	2.0844033
17.019632707138374	4.3564734	2.0872166
17.03735476752442	4.3952208	2.0964782
17.05507723844728	4.4763236	2.1157324
17.072800120359403	4.507132	2.1230006
17.090523413713353	4.5288568	2.1281111
17.108247118961785	4.588827	2.1421547
17.125971236557437	4.6880846	2.1651986
17.143695766953133	4.699554	2.1678455
17.161420710601806	4.6275887	2.1511831
17.179146067956477	4.5684123	2.1373844
17.19687183947025	4.5750685	2.138941
17.21459802559634	4.574293	2.1387596
17.232324626788028	4.603495	2.1455758
17.25005164349871	4.6039076	2.1456718
17.267779076181863	4.56109	2.135671
17.285506925291074	4.548498	2.132721
17.30323519127999	4.551237	2.1333628
17.320963874602384	4.546191	2.13218
17.33869297571211	4.5472193	2.132421
17.356422495063114	4.4759192	2.1156368
17.37415243310944	4.4407535	2.1073096
17.391882790305218	4.4262643	2.103869
17.40961356710468	4.44658	2.1086915
17.42734476396215	4.5147667	2.124798
17.445076381332044	4.5862565	2.1415546
17.462808419668868	4.6142106	2.1480713
17.48054087942723	4.6404843	2.1541784
17.498273761061835	4.7564683	2.180933
17.51600706502747	5.1440635	2.2680528
17.533740791779024	5.770255	2.4021356
17.551474941771485	6.626101	2.5741215
17.56920951545993	8.448368	2.9066076
17.586944513299528	9.694597	3.1136148
17.60467993574556	12.67044	3.559556
17.622415783253373	15.482706	3.934807
17.64015205627843	18.458818	4.296373
17.657888755276293	20.854763	4.5667014
17.675625880702604	22.528446	4.746414
17.69336343301311	21.01598	4.584319
17.71110141266366	18.879227	4.345023
17.728839820110178	16.03613	4.0045137
17.746578655808705	12.873821	3.5880108
17.764317920215372	10.563145	3.2500992
17.7820576137864	8.755873	2.9590323
17.79979773697811	7.3270483	2.7068522
17.81753829024692	6.0112915	2.4517934
17.835279274049356	5.2369223	2.2884324
17.85302068884201	4.469065	2.1140163
17.870762535081607	4.081474	2.0202658
17.888504813224934	3.873228	1.9680518
17.90624752372891	3.6936128	1.9218774
17.923990667050536	3.6076589	1.8993838
17.941734243646895	3.4866858	1.8672669
17.959478253975185	3.4830225	1.8662857
17.9772226984927	3.4689639	1.8625154
17.994967577656833	3.4642956	1.8612618
18.01271289192506	3.3697696	1.8356932
18.030458641754965	3.2931178	1.814695
18.04820482760425	3.239054	1.7997372
18.06595144993067	3.2404444	1.8001235
18.083698509192125	3.2740946	1.809446
18.101446005846576	3.271964	1.8088571
18.119193940352105	3.228107	1.7966933
18.136942313166887	3.2147324	1.7929674
18.1546911247492	3.2297347	1.7971462
18.1724403755574	3.2350438	1.7986227
18.19019006604997	3.1836138	1.7842684
18.207940196685467	3.146766	1.7739127
18.225690767922575	3.1319113	1.7697207
18.243441780220046	3.1059935	1.7623829
18.261193234036764	3.0658405	1.7509542
18.278945129831676	3.0197551	1.7377442
18.29669746806386	3.0279422	1.7400984
18.314450249192483	3.0610437	1.7495838
18.3322034736768	3.0405967	1.7437307
18.349957141976184	3.0136025	1.7359731
18.3677112545501	2.9810421	1.7265694
18.385465811858108	3.0044656	1.7333394
18.403220814359884	3.0751572	1.7536126
18.420976262515172	3.0795922	1.7548767
18.43873215678387	3.0728638	1.7529585
18.456488497625923	3.063132	1.7501806
18.474245285501407	3.1719465	1.780996
18.492002520870486	3.2423165	1.8006433
18.50976020419343	3.3077834	1.8187313
18.527518335930615	3.5918124	1.8952078
18.545276916542516	4.1832147	2.045291
18.563035946489688	4.349736	2.085602
18.580795426232832	4.7734146	2.1848145
18.598555356232698	4.615294	2.1483235
18.616315736950185	4.9113708	2.2161613
18.63407656884626	4.600311	2.1448336
18.65183785238201	4.779151	2.186127
18.669599588018617	4.5492563	2.1328986
18.68736177621737	4.5559177	2.1344595
18.705124417439652	4.56289	2.1360922
18.72288751214696	4.356874	2.0873127
18.740651060800886	4.485946	2.1180053
18.758415063863115	4.2375436	2.0585294
18.77617952179546	4.3880105	2.0947578
18.793944435059814	4.125067	2.0310261
18.811709804118184	4.1259894	2.031253
18.829475629432675	4.1534996	2.0380137
18.8472419114655	3.989884	1.9974694
18.86500865067897	3.996821	1.9992051
18.88277584753551	3.6751482	1.9170676
18.90054350249763	3.765609	1.9405177
18.918311616027957	3.4641354	1.8612188
18.936080188589226	3.3142402	1.8205055
18.953849220644265	2.9922028	1.7297984
18.971618712656007	2.8219752	1.6798736
18.9893886650875	2.7797124	1.6672469
19.007159078401887	7.9894223	2.8265567
19.024929953062408	32.877357	5.733878
19.042701289532435	32.780926	5.725463
19.060473088275405	25.316378	5.0315385
19.07824534975489	2.62306	1.6195863
19.096018074434568	2.6223521	1.6193678
19.113791262778197	2.6363673	1.6236894
19.13156491524966	2.6278625	1.6210684
19.149339032312945	2.6190197	1.6183386
19.167113614432136	2.5874498	1.6085552
19.184888662071433	2.5235136	1.5885571
19.202664175695123	2.5053744	1.5828375
19.220440155767623	2.5158532	1.5861441
19.238216602753447	2.52267	1.5882915
19.2559935171172	2.5183086	1.586918
19.27377089932361	2.5153081	1.5859723
19.291548749837514	2.4875257	1.5771892
19.309327069123835	2.4631515	1.569443
19.32710585764763	2.468861	1.571261
19.344885115874032	2.4721282	1.5723003
19.362664844268313	2.4474952	1.5644473
19.380445043295822	2.4619117	1.569048
19.39822571342203	2.4808135	1.5750599
19.41600685511252	2.4494278	1.5650648
19.43378846883297	2.398988	1.5488666
19.451570555049173	2.3750296	1.5411131
19.469353114227037	2.4377358	1.561325
19.48713614683254	2.4550662	1.5668651
19.50491965333182	2.470427	1.5717592
19.52270363419109	2.4539587	1.5665116
19.540488089876686	2.4312558	1.5592484
19.55827302085503	2.462033	1.5690867
19.576058427592674	2.4605308	1.5686079
19.593844310556282	2.4596322	1.5683215
19.611630670212598	2.4402661	1.5621351
19.629417507028506	2.437077	1.5611141
19.64720482147098	2.4462867	1.5640609
19.6649926140071	2.4635446	1.5695683
19.682780885104084	2.4881766	1.5773956
19.70056963522921	2.4654438	1.5701731
19.718358864849908	2.502515	1.581934
19.7361485744337	2.5007765	1.5813844
19.753938764448215	2.4962947	1.5799667
19.771729435361202	2.479489	1.5746393
19.789520587640506	2.4439585	1.5633165
19.807312221754092	2.3993125	1.5489714
19.825104338170043	2.3955863	1.5477681
19.842896937356517	2.431671	1.5593816
19.860690019781824	2.4672592	1.5707512
19.87848358591436	2.477482	1.5740019
19.896277636222635	2.4754946	1.5733705
19.914072171175278	2.4860582	1.5767239
19.931867191241015	2.4738631	1.5728519
19.94966269688869	2.4570103	1.5674853
19.967458688587264	2.4489627	1.5649161
19.985255166805807	2.4498456	1.5651983
20.00305213201348	2.4565394	1.5673351
20.020849584679578	2.4887266	1.5775698
20.038647525273507	2.4903657	1.5780892
20.05644595426477	2.4472575	1.5643712
20.07424487212299	2.4247358	1.5571563
20.092044279317903	2.4248555	1.5571947
20.109844176319353	2.4168057	1.5546079
20.127644563597304	2.4211962	1.5560193
20.145445441621817	2.4467251	1.5642011
20.16324681086307	2.4323418	1.5595967
20.181048671791373	2.406309	1.5512282
20.198851024877122	2.4204998	1.5557956
20.216653870590836	2.445411	1.563781
20.234457209403146	2.4275672	1.5580652
20.252261041784802	2.3558211	1.5348685
20.270065368206662	2.3391335	1.5294226
20.287870189139685	2.3666816	1.5384023
20.305675505054968	2.3806045	1.5429208
20.323481316423702	2.3380725	1.5290757
20.341287623717207	2.3731003	1.540487
20.359094427406884	2.3624065	1.5370122
20.376901727964288	2.383999	1.5440204
20.39470952586107	2.351463	1.5334481
20.41251782156899	2.3532062	1.5340164
20.430326615559935	2.3038046	1.517829
20.448135908305886	2.334206	1.5278109
20.465945700278965	2.348994	1.5326428
20.483755991951384	2.3947623	1.5475019
20.50156678379548	2.3585124	1.5357449
20.519378076283708	2.3299608	1.526421
20.537189869888635	2.3110814	1.5202241
20.55500216508294	2.3176622	1.522387
20.572814962339415	2.3080404	1.5192236
20.59062826213098	2.283106	1.510995
20.60844206493066	2.2954495	1.5150741
20.626256371211593	2.3224194	1.5239487
20.644071181447032	2.3533013	1.5340474
20.66188649611036	2.3583202	1.5356823
20.67970231567506	2.3172927	1.5222657
20.697518640614742	2.2773979	1.509105
20.715335471403122	2.2817702	1.510553
20.73315280851404	2.2914715	1.5137607
20.750970652421447	2.27323	1.5077235
20.768789003599412	2.258425	1.5028057
20.786607862522136	2.2942426	1.5146757
20.8044272296639	2.3243906	1.5245953
20.82224710549913	2.3145468	1.5213635
20.84006749050237	2.2964876	1.5154166
20.857888385148268	3.837952	1.9590691
20.8757097899116	45.930393	6.7771964
20.893531705267254	64.794075	8.049477
20.911354131690224	83.82547	9.155625
20.92917706965566	69.04232	8.309171
20.94700051963877	50.089455	7.07739
20.96482448211493	29.366886	5.419122
20.982648957559622	4.139086	2.0344744
21.00047394644843	2.2578175	1.5026035
21.01829944925707	2.2308502	1.4936031
21.036125466461375	2.2157815	1.4885501
21.053951998537297	2.2080123	1.4859382
21.071779045960906	2.2066123	1.4854671
21.089606609208378	2.223567	1.491163
21.10743468875603	2.2116644	1.4871665
21.12526328508028	2.2127473	1.4875306
21.143092398657675	2.2103584	1.4867274
21.16092202996488	2.2133307	1.4877267
21.17875217947867	2.1933336	1.4809908
21.19658284767596	2.202794	1.4841813
21.21441403503377	2.1905744	1.4800589
21.232245742029225	2.149926	1.4662626
21.2500779691396	2.1433806	1.464029
21.26791071684227	2.1592574	1.4694412
21.28574398561475	2.173336	1.4742239
21.30357777593465	2.1811795	1.4768817
21.321412088279704	2.1636922	1.4709494
21.339246923127792	2.1436827	1.4641321
21.357082280956888	2.1166387	1.4548672
21.3749181622451	2.1073658	1.451677
21.392754567470647	2.1188505	1.4556272
21.41059149711187	2.143285	1.4639963
21.42842895164726	2.136447	1.461659
21.446266931555378	2.1107013	1.4528253
21.464105437314945	2.1147888	1.4542314
21.481944469404798	2.1110263	1.4529371
21.49978402830388	2.093089	1.4467512
21.51762411449127	2.062639	1.436189
21.53546472844617	2.0681922	1.4381211
21.553305870647876	2.074391	1.4402746
21.571147541575865	2.086084	1.4443282
21.58898974170967	2.0857856	1.444225
21.60683247152899	2.0777347	1.441435
21.62467573151363	2.0366507	1.4271127
21.642519522143523	2.0119083	1.4184176
21.660363843898722	2.0292828	1.424529
21.6782086972594	2.0356066	1.4267468
21.696054082705864	2.0430884	1.4293665
21.713900000718535	2.0335243	1.4260169
21.73174645177795	2.0244057	1.4228162
21.749593436364794	2.0322802	1.4255806
21.767440954959845	2.0433345	1.4294525
21.785289008044032	2.0416334	1.4288573
21.803137596098388	2.030933	1.4251081
21.820986719604086	2.0092988	1.4174974
21.838836379042412	2.0122437	1.4185358
21.85668657489478	2.0087924	1.4173187
21.87453730764273	2.0056381	1.4162055
21.892388577767914	1.9964935	1.4129733
21.91024038575213	1.9741775	1.4050542
21.928092732077285	1.9843428	1.4086671
21.945945617225426	1.9576373	1.399156
21.963799041678694	1.9575448	1.3991228
21.981653005919398	31.299864	5.5946283
21.999507510429943	78.13085	8.839166
22.01736255569286	73.07659	8.548485
22.035218142190818	4.164828	2.040791
22.05307427040661	1.9730911	1.4046676
22.07093094082315	1.9629954	1.4010694
22.088788153923474	1.9782437	1.4065006
22.106645910190746	1.9753226	1.4054617
22.12450421010827	1.9534422	1.397656
22.142363054159464	1.9477766	1.3956276
22.16022244282787	1.9698753	1.4035225
22.178082376597164	2.003268	1.4153686
22.195942855951145	2.0008311	1.4145074
22.213803881373742	2.009219	1.4174691
22.231665453349002	2.0305247	1.4249648
22.24952757236111	2.0232975	1.4224266
22.26739023889438	2.0038903	1.4155883
22.28525345343323	1.964515	1.4016116
22.30311721646225	1.9655699	1.4019878
22.320981528466113	1.956328	1.398688
22.33884638992964	1.9804821	1.4072961
22.356711801337788	1.9572318	1.399011
22.37457776317561	1.9475747	1.3955554
22.392444275928337	1.92473	1.3873464
22.410311340081282	1.9501097	1.3964633
22.428178956119904	1.9481076	1.3957462
22.446047124529805	1.9405143	1.3930235
22.46391584579669	1.9251748	1.3875067
22.481785120406414	1.8999374	1.3783822
22.49965494884496	1.9079543	1.3812872
22.51752533159841	1.9106174	1.3822508
22.53539626915302	1.9533321	1.3976166
22.553267761995137	1.9290133	1.3888892
22.571139810611264	1.9240363	1.3870963
22.589012415488025	1.9428331	1.3938555
22.60688557711216	1.9977739	1.4134263
22.624759295970566	2.025289	1.4231265
22.642633572550263	2.0658288	1.4372991
22.660508407338362	2.05124	1.4322151
22.67838380082217	2.0327017	1.4257284
22.696259753489077	2.0126333	1.418673
22.714136265826614	1.9643763	1.4015621
22.73201333832246	1.9573824	1.3990649
22.74989097146439	1.9398234	1.3927754
22.76776916574035	1.9467441	1.3952577
22.785647921638393	1.9527998	1.3974261
22.803527239646712	1.9532835	1.3975992
22.82140712025363	1.926292	1.3879092
22.839287563947593	1.9312598	1.3896977
22.85716857121719	1.9171734	1.3846203
22.875050142551135	1.9063956	1.3807229
22.892932278438277	1.8638275	1.3652207
22.910814979367604	1.8622369	1.364638
22.928698245828222	1.8597065	1.3637105
22.946582078309387	1.8758419	1.3696138
22.96446647730047	1.9144044	1.38362
22.98235144329098	1.9176455	1.3847908
23.000236976770562	1.8867174	1.3735783
23.018123078229	1.8657862	1.3659378
23.03600974815619	1.8945342	1.3764209
23.053896987042194	1.902707	1.3793864
23.071784795377173	1.9047917	1.380142
23.08967317365145	1.9037327	1.3797582
23.10756212235546	1.9152527	1.3839265
23.125451641979787	1.8950657	1.3766139
23.143341733015134	1.8938409	1.376169
23.161232395952357	1.8721998	1.3682835
23.179123631282426	1.8793801	1.3709048
23.197015439496468	1.9104474	1.3821894
23.214907821085717	1.9446793	1.3945175
23.23280077654157	1.9634274	1.4012235
23.250694306355538	1.9517562	1.3970526
23.268588411019277	1.9314997	1.3897841
23.28648309102458	1.9317328	1.3898679
23.304378346863356	1.9324043	1.3901094
23.322274179027676	1.9501494	1.3964775
23.340170588009723	1.9709419	1.4039024
23.358067574301852	1.9675943	1.4027096
23.37596513839651	1.9360408	1.3914168
23.39386328078629	1.9509022	1.396747
23.411762001963947	1.9828589	1.4081402
23.429661302422353	1.9827077	1.4080865
23.4475611826545	1.9263654	1.3879356
23.46546164315356	1.9049009	1.3801814
23.48336268441279	1.9265026	1.3879851
23.501264306925638	1.9244173	1.3872336
23.51916651118564	1.9520764	1.3971673
23.537069297686497	1.9452335	1.3947163
23.554972666922037	1.9189456	1.3852601
23.57287661938623	1.8988359	1.3779825
23.59078115557318	1.9198918	1.3856016
23.608686275977128	1.903061	1.3795148
23.62659198109246	1.9157937	1.384122
23.6444982714137	1.9097427	1.3819344
23.66240514743549	1.9077471	1.3812122
23.68031260965263	1.9238667	1.3870353
23.698220658560068	1.9206792	1.3858857
23.716129294652845	1.8763372	1.3697946
23.7340385184262	1.8694336	1.3672724
23.75194833037546	1.8589119	1.3634192
23.769858730996123	1.8857241	1.3732166
23.78776972078382	1.8653259	1.3657694
23.80568130023431	1.8788478	1.3707107
23.823593469843495	1.8995446	1.3782396
23.841506230107424	1.9255245	1.3876327
23.859419581522275	1.9376373	1.3919904
23.87733352458438	1.9210099	1.386005
23.89524805979019	1.9154992	1.3840156
23.913163187636318	1.8944061	1.3763742
23.931078908619508	1.9033444	1.3796175
23.948995223236633	1.9671161	1.4025391
23.966912131984735	2.0061634	1.416391
23.98482963536096	2.0318542	1.4254313
24.002747733862616	2.0072186	1.4167634
24.020666427987155	1.9941272	1.4121357
24.038585718232156	1.9636037	1.4012865
24.056505605095353	1.9838831	1.4085039
24.074426089074617	2.0471816	1.4307976
24.092347170667946	2.081656	1.4427946
24.110268850373515	2.1118197	1.4532101
24.128191128689586	2.1444087	1.46438
24.146114006114626	2.1217856	1.456635
24.164037483147187	2.091903	1.4463413
24.181961560286005	2.057338	1.4343424
24.199886238029926	2.0408845	1.4285953
24.21781151687797	2.040598	1.4284949
24.235737397329274	2.0603917	1.4354064
24.253663879883135	2.0484598	1.4312441
24.271590965038975	2.0266569	1.423607
24.289518653296376	2.0437036	1.4295816
24.30744694515505	2.059362	1.4350477
24.32537584111486	2.0513363	1.4322487
24.34330534167581	2.0074048	1.4168291
24.361235447338046	1.9803407	1.4072458
24.379166158601876	1.9638087	1.4013596
24.39709747596772	1.9775125	1.4062406
24.41502939993615	1.9891851	1.4103848
24.432961931007917	2.0327387	1.4257414
24.450895069683856	2.0359814	1.4268782
24.468828816465	2.0381103	1.427624
24.4867631718525	2.022561	1.4221678
24.504698136347656	1.9902549	1.410764
24.52263371045192	1.9474518	1.3955113
24.540569894666874	1.9229071	1.3866893
24.558506689494266	1.9617879	1.4006385
24.57644409543597	1.9971753	1.4132146
24.594382112994012	1.9539089	1.397823
24.61232074267057	1.94794	1.3956861
24.630259984967953	1.9597195	1.3998998
24.64819984038863	1.9276172	1.3883865
24.66614030943522	1.9324688	1.3901327
24.684081392610462	1.9435623	1.394117
24.702023090417274	1.9612232	1.4004368
24.7199654033587	1.9784769	1.4065834
24.737908331937927	2.0311913	1.4251987
24.755851876658305	2.0358844	1.4268442
24.773796038023324	2.072433	1.4395947
24.79174081653661	2.0698943	1.4387127
24.809686212701962	2.074104	1.440175
24.827632227023294	2.0726311	1.4396635
24.8455788600047	2.0520658	1.4325033
24.8635261121504	2.0640802	1.4366907
24.88147398396475	2.0683444	1.438174
24.899422475952303	2.0887082	1.4452363
24.917371588617698	2.0915499	1.4462192
24.935321322465768	2.1313326	1.4599085
24.953271678001478	2.2317262	1.4938962
24.97122265572994	2.458704	1.5680255
24.989174256156414	2.819089	1.6790143
25.00712647978632	3.410423	1.8467331
25.02507932712521	4.411651	2.100393
25.043032798678798	5.901014	2.4292002
25.060986894952933	7.4767575	2.734366
25.078941616453637	9.01789	3.0029802
25.096896963687055	10.096981	3.1775746
25.114852937159508	10.814271	3.2885058
25.132809537377444	10.515953	3.242831
25.150766764847468	9.75136	3.1227167
25.168724620076347	8.330261	2.8862193
25.186683103570985	7.052785	2.655708
25.204642215838426	5.6437917	2.3756666
25.222601957385894	4.476746	2.1158323
25.24056232872074	3.5170984	1.8753929
25.25852333035048	2.9209628	1.7090825
25.276484962782778	2.4865203	1.5768704
25.294447226525435	2.2189393	1.4896104
25.312410122086423	2.093837	1.4470097
25.330373649973843	2.012805	1.4187336
25.348337810695988	1.9686021	1.4030688
25.366302604761245	1.950486	1.396598
25.384268032678207	1.9334677	1.390492
25.40223409495558	1.9600058	1.400002
25.420200792102257	1.9480942	1.3957415
25.438168124627246	1.9297738	1.389163
25.45613609303974	1.9364561	1.391566
25.474104697849057	1.9223747	1.3864973
25.492073939564698	1.9157293	1.3840988
25.510043818696285	1.8842396	1.372676
25.528014335753614	1.8702673	1.3675772
25.54598549124664	1.8701327	1.367528
25.56395728568544	1.8694494	1.3672781
25.58192971958028	1.8444934	1.3581213
25.59990279344156	1.838729	1.3559974
25.617876507779833	1.9044188	1.3800068
25.635850863105826	1.8930554	1.3758835
25.653825859930386	1.8499042	1.3601118
25.671801498764548	1.81997	1.3490627
25.68977778011949	1.8365735	1.3552023
25.707754704506524	1.8437847	1.3578603
25.725732272437153	1.8619215	1.3645225
25.743710484423012	1.8524294	1.3610399
25.761689340975888	1.8323715	1.3536512
25.77966884260774	1.857762	1.3629974
25.797648989830662	1.9043844	1.3799944
25.815629783156922	1.9058372	1.3805206
25.83361122309895	1.8819574	1.3718445
25.85159331016929	1.8678521	1.3666939
25.869576044880695	1.9007423	1.3786741
25.887559427746034	1.8717207	1.3681084
25.90554345927836	1.8406335	1.3566995
25.92352813999086	1.8036617	1.3430047
25.94151347039689	1.7825946	1.3351384
25.959499451009965	1.776761	1.332952
25.97748608234374	1.8204033	1.3492233
25.995473364912062	1.8103473	1.3454915
26.013461299228904	1.809299	1.3451018
26.03144988580839	1.791139	1.3383344
26.04943912516483	1.8352692	1.3547211
26.067429017812675	1.8074534	1.3444157
26.085419564266537	1.8113345	1.3458582
26.103410765041186	1.8441541	1.3579963
26.12140262065155	1.8425401	1.357402
26.139395131612723	1.8271098	1.3517063
26.157388298439948	1.8265201	1.3514881
26.17538212164861	1.8514106	1.3606656
26.193376601754295	1.8535255	1.3614424
26.211371739272714	1.8473577	1.3591754
26.229367534719746	1.8286035	1.3522587
26.247363988611433	1.8451824	1.358375
26.26536110146397	1.8189178	1.3486726
26.283358873793727	1.8626485	1.3647888
26.301357306117204	1.8820435	1.3718759
26.319356398951104	1.8306636	1.3530202
26.33735615281224	1.8396523	1.3563378
26.35535656821762	1.8958215	1.3768883
26.373357645684404	1.8850051	1.3729548
26.39135938572991	1.8490294	1.3597902
26.409361788871614	1.8174363	1.3481233
26.427364855627165	1.85459	1.3618333
26.445368586514352	1.8812411	1.3715835
26.46337298205115	1.8847091	1.3728471
26.48137804275568	1.847128	1.3590909
26.499383769146217	1.8646312	1.365515
26.517390161741215	1.8368207	1.3552936
26.53539722105928	1.8429058	1.3575367
26.553404947619182	1.8218098	1.3497443
26.571413341939856	1.7989955	1.3412664
26.589422404540397	1.8198079	1.3490026
26.60743213594006	1.8437996	1.3578658
26.62544253665827	1.8287714	1.3523207
26.64345360721459	1.8108695	1.3456855
26.66146534812879	1.7967631	1.340434
26.679477759920758	1.8233846	1.3503276
26.69749084311057	1.8377228	1.3556263
26.71550459821847	1.8477597	1.3593233
26.733519025764842	1.8275167	1.3518567
26.751534126270258	1.8261907	1.3513663
26.769549900255434	1.8209099	1.3494109
26.787566348241267	1.8680598	1.3667698
26.80558347074881	1.8215846	1.3496609
26.823601268299267	1.8081554	1.3446767
26.841619741414036	1.7665054	1.3290994
26.85963889061465	1.8543973	1.3617625
26.877658716422832	1.8611695	1.3642468
26.89567921936045	1.8200047	1.3490756
26.913700399949544	1.7233701	1.3127719
26.93172225871233	1.7458143	1.3212926
26.949744796171174	1.8038675	1.3430814
26.967768012848605	1.8129706	1.346466
26.98579190926733	1.7823476	1.3350459
27.003816485950225	1.7721467	1.33122
27.021841743420318	1.7544096	1.3245412
27.039867682200814	1.7456595	1.3212341
27.057894302815072	1.7497885	1.3227957
27.07592160578664	1.8047192	1.3433983
27.0939495916392	1.8104932	1.3455456
27.111978260896635	1.7911547	1.3383403
27.13000761408296	1.8185498	1.3485361
27.148037651722397	1.847237	1.359131
27.166068374339304	1.8251172	1.350969
27.184099782458215	1.7768806	1.3329968
27.20213187660384	1.832505	1.3537005
27.22016465730105	1.8351135	1.3546636
27.23819812507487	1.8324264	1.3536714
27.256232280450533	1.8038818	1.3430866
27.274267123953383	1.7646849	1.3284144
27.292302656108987	1.762022	1.3274118
27.31033887744306	1.7972333	1.3406093
27.32837578848146	1.8275694	1.3518763
27.34641338975026	1.8196015	1.3489261
27.364451681775673	1.8145225	1.3470421
27.382490665084074	1.8176212	1.3481919
27.400530340202046	1.8286121	1.3522619
27.41857070765629	1.8329467	1.3538636
27.436611767973726	1.8298618	1.3527238
27.454653521681404	1.7624837	1.3275857
27.472695969306564	1.7648399	1.3284727
27.490739111376627	1.794583	1.3396205
27.508782948419153	1.7789379	1.3337684
27.526827480961902	1.7737935	1.3318384
27.54487270953279	1.8091962	1.3450637
27.562918634659898	1.8505254	1.3603401
27.580965256871508	1.9048898	1.3801775
27.599012576696026	1.8916632	1.3753774
27.617060594662068	1.8594298	1.3636091
27.63510931129842	1.835835	1.3549299
27.65315872713401	1.8460069	1.3586783
27.67120884269797	1.8301096	1.3528154
27.68925965851958	1.8431065	1.3576106
27.707311175128307	1.8534524	1.3614156
27.725363393053787	1.8731102	1.3686161
27.74341631282583	1.8803596	1.3712621
27.7614699349744	1.896416	1.3771042
27.77952426002968	2.0949202	1.4473839
27.797579288521973	2.2255175	1.4918169
27.815635020981784	2.6183927	1.6181449
27.83369145793979	2.6408093	1.6250567
27.85174859992682	2.469275	1.5713927
27.869806447473923	2.3030832	1.5175912
27.887865001112267	2.0179796	1.4205561
27.905924261373233	1.9225132	1.3865472
27.92398422878836	1.8717846	1.3681318
27.94204490388936	1.8823826	1.3719995
27.96010628720813	1.9031708	1.3795546
27.978168379276728	1.8937685	1.3761426
27.9962311806274	1.8636067	1.3651398
28.014294691792568	1.8423674	1.3573383
28.0323589133048	1.8325034	1.3536999
28.050423845696887	1.7979656	1.3408824
28.068489489501758	1.7678853	1.3296185
28.086555845252523	1.804793	1.3434259
28.104622913482487	1.8325585	1.3537203
28.122690694725115	1.8189073	1.3486687
28.14075918951405	1.8714532	1.3680106
28.15882839838312	1.9149772	1.383827
28.176898321866304	1.9193431	1.3854036
28.1949689604978	1.9249256	1.3874168
28.213040314811945	1.9141243	1.3835188
28.23111238534327	1.9627982	1.4009991
28.249185172626493	1.9933472	1.4118595
28.267258677196473	1.962307	1.4008237
28.285332899588294	1.9259286	1.3877783
28.303407840337172	1.93739	1.3919016
28.321483499978545	1.9503189	1.3965381
28.33955987904799	1.936088	1.3914338
28.357636978081285	1.9075143	1.381128
28.37571479761439	1.9780539	1.4064331
28.393793338183425	2.030202	1.4248515
28.41187260032469	2.010834	1.4180387
28.429952584574686	2.0252385	1.4231087
28.448033291470065	2.030883	1.4250906
28.46611472154769	2.037647	1.4274617
28.484196875344566	2.0274043	1.4238695
28.502279753397914	2.0121877	1.418516
28.52036335624511	1.9934174	1.4118843
28.538447684423716	2.0580602	1.434594
28.556532738471482	2.1034324	1.4503214
28.574618518926325	2.054119	1.4332198
28.59270502632635	2.0217752	1.4218915
28.61079226120985	1.9965808	1.4130042
28.628880224115274	1.9890478	1.410336
28.646968915581287	1.9909812	1.4110214
28.66505833614671	2.0429528	1.429319
28.68314848635055	2.087072	1.4446702
28.701239366732004	2.1394634	1.4626905
28.71933097783044	2.1129618	1.453603
28.737423320185403	2.103976	1.4505088
28.75551639433665	2.1229925	1.4570493
28.773610200824074	2.132471	1.4602983
28.791704740187793	2.1193323	1.4557927
28.80980001296809	2.1093476	1.4523593
28.827896019705413	2.1508498	1.4665775
28.845992760940433	2.2037082	1.4844892
28.86409023721397	2.14192	1.4635301
28.88218844906704	2.123636	1.45727
28.900287397040845	2.161652	1.4702557
28.918387081676755	2.2504973	1.5001658
28.936487503516343	2.2578561	1.5026164
28.954588663101365	2.2462213	1.49874
28.97269056097374	2.2617416	1.5039088
28.990793197675597	2.3103373	1.5199794
29.00889657374923	2.3682783	1.5389211
29.027000689737125	2.3653998	1.5379857
29.04510554618196	2.404172	1.5505393
29.06321114362659	2.4678853	1.5709504
29.08131748261405	2.5138	1.5854968
29.099424563687567	2.539635	1.5936232
29.11753238739057	2.4900951	1.5780035
29.13564095426663	2.5109692	1.5846038
29.15375026485954	2.5236704	1.5886065
29.171860319713275	2.545227	1.5953767
29.18997111937199	2.5801122	1.6062728
29.20808266438002	2.6779845	1.6364548
29.226194955281898	2.7023895	1.6438946
29.244307992622335	2.7027	1.643989
29.26242177694624	2.800611	1.6735026
29.2805363087987	2.8929229	1.7008594
29.29865158872498	2.927168	1.7108968
29.316767617270557	2.938872	1.7143139
29.334884394981064	2.9838703	1.7273883
29.353001922402367	3.1014214	1.7610853
29.37112020008047	3.0913973	1.758237
29.389239228561596	3.2029037	1.7896658
29.407359008392152	3.3930693	1.8420286
29.42547954011872	3.6893606	1.9207709
29.44360082428809	4.0725718	2.0180614
29.46172286144722	4.9056	2.214859
29.479845652143283	6.5780754	2.564776
29.497969196923606	9.375443	3.0619347
29.516093496335728	13.225655	3.6367092
29.5342185509274	16.897354	4.110639
29.55234436124651	20.081312	4.481218
29.570470927841175	21.49753	4.636543
29.588598251259686	21.339869	4.6195097
29.60672633205055	19.622623	4.429743
29.624855170762405	16.423384	4.0525775
29.642984767944146	13.026001	3.6091552
29.66111512414481	9.6789875	3.111107
29.67924623991366	7.087375	2.6622124
29.697378115800138	5.243976	2.289973
29.71551075235387	4.3315806	2.081245
29.733644150124675	3.7925155	1.9474382
29.751778309662576	3.6331942	1.906094
29.769913231517766	3.5593162	1.886615
29.78804891624066	3.5199282	1.8761472
29.806185364381818	3.478034	1.8649487
29.82432257649206	3.3391643	1.827338
29.842460553122333	3.2642355	1.8067195
29.86059929482382	3.2450883	1.8014128
29.878738802147872	3.2846074	1.8123486
29.896879075646048	3.2821631	1.8116741
29.915020115870114	3.2776258	1.8104215
29.933161923371976	3.3040988	1.817718
29.951304498703777	3.3307312	1.8250291
29.969447842417857	3.290751	1.8140427
29.987591955066733	3.2639484	1.8066401
30.005736837203123	3.332886	1.8256193
30.023882489379943	3.376595	1.8375514
30.04202891215028	3.305118	1.8179984
30.060176106067455	3.2123783	1.7923108
30.078324071684946	3.131147	1.7695047
30.09647280955646	3.1041355	1.7618557
30.114622320235863	3.1850371	1.7846673
30.132772604277257	3.171439	1.7808534
30.1509236622349	3.1242487	1.7675544
30.16907549466328	3.0976777	1.760022
30.18722810211705	3.2023396	1.7895082
30.205381485151097	3.174583	1.7817359
30.22353564432045	3.0804746	1.7551281
30.241690580180403	2.9833431	1.7272357
30.25984629328638	3.018126	1.7372755
30.278002784194037	3.02577	1.739474
30.296160053459246	3.0513253	1.7468044
30.314318101638033	3.037492	1.7428402
30.332476929286646	2.975113	1.7248516
30.35063653696153	3.006902	1.734042
30.368796925219307	2.9726608	1.7241406
30.386958094616844	2.9073265	1.7050884
30.40512004571115	2.8999858	1.7029345
30.423282779059463	2.929597	1.7116065
30.441446295219233	2.9016728	1.7034297
30.459610594748067	2.8479161	1.687577
30.47777567820382	2.854014	1.6893827
30.495941546144504	2.8504288	1.6883214
30.51410819912835	2.829656	1.6821581
30.532275637713795	2.7573705	1.6605332
30.55044386245946	2.7195823	1.6491156
30.56861287392416	2.6993327	1.6429646
30.586782672666956	2.7457235	1.6570225
30.604953259247047	2.7907722	1.6705605
30.623124634223885	2.8151236	1.677833
30.641296798157075	2.820108	1.6793177
30.659469751606462	2.874302	1.6953766
30.677643495132074	2.8620207	1.6917508
30.695818029294152	2.811463	1.6767418
30.713993354653116	2.7431173	1.6562359
30.73216947176962	2.7545402	1.6596807
30.75034638120448	2.7716255	1.66482
30.768524083518756	2.7614918	1.6617737
30.786702579273673	2.7876709	1.669632
30.80488186903069	2.8431063	1.6861513
30.82306195335144	2.966755	1.722427
30.841242832797782	3.302424	1.8172573
30.85942450793176	3.6011086	1.8976587
30.877606979315637	3.993637	1.9984087
30.895790247511883	4.4753127	2.1154935
30.913974313083134	4.901788	2.2139983
30.932159176592283	5.229079	2.286718
30.95034483860237	5.5699897	2.3600826
30.968531299676698	5.6329656	2.3733869
30.98671856037873	5.305392	2.3033435
31.00490662127215	4.8374023	2.1994095
31.023095482920848	4.3408985	2.0834823
31.04128514588892	3.791521	1.9471829
31.059475610740662	3.2793305	1.8108922
31.07766687804056	2.868865	1.6937724
31.09585894835335	2.5882905	1.6088165
31.11405182224393	2.479442	1.5746244
31.132245500277417	2.4604988	1.5685977
31.15043998301914	2.453076	1.5662298
31.168635271034628	2.5832427	1.6072469
31.18683136488964	2.6054063	1.614127
31.20502826515008	2.5075786	1.5835335
31.223225972382135	2.373414	1.5405889
31.241424487152155	2.341552	1.5302131
31.259623810026692	2.3765068	1.5415922
31.27782394157253	2.4433806	1.5631317
31.296024882356644	2.4772923	1.5739416
31.314226632946237	2.4612393	1.5688337
31.332429193908684	2.488678	1.5775545
31.350632565811598	2.477276	1.5739365
31.368836749222787	2.4454792	1.5638028
31.387041744710295	2.4874437	1.5771632
31.40524755284232	2.4751406	1.5732579
31.423454174187317	2.469747	1.5715429
31.441661609313922	2.4758546	1.5734849
31.459869858791002	2.4637303	1.5696274
31.478078923187628	2.4859345	1.5766846
31.496288803073064	2.4967527	1.5801116
31.514499499016807	2.4463382	1.5640774
31.532711011588546	2.317555	1.5223517
31.550923341358178	2.3980937	1.5485779
31.56913648889584	2.4324894	1.559644
31.587350454771844	2.387032	1.5450022
31.605565239556732	2.270491	1.5068148
31.62378084382127	2.300349	1.5166901
31.641997268136382	2.332206	1.5271562
31.660214513073274	2.3314183	1.5268983
31.67843257920331	2.2987742	1.5161709
31.6966514670981	2.36466	1.5377451
31.71487117732944	2.3074899	1.5190424
31.733091710469346	2.2962573	1.5153407
31.751313067090052	2.3193088	1.5229276
31.769535247764008	2.3173614	1.5222882
31.787758253063878	2.3262064	1.5251906
31.805982083562526	2.3678842	1.5387931
31.824206739833024	2.4007182	1.5494251
31.84243222244869	2.3772194	1.5418234
31.860658531983013	2.300332	1.5166845
31.878885669009737	2.2519422	1.5006472
31.897113634102784	2.2058566	1.4852127
31.91534242783632	2.1833467	1.4776152
31.933572050784694	2.1671243	1.4721156
31.951802503522508	2.2222726	1.4907289
31.970033786624548	2.2550077	1.5016683
31.988265900665834	2.2943122	1.5146987
32.006498846221575	2.285735	1.5118647
32.02473262386724	2.273529	1.5078226
32.04296723417845	2.2717154	1.5072211
32.0612026777311	2.2398384	1.496609
32.07943895510129	2.2600913	1.50336
32.097676066865304	2.2702906	1.5067483
32.115914013599685	2.258758	1.5029166
32.13415279588115	2.1913047	1.4803056
32.152392414286666	2.1502364	1.4663684
32.1706328693934	2.211747	1.4871943
32.18887416177875	2.2160344	1.4886351
32.20711629202032	2.2341385	1.4947035
32.225359260695924	2.2288358	1.4929286
32.243603068383614	2.1309674	1.4597833
32.26184771566166	2.0520675	1.4325039
32.28009320310852	2.1192248	1.4557557
32.2983395313029	2.153583	1.4675092
32.31658670082372	2.1413243	1.4633265
32.33483471225012	2.1567252	1.4685793
32.35308356616143	2.093428	1.4468683
32.371333263137245	2.0227153	1.422222
32.38958380375734	2.0297694	1.4246998
32.407835188601744	2.0335925	1.4260409
32.42608741825067	2.074947	1.4404677
32.444340493284585	2.075709	1.4407321
32.46259441428416	1.9417694	1.3934739
32.48084918183028	2.0019176	1.4148914
32.49910479650405	2.1040275	1.4505266
32.51736125888683	2.1190603	1.4556992
32.53561856956014	2.0508382	1.4320748
32.5538767291058	1.9879955	1.4099629
32.572135738105764	1.9876156	1.4098282
32.59039559714228	1.9900403	1.4106879
32.608656306797776	2.020891	1.4215804
32.62691786765491	2.063337	1.4364321
32.645180280296586	2.1050346	1.4508737
32.663443545305896	2.0245817	1.4228779
32.68170766326619	1.9699259	1.4035405
32.69997263476099	1.898527	1.3778704
32.7182384603741	1.8676342	1.3666141
32.7365051406895	1.8767221	1.369935
32.75477267629144	1.957242	1.3990147
32.77304106776434	2.0102203	1.4178224
32.79131031569289	2.0449598	1.4300209
32.809580420661966	2.0379157	1.4275558
32.827851383256714	2.0942435	1.4471501
32.84612320406245	2.030005	1.4247824
32.86439588366476	1.9475305	1.3955395
32.88266942264945	2.023775	1.4225945
32.9009438216025	2.023691	1.4225649
32.9192190811102	1.9541268	1.3979008
32.937495201758985	1.936249	1.3914917
32.95577218413556	2.0251882	1.423091
32.974050028826866	1.972646	1.4045092
32.992328736420035	1.9547291	1.3981162
33.010608307502444	1.9252998	1.3875517
33.02888874266169	1.8983798	1.377817
33.047170042485604	1.9151279	1.3838814
33.06545220756225	2.0208452	1.4215643
33.083735238479896	2.035344	1.4266548
33.10201913582707	1.92358	1.3869319
33.12030390019248	1.8955408	1.3767865
33.138589532165135	1.9174404	1.3847167
33.15687603233419	1.9193186	1.3853947
33.17516340128909	1.8854012	1.3730991
33.19345163961947	1.9241904	1.387152
33.211740747915215	1.9148507	1.3837813
33.23003072676643	1.8768308	1.3699747
33.248321576763466	1.9842416	1.4086311
33.266613298496885	2.0012183	1.4146442
33.28490589255747	2.0198302	1.4212073
33.30319935953626	1.9559997	1.3985707
33.32149370002451	1.85777	1.3630004
33.339788914613706	1.7977973	1.3408196
33.358085003895575	1.8472624	1.3591403
33.376381968462034	1.9671544	1.4025528
33.39467980890529	1.988195	1.4100337
33.41297852581774	1.985422	1.40905
33.43127811979204	1.9450023	1.3946334
33.44957859142105	1.9863571	1.4093819
33.467879941297866	1.9468172	1.3952839
33.486182170015844	1.903192	1.3795623
33.50448527816853	1.8569666	1.3627056
33.522789266349754	1.8482745	1.3595126
33.541094135153514	1.9366533	1.3916368
33.55939988517411	1.9135352	1.3833059
33.57770651700602	1.8850137	1.3729581
33.59601403124398	1.9202186	1.3857195
33.61432242848296	1.9388344	1.3924203
33.632631709318154	1.9300642	1.3892676
33.650941874344994	1.8971472	1.3773696
33.66925292415916	1.8607811	1.3641045
33.68756485935654	1.9101646	1.382087
33.70587768053328	1.9954094	1.4125896
33.724191388285746	1.994594	1.412301
33.74250598321054	1.905395	1.3803605
33.760821465904506	1.8136375	1.3467135
33.77913783696474	1.7918757	1.3386096
33.79745509698852	1.8582869	1.3631899
33.815773246573414	1.9546986	1.3981054
33.8340922863172	1.9991798	1.4139236
33.852412216817896	1.9951812	1.4125088
33.87073303867377	1.9430306	1.3939264
33.889054752483304	1.8448899	1.3582672
33.907377358845245	1.8838136	1.3725209
33.92570085835853	1.9641312	1.4014747
33.94402525162239	2.03613	1.4269303
33.96235053923627	2.0256937	1.4232687
33.980676721799824	1.8363956	1.3551368
33.999003799912984	1.8635193	1.3651078
34.01733177417592	1.8541342	1.361666
34.03566064518901	1.7475986	1.3219677
34.0539904135529	1.6792355	1.2958531
34.07232107986846	1.7645476	1.3283627
34.090652644736785	1.8431549	1.3576285
34.108985108759235	1.9070269	1.3809514
34.12731847253742	1.9749223	1.4053193
34.14565273667313	1.968723	1.4031119
34.16398790176847	2.0055003	1.4161569
34.18232396842574	1.9635355	1.4012622
34.20066093724749	1.9155765	1.3840436
34.21899880883651	1.8846982	1.3728431
34.23733758379583	1.8969252	1.377289
34.25567726272874	1.8959051	1.3769187
34.27401784623872	1.8441014	1.3579769
34.29235933492957	1.8630469	1.3649348
34.31070172940526	1.9643707	1.4015601
34.32904503027003	1.8742591	1.3690358
34.347389238128386	1.7791493	1.3338475
34.36573435358502	1.8235183	1.3503771
34.38408037724492	1.9282081	1.3885993
34.402427309713296	1.9239529	1.3870664
34.42077515159559	1.9168954	1.3845199
34.43912390349752	1.9499816	1.3964174
34.45747356602499	1.8447927	1.3582314
34.47582413978423	1.8585188	1.363275
34.49417562538163	1.9593775	1.3997777
34.51252802342388	1.9448165	1.3945668
34.53088133451789	1.8862894	1.3734225
34.54923555927084	1.8902521	1.3748643
34.567590698290104	1.9917325	1.4112875
34.58594675218336	1.943459	1.39408
34.6043037215585	1.7561212	1.3251872
34.62266160702365	1.7926109	1.3388842
34.641020409187234	2.002332	1.4150378
34.65938012865785	1.9272876	1.3882679
34.677740766044394	1.9171726	1.38462
34.69610232195598	2.05662	1.434092
34.714464797002016	2.1728895	1.4740725
34.73282819179208	2.0462353	1.4304668
34.751192506936064	1.8218356	1.349754
34.76955774304408	1.8836138	1.3724481
34.7879239007265	1.9909928	1.4110254
34.80629098059391	1.998524	1.4136916
34.824658983257194	1.8618906	1.3645111
34.843027909327446	1.6814816	1.2967196
34.86139775941603	1.717877	1.3106781
34.879768534134534	1.9672033	1.4025702
34.89814023409483	1.8993299	1.3781618
34.91651285990901	1.7660788	1.328939
34.93488641218944	2.070936	1.4390746
34.95326089154871	2.2872655	1.5123708
34.97163629859967	2.1353502	1.4612838
34.99001263395542	1.9080791	1.3813324
35.00838989822934	1.8986938	1.377931
35.02676809203499	1.9378326	1.3920605
35.04514721598624	2.0770388	1.4411935
35.063527270697215	2.3286538	1.5259928
35.081908256782256	2.2294009	1.4931178
35.10029017485597	1.9756603	1.4055818
35.11867302553321	1.8282433	1.3521254
35.137056809429104	1.8476042	1.359266
35.155441527159006	1.9407091	1.3930933
35.173827179338524	2.035468	1.4266983
35.19221376658354	2.0683815	1.4381869
35.21060128951017	2.2108161	1.4868814
35.2289897487348	2.2007658	1.4834979
35.24737914487405	2.2014124	1.4837158
35.26576947854479	2.1824315	1.4773055
35.28416075036418	2.338072	1.5290755
35.30255296094958	2.4476779	1.5645056
35.32094611091867	2.0174963	1.420386
35.33934020088932	1.6849905	1.2980719
35.35773523147969	1.7218997	1.3122118
35.3761312033082	1.7307042	1.3155624
35.394528116993506	1.5993636	1.2646595
35.41292597315452	1.908489	1.3814807
35.431324772410434	2.088655	1.445218
35.449724515380666	1.6204414	1.2729656
35.46812520268491	1.4724605	1.2134498
35.486526834943106	1.7683047	1.3297762
35.504929412775454	1.9716349	1.4041492
35.52333293680242	1.9813471	1.4076033
35.54173740764471	1.9893018	1.4104261
35.560142825923286	2.0514696	1.4322952
35.5785491922594	1.9742277	1.4050721
35.59695650727454	1.4309039	1.196204
35.61536477159042	1.1671087	1.080328
