0.008763373481513119	0.0	0.0
0.026290120649546365	0.0	0.0
0.043816868432600686	0.13170215	0.36290792
0.06134361724069026	0.09919149	0.3149468
0.07887036748382949	0.08605374	0.29334918
0.0963971195720331	0.06024602	0.24545065
0.11392387391531617	0.14161186	0.3763135
0.1314506309236943	0.18916883	0.43493542
0.1489773910071836	0.19880007	0.44587
0.16650415457580078	0.19213077	0.43832725
0.18403092203956356	0.14389756	0.37933832
0.20155769380849	0.097239845	0.31183305
0.2190844702925996	0.09260116	0.3043044
0.2366112519019124	0.10803124	0.32868105
0.2541380390464497	0.18339959	0.42825177
0.27166483213623416	0.2055246	0.4533482
0.28919163158128947	0.19572851	0.44241214
0.3067184377916406	0.16873252	0.41077065
0.324245251177314	0.14004536	0.37422636
0.34177207214833777	0.1106672	0.33266678
0.3592989011147415	0.12788725	0.35761327
0.37682573848655654	0.1877453	0.43329585
0.39435258467381573	0.21640737	0.46519607
0.41187944008655414	0.21652918	0.46532696
0.42940630513480854	0.19975384	0.44693828
0.446933180228618	0.15432988	0.39284843
0.4644600657780234	0.1303422	0.36102936
0.48198696219306775	0.0845589	0.2907901
0.49951386988379676	0.107584424	0.32800063
0.5170407892602581	0.1249942	0.3535452
0.5345677207325025	0.16151232	0.40188596
0.5520946647105822	0.15686119	0.39605704
0.5696216216045534	0.15846911	0.39808178
0.5871485918244737	0.17787884	0.42175686
0.6046755757804043	0.17210425	0.4148545
0.6222025738824094	0.15794788	0.39742658
0.6397295865405557	0.13102037	0.36196736
0.6572566141649129	0.1603728	0.40046573
0.6747836571655547	0.21556734	0.4642923
0.6923107159525568	0.2353998	0.48518017
0.7098377909359992	0.20881511	0.4569629
0.7273648825259653	0.17859599	0.4226062
0.7448919911325411	0.15031898	0.38770992
0.762419117165817	0.15456572	0.39314848
0.7799462610358868	0.1616529	0.4020608
0.7974734231528482	0.1817013	0.42626435
0.8150006039268024	0.20949176	0.4577027
0.8325278037678551	0.21598142	0.464738
0.8500550230861152	0.18026768	0.4245794
0.8675822622916969	0.18060316	0.4249743
0.8851095217947171	0.14532067	0.3812095
0.9026368020052984	0.1548932	0.39356473
0.9201641033335665	0.15635476	0.39541718
0.9376914261896523	0.2006508	0.44794062
0.9552187709836915	0.21723469	0.46608442
0.9727461381258234	0.2190094	0.4679844
0.990273528026193	0.2520824	0.5020781
1.0078009410949496	0.27924892	0.52844006
1.0253283777422473	0.30291894	0.5503807
1.0428558383782454	0.26380825	0.5136227
1.0603833234131086	0.25094262	0.50094175
1.0779108332570058	0.27360764	0.52307516
1.0954383683201119	0.27658987	0.5259181
1.112965929012607	0.35878116	0.59898347
1.1304935157446763	0.5242416	0.72404534
1.1480211289265108	0.56206334	0.74970883
1.1655487689683062	1.5039731	1.2263658
1.1830764362802655	1.7994951	1.3414526
1.200604131272596	2.1643322	1.471167
1.2181318543555117	2.3030877	1.5175928
1.235659605939232	2.3420799	1.5303855
1.253187386433982	3.8535569	1.9630479
1.270715196249994	6.2345505	2.4969082
1.2882430357975057	11.920702	3.452637
1.3057709054867608	16.903492	4.111386
1.3232988057280106	23.108677	4.8071485
1.3408267369315112	28.029974	5.294334
1.358354699507526	31.561878	5.6179957
1.3758826938663256	35.384857	5.9485173
1.3934107204181858	37.43441	6.1183667
1.410938779573391	37.872616	6.154073
1.4284668717422309	38.444183	6.2003374
1.4459949973350033	38.131855	6.1750994
1.4635231567620117	37.88297	6.1549144
1.4810513504335687	37.062626	6.0879083
1.4985795787599925	36.259167	6.0215583
1.5161078421516088	35.52666	5.9604244
1.5336361410187505	34.86423	5.904594
1.5511644757717598	35.194862	5.9325256
1.5686928468209842	36.14165	6.0117927
1.58622125457678	36.698555	6.0579333
1.6037496994495108	37.514164	6.124881
1.621278181849548	36.948555	6.078532
1.6388067021872719	37.62496	6.133919
1.6563352608730693	37.62568	6.1339774
1.673863858317336	37.103123	6.0912333
1.6913924949304753	35.98717	5.998931
1.7089211711228998	34.77529	5.897058
1.7264498873050296	33.954212	5.8270245
1.7439786438872935	33.35923	5.775745
1.7615074412801288	32.589844	5.7087517
1.779036279893981	31.685934	5.629026
1.796565160139305	30.68112	5.539054
1.814094082426564	29.906794	5.4687104
1.8316230471662298	29.137098	5.397879
1.849152054768784	27.961412	5.287855
1.8666811056447168	27.357225	5.2304134
1.8842102002045273	26.686857	5.165932
1.901739338858724	26.452974	5.1432457
1.9192685220178245	26.083591	5.1072097
1.9367977500923557	25.476658	5.0474405
1.9543270234928547	25.091957	5.009187
1.971856342629867	24.23639	4.9230466
1.9893857079139496	23.812664	4.8798223
2.006915119755667	23.167694	4.813283
2.0244445785655945	22.286514	4.7208595
2.0419740847543175	21.687416	4.656975
2.0595036387324317	21.422066	4.628398
2.0770332409105414	21.188543	4.6031013
2.094562891699263	20.871613	4.568546
2.1120925915092217	20.058434	4.4786644
2.129622340751053	19.63994	4.4316974
2.1471521398354043	187.82718	13.705006
2.1646819891729323	444.36957	21.080074
2.182211889174303	440.65726	20.991838
2.1997418402501974	453.0878	21.28586
2.2172718428113023	432.817	20.804255
2.234801897268317	320.6148	17.90572
2.2523320040319548	17.230331	4.1509433
2.269862163512935	16.898676	4.1108
2.287392376121992	16.690462	4.0853963
2.304922642269869	16.43188	4.0536256
2.322452962367322	16.24865	4.0309615
2.3399833368251164	16.139063	4.0173454
2.357513766054032	15.812339	3.976473
2.3750442504648586	15.282379	3.9092684
2.3925747904683963	14.847959	3.8533049
2.410105386475459	14.56709	3.8166857
2.4276360388968707	14.316863	3.7837632
2.445166748143469	14.150971	3.7617776
2.4626975146261025	13.839397	3.720134
2.4802283387556323	13.699686	3.7013087
2.4977592209429305	13.44148	3.6662624
2.5152901615988825	13.353447	3.6542368
2.5328211611343865	13.111992	3.6210485
2.5503522199603523	12.942815	3.5976124
2.5678833384877024	12.742943	3.569726
2.5854145171273712	12.618274	3.552221
2.6029457562903064	12.260925	3.5015604
2.620477056387469	11.906993	3.4506512
2.6380084178298326	11.630929	3.4104147
2.655539841028383	11.434063	3.3814292
2.673071326394119	11.258999	3.3554432
2.6906028743380523	11.142732	3.338073
2.708134485271211	11.119931	3.334656
2.7256661596046325	11.1718	3.3424242
2.743197897749369	10.842082	3.2927318
2.760729700116486	10.706917	3.2721426
2.778261567117063	10.506563	3.2413828
2.795793499162193	10.439958	3.2310922
2.8133254966629817	10.194229	3.1928403
2.830857560030551	10.034094	3.1676638
2.8483896896760337	9.88181	3.1435347
2.865921886010578	9.590337	3.0968268
2.883454149445347	9.461414	3.0759413
2.9009864803915177	9.393264	3.0648432
2.91851887926028	9.365675	3.060339
2.9360513464628384	9.296752	3.0490575
2.953583882410413	9.216813	3.0359204
2.9711164875142373	9.086457	3.0143752
2.9886491621855606	8.855389	2.9758005
3.0061819068356455	8.727979	2.9543152
3.023714721875769	8.593416	2.931453
3.041247607717225	8.427784	2.9030645
3.0587805647713213	8.291021	2.8794134
3.0763135934493806	8.275517	2.87672
3.0938466941627407	8.337435	2.8874617
3.1113798673227544	8.29908	2.8808124
3.1289131133407904	8.141912	2.8534036
3.1464464326282315	7.9019437	2.8110397
3.1639798255964786	7.8714027	2.805602
3.1815132926569443	7.7267523	2.7797036
3.1990468342210603	7.6735463	2.7701166
3.216580450700272	7.591115	2.7551978
3.2341141425060416	7.527676	2.7436612
3.251647910049847	7.371495	2.7150497
3.2691817537431813	7.2280197	2.6884978
3.286715673997555	7.181532	2.679838
3.3042496712244938	7.173298	2.6783013
3.32178374583554	7.162654	2.6763134
3.339317898242251	7.1965117	2.6826315
3.3568521288562034	7.064718	2.6579537
3.3743864380889876	6.916315	2.6298888
3.3919208263522127	6.8200793	2.6115282
3.4094552940575023	6.7446895	2.597054
3.4269898416164972	6.76147	2.6002827
3.444524469440858	6.796807	2.6070685
3.4620591779422587	6.7267895	2.5936055
3.479593967532391	6.595863	2.5682411
3.4971288386229658	6.4716434	2.5439425
3.5146637916257086	6.462781	2.5422
3.5321988269523628	6.544147	2.5581532
3.5497339450146903	6.6161733	2.5721922
3.5672691462244708	6.512422	2.5519447
3.5848044309934988	6.436866	2.537098
3.60233979973359	6.4600964	2.541672
3.619875252856575	6.523908	2.5541942
3.6374107907743034	6.410428	2.5318823
3.6549464138986427	6.362347	2.5223694
3.6724821226414788	6.289885	2.5079644
3.690017917414714	6.299783	2.5099368
3.7075537986302702	6.303301	2.5106375
3.7250897667000857	6.328769	2.5157046
3.7426258220361235	6.487636	2.5470839
3.7601619650503553	6.9275975	2.6320329
3.777698196154779	7.514477	2.7412546
3.7952345157614067	8.549916	2.9240239
3.8127709242822716	9.307856	3.0508778
3.830307422129425	11.346984	3.3685284
3.847844009714936	30.104427	5.48675
3.8653806874508954	97.675446	9.883089
3.882917455749409	96.871994	9.842357
3.900454315022606	96.74283	9.8357935
3.917991265682631	41.336025	6.42931
3.9355283081416506	11.022394	3.3199992
3.9530654428118495	8.807055	2.9676683
3.970602670105433	7.594945	2.7558928
3.9881399904346244	6.755996	2.5992298
4.005677404211669	6.672203	2.5830607
4.023214911848827	6.583961	2.565923
4.0407525137583855	6.500672	2.5496416
4.058290210352644	6.4907203	2.5476892
4.075828002043927	6.329038	2.515758
4.0933658892445814	6.2273836	2.4954727
4.110903872366966	6.189564	2.4878836
4.128441951823468	6.15729	2.4813888
4.145980128026488	6.167628	2.483471
4.163518401388452	6.2055435	2.491093
4.181056772321807	6.2760296	2.5052006
4.1985952412390155	6.274989	2.5049927
4.216133808552567	6.2219825	2.4943902
4.233672474674966	6.303076	2.5105927
4.251211240018741	6.451753	2.5400302
4.268750104996445	6.76899	2.6017282
4.286289070020643	7.6674523	2.7690165
4.303828135503928	9.293796	3.0485728
4.3213673018589125	29.559816	5.436894
4.3389065694982305	90.699844	9.523646
4.356445938834537	165.94746	12.88206
4.3739854102805085	171.46545	13.094481
4.391524984248844	172.34743	13.128116
4.409064661152262	136.39703	11.678914
4.426604441403504	96.56457	9.826727
4.444144325415337	75.47079	8.687392
4.461684313600543	21.499092	4.636711
4.47922440637193	21.90946	4.680754
4.496764604142329	20.488705	4.526445
4.5143049073245916	18.69329	4.323574
4.531845316331589	16.658009	4.0814223
4.5493858315762195	13.791409	3.7136786
4.566926453471405	11.364859	3.3711805
4.584467182430081	9.374139	3.0617216
4.602008018865218	8.220734	2.8671823
4.619548963189798	7.6219845	2.7607942
4.637090015816834	7.1129627	2.667014
4.654631177159353	6.791496	2.6060498
4.672172447630417	6.4748077	2.5445642
4.689713827643102	6.274454	2.5048862
4.7072553176105085	6.09985	2.4697874
4.724796917945764	5.953537	2.4399872
4.742338629062015	5.794761	2.407231
4.759880451372434	5.6949825	2.3864162
4.777422385290215	5.6903696	2.3854496
4.794964431228581	5.7248564	2.3926673
4.812506589600768	5.7408357	2.3960042
4.830048860820047	5.758302	2.3996463
4.847591245299709	5.7401752	2.3958664
4.8651337434530655	5.6490083	2.3767643
4.882676355693457	5.5867915	2.3636394
4.900219082434242	5.494046	2.343938
4.917761924088813	5.4393396	2.3322392
4.935304881070575	5.526703	2.350894
4.952847953792969	5.598964	2.366213
4.970391142669449	5.649726	2.3769152
4.9879344481135055	5.574367	2.3610098
5.005477870538642	5.492862	2.3436856
5.023021410358394	5.484466	2.3418937
5.040565067986324	5.471782	2.339184
5.05810884383601	5.530137	2.3516243
5.075652738321066	5.547963	2.3554115
5.09319675185512	5.5383234	2.3533642
5.110740884851836	5.481888	2.3413432
5.128285137724894	5.369453	2.317208
5.145829510888007	5.296898	2.3014991
5.163374004754908	5.227458	2.2863636
5.1809186197393595	5.2380414	2.2886767
5.198463356255145	5.3427067	2.3114295
5.216008214716077	5.377755	2.3189988
5.233553195535998	5.435707	2.3314602
5.251098299128764	5.3948164	2.3226745
5.268643525908272	5.283446	2.2985747
5.286188876288432	5.2180195	2.2842984
5.3037343506831895	5.1355762	2.266181
5.32127994950651	5.1195817	2.2626493
5.3388256731723915	5.1484227	2.2690136
5.356371522094851	5.1554084	2.2705524
5.373917496687938	5.1850343	2.277067
5.391463597365729	5.175984	2.2750788
5.40900982454232	5.1329937	2.2656112
5.426556178631843	5.133953	2.265823
5.444102660048449	5.15178	2.2697532
5.4616492692063225	5.225513	2.285938
5.479196006519669	5.2845774	2.298821
5.496742872402727	5.2619166	2.293887
5.514289867269756	5.2393136	2.2889547
5.531836991535049	5.1511993	2.2696254
5.549384245612924	5.146147	2.268512
5.566931629917724	5.1207833	2.262915
5.584479144863822	5.0932527	2.2568235
5.6020267908656205	5.083516	2.2546654
5.619574568337545	5.1334724	2.2657168
5.637122477694054	5.2248206	2.2857866
5.654670519349629	5.2228827	2.2853627
5.672218693718784	5.1758747	2.275055
5.689767001216059	5.1577044	2.271058
5.707315442256021	5.1981387	2.2799428
5.724864017253266	5.1698966	2.2737408
5.7424127266224225	5.184344	2.2769153
5.75996157077814	5.1804094	2.2760513
5.777510550135105	5.1872497	2.2775533
5.795059665108022	5.2131505	2.2832325
5.812608916111639	5.234693	2.2879453
5.830158303560715	5.393659	2.3224254
5.847707827870055	5.3653436	2.3163211
5.86525748945448	5.4164515	2.327327
5.8828072887288485	5.5032935	2.34591
5.900357226108044	5.5792575	2.3620453
5.917907302006979	5.748042	2.3975074
5.9354575168406	6.308266	2.5116262
5.9530078710238765	6.8758097	2.6221764
5.970558364971812	7.341334	2.7094896
5.988108999099438	7.657566	2.7672307
6.005659773821818	8.144518	2.8538601
6.023210689554039	7.931896	2.8163621
6.040761746711227	8.394857	2.897388
6.058312945708531	7.819969	2.7964208
6.075864286961132	7.387162	2.7179334
6.093415770884244	6.729279	2.5940855
6.1109673978931065	6.15932	2.4817977
6.128519168402993	5.5749493	2.361133
6.146071082829204	5.3915167	2.321964
6.163623141587075	5.239887	2.28908
6.181175345091969	5.176757	2.2752488
6.198727693759281	5.1700788	2.2737808
6.216280188004435	5.180995	2.27618
6.233832828242885	5.160047	2.2715738
6.251385614890126	5.180175	2.2759998
6.268938548361669	5.1347704	2.2660031
6.286491629073067	5.069254	2.2515004
6.304044857439898	5.093209	2.2568138
6.321598233877777	5.0102124	2.2383504
6.339151758802344	5.0274224	2.2421916
6.356705432629277	5.028255	2.242377
6.37425925577428	5.0421715	2.245478
6.391813228653095	5.00191	2.236495
6.409367351681486	4.960639	2.2272491
6.426921625275259	4.9628134	2.2277372
6.44447604985025	4.979347	2.231445
6.46203062582232	4.9985847	2.2357514
6.47958535360737	4.92311	2.2188082
6.497140233621328	4.944124	2.2235386
6.514695266280161	4.946478	2.224068
6.532250451999859	4.989135	2.233637
6.549805791196454	4.979594	2.2315004
6.567361284286002	5.0225234	2.2410986
6.584916931684597	5.030272	2.2428267
6.602472733808367	5.0940113	2.2569916
6.6200286910734665	5.1393323	2.2670095
6.637584803896092	5.16398	2.2724392
6.655141072692462	5.143138	2.2678487
6.672697497878842	5.1434016	2.267907
6.690254079871514	5.084429	2.2548678
6.707810819086808	5.071933	2.2520952
6.725367715941078	5.034882	2.2438543
6.742924770850719	4.994276	2.2347877
6.760481984232151	4.9648356	2.2281911
6.778039356501836	4.9899955	2.2338297
6.795596888076266	5.0053964	2.2372744
6.813154579371963	4.9927917	2.2344556
6.830712430805492	4.973964	2.2302387
6.84827044279344	4.961619	2.2274692
6.865828615752445	5.000484	2.2361763
6.883386950099159	5.003065	2.2367532
6.900945446250287	4.962611	2.227692
6.918504104622553	4.9398947	2.2225873
6.936062925632727	4.9600234	2.227111
6.953621909697607	4.983891	2.232463
6.971181057234028	5.0875897	2.2555685
6.988740368658859	5.1541114	2.2702668
7.006299844389007	5.21644	2.2839527
7.023859484841407	5.347093	2.3123782
7.041419290433036	5.3542914	2.313934
7.058979261580902	5.5719833	2.3605049
7.0765393987020495	5.777375	2.4036171
7.094099702213559	6.1434283	2.478594
7.111660172532549	6.4248657	2.5347319
7.129220810076164	6.723916	2.5930514
7.146781615261595	7.3368998	2.7086713
7.16434258850606	7.5792923	2.7530515
7.181903730226821	8.011018	2.8303742
7.1994650408411704	8.057661	2.838602
7.217026520766437	8.2150345	2.866188
7.234588170419983	8.508386	2.9169137
7.252149990219215	8.5645	2.9265168
7.269711980581568	8.481745	2.9123435
7.2872741419245175	8.213703	2.8659558
7.304836474665574	7.8089914	2.7944572
7.322398979222286	7.514075	2.7411814
7.339961656012233	7.316535	2.7049093
7.357524505453039	6.8693047	2.620936
7.375087527962357	6.5734267	2.5638695
7.392650723957886	6.2911725	2.508221
7.410214093857353	6.034216	2.456464
7.427777638078528	5.7968726	2.4076695
7.445341357039213	5.61503	2.3696053
7.4629052511572525	5.443305	2.333089
7.480469320850524	5.365609	2.3163784
7.498033566536948	5.257076	2.2928314
7.5155979886344735	5.209388	2.2824082
7.5331625875610975	5.180387	2.2760463
7.550727363734844	5.2133174	2.283269
7.568292317573788	5.2911406	2.300248
7.585857449496025	5.2936954	2.3008032
7.603422759919705	5.2498426	2.2912536
7.620988249263007	5.2205715	2.284857
7.638553917944147	5.2330008	2.2875752
7.656119766381391	5.279338	2.297681
7.673685794993023	5.2842965	2.2987597
7.691252004197388	5.3343887	2.3096297
7.70881839441285	5.3646708	2.316176
7.726384966057826	5.3702183	2.317373
7.743951719550762	5.352401	2.3135257
7.761518655310149	5.299796	2.3021286
7.779085773754511	5.2741985	2.2965624
7.796653075302419	5.226134	2.286074
7.814220560372475	5.213178	2.2832384
7.831788229383323	5.2450914	2.2902164
7.8493560827536495	5.2885003	2.299674
7.866924120902174	5.3528037	2.3136127
7.884492344247663	5.3961954	2.3229713
7.9020607532089135	5.4560676	2.3358226
7.919629348204771	5.5008597	2.3453913
7.937198129654115	5.4561863	2.335848
7.954767097975865	5.421175	2.3283417
7.972336253588986	5.397751	2.323306
7.989905596912472	5.3478746	2.3125472
8.007475128365371	5.3645763	2.3161554
8.025044848366756	5.4178257	2.3276224
8.042614757335754	5.486946	2.3424232
8.060184855691523	5.5613704	2.3582559
8.07775514385327	5.6994944	2.3873613
8.095325622240228	5.789447	2.406127
8.112896291271687	5.8805	2.4249742
8.130467151366968	5.945526	2.438345
8.148038202945436	5.9470654	2.4386606
8.165609446426497	5.996693	2.4488146
8.183180882229594	6.0442166	2.458499
8.200752510774217	6.0551114	2.4607136
8.218324332479893	6.100816	2.4699829
8.235896347766193	6.0826235	2.4662976
8.253468557052724	6.086056	2.4669933
8.27104096075914	6.0414567	2.4579375
8.288613559305137	6.106687	2.4711711
8.306186353110448	6.170514	2.484052
8.32375934259485	6.2216945	2.4943326
8.341332528178162	6.265988	2.5031955
8.358905910280246	6.2931905	2.5086231
8.376479489321003	6.2924967	2.5084848
8.394053265720377	6.376023	2.5250788
8.411627239898356	6.3802705	2.5259197
8.42920141227497	6.387892	2.527428
8.44677578327029	6.3952165	2.5288765
8.464350353304427	6.3280597	2.5155635
8.48192512279754	6.2650657	2.5030112
8.499500092169827	6.220332	2.4940593
8.51707526184153	6.226202	2.495236
8.534650632232934	6.279575	2.505908
8.552226203764365	6.323313	2.5146198
8.569801976856192	6.3380446	2.5175474
8.587377951928834	6.3701863	2.523923
8.60495412940274	6.3645496	2.522806
8.622530509698416	6.411322	2.532059
8.6401070932364	6.4790783	2.5454035
8.657683880437283	6.5102515	2.5515194
8.675260871721695	6.6006265	2.5691683
8.692838067510303	6.727533	2.5937488
8.710415468223834	6.8622665	2.619593
8.727993074283043	7.00685	2.6470454
8.745570886108737	7.0381284	2.6529472
8.763148904121765	7.106972	2.6658905
8.78072712874302	7.1783004	2.679235
8.798305560393441	7.4891315	2.7366278
8.815884199494006	7.672957	2.7700102
8.833463046465745	7.852622	2.802253
8.851042101729728	7.979532	2.8248065
8.86862136570707	8.313869	2.883378
8.886200838818924	8.51245	2.9176104
8.903780521486505	8.512703	2.9176536
8.921360414131055	8.564521	2.9265203
8.938940517173874	8.639832	2.939359
8.956520831036297	8.783895	2.9637635
8.97410135613971	9.106927	3.0177686
8.99168209290554	9.2941675	3.0486338
9.009263041755265	9.604515	3.0991151
9.026844203110405	9.78449	3.128017
9.044425577392525	9.95824	3.1556678
9.062007165023239	10.073023	3.1738026
9.079588966424197	10.372739	3.2206736
9.097170982017108	10.48595	3.2382016
9.11475321222372	11.429385	3.3807373
9.132335657465825	12.324367	3.5106077
9.149918318165264	12.400258	3.5214
9.167501194743924	12.972442	3.6017275
9.18508428762374	12.628178	3.5536146
9.202667597226693	12.604306	3.5502543
9.220251123974803	12.301037	3.5072834
9.237834868290143	12.061419	3.4729552
9.255418830594836	12.026846	3.4679744
9.273003011311046	11.405083	3.3771412
9.290587410860985	11.108888	3.3329997
9.308172029666911	10.292911	3.2082567
9.32575686815113	10.009201	3.163732
9.343341926735997	8.710438	2.951345
9.360927205843916	8.4944	2.9145155
9.378512705897327	8.335669	2.8871558
9.396098427318728	8.097557	2.8456206
9.413684370530664	7.9748077	2.8239703
9.431270535955722	7.879327	2.8070138
9.448856924016539	7.873912	2.806049
9.466443535135806	7.786139	2.7903655
9.484030369736251	7.809329	2.7945178
9.501617428240658	7.7697997	2.787436
9.519204711071852	7.841333	2.800238
9.536792218652714	7.872502	2.8057978
9.55437995140617	7.9069014	2.8119214
9.571967909755191	7.889938	2.8089032
9.589556094122802	7.875629	2.806355
9.60714450493207	7.937803	2.8174107
9.624733142606116	7.988979	2.8264782
9.642322007568108	8.0151205	2.8310988
9.659911100241267	8.032627	2.834189
9.677500421048851	8.075745	2.8417854
9.695089970414175	8.114582	2.8486106
9.712679748760609	8.188681	2.861587
9.730269756511557	8.172622	2.8587797
9.747859994090492	8.156325	2.8559282
9.765450461920915	8.154471	2.8556035
9.78304116042639	8.218851	2.866854
9.800632090030527	8.209484	2.8652198
9.81822325115699	8.268734	2.8755407
9.835814644229481	8.288825	2.879032
9.853406269671762	8.304695	2.8817868
9.870998127907646	8.322923	2.8849475
9.888590219360985	8.306276	2.882061
9.906182544455698	8.279695	2.877446
9.923775103615734	8.225203	2.8679614
9.941367897265108	8.242126	2.8709104
9.958960925827878	8.315909	2.8837318
9.97655418972816	8.31531	2.883628
9.994147689390106	8.326552	2.8855767
10.011741425237934	8.280713	2.8776228
10.029335397695904	8.210692	2.8654306
10.04692960718833	8.17174	2.8586254
10.06452405413958	8.186727	2.8612456
10.082118738974064	8.255421	2.8732247
10.099713662116246	8.279337	2.8773837
10.117308823990651	8.242138	2.8709123
10.134904225021844	8.216462	2.8664372
10.152499865634445	8.258103	2.8736916
10.170095746253125	8.342384	2.8883185
10.18769186730261	8.319257	2.8843122
10.205288229207675	8.273078	2.8762958
10.222884832393145	8.224139	2.867776
10.2404816772839	8.219627	2.8669891
10.258078764304868	8.201718	2.8638642
10.275676093881035	8.16664	2.8577335
10.293273666437438	8.147479	2.854379
10.310871482399158	8.227584	2.8683765
10.32846954219134	8.219619	2.8669877
10.346067846239173	8.219816	2.8670223
10.363666394967908	8.206738	2.8647406
10.38126518880283	8.1880455	2.8614762
10.398864228169298	8.271265	2.8759806
10.416463513492713	8.242543	2.870983
10.434063045198531	8.2437	2.8711843
10.451662823712262	8.259412	2.8739192
10.469262849459467	8.256349	2.8733861
10.486863122865758	8.219267	2.8669264
10.504463644356806	8.192765	2.8623006
10.522064414358338	8.152598	2.8552756
10.539665433296118	8.040712	2.835615
10.557266701595987	7.9467273	2.818994
10.574868219683818	7.8827143	2.8076172
10.592469987985552	7.786815	2.7904866
10.610072006927185	7.6752224	2.7704191
10.627674276934751	7.507293	2.739944
10.64527679843435	7.329176	2.707245
10.662879571852143	7.261969	2.6948042
10.680482597614331	7.1961427	2.6825626
10.698085876147173	7.153328	2.6745706
10.715689407876988	7.0648437	2.6579773
10.733293193230146	7.0678706	2.6585467
10.750897232633072	6.9128056	2.6292214
10.76850152651225	6.7923694	2.6062174
10.786106075294207	6.6059594	2.5702062
10.803710879405534	6.4754467	2.54469
10.821315939272877	6.381701	2.526203
10.83892125532294	6.3315363	2.5162544
10.856526827982472	6.2593236	2.501864
10.874132657678285	6.252621	2.5005243
10.891738744837243	6.256483	2.5012963
10.909345089886271	6.225657	2.4951267
10.926951693252343	6.19696	2.4893694
10.944558555362494	6.147893	2.4794946
10.96216567664381	6.110877	2.4720187
10.979773057523436	6.073064	2.4643588
10.997380698428573	5.9347014	2.4361243
11.014988599786477	5.869508	2.4227066
11.032596762024461	5.8038483	2.4091177
11.050205185569892	5.743933	2.3966503
11.067813870850198	5.6953235	2.3864877
11.085422818292859	5.644069	2.375725
11.10303202832541	5.5783124	2.361845
11.120641501375454	5.5099487	2.347328
11.138251237870636	5.410562	2.3260615
11.155861238238671	5.3441133	2.3117337
11.173471502907317	5.303771	2.3029919
11.191082032304402	5.220544	2.2848508
11.208692826857805	5.14532	2.2683299
11.226303886995465	5.071197	2.251932
11.243915213145371	4.991245	2.2341094
11.261526805735578	4.9224806	2.2186663
11.279138665194196	4.846002	2.2013638
11.296750791949393	4.8259325	2.1968005
11.314363186429393	4.753613	2.1802783
11.331975849062479	4.7295036	2.1747422
11.34958878027699	4.738367	2.176779
11.36720198050133	4.7271433	2.1741993
11.384815450163948	4.688715	2.165344
11.402429189693366	4.605727	2.1460958
11.420043199518153	4.532642	2.1290002
11.437657480066942	63.47863	7.9673476
11.455272031768422	85.184135	9.229526
11.472886855051353	107.624565	10.374226
11.490501950344528	99.18632	9.959232
11.508117318076819	84.52061	9.193509
11.52573295867715	45.89301	6.774438
11.543348872574514	4.1941686	2.047967
11.560965060197946	4.165026	2.0408397
11.57858152197655	4.1118646	2.0277734
11.59619825833949	4.0618296	2.015398
11.613815269715985	4.0328884	2.0082052
11.631432556535323	38.488907	6.203943
11.649050119226837	83.03295	9.112242
11.666667958219929	93.42916	9.665876
11.68428607394406	107.71075	10.378379
11.701904466828756	82.53039	9.084623
11.719523137303586	65.359184	8.084503
11.737142085798196	4.560081	2.1354346
11.754761312742286	3.6785214	1.9179472
11.772380818565619	3.699135	1.9233136
11.790000603698015	3.7089753	1.9258701
11.80762066856935	3.6692414	1.9155264
11.825241013609572	3.584072	1.8931646
11.842861639248683	3.5573392	1.886091
11.860482545916748	3.5631633	1.8876343
11.878103734043883	3.5878615	1.8941652
11.895725204060282	3.5906577	1.8949031
11.91334695639619	3.5369303	1.8806728
11.930968991481919	3.4289896	1.8517531
11.948591309747824	3.3524485	1.8309692
11.966213911624347	3.3687727	1.8354217
11.98383679754198	3.343031	1.8283957
12.001459967931268	3.3356147	1.8263665
12.019083423222835	3.2715178	1.8087337
12.036707163847352	3.283827	1.8121333
12.05433119023556	3.274164	1.809465
12.071955502818259	3.2780726	1.8105448
12.089580102026313	3.2597277	1.8054717
12.107204988290643	3.1909173	1.7863139
12.12483016204224	3.174466	1.7817031
12.142455623712152	3.1574392	1.7769184
12.16008137373149	3.16103	1.7779286
12.177707412531431	3.112147	1.7641279
12.19533374054321	3.0707955	1.7523686
12.212960358198126	3.0640104	1.7504315
12.230587265927545	3.0481043	1.7458822
12.248214464162889	3.026599	1.7397124
12.265841953335649	3.0115073	1.7353694
12.283469733877375	2.9946778	1.7305137
12.301097806219685	2.9738562	1.7244872
12.31872617079425	2.9626968	1.7212486
12.336354828032825	2.963668	1.7215308
12.353983778367205	2.9746876	1.7247282
12.371613022229262	2.9570782	1.7196157
12.389242560050928	2.962814	1.7212827
12.406872392264201	2.9787362	1.7259016
12.424502519301143	2.9718673	1.7239105
12.442132941593874	2.9410172	1.7149394
12.459763659574586	2.883721	1.6981523
12.477394673675532	2.8680325	1.6935266
12.49502598432903	2.8934321	1.7010092
12.51265759196746	2.8999639	1.7029281
12.530289497023267	2.8518035	1.6887283
12.547921699928967	2.835021	1.6837521
12.565554201117134	2.8214588	1.6797198
12.583187001020404	2.8026564	1.6741136
12.600820100071486	2.753994	1.6595162
12.618453498703152	2.7604167	1.6614501
12.636087197348235	2.7648435	1.6627818
12.65372119643964	2.790259	1.6704068
12.671355496410326	2.824802	1.6807147
12.68899009769333	2.8358755	1.6840057
12.706625000721749	2.8225489	1.6800443
12.724260205928752	2.8660076	1.6929287
12.741895713747551	2.936283	1.7135586
12.759531524611454	3.0244174	1.7390852
12.777167638953818	3.0379002	1.7429574
12.794804057208072	3.0406094	1.7437344
12.812440779807702	3.0952168	1.7593228
12.830077807186271	3.227896	1.7966347
12.847715139777405	3.2522242	1.8033924
12.865352778014795	3.4184797	1.8489131
12.882990722332197	3.5328913	1.8795987
12.90062897316344	3.6438496	1.908887
12.918267530942412	3.7307987	1.9315276
12.935906396103071	3.601341	1.89772
12.953545569079449	3.7971535	1.9486287
12.971185050305628	3.6195772	1.9025186
12.988824840215775	3.6601167	1.9131432
13.006464939244115	3.6769712	1.917543
13.024105347824943	3.504728	1.8720919
13.041746066392617	3.54187	1.8819857
13.05938709538157	3.312027	1.8198975
13.077028435226296	3.3780067	1.8379354
13.094670086361363	3.3018935	1.8171113
13.112312049221401	3.2051504	1.7902933
13.129954324241112	3.0973568	1.7599308
13.147596911855258	2.9250426	1.7102757
13.165239812498685	2.9003594	1.7030442
13.182883026606293	2.8576546	1.6904598
13.200526554613058	2.82297	1.6801696
13.218170396954017	2.7688131	1.6639751
13.235814554064284	2.7423942	1.6560175
13.253459026379034	2.7428012	1.6561404
13.271103814333523	2.6908965	1.6403953
13.288748918363058	2.6720757	1.6346486
13.306394338903031	2.6828527	1.6379416
13.32404007638889	2.685093	1.6386253
13.341686131256164	2.722352	1.6499552
13.359332503940449	2.7109845	1.6465068
13.376979194877402	2.7299004	1.652241
13.394626204502751	2.7618878	1.6618929
13.412273533252307	2.7712607	1.6647104
13.429921181561937	2.7285202	1.6518233
13.447569149867581	2.745772	1.6570371
13.465217438605247	2.7221143	1.6498832
13.482866048211022	2.6874967	1.6393586
13.500514979121052	2.69483	1.6415937
13.518164231771568	2.7096717	1.646108
13.535813806598844	2.7331934	1.6532372
13.553463704039254	2.7187655	1.648868
13.571113924529229	2.7096057	1.646088
13.588764468505275	2.7098074	1.6461493
13.606415336403956	2.7471576	1.6574552
13.624066528661917	2.7563043	1.6602122
13.641718045715882	2.8272836	1.6814529
13.659369888002635	2.8598638	1.6911131
13.67702205595903	2.9153934	1.7074523
13.694674550021993	2.9852471	1.7277868
13.712327370628532	3.0630348	1.7501528
13.729980518215713	3.1643322	1.778857
13.747633993220681	3.2457242	1.8015894
13.765287796080647	3.3149443	1.8206989
13.7829419272329	3.337195	1.826799
13.800596387114801	3.3621464	1.8336157
13.818251176163775	3.3642697	1.8341945
13.835906294817324	3.3939347	1.8422635
13.853561743513023	3.4290903	1.8517803
13.871217522688525	3.4816475	1.8659173
13.888873632781538	3.5242355	1.8772948
13.906530074229858	3.5417535	1.8819547
13.92418684747135	3.516598	1.8752594
13.941843952943948	3.475083	1.8641574
13.959501391085665	3.4705284	1.8629354
13.977159162334578	3.4490106	1.8571512
13.994817267128846	3.4278867	1.8514553
14.012475705906693	3.3304954	1.8249645
14.030134479106424	3.1995184	1.7887198
14.047793587166414	3.110674	1.7637103
14.065453030525108	3.0370967	1.7427268
14.083112809621026	2.9898288	1.7291121
14.100772924892766	2.9372542	1.7138419
14.118433376778997	2.9253304	1.7103597
14.136094165718458	2.8697534	1.6940347
14.153755292149969	2.8103607	1.676413
14.171416756512416	2.7692142	1.6640956
14.189078559244768	2.694435	1.6414734
14.20674070078606	2.6270587	1.6208204
14.224403181575408	2.5626037	1.6008135
14.242066002051999	2.5081108	1.5837016
14.259729162655093	2.4761698	1.573585
14.277392663824022	2.4424965	1.5628488
14.295056505998208	2.401602	1.5497103
14.312720689617128	2.4034703	1.550313
14.330385215120348	2.3936424	1.5471401
14.348050082947497	2.3935754	1.5471184
14.3657152935383	2.3882196	1.5453866
14.383380847332528	2.4001784	1.549251
14.401046744770051	2.3935416	1.5471075
14.418712986290798	2.3852818	1.5444357
14.436379572334793	2.3743303	1.5408862
14.454046503342123	2.3709235	1.5397804
14.471713779752946	2.3631113	1.5372415
14.489381402007504	2.3364863	1.528557
14.507049370546113	2.333259	1.527501
14.524717685809168	2.3620174	1.5368856
14.542386348237134	2.3990846	1.5488979
14.560055358270553	2.4360504	1.5607852
14.577724716350051	2.4499588	1.5652344
14.595394422916325	2.4288604	1.5584801
14.61306447841015	2.4312255	1.5592388
14.63073488327237	2.4351537	1.5604979
14.648405637943917	2.4754648	1.573361
14.6660767428658	2.4619608	1.5690637
14.683748198479094	2.4970458	1.5802044
14.701420005224954	2.549491	1.5967126
14.719092163544628	2.626746	1.6207238
14.73676467387942	2.6869705	1.6391981
14.754437536670727	2.7544956	1.6596674
14.772110752360014	2.7891076	1.6700622
14.78978432138882	2.803205	1.6742774
14.807458244198777	2.7245533	1.6506221
14.82513252123159	2.6990638	1.6428828
14.842807152929028	2.7166176	1.6482165
14.860482139732962	2.705543	1.6448535
14.87815748208531	2.6794152	1.636892
14.8958331804281	2.662749	1.6317933
14.91350923520342	2.6391342	1.6245412
14.931185646853438	2.658337	1.6304408
14.948862415820408	2.6449738	1.6263375
14.966539542546656	2.6759524	1.6358339
14.98421702747459	2.6878738	1.6394737
15.001894871046696	2.6764061	1.6359725
15.019573073705542	2.6596947	1.630857
15.037251635893766	2.6379333	1.6241716
15.054930558054092	2.6632357	1.6319423
15.072609840629323	2.7572458	1.6604956
15.090289484062351	2.9424634	1.715361
15.107969488796124	3.2810423	1.8113648
15.125649855273691	3.6520696	1.9110389
15.14333058393817	4.0960445	2.0238688
15.161011675232768	4.992009	2.2342803
15.17869312960076	6.328701	2.515691
15.196374947485506	8.244379	2.8713026
15.214057129330447	11.339644	3.3674388
15.231739675579114	16.007975	4.0009966
15.249422586675102	20.974323	4.5797734
15.267105863062092	24.13643	4.912884
15.284789505183847	24.678518	4.9677477
15.302473513484218	22.730783	4.767681
15.320157888407127	19.184694	4.3800335
15.337842630396578	14.892734	3.8591104
15.355527739896656	11.665573	3.4154902
15.37321321735153	9.138825	3.023049
15.39089906320545	6.6564727	2.580014
15.408585277902748	4.957911	2.2266366
15.42627186188783	3.7471735	1.9357617
15.443958815605198	3.2128823	1.7924515
15.461646139499424	2.952898	1.7183999
15.479333834015168	2.833791	1.6833868
15.497021899597165	2.7930949	1.6712555
15.514710336690234	2.738185	1.6547462
15.53239914573928	2.6866267	1.6390933
15.550088327189297	2.6183398	1.6181285
15.567777881485336	2.5558975	1.5987175
15.58546780907256	2.5123193	1.5850297
15.6031581103962	2.4866838	1.5769223
15.620848785901568	2.502501	1.5819296
15.638539836034063	2.4955208	1.5797218
15.656231261239173	2.455709	1.5670702
15.673923061962451	2.4236887	1.55682
15.691615238649552	2.403	1.5501614
15.709307791746202	2.4242632	1.5570046
15.727000721698221	2.4258757	1.5575223
15.744694028951498	2.4227152	1.5565073
15.76238771395202	2.417593	1.5548611
15.780081777145844	2.4142125	1.5537736
15.797776218979125	2.4192202	1.5553843
15.815471039898094	2.3958142	1.5478418
15.833166240349064	2.3935914	1.5471236
15.850861820778437	2.3810444	1.5430633
15.868557781632699	2.4209602	1.5559435
15.886254123358412	2.4174294	1.5548085
15.903950846402232	2.4019516	1.549823
15.921647951210897	2.3897572	1.5458839
15.939345438231225	2.4326522	1.5596962
15.957043307910133	2.4578145	1.5677419
15.974741560694602	2.4380314	1.5614197
15.992440197031714	2.4247267	1.5571535
16.01013921736862	2.428726	1.558437
16.02783862215259	2.4270158	1.5578883
16.045538411830933	2.396419	1.5480372
16.06323858685107	2.381064	1.5430696
16.080939147660512	2.3829663	1.5436859
16.09864009470684	2.3991444	1.5489172
16.11634142843774	2.3788927	1.5423659
16.134043149300954	2.4107225	1.5526501
16.15174525774433	2.4276133	1.55808
16.169447754215817	2.4678433	1.570937
16.18715063916342	2.4560707	1.5671856
16.204853913035244	2.4768124	1.5737891
16.222557576279478	2.4610763	1.5687817
16.240261629344403	22.409473	4.7338643
16.257966072678386	42.90531	6.550215
16.275670906729868	38.03108	6.1669345
16.293376131947387	2.4999661	1.5811281
16.31108174877957	2.5445733	1.5951719
16.328787757675133	2.5620422	1.600638
16.34649415908287	2.5841877	1.6075408
16.364200953451657	2.603875	1.6136527
16.38190814123048	2.6497717	1.6278119
16.39961572286839	2.676668	1.6360525
16.41732369881455	2.7060883	1.6450193
16.43503206951817	2.726336	1.651162
16.45274083542859	2.7631469	1.6622716
16.47044999699522	2.7910504	1.6706437
16.488159554667558	2.8455167	1.6868659
16.505869508895184	2.8988433	1.7025989
16.523579860127786	2.9104018	1.70599
16.541290608815117	2.929771	1.7116574
16.559001755407035	2.9943943	1.7304318
16.57671330035348	3.0461586	1.7453247
16.59442524410448	3.0932105	1.7587526
16.61213758711015	3.1790519	1.7829896
16.629850329820705	3.2888577	1.8135208
16.647563472686436	3.4230418	1.8501464
16.665277016157724	3.4539022	1.8584677
16.682990960685053	3.459343	1.8599309
16.70070530671898	3.4556806	1.8589461
16.718420054710155	3.5138216	1.874519
16.736135205109335	3.573864	1.8904666
16.753850758367335	3.605685	1.8988642
16.771566714935087	3.6506982	1.91068
16.789283075263597	3.7424154	1.9345324
16.80699983980398	3.8151588	1.9532431
16.82471700900741	3.8773844	1.9691075
16.84243458332518	3.957301	1.9892966
16.860152563208665	4.0235143	2.0058699
16.87787094910932	4.078362	2.0194955
16.89558974147871	4.167138	2.041357
16.913308940768466	4.223613	2.055143
16.931028547430333	4.259726	2.0639105
16.94874856191613	4.286008	2.0702677
16.966468984677785	4.3492517	2.085486
16.98418981616729	4.407494	2.0994034
17.00191105683676	4.4237347	2.1032677
17.019632707138374	4.454885	2.1106598
17.03735476752442	4.53272	2.1290185
17.05507723844728	4.573864	2.1386595
17.072800120359403	4.5719743	2.1382174
17.090523413713353	4.5974054	2.1441562
17.108247118961785	4.5955086	2.1437137
17.125971236557437	4.6127853	2.1477396
17.143695766953133	4.657311	2.1580803
17.161420710601806	4.6822124	2.163842
17.179146067956477	4.7238107	2.1734328
17.19687183947025	4.720575	2.1726885
17.21459802559634	4.749518	2.179339
17.232324626788028	4.7015557	2.168307
17.25005164349871	4.6917076	2.166035
17.267779076181863	4.6600637	2.158718
17.285506925291074	4.6424336	2.1546307
17.30323519127999	4.6433144	2.1548352
17.320963874602384	4.6221147	2.1499104
17.33869297571211	4.584267	2.1410902
17.356422495063114	4.537438	2.1301262
17.37415243310944	4.516137	2.1251204
17.391882790305218	4.435606	2.106088
17.40961356710468	4.4286737	2.1044414
17.42734476396215	4.449764	2.1094463
17.445076381332044	4.5477557	2.1325467
17.462808419668868	4.654396	2.157405
17.48054087942723	4.78444	2.1873362
17.498273761061835	5.055236	2.2483852
17.51600706502747	5.5412536	2.3539867
17.533740791779024	6.238846	2.4977682
17.551474941771485	7.698803	2.7746718
17.56920951545993	8.851798	2.975197
17.586944513299528	11.083752	3.329227
17.60467993574556	12.707143	3.564708
17.622415783253373	14.3289385	3.7853584
17.64015205627843	15.736661	3.9669461
17.657888755276293	16.895012	4.1103544
17.675625880702604	17.371702	4.1679373
17.69336343301311	17.110258	4.1364546
17.71110141266366	16.250381	4.031176
17.728839820110178	15.258589	3.9062243
17.746578655808705	14.350133	3.788157
17.764317920215372	12.913604	3.5935502
17.7820576137864	11.43803	3.3820157
17.79979773697811	9.442025	3.0727878
17.81753829024692	7.551411	2.7479832
17.835279274049356	5.9089675	2.4308367
17.85302068884201	4.888353	2.210962
17.870762535081607	4.201815	2.049833
17.888504813224934	3.8711586	1.967526
17.90624752372891	3.6945179	1.9221128
17.923990667050536	3.6040738	1.8984398
17.941734243646895	3.5316072	1.8792571
17.959478253975185	3.4628818	1.860882
17.9772226984927	3.424728	1.850602
17.994967577656833	3.3685274	1.8353548
18.01271289192506	3.3847952	1.8397813
18.030458641754965	3.3659894	1.8346633
18.04820482760425	3.3516967	1.8307639
18.06595144993067	3.3248136	1.8234072
18.083698509192125	3.2678003	1.8077059
18.101446005846576	3.2777364	1.810452
18.119193940352105	3.2326052	1.7979447
18.136942313166887	3.2364218	1.7990057
18.1546911247492	3.213932	1.7927443
18.1724403755574	3.2060046	1.790532
18.19019006604997	3.1649954	1.7790434
18.207940196685467	3.1139696	1.7646443
18.225690767922575	3.0502613	1.7464997
18.243441780220046	3.0370493	1.7427132
18.261193234036764	3.0140345	1.7360975
18.278945129831676	3.042463	1.7442658
18.29669746806386	3.043288	1.7445022
18.314450249192483	3.0577126	1.7486316
18.3322034736768	3.097625	1.7600071
18.349957141976184	3.1292434	1.7689668
18.3677112545501	3.1615448	1.7780733
18.385465811858108	3.1579573	1.7770642
18.403220814359884	3.1284068	1.7687303
18.420976262515172	3.0934188	1.7588117
18.43873215678387	3.0865188	1.756849
18.456488497625923	3.1146479	1.7648365
18.474245285501407	3.1913402	1.7864323
18.492002520870486	3.259593	1.8054343
18.50976020419343	3.3530571	1.8311355
18.527518335930615	3.6791074	1.9181
18.545276916542516	4.288571	2.0708866
18.563035946489688	4.4146304	2.101102
18.580795426232832	4.774449	2.1850512
18.598555356232698	4.648699	2.156084
18.616315736950185	5.0772424	2.2532737
18.63407656884626	4.7913055	2.188905
18.65183785238201	4.9443374	2.2235866
18.669599588018617	4.7137766	2.1711233
18.68736177621737	4.7094045	2.1701162
18.705124417439652	4.719792	2.1725082
18.72288751214696	4.5100365	2.1236846
18.740651060800886	4.6520524	2.1568618
18.758415063863115	4.3145237	2.0771432
18.77617952179546	4.4875574	2.1183856
18.793944435059814	4.2466073	2.0607297
18.811709804118184	4.277396	2.0681868
18.829475629432675	4.224999	2.0554802
18.8472419114655	4.036444	2.0090904
18.86500865067897	4.1257987	2.0312061
18.88277584753551	3.8165557	1.9536008
18.90054350249763	3.8322546	1.9576145
18.918311616027957	3.5100262	1.8735064
18.936080188589226	3.4172604	1.8485833
18.953849220644265	3.0591707	1.7490485
18.971618712656007	2.8469043	1.6872772
18.9893886650875	2.7875817	1.6696053
19.007159078401887	7.9598684	2.8213239
19.024929953062408	32.857914	5.7321825
19.042701289532435	32.828056	5.7295775
19.060473088275405	25.409275	5.0407615
19.07824534975489	2.6548548	1.6293725
19.096018074434568	2.6355047	1.6234238
19.113791262778197	2.6471703	1.6270127
19.13156491524966	2.656876	1.6299927
19.149339032312945	2.6320117	1.6223476
19.167113614432136	2.6414104	1.6252416
19.184888662071433	2.6035807	1.6135615
19.202664175695123	2.597419	1.6116511
19.220440155767623	2.5689013	1.6027793
19.238216602753447	2.5904067	1.6094741
19.2559935171172	2.5813766	1.6066663
19.27377089932361	2.5536222	1.5980057
19.291548749837514	2.491792	1.578541
19.309327069123835	2.502401	1.581898
19.32710585764763	2.5486553	1.5964508
19.344885115874032	2.5762978	1.605085
19.362664844268313	2.5239398	1.5886912
19.380445043295822	2.4802015	1.5748656
19.39822571342203	2.5084605	1.583812
19.41600685511252	2.5367749	1.5927256
19.43378846883297	2.5232842	1.5884849
19.451570555049173	2.5073414	1.5834587
19.469353114227037	2.4888322	1.5776033
19.48713614683254	2.506197	1.5830972
19.50491965333182	2.4902449	1.578051
19.52270363419109	2.490274	1.5780602
19.540488089876686	2.454626	1.5667247
19.55827302085503	2.4219337	1.5562563
19.576058427592674	2.4077296	1.551686
19.593844310556282	2.4418972	1.5626571
19.611630670212598	2.482142	1.5754815
19.629417507028506	2.5225735	1.5882611
19.64720482147098	2.5158002	1.5861274
19.6649926140071	2.5337062	1.591762
19.682780885104084	2.5377047	1.5930175
19.70056963522921	2.5332851	1.5916297
19.718358864849908	2.516243	1.586267
19.7361485744337	2.4857342	1.5766212
19.753938764448215	2.4951487	1.5796039
19.771729435361202	2.494124	1.5792795
19.789520587640506	2.5235233	1.5885601
19.807312221754092	2.56869	1.6027133
19.825104338170043	2.5942314	1.6106617
19.842896937356517	2.57234	1.6038517
19.860690019781824	2.5279546	1.5899543
19.87848358591436	2.513114	1.5852804
19.896277636222635	2.558106	1.599408
19.914072171175278	2.604421	1.6138219
19.931867191241015	2.5804033	1.6063634
19.94966269688869	2.5099962	1.5842967
19.967458688587264	2.48091	1.5750905
19.985255166805807	2.4708014	1.5718783
20.00305213201348	2.477018	1.5738546
20.020849584679578	2.4649737	1.5700234
20.038647525273507	2.4995334	1.5809913
20.05644595426477	2.509019	1.5839883
20.07424487212299	2.4849746	1.5763803
20.092044279317903	2.4566975	1.5673856
20.109844176319353	2.44809	1.5646373
20.127644563597304	2.4454749	1.5638014
20.145445441621817	2.4414043	1.5624994
20.16324681086307	2.4286778	1.5584216
20.181048671791373	2.3846235	1.5442226
20.198851024877122	2.3719072	1.5400997
20.216653870590836	2.372624	1.5403324
20.234457209403146	2.3891077	1.5456738
20.252261041784802	2.4189541	1.5552987
20.270065368206662	2.407461	1.5515995
20.287870189139685	2.3731284	1.5404961
20.305675505054968	2.3352373	1.5281483
20.323481316423702	2.3871968	1.5450556
20.341287623717207	2.3972251	1.5482975
20.359094427406884	2.390561	1.5461439
20.376901727964288	2.3205507	1.5233353
20.39470952586107	2.325641	1.5250052
20.41251782156899	2.3313339	1.5268706
20.430326615559935	2.3385959	1.5292468
20.448135908305886	2.3297207	1.5263423
20.465945700278965	2.324471	1.5246216
20.483755991951384	2.3440826	1.5310397
20.50156678379548	2.3386197	1.5292547
20.519378076283708	2.3268824	1.5254122
20.537189869888635	2.3518448	1.5335726
20.55500216508294	2.389277	1.5457287
20.572814962339415	2.4238331	1.5568664
20.59062826213098	2.4081392	1.551818
20.60844206493066	2.3702784	1.5395708
20.626256371211593	2.3163514	1.5219564
20.644071181447032	2.3384252	1.529191
20.66188649611036	2.3568497	1.5352035
20.67970231567506	2.3526013	1.5338192
20.697518640614742	2.3363795	1.528522
20.715335471403122	2.358218	1.5356491
20.73315280851404	2.359993	1.5362269
20.750970652421447	2.3189716	1.522817
20.768789003599412	2.2911925	1.5136685
20.786607862522136	2.280159	1.5100195
20.8044272296639	2.3085806	1.5194014
20.82224710549913	2.3374646	1.5288769
20.84006749050237	2.328388	1.5259056
20.857888385148268	3.8621972	1.9652474
20.8757097899116	45.959297	6.779329
20.893531705267254	64.82142	8.051175
20.911354131690224	83.80995	9.154778
20.92917706965566	69.06454	8.310508
20.94700051963877	50.131405	7.0803533
20.96482448211493	29.410856	5.4231777
20.982648957559622	4.1390104	2.0344558
21.00047394644843	2.2587264	1.502906
21.01829944925707	2.2558825	1.5019596
21.036125466461375	2.2448254	1.4982741
21.053951998537297	2.2143662	1.4880747
21.071779045960906	2.2012234	1.483652
21.089606609208378	2.2151294	1.4883311
21.10743468875603	2.205636	1.4851384
21.12526328508028	2.2017674	1.4838353
21.143092398657675	2.184268	1.477927
21.16092202996488	2.193143	1.4809264
21.17875217947867	2.1773999	1.4756016
21.19658284767596	2.1511872	1.4666926
21.21441403503377	2.146181	1.464985
21.232245742029225	2.148704	1.4658458
21.2500779691396	2.1923482	1.480658
21.26791071684227	2.1672246	1.4721496
21.28574398561475	2.1704388	1.4732409
21.30357777593465	2.1407456	1.4631287
21.321412088279704	2.1486876	1.4658402
21.339246923127792	2.1386547	1.462414
21.357082280956888	2.1215227	1.4565448
21.3749181622451	2.1035678	1.4503682
21.392754567470647	2.1281781	1.4588276
21.41059149711187	2.1416092	1.4634238
21.42842895164726	2.1594875	1.4695195
21.446266931555378	2.134266	1.4609127
21.464105437314945	2.1002574	1.4492265
21.481944469404798	2.054639	1.4334012
21.49978402830388	2.050071	1.4318069
21.51762411449127	2.0720043	1.4394459
21.53546472844617	2.1038094	1.4504514
21.553305870647876	2.1184473	1.4554887
21.571147541575865	2.1371512	1.4618999
21.58898974170967	2.1417174	1.4634608
21.60683247152899	2.1099997	1.4525838
21.62467573151363	2.0770805	1.441208
21.642519522143523	2.0280325	1.42409
21.660363843898722	2.0310106	1.4251353
21.6782086972594	2.0127351	1.4187089
21.696054082705864	2.0238245	1.4226118
21.713900000718535	2.0238225	1.4226111
21.73174645177795	2.018917	1.420886
21.749593436364794	2.0220387	1.4219841
21.767440954959845	2.0339918	1.4261808
21.785289008044032	2.0459154	1.430355
21.803137596098388	2.0351484	1.4265863
21.820986719604086	2.0449188	1.4300066
21.838836379042412	2.061562	1.435814
21.85668657489478	2.0685837	1.4382572
21.87453730764273	2.049113	1.4314723
21.892388577767914	2.023336	1.4224402
21.91024038575213	1.9968953	1.4131155
21.928092732077285	1.9994167	1.4140073
21.945945617225426	2.0032513	1.4153626
21.963799041678694	1.9774915	1.4062331
21.981653005919398	31.262335	5.5912733
21.999507510429943	78.07283	8.835883
22.01736255569286	73.05706	8.547342
22.035218142190818	4.197267	2.0487232
22.05307427040661	2.047122	1.4307767
22.07093094082315	2.0623271	1.4360805
22.088788153923474	2.0438857	1.4296453
22.106645910190746	2.0073655	1.4168153
22.12450421010827	2.0062258	1.4164131
22.142363054159464	1.9991502	1.413913
22.16022244282787	1.9625167	1.4008986
22.178082376597164	1.9234848	1.3868976
22.195942855951145	1.9151849	1.3839021
22.213803881373742	1.947766	1.3956238
22.231665453349002	1.9662242	1.4022212
22.24952757236111	1.9740961	1.4050252
22.26739023889438	1.9908248	1.4109659
22.28525345343323	1.9987534	1.4137728
22.30311721646225	1.9743489	1.4051152
22.320981528466113	1.9706315	1.4037918
22.33884638992964	1.9639332	1.401404
22.356711801337788	1.9771631	1.4061164
22.37457776317561	1.9636426	1.4013003
22.392444275928337	1.9480181	1.3957142
22.410311340081282	1.9040382	1.3798689
22.428178956119904	1.9309306	1.3895793
22.446047124529805	1.9652777	1.4018836
22.46391584579669	1.9883659	1.4100943
22.481785120406414	1.9903399	1.410794
22.49965494884496	1.9861134	1.4092953
22.51752533159841	1.987799	1.4098933
22.53539626915302	1.9777815	1.4063362
22.553267761995137	1.973106	1.404673
22.571139810611264	1.9879329	1.4099407
22.589012415488025	1.9705633	1.4037676
22.60688557711216	1.9108672	1.3823413
22.624759295970566	1.8664905	1.3661957
22.642633572550263	1.8909061	1.3751022
22.660508407338362	1.9524559	1.3973031
22.67838380082217	1.9698159	1.4035013
22.696259753489077	2.0282242	1.4241574
22.714136265826614	2.037321	1.4273475
22.73201333832246	2.0358965	1.4268484
22.74989097146439	1.9619337	1.4006904
22.76776916574035	1.9095013	1.381847
22.785647921638393	1.8675565	1.3665857
22.803527239646712	1.9005715	1.3786122
22.82140712025363	1.9556434	1.3984432
22.839287563947593	1.9405395	1.3930324
22.85716857121719	1.9210647	1.3860248
22.875050142551135	1.9237506	1.3869934
22.892932278438277	1.9730637	1.4046578
22.910814979367604	2.008232	1.417121
22.928698245828222	2.0078394	1.4169825
22.946582078309387	1.9497776	1.3963444
22.96446647730047	1.9158497	1.3841423
22.98235144329098	1.9050354	1.3802302
23.000236976770562	1.9392077	1.3925544
23.018123078229	1.9642327	1.4015108
23.03600974815619	1.9156989	1.3840878
23.053896987042194	1.9106939	1.3822786
23.071784795377173	1.9270599	1.3881859
23.08967317365145	1.9353813	1.3911798
23.10756212235546	1.9130614	1.3831346
23.125451641979787	1.928217	1.3886025
23.143341733015134	1.9343307	1.3908021
23.161232395952357	1.9142102	1.3835498
23.179123631282426	1.8969524	1.377299
23.197015439496468	1.8931876	1.3759315
23.214907821085717	1.893032	1.375875
23.23280077654157	1.9245512	1.387282
23.250694306355538	1.9639108	1.401396
23.268588411019277	1.9940343	1.4121028
23.28648309102458	1.978559	1.4066126
23.304378346863356	1.9804795	1.4072951
23.322274179027676	1.9589813	1.3996361
23.340170588009723	1.9218029	1.386291
23.358067574301852	1.9108021	1.3823177
23.37596513839651	1.904587	1.3800677
23.39386328078629	1.9287152	1.3887819
23.411762001963947	1.9221532	1.3864174
23.429661302422353	1.9305844	1.3894547
23.4475611826545	1.888079	1.3740739
23.46546164315356	1.9394587	1.3926445
23.48336268441279	1.9879248	1.4099379
23.501264306925638	1.9995784	1.4140645
23.51916651118564	1.9700315	1.4035782
23.537069297686497	1.9133509	1.3832393
23.554972666922037	1.899965	1.3783922
23.57287661938623	1.8714948	1.3680259
23.59078115557318	1.872019	1.3682175
23.608686275977128	1.8559037	1.3623155
23.62659198109246	1.8953027	1.3766999
23.6444982714137	1.9242747	1.3871822
23.66240514743549	1.9365753	1.3916088
23.68031260965263	1.9225099	1.386546
23.698220658560068	1.9408128	1.3931305
23.716129294652845	1.9428536	1.3938628
23.7340385184262	1.9280843	1.3885547
23.75194833037546	1.9106447	1.3822607
23.769858730996123	1.904773	1.3801352
23.78776972078382	1.9041276	1.3799013
23.80568130023431	1.8987423	1.3779486
23.823593469843495	1.8835772	1.3724347
23.841506230107424	1.8659433	1.3659954
23.859419581522275	1.8741161	1.3689836
23.87733352458438	1.8677272	1.3666482
23.89524805979019	1.9187088	1.3851746
23.913163187636318	1.9047894	1.3801411
23.931078908619508	1.9270363	1.3881773
23.948995223236633	1.9577249	1.3991872
23.966912131984735	2.0051124	1.4160199
23.98482963536096	2.0169058	1.420178
24.002747733862616	2.0073218	1.4167999
24.020666427987155	2.0432053	1.4294074
24.038585718232156	2.0343294	1.4262992
24.056505605095353	2.0415986	1.4288452
24.074426089074617	2.035057	1.4265543
24.092347170667946	2.042476	1.4291521
24.110268850373515	2.033597	1.4260424
24.128191128689586	2.05543	1.4336771
24.146114006114626	2.081694	1.4428077
24.164037483147187	2.0712278	1.4391761
24.181961560286005	2.0758889	1.4407946
24.199886238029926	2.0396905	1.4281774
24.21781151687797	2.0796182	1.4420881
24.235737397329274	2.0864415	1.4444519
24.253663879883135	2.0907998	1.4459598
24.271590965038975	2.051043	1.4321463
24.289518653296376	2.0377965	1.4275141
24.30744694515505	2.0353193	1.4266462
24.32537584111486	2.0526776	1.4327168
24.34330534167581	2.0736942	1.4400327
24.361235447338046	2.0899632	1.4456705
24.379166158601876	2.061192	1.4356852
24.39709747596772	2.043731	1.4295912
24.41502939993615	2.0307763	1.4250531
24.432961931007917	2.038265	1.4276782
24.450895069683856	2.0161746	1.4199206
24.468828816465	1.9511759	1.396845
24.4867631718525	1.916686	1.3844444
24.504698136347656	1.921689	1.38625
24.52263371045192	1.9034911	1.3796706
24.540569894666874	1.9360912	1.3914349
24.558506689494266	1.9698342	1.4035078
24.57644409543597	1.9855295	1.4090883
24.594382112994012	1.9769508	1.4060408
24.61232074267057	1.9818795	1.4077924
24.630259984967953	1.975823	1.4056398
24.64819984038863	1.9735372	1.4048264
24.66614030943522	1.925502	1.3876246
24.684081392610462	1.9426525	1.3937907
24.702023090417274	1.9448787	1.3945891
24.7199654033587	1.995369	1.4125752
24.737908331937927	2.0123363	1.4185684
24.755851876658305	2.0290895	1.4244611
24.773796038023324	2.028598	1.4242886
24.79174081653661	2.0253518	1.4231485
24.809686212701962	2.027341	1.4238472
24.827632227023294	2.0545237	1.4333609
24.8455788600047	2.05689	1.4341862
24.8635261121504	2.064957	1.4369957
24.88147398396475	2.0653481	1.4371319
24.899422475952303	2.0887806	1.4452615
24.917371588617698	2.078943	1.441854
24.935321322465768	2.1365461	1.4616929
24.953271678001478	2.2801158	1.5100052
24.97122265572994	2.5075626	1.5835285
24.989174256156414	2.8206334	1.6794741
25.00712647978632	3.2083473	1.791186
25.02507932712521	3.6837418	1.9193076
25.043032798678798	4.2049527	2.0505981
25.060986894952933	4.956544	2.2263298
25.078941616453637	5.8229556	2.4130802
25.096896963687055	6.7920485	2.6061559
25.114852937159508	7.926024	2.8153195
25.132809537377444	8.376017	2.8941348
25.150766764847468	8.389598	2.8964803
25.168724620076347	7.762872	2.7861931
25.186683103570985	6.722355	2.5927505
25.204642215838426	5.492474	2.343603
25.222601957385894	4.1444445	2.035791
25.24056232872074	3.1929414	1.7868804
25.25852333035048	2.6497006	1.6277901
25.276484962782778	2.272749	1.507564
25.294447226525435	2.0864239	1.4444458
25.312410122086423	1.969483	1.4033827
25.330373649973843	1.9273335	1.3882843
25.348337810695988	1.9183737	1.3850536
25.366302604761245	1.9463633	1.3951212
25.384268032678207	1.8885719	1.3742532
25.40223409495558	1.85304	1.3612641
25.420200792102257	1.8767678	1.3699517
25.438168124627246	1.91315	1.3831667
25.45613609303974	1.8854399	1.3731132
25.474104697849057	1.8875139	1.3738682
25.492073939564698	1.9267045	1.3880578
25.510043818696285	1.9406621	1.3930765
25.528014335753614	1.9126594	1.3829893
25.54598549124664	1.9108697	1.3823421
25.56395728568544	1.8691036	1.3671516
25.58192971958028	1.866959	1.3663671
25.59990279344156	1.8757806	1.3695914
25.617876507779833	1.8724294	1.3683674
25.635850863105826	1.8654194	1.3658036
25.653825859930386	1.8587373	1.3633552
25.671801498764548	1.845847	1.3586196
25.68977778011949	1.8618834	1.3645085
25.707754704506524	1.8760074	1.3696742
25.725732272437153	1.8844585	1.3727558
25.743710484423012	1.8445011	1.3581241
25.761689340975888	1.8515872	1.3607304
25.77966884260774	1.8635023	1.3651016
25.797648989830662	1.8615057	1.3643701
25.815629783156922	1.868189	1.3668171
25.83361122309895	1.8870258	1.3736906
25.85159331016929	1.8883601	1.3741761
25.869576044880695	1.8446133	1.3581654
25.887559427746034	1.8519474	1.3608627
25.90554345927836	1.8523179	1.3609989
25.92352813999086	1.8722712	1.3683096
25.94151347039689	1.8612005	1.3642582
25.959499451009965	1.8908747	1.3750908
25.97748608234374	1.8834703	1.3723959
25.995473364912062	1.8597227	1.3637165
26.013461299228904	1.890637	1.3750044
26.03144988580839	1.8818448	1.3718035
26.04943912516483	1.8371582	1.3554181
26.067429017812675	1.7901851	1.337978
26.085419564266537	1.807654	1.3444903
26.103410765041186	1.7877324	1.337061
26.12140262065155	1.7926809	1.3389103
26.139395131612723	1.7746888	1.3321744
26.157388298439948	1.7678398	1.3296014
26.17538212164861	1.7858369	1.3363521
26.193376601754295	1.7895637	1.3377458
26.211371739272714	1.7844415	1.3358299
26.229367534719746	1.7605029	1.3268394
26.247363988611433	1.7770615	1.3330647
26.26536110146397	1.7453336	1.3211107
26.283358873793727	1.7653769	1.3286749
26.301357306117204	1.7815709	1.334755
26.319356398951104	1.8089236	1.3449624
26.33735615281224	1.822197	1.3498877
26.35535656821762	1.832213	1.3535926
26.373357645684404	1.8177972	1.3482571
26.39135938572991	1.7987705	1.3411825
26.409361788871614	1.780365	1.3343031
26.427364855627165	1.7905265	1.3381056
26.445368586514352	1.8535156	1.3614388
26.46337298205115	1.8763876	1.369813
26.48137804275568	1.8350537	1.3546416
26.499383769146217	1.8294014	1.3525536
26.517390161741215	1.8598422	1.3637604
26.53539722105928	1.8215243	1.3496386
26.553404947619182	1.789702	1.3377975
26.571413341939856	1.792838	1.338969
26.589422404540397	1.7863425	1.3365413
26.60743213594006	1.8070365	1.3442606
26.62544253665827	1.8328167	1.3538157
26.64345360721459	1.8533897	1.3613926
26.66146534812879	1.8618163	1.3644838
26.679477759920758	1.8403919	1.3566104
26.69749084311057	1.8142941	1.3469573
26.71550459821847	1.8053505	1.3436333
26.733519025764842	1.8170418	1.3479769
26.751534126270258	1.7956113	1.3400042
26.769549900255434	1.7772169	1.333123
26.787566348241267	1.7581375	1.3259478
26.80558347074881	1.7516112	1.3234845
26.823601268299267	1.7832882	1.3353982
26.841619741414036	1.8169135	1.3479294
26.85963889061465	1.8170028	1.3479625
26.877658716422832	1.8183783	1.3484726
26.89567921936045	1.8213676	1.3495805
26.913700399949544	1.869614	1.3673383
26.93172225871233	1.862117	1.3645941
26.949744796171174	1.8163117	1.3477061
26.967768012848605	1.7937484	1.339309
26.98579190926733	1.7975079	1.3407117
27.003816485950225	1.8062006	1.3439497
27.021841743420318	1.7901496	1.3379647
27.039867682200814	1.786125	1.3364599
27.057894302815072	1.7674161	1.329442
27.07592160578664	1.7760183	1.3326733
27.0939495916392	1.8063184	1.3439934
27.111978260896635	1.8437747	1.3578566
27.13000761408296	1.8470097	1.3590473
27.148037651722397	1.8489033	1.3597438
27.166068374339304	1.8333133	1.353999
27.184099782458215	1.846016	1.3586817
27.20213187660384	1.8043476	1.34326
27.22016465730105	1.8255715	1.3511372
27.23819812507487	1.843856	1.3578866
27.256232280450533	1.8278434	1.3519776
27.274267123953383	1.7860202	1.3364207
27.292302656108987	1.8249311	1.3509002
27.31033887744306	1.8885379	1.3742409
27.32837578848146	1.9165677	1.3844016
27.34641338975026	1.874761	1.3692191
27.364451681775673	1.8486723	1.3596588
27.382490665084074	1.8023547	1.3425181
27.400530340202046	1.7722154	1.3312458
27.41857070765629	1.7660483	1.3289275
27.436611767973726	1.7847818	1.3359573
27.454653521681404	1.8427186	1.3574678
27.472695969306564	1.8380992	1.3557652
27.490739111376627	1.8922584	1.3755938
27.508782948419153	1.8732635	1.3686721
27.526827480961902	1.8511711	1.3605775
27.54487270953279	1.7700944	1.330449
27.562918634659898	1.74906	1.3225204
27.580965256871508	1.755442	1.3249309
27.599012576696026	1.8165772	1.3478045
27.617060594662068	1.8695658	1.3673207
27.63510931129842	1.8731023	1.3686132
27.65315872713401	1.9166846	1.3844438
27.67120884269797	1.9117901	1.3826749
27.68925965851958	1.8552123	1.3620617
27.707311175128307	1.8281329	1.3520846
27.725363393053787	1.8549463	1.3619641
27.74341631282583	1.8483526	1.3595413
27.7614699349744	1.8897077	1.3746663
27.77952426002968	2.0856378	1.4441737
27.797579288521973	2.1175356	1.4551754
27.815635020981784	2.474179	1.5729523
27.83369145793979	2.500378	1.5812583
27.85174859992682	2.3935158	1.5470991
27.869806447473923	2.2938843	1.5145575
27.887865001112267	2.0119598	1.4184357
27.905924261373233	1.8916725	1.3753809
27.92398422878836	1.8957007	1.3768445
27.94204490388936	1.897039	1.3773304
27.96010628720813	1.9247915	1.3873686
27.978168379276728	1.9229587	1.3867079
27.9962311806274	1.9146426	1.3837061
28.014294691792568	1.9125732	1.3829582
28.0323589133048	1.8744181	1.3690939
28.050423845696887	1.827459	1.3518354
28.068489489501758	1.8260148	1.3513012
28.086555845252523	1.8358648	1.3549409
28.104622913482487	1.8502978	1.3602566
28.122690694725115	1.8438116	1.3578702
28.14075918951405	1.8256073	1.3511504
28.15882839838312	1.8251868	1.3509947
28.176898321866304	1.8601764	1.3638829
28.1949689604978	1.9173833	1.3846961
28.213040314811945	1.9357613	1.3913164
28.23111238534327	1.8971351	1.3773652
28.249185172626493	1.9190449	1.385296
28.267258677196473	1.9215873	1.3862133
28.285332899588294	1.8810773	1.3715237
28.303407840337172	1.8725054	1.3683952
28.321483499978545	1.8901743	1.3748361
28.33955987904799	1.9172039	1.3846313
28.357636978081285	1.9194907	1.3854568
28.37571479761439	1.9139493	1.3834555
28.393793338183425	1.8936621	1.376104
28.41187260032469	1.8725206	1.3684007
28.429952584574686	1.8708152	1.3677775
28.448033291470065	1.9021499	1.3791845
28.46611472154769	1.9188935	1.3852413
28.484196875344566	1.9470603	1.3953711
28.502279753397914	1.9856626	1.4091355
28.52036335624511	1.9961138	1.4128389
28.538447684423716	1.9383662	1.3922522
28.556532738471482	1.9233868	1.3868622
28.574618518926325	1.9801277	1.40717
28.59270502632635	1.9868748	1.4095654
28.61079226120985	1.9885626	1.410164
28.628880224115274	2.0330963	1.4258668
28.646968915581287	2.0497353	1.4316896
28.66505833614671	2.0256402	1.4232498
28.68314848635055	2.0907896	1.4459562
28.701239366732004	2.1629977	1.4707134
28.71933097783044	2.1355991	1.4613689
28.737423320185403	2.0767243	1.4410844
28.75551639433665	2.0747652	1.4404045
28.773610200824074	2.1103127	1.4526916
28.791704740187793	2.1590576	1.4693732
28.80980001296809	2.1823802	1.4772881
28.827896019705413	2.172763	1.4740295
28.845992760940433	2.1732464	1.4741935
28.86409023721397	2.189655	1.4797484
28.88218844906704	2.1883078	1.479293
28.900287397040845	2.215905	1.4885916
28.918387081676755	2.2823608	1.5107484
28.936487503516343	2.3392384	1.5294569
28.954588663101365	2.370561	1.5396626
28.97269056097374	2.3807302	1.5429615
28.990793197675597	2.367544	1.5386826
29.00889657374923	2.3740332	1.5407898
29.027000689737125	2.3816981	1.5432751
29.04510554618196	2.389274	1.5457276
29.06321114362659	2.454295	1.5666189
29.08131748261405	2.503454	1.5822307
29.099424563687567	2.4490805	1.5649538
29.11753238739057	2.4097536	1.5523381
29.13564095426663	2.4697332	1.5715384
29.15375026485954	2.5422766	1.5944518
29.171860319713275	2.5716774	1.6036451
29.18997111937199	2.6459444	1.6266359
29.20808266438002	2.7567532	1.6603473
29.226194955281898	2.8222947	1.6799687
29.244307992622335	2.8137698	1.6774296
29.26242177694624	2.823105	1.6802099
29.2805363087987	2.846131	1.6870481
29.29865158872498	2.9512167	1.7179105
29.316767617270557	2.967163	1.7225455
29.334884394981064	2.891446	1.7004253
29.353001922402367	2.9315805	1.7121859
29.37112020008047	3.028753	1.7403313
29.389239228561596	3.1208959	1.7666057
29.407359008392152	3.3500063	1.8303022
29.42547954011872	3.7532897	1.9373409
29.44360082428809	4.344854	2.0844314
29.46172286144722	5.3202662	2.3065703
29.479845652143283	6.8737006	2.6217744
29.497969196923606	8.98244	2.997072
29.516093496335728	11.510042	3.3926454
29.5342185509274	14.286382	3.779733
29.55234436124651	16.75071	4.092763
29.570470927841175	18.25946	4.273109
29.588598251259686	18.067327	4.250568
29.60672633205055	16.59891	4.074176
29.624855170762405	14.426845	3.7982686
29.642984767944146	11.74796	3.4275298
29.66111512414481	8.944452	2.9907277
29.67924623991366	6.7240343	2.5930743
29.697378115800138	5.321233	2.3067799
29.71551075235387	4.3885746	2.0948925
29.733644150124675	3.8013396	1.9497025
29.751778309662576	3.4766233	1.8645705
29.769913231517766	3.4077353	1.8460052
29.78804891624066	3.38157	1.8389046
29.806185364381818	3.3682377	1.8352759
29.82432257649206	3.3635979	1.8340114
29.842460553122333	3.384179	1.8396138
29.86059929482382	3.3339648	1.8259147
29.878738802147872	3.3674037	1.8350487
29.896879075646048	3.3855858	1.8399961
29.915020115870114	3.3148365	1.8206693
29.933161923371976	3.2687843	1.8079779
29.951304498703777	3.2617915	1.806043
29.969447842417857	3.24843	1.8023401
29.987591955066733	3.179689	1.7831682
30.005736837203123	3.1436017	1.7730205
30.023882489379943	3.162882	1.7784493
30.04202891215028	3.175083	1.7818762
30.060176106067455	3.1877806	1.7854357
30.078324071684946	3.1654837	1.7791806
30.09647280955646	3.1278079	1.768561
30.114622320235863	3.1536753	1.775859
30.132772604277257	3.2360654	1.7989067
30.1509236622349	3.2100954	1.7916739
30.16907549466328	3.1366484	1.7710586
30.18722810211705	3.06566	1.7509027
30.205381485151097	3.083917	1.7561084
30.22353564432045	3.10316	1.7615788
30.241690580180403	3.0523496	1.7470975
30.25984629328638	3.0402908	1.7436429
30.278002784194037	2.9784746	1.7258258
30.296160053459246	2.985163	1.7277625
30.314318101638033	3.011342	1.7353219
30.332476929286646	2.9777465	1.7256148
30.35063653696153	2.903422	1.7039431
30.368796925219307	2.8746107	1.6954677
30.386958094616844	2.920537	1.7089579
30.40512004571115	2.9148908	1.7073051
30.423282779059463	2.8600113	1.6911569
30.441446295219233	2.8502882	1.6882796
30.459610594748067	2.9168618	1.7078823
30.47777567820382	2.911743	1.706383
30.495941546144504	2.869682	1.6940136
30.51410819912835	2.8218355	1.679832
30.532275637713795	2.7929473	1.6712114
30.55044386245946	2.7755935	1.6660112
30.56861287392416	2.7674947	1.6635789
30.586782672666956	2.869016	1.693817
30.604953259247047	2.9048743	1.7043692
30.623124634223885	2.8779328	1.6964471
30.641296798157075	2.819186	1.6790432
30.659469751606462	2.8038156	1.6744598
30.677643495132074	2.8040047	1.6745162
30.695818029294152	2.7564094	1.6602437
30.713993354653116	2.699528	1.6430241
30.73216947176962	2.6456387	1.626542
30.75034638120448	2.6509275	1.6281669
30.768524083518756	2.6864312	1.6390336
30.786702579273673	2.7248473	1.6507112
30.80488186903069	2.7875397	1.6695927
30.82306195335144	2.91721	1.7079842
30.841242832797782	3.0962157	1.7596067
30.85942450793176	3.3583143	1.8325704
30.877606979315637	3.6710236	1.9159915
30.895790247511883	4.106727	2.0265062
30.913974313083134	4.582427	2.1406605
30.932159176592283	4.950019	2.2248638
30.95034483860237	4.941408	2.2229278
30.968531299676698	4.5839996	2.1410277
30.98671856037873	4.2604127	2.0640767
31.00490662127215	4.027755	2.0069268
31.023095482920848	3.743041	1.934694
31.04128514588892	3.270605	1.8084815
31.059475610740662	2.7936249	1.671414
31.07766687804056	2.6074839	1.6147705
31.09585894835335	2.498065	1.5805268
31.11405182224393	2.4876664	1.5772338
31.132245500277417	2.49391	1.5792118
31.15043998301914	2.4868634	1.5769792
31.168635271034628	2.4699907	1.5716205
31.18683136488964	2.4770525	1.5738654
31.20502826515008	2.3956373	1.5477847
31.223225972382135	2.4037242	1.5503949
31.241424487152155	2.450326	1.5653517
31.259623810026692	2.4361513	1.5608175
31.27782394157253	2.44762	1.5644871
31.296024882356644	2.38629	1.5447621
31.314226632946237	2.3125699	1.5207136
31.332429193908684	2.3366616	1.5286143
31.350632565811598	2.4073122	1.5515516
31.368836749222787	2.5242577	1.5887913
31.387041744710295	2.5484266	1.5963793
31.40524755284232	2.5059633	1.5830234
31.423454174187317	2.5073638	1.5834657
31.441661609313922	2.5171242	1.5865448
31.459869858791002	2.489635	1.5778577
31.478078923187628	2.4387357	1.5616452
31.496288803073064	2.3312888	1.5268558
31.514499499016807	2.3017159	1.5171406
31.532711011588546	2.359285	1.5359964
31.550923341358178	2.443506	1.5631717
31.56913648889584	2.3804123	1.5428585
31.587350454771844	2.2834435	1.5111067
31.605565239556732	2.2499192	1.499973
31.62378084382127	2.217856	1.4892467
31.641997268136382	2.2833612	1.5110794
31.660214513073274	2.345785	1.5315956
31.67843257920331	2.3452904	1.531434
31.6966514670981	2.2951558	1.5149771
31.71487117732944	2.2699025	1.5066196
31.733091710469346	2.2795691	1.5098242
31.751313067090052	2.3171916	1.5222324
31.769535247764008	2.3658984	1.5381477
31.787758253063878	2.4310265	1.5591749
31.805982083562526	2.420428	1.5557725
31.824206739833024	2.343528	1.5308586
31.84243222244869	2.250868	1.5002893
31.860658531983013	2.2239444	1.4912895
31.878885669009737	2.3237174	1.5243744
31.897113634102784	2.3687785	1.5390836
31.91534242783632	2.25756	1.5025179
31.933572050784694	2.1864016	1.4786485
31.951802503522508	2.252167	1.5007222
31.970033786624548	2.2800832	1.5099944
31.988265900665834	2.2164574	1.4887772
32.006498846221575	2.1670878	1.4721032
32.02473262386724	2.220096	1.4899987
32.04296723417845	2.2245069	1.4914781
32.0612026777311	2.1985466	1.4827497
32.07943895510129	2.1594532	1.4695078
32.097676066865304	2.140387	1.4630061
32.115914013599685	2.184168	1.4778931
32.13415279588115	2.1876328	1.4790648
32.152392414286666	2.1524258	1.4671148
32.1706328693934	2.1528003	1.4672425
32.18887416177875	2.2121124	1.4873172
32.20711629202032	2.2226143	1.4908435
32.225359260695924	2.198981	1.4828962
32.243603068383614	2.1556082	1.468199
32.26184771566166	2.118971	1.4556686
32.28009320310852	2.0394413	1.4280901
32.2983395313029	2.0846548	1.4438334
32.31658670082372	2.1731117	1.4741478
32.33483471225012	2.1907368	1.4801137
32.35308356616143	2.1428924	1.4638622
32.371333263137245	2.1401443	1.4629232
32.38958380375734	2.061888	1.4359275
32.407835188601744	2.1071377	1.4515983
32.42608741825067	2.1233065	1.457157
32.444340493284585	2.1571426	1.4687214
32.46259441428416	2.1817462	1.4770736
32.48084918183028	2.1096313	1.452457
32.49910479650405	2.1154652	1.4544638
32.51736125888683	2.1026492	1.4500514
32.53561856956014	2.0806153	1.4424338
32.5538767291058	2.0331624	1.42589
32.572135738105764	2.078603	1.4417361
32.59039559714228	2.1186008	1.4555414
32.608656306797776	2.0729952	1.43979
32.62691786765491	2.0643082	1.4367701
32.645180280296586	2.04142	1.4287827
32.663443545305896	1.9859684	1.409244
32.68170766326619	1.9864635	1.4094195
32.69997263476099	2.0441566	1.4297401
32.7182384603741	2.0189204	1.4208872
32.7365051406895	2.0008914	1.4145287
32.75477267629144	1.9553833	1.3983502
32.77304106776434	2.0094116	1.4175371
32.79131031569289	1.999965	1.4142011
32.809580420661966	1.8943343	1.3763481
32.827851383256714	1.8675325	1.3665769
32.84612320406245	1.8828087	1.3721547
32.86439588366476	1.9801999	1.4071958
32.88266942264945	2.0054712	1.4161466
32.9009438216025	1.945014	1.3946376
32.9192190811102	1.898629	1.3779074
32.937495201758985	1.9346162	1.3909048
32.95577218413556	1.980871	1.4074342
32.974050028826866	1.9817318	1.40774
32.992328736420035	1.9790684	1.4067937
33.010608307502444	1.9131745	1.3831755
33.02888874266169	1.8835144	1.3724118
33.047170042485604	1.9527458	1.3974068
33.06545220756225	1.972624	1.4045013
33.083735238479896	1.9449029	1.3945978
33.10201913582707	1.9661603	1.4021984
33.12030390019248	2.0071795	1.4167496
33.138589532165135	2.0181475	1.4206152
33.15687603233419	1.9333667	1.3904556
33.17516340128909	1.8895652	1.3746146
33.19345163961947	1.9353312	1.3911618
33.211740747915215	1.8497515	1.3600557
33.23003072676643	1.8526471	1.3611197
33.248321576763466	1.8823757	1.371997
33.266613298496885	1.8673779	1.3665204
33.28490589255747	1.8608553	1.3641317
33.30319935953626	1.8570577	1.3627391
33.32149370002451	1.8834795	1.3723992
33.339788914613706	1.8705921	1.3676959
33.358085003895575	1.8293198	1.3525236
33.376381968462034	1.8350832	1.3546524
33.39467980890529	1.8937439	1.3761337
33.41297852581774	1.9754131	1.4054939
33.43127811979204	2.0091612	1.4174489
33.44957859142105	1.9889753	1.4103104
33.467879941297866	1.9620516	1.4007325
33.486182170015844	1.9477993	1.3956358
33.50448527816853	1.9174612	1.3847243
33.522789266349754	1.9282829	1.3886262
33.541094135153514	1.9597498	1.3999107
33.55939988517411	1.9532653	1.3975927
33.57770651700602	1.9212073	1.3860762
33.59601403124398	1.9145968	1.3836895
33.61432242848296	1.9075071	1.3811253
33.632631709318154	1.8094984	1.345176
33.650941874344994	1.8307796	1.353063
33.66925292415916	1.9206703	1.3858825
33.68756485935654	2.0195785	1.4211187
33.70587768053328	1.8892984	1.3745176
33.724191388285746	1.8606635	1.3640614
33.74250598321054	1.8164192	1.347746
33.760821465904506	1.900724	1.3786675
33.77913783696474	1.9188002	1.3852077
33.79745509698852	1.9135028	1.3832942
33.815773246573414	1.8377689	1.3556434
33.8340922863172	1.7052584	1.3058554
33.852412216817896	1.6676139	1.2913612
33.87073303867377	1.7608826	1.3269825
33.889054752483304	1.8841287	1.3726357
33.907377358845245	2.0674467	1.4378618
33.92570085835853	2.1202672	1.4561137
33.94402525162239	2.0784335	1.4416773
33.96235053923627	1.9950901	1.4124765
33.980676721799824	1.949406	1.3962113
33.999003799912984	1.8645946	1.3655016
34.01733177417592	1.8555828	1.3621978
34.03566064518901	1.8926206	1.3757255
34.0539904135529	1.8933463	1.3759892
34.07232107986846	1.9410441	1.3932136
34.090652644736785	1.995258	1.412536
34.108985108759235	2.1701887	1.473156
34.12731847253742	2.0656095	1.4372228
34.14565273667313	1.9998426	1.414158
34.16398790176847	2.0251276	1.4230698
34.18232396842574	2.0353837	1.4266688
34.20066093724749	2.053316	1.4329396
34.21899880883651	2.0220602	1.4219916
34.23733758379583	1.9729444	1.4046154
34.25567726272874	1.8350618	1.3546445
34.27401784623872	1.7619377	1.3273801
34.29235933492957	1.8320838	1.353545
34.31070172940526	1.8899524	1.3747554
34.32904503027003	1.9507151	1.39668
34.347389238128386	1.9510813	1.3968111
34.36573435358502	1.7769263	1.333014
34.38408037724492	1.8149855	1.347214
34.402427309713296	2.0655727	1.4372101
34.42077515159559	2.200622	1.4834493
34.43912390349752	2.1325324	1.4603193
34.45747356602499	2.0608778	1.4355757
34.47582413978423	2.0464444	1.4305398
34.49417562538163	2.0187113	1.4208136
34.51252802342388	1.9382682	1.392217
34.53088133451789	1.9726616	1.4045147
34.54923555927084	2.005144	1.416031
34.567590698290104	1.9792566	1.4068606
34.58594675218336	1.9428194	1.3938506
34.6043037215585	1.9135612	1.3833153
34.62266160702365	1.8703339	1.3676015
34.641020409187234	2.0871487	1.4446968
34.65938012865785	2.223561	1.491161
34.677740766044394	2.2871673	1.5123384
34.69610232195598	2.2698002	1.5065856
34.714464797002016	2.113479	1.4537809
34.73282819179208	2.1135595	1.4538087
34.751192506936064	2.0114138	1.4182432
34.76955774304408	1.9218298	1.3863008
34.7879239007265	2.0213165	1.4217302
34.80629098059391	1.9936876	1.41198
34.824658983257194	2.039303	1.4280417
34.843027909327446	2.0443268	1.4297996
34.86139775941603	1.969206	1.403284
34.879768534134534	1.8643056	1.3653958
34.89814023409483	1.9505035	1.3966043
34.91651285990901	2.0630372	1.4363277
34.93488641218944	1.9968108	1.4130856
34.95326089154871	1.9897455	1.4105834
34.97163629859967	1.8667536	1.3662919
34.99001263395542	1.7874115	1.3369411
35.00838989822934	1.9245887	1.3872955
35.02676809203499	2.067308	1.4378136
35.04514721598624	2.063618	1.4365299
35.063527270697215	1.9236186	1.3869457
35.081908256782256	2.0091271	1.4174368
35.10029017485597	2.0370553	1.4272544
35.11867302553321	1.9189086	1.3852468
35.137056809429104	2.1239212	1.4573679
35.155441527159006	2.3356297	1.5282767
35.173827179338524	2.3808482	1.5429997
35.19221376658354	2.2777846	1.5092331
35.21060128951017	2.0101957	1.4178137
35.2289897487348	1.6614709	1.2889806
35.24737914487405	1.7419326	1.3198229
35.26576947854479	1.9379487	1.3921022
35.28416075036418	1.994929	1.4124196
35.30255296094958	1.9386544	1.3923557
35.32094611091867	1.9603287	1.4001174
35.33934020088932	2.0148482	1.4194535
35.35773523147969	2.256121	1.502039
35.3761312033082	2.291494	1.5137681
35.394528116993506	2.4847975	1.576324
35.41292597315452	2.7806814	1.6675376
35.431324772410434	2.6539023	1.6290802
35.449724515380666	2.3528225	1.5338913
35.46812520268491	2.1763763	1.4752547
35.486526834943106	2.1110203	1.4529351
35.504929412775454	1.8380613	1.3557512
35.52333293680242	1.7384742	1.3185121
35.54173740764471	1.7511353	1.3233047
35.560142825923286	1.9379799	1.3921134
35.5785491922594	2.4329762	1.5598
35.59695650727454	2.4789064	1.5744543
35.61536477159042	2.6747022	1.6354517
