0.008763373481513119	0.0	0.0
0.026290120649546365	0.0	0.0
0.043816868432600686	0.03550094	0.18841693
0.06134361724069026	0.082251735	0.28679565
0.07887036748382949	0.11035841	0.33220237
0.0963971195720331	0.106436156	0.32624555
0.11392387391531617	0.06065371	0.24627973
0.1314506309236943	0.083660275	0.28924087
0.1489773910071836	0.11816302	0.34374848
0.16650415457580078	0.15095848	0.38853374
0.18403092203956356	0.19236417	0.4385934
0.20155769380849	0.16388793	0.40483075
0.2190844702925996	0.12702125	0.3564004
0.2366112519019124	0.05724845	0.23926648
0.2541380390464497	0.087023705	0.2949978
0.27166483213623416	0.10884668	0.3299192
0.28919163158128947	0.12959115	0.3599877
0.3067184377916406	0.1668585	0.40848318
0.324245251177314	0.15941362	0.39926636
0.34177207214833777	0.15575916	0.39466333
0.3592989011147415	0.11262813	0.33560115
0.37682573848655654	0.073290326	0.27072185
0.39435258467381573	0.12940855	0.359734
0.41187944008655414	0.12887964	0.3589981
0.42940630513480854	0.13874105	0.3724796
0.446933180228618	0.097946905	0.3129647
0.4644600657780234	0.07387479	0.27179918
0.48198696219306775	0.10340275	0.32156298
0.49951386988379676	0.105872534	0.3253806
0.5170407892602581	0.11978246	0.34609604
0.5345677207325025	0.14037332	0.37466428
0.5520946647105822	0.13694778	0.37006456
0.5696216216045534	0.1501683	0.38751554
0.5871485918244737	0.15728498	0.3965917
0.6046755757804043	0.12700343	0.3563754
0.6222025738824094	0.11586703	0.34039247
0.6397295865405557	0.121451825	0.3484994
0.6572566141649129	0.13745196	0.37074515
0.6747836571655547	0.14601564	0.38211992
0.6923107159525568	0.13917194	0.37305757
0.7098377909359992	0.17540689	0.41881606
0.7273648825259653	0.1665369	0.40808934
0.7448919911325411	0.18866171	0.43435207
0.762419117165817	0.19328448	0.4396413
0.7799462610358868	0.16944198	0.4116333
0.7974734231528482	0.15333273	0.3915772
0.8150006039268024	0.11395393	0.33757064
0.8325278037678551	0.13974942	0.37383074
0.8500550230861152	0.19332442	0.43968672
0.8675822622916969	0.21667682	0.46548557
0.8851095217947171	0.22955765	0.47912174
0.9026368020052984	0.21053655	0.45884264
0.9201641033335665	0.19243515	0.4386743
0.9376914261896523	0.22055829	0.46963632
0.9552187709836915	0.2576431	0.5075856
0.9727461381258234	0.21987666	0.46891007
0.990273528026193	0.2157958	0.46453828
1.0078009410949496	0.21708843	0.46592748
1.0253283777422473	0.26214114	0.5119972
1.0428558383782454	0.2744146	0.523846
1.0603833234131086	0.26045063	0.5103436
1.0779108332570058	0.29050067	0.53898114
1.0954383683201119	0.33765715	0.58108276
1.112965929012607	0.4030163	0.63483566
1.1304935157446763	0.47810203	0.6914492
1.1480211289265108	0.49374884	0.70267266
1.1655487689683062	1.395992	1.181521
1.1830764362802655	1.7002605	1.3039404
1.200604131272596	2.1202416	1.456105
1.2181318543555117	2.3818183	1.5433141
1.235659605939232	2.3858948	1.5446342
1.253187386433982	4.0072956	2.0018232
1.270715196249994	6.5232058	2.5540566
1.2882430357975057	12.082156	3.4759395
1.3057709054867608	16.758242	4.0936832
1.3232988057280106	22.512943	4.7447805
1.3408267369315112	27.133698	5.2090015
1.358354699507526	30.522116	5.5246825
1.3758826938663256	34.804947	5.899572
1.3934107204181858	36.724712	6.060092
1.410938779573391	37.113567	6.0920906
1.4284668717422309	37.83858	6.151307
1.4459949973350033	37.32044	6.1090455
1.4635231567620117	37.447662	6.1194496
1.4810513504335687	36.635677	6.0527415
1.4985795787599925	35.98084	5.998403
1.5161078421516088	35.71208	5.9759583
1.5336361410187505	34.76931	5.8965507
1.5511644757717598	34.76448	5.896141
1.5686928468209842	35.034573	5.919001
1.58622125457678	35.392662	5.9491735
1.6037496994495108	36.37028	6.030778
1.621278181849548	36.031322	6.0026097
1.6388067021872719	36.850876	6.0704923
1.6563352608730693	36.50424	6.041874
1.673863858317336	35.727486	5.977247
1.6913924949304753	35.295296	5.9409842
1.7089211711228998	34.009148	5.831736
1.7264498873050296	33.08328	5.7518067
1.7439786438872935	32.190334	5.6736526
1.7615074412801288	31.358688	5.599883
1.779036279893981	30.989405	5.566813
1.796565160139305	30.152086	5.4910917
1.814094082426564	29.540943	5.4351583
1.8316230471662298	28.782385	5.3649216
1.849152054768784	28.31882	5.321543
1.8666811056447168	27.95262	5.2870235
1.8842102002045273	26.83735	5.180478
1.901739338858724	25.952322	5.094342
1.9192685220178245	24.905722	4.9905634
1.9367977500923557	24.4736	4.94708
1.9543270234928547	23.99788	4.898763
1.971856342629867	23.557116	4.853567
1.9893857079139496	22.981	4.7938504
2.006915119755667	22.539385	4.747566
2.0244445785655945	22.181976	4.7097745
2.0419740847543175	21.829664	4.6722226
2.0595036387324317	21.443703	4.6307344
2.0770332409105414	20.804546	4.5612
2.094562891699263	20.35144	4.511257
2.1120925915092217	19.845078	4.4547815
2.129622340751053	19.707092	4.439267
2.1471521398354043	187.85419	13.705991
2.1646819891729323	444.13956	21.07462
2.182211889174303	440.26254	20.982433
2.1997418402501974	452.6139	21.274725
2.2172718428113023	432.5588	20.798048
2.234801897268317	320.5806	17.904764
2.2523320040319548	17.100506	4.135276
2.269862163512935	16.824667	4.101788
2.287392376121992	16.447865	4.055597
2.304922642269869	16.231354	4.0288153
2.322452962367322	15.832725	3.9790356
2.3399833368251164	15.5219145	3.9397862
2.357513766054032	15.108736	3.8869958
2.3750442504648586	14.8504	3.8536217
2.3925747904683963	14.556131	3.81525
2.410105386475459	14.256621	3.775794
2.4276360388968707	13.849412	3.72148
2.445166748143469	13.720538	3.7041245
2.4626975146261025	13.456571	3.66832
2.4802283387556323	13.405986	3.6614184
2.4977592209429305	13.159461	3.627597
2.5152901615988825	12.809675	3.5790606
2.5328211611343865	12.668519	3.5592864
2.5503522199603523	12.592457	3.5485852
2.5678833384877024	12.501629	3.5357642
2.5854145171273712	12.2103195	3.4943268
2.6029457562903064	11.903039	3.450078
2.620477056387469	11.615253	3.4081159
2.6380084178298326	11.4858265	3.3890746
2.655539841028383	11.312736	3.363441
2.673071326394119	11.137648	3.3373115
2.6906028743380523	10.900418	3.301578
2.708134485271211	10.853022	3.2943923
2.7256661596046325	10.63641	3.2613509
2.743197897749369	10.5185585	3.2432327
2.760729700116486	10.385093	3.222591
2.778261567117063	10.175749	3.189945
2.795793499162193	10.052251	3.1705284
2.8133254966629817	9.873864	3.1422706
2.830857560030551	9.731284	3.1195006
2.8483896896760337	9.721557	3.1179411
2.865921886010578	9.656857	3.1075482
2.883454149445347	9.421145	3.0693884
2.9009864803915177	9.338095	3.0558295
2.91851887926028	9.383369	3.0632286
2.9360513464628384	9.293742	3.048564
2.953583882410413	9.070542	3.011734
2.9711164875142373	8.738047	2.9560187
2.9886491621855606	8.6844425	2.9469378
3.0061819068356455	8.633458	2.9382746
3.023714721875769	8.693669	2.9485028
3.041247607717225	8.540004	2.9223285
3.0587805647713213	8.48201	2.912389
3.0763135934493806	8.317692	2.8840408
3.0938466941627407	8.2495985	2.8722115
3.1113798673227544	8.050325	2.8373096
3.1289131133407904	7.9312463	2.8162467
3.1464464326282315	7.8028593	2.7933598
3.1639798255964786	7.733823	2.780975
3.1815132926569443	7.5815687	2.753465
3.1990468342210603	7.4855933	2.7359812
3.216580450700272	7.361839	2.713271
3.2341141425060416	7.248836	2.6923664
3.251647910049847	7.0964622	2.6639185
3.2691817537431813	7.0144916	2.6484885
3.286715673997555	6.918786	2.6303585
3.3042496712244938	6.864939	2.620103
3.32178374583554	6.771946	2.6022964
3.339317898242251	6.789564	2.6056793
3.3568521288562034	6.6997604	2.5883896
3.3743864380889876	6.666134	2.5818858
3.3919208263522127	6.555542	2.5603793
3.4094552940575023	6.5157924	2.552605
3.4269898416164972	6.5080953	2.551097
3.444524469440858	6.493878	2.5483088
3.4620591779422587	6.3965254	2.5291352
3.479593967532391	6.4123096	2.532254
3.4971288386229658	6.329661	2.5158818
3.5146637916257086	6.2737565	2.5047467
3.5321988269523628	6.3067827	2.5113308
3.5497339450146903	6.3600965	2.521923
3.5672691462244708	6.4713545	2.5438857
3.5848044309934988	6.459895	2.5416324
3.60233979973359	6.3183312	2.5136292
3.619875252856575	6.3438773	2.5187054
3.6374107907743034	6.3627276	2.5224447
3.6549464138986427	6.4461875	2.5389342
3.6724821226414788	6.4543967	2.5405505
3.690017917414714	6.350166	2.5199535
3.7075537986302702	6.208248	2.4916356
3.7250897667000857	6.1879854	2.4875662
3.7426258220361235	6.3365493	2.5172503
3.7601619650503553	6.693311	2.5871434
3.777698196154779	7.283508	2.6987975
3.7952345157614067	8.460604	2.9087117
3.8127709242822716	9.297111	3.0491164
3.830307422129425	11.610454	3.4074116
3.847844009714936	30.323135	5.5066447
3.8653806874508954	97.76031	9.887382
3.882917455749409	96.971954	9.847434
3.900454315022606	96.54182	9.825569
3.917991265682631	41.0892	6.4100857
3.9355283081416506	10.730925	3.275809
3.9530654428118495	8.683245	2.9467347
3.970602670105433	7.439894	2.727617
3.9881399904346244	6.4765306	2.5449028
4.005677404211669	6.2659163	2.5031812
4.023214911848827	6.237631	2.497525
4.0407525137583855	6.2861323	2.507216
4.058290210352644	6.382678	2.5263963
4.075828002043927	6.3483024	2.5195837
4.0933658892445814	6.352824	2.5204809
4.110903872366966	6.2869816	2.5073855
4.128441951823468	6.2131805	2.4926252
4.145980128026488	6.1279383	2.4754672
4.163518401388452	6.018129	2.4531875
4.181056772321807	6.078732	2.4655085
4.1985952412390155	5.9787197	2.445142
4.216133808552567	5.9958053	2.4486334
4.233672474674966	6.055876	2.4608688
4.251211240018741	6.4032307	2.5304606
4.268750104996445	6.7817287	2.6041753
4.286289070020643	7.6777573	2.7708766
4.303828135503928	9.121556	3.0201914
4.3213673018589125	29.323996	5.4151635
4.3389065694982305	90.44947	9.510492
4.356445938834537	165.78676	12.875821
4.3739854102805085	171.08658	13.080007
4.391524984248844	171.90224	13.11115
4.409064661152262	135.88399	11.656929
4.426604441403504	96.337296	9.815156
4.444144325415337	75.63281	8.6967125
4.461684313600543	21.76003	4.664765
4.47922440637193	22.08307	4.6992626
4.496764604142329	20.323833	4.5081964
4.5143049073245916	18.34436	4.2830315
4.531845316331589	16.253094	4.0315127
4.5493858315762195	13.402285	3.660913
4.566926453471405	11.233867	3.351696
4.584467182430081	9.183409	3.0304139
4.602008018865218	8.136982	2.8525395
4.619548963189798	7.507263	2.7399385
4.637090015816834	7.0516806	2.6555002
4.654631177159353	6.743129	2.5967536
4.672172447630417	6.3465204	2.5192301
4.689713827643102	6.14489	2.4788888
4.7072553176105085	5.9151835	2.432115
4.724796917945764	5.7754917	2.4032252
4.742338629062015	5.7459183	2.3970644
4.759880451372434	5.667896	2.3807342
4.777422385290215	5.652882	2.377579
4.794964431228581	5.6302605	2.372817
4.812506589600768	5.6787543	2.3830137
4.830048860820047	5.6628313	2.3796704
4.847591245299709	5.5912347	2.3645792
4.8651337434530655	5.5143404	2.3482633
4.882676355693457	5.5059853	2.3464837
4.900219082434242	5.476109	2.3401089
4.917761924088813	5.4623938	2.3371766
4.935304881070575	5.4554424	2.3356888
4.952847953792969	5.4649124	2.3377151
4.970391142669449	5.509061	2.347139
4.9879344481135055	5.4909368	2.3432748
5.005477870538642	5.453513	2.335276
5.023021410358394	5.3959455	2.3229175
5.040565067986324	5.4300036	2.330237
5.05810884383601	5.41101	2.3261578
5.075652738321066	5.414527	2.3269136
5.09319675185512	5.4156637	2.327158
5.110740884851836	5.380603	2.3196127
5.128285137724894	5.314701	2.3053637
5.145829510888007	5.310149	2.3043761
5.163374004754908	5.303253	2.3028793
5.1809186197393595	5.346196	2.3121843
5.198463356255145	5.265755	2.2947233
5.216008214716077	5.221112	2.2849753
5.233553195535998	5.132687	2.2655435
5.251098299128764	5.130804	2.265128
5.268643525908272	5.133113	2.2656374
5.286188876288432	5.140105	2.26718
5.3037343506831895	5.114004	2.2614164
5.32127994950651	5.1854944	2.277168
5.3388256731723915	5.2036934	2.2811606
5.356371522094851	5.2609816	2.293683
5.373917496687938	5.2514815	2.2916112
5.391463597365729	5.157332	2.270976
5.40900982454232	5.158721	2.2712817
5.426556178631843	5.168965	2.2735357
5.444102660048449	5.1194277	2.2626152
5.4616492692063225	5.123384	2.2634892
5.479196006519669	5.1026206	2.258898
5.496742872402727	5.116423	2.2619512
5.514289867269756	5.1351347	2.2660835
5.531836991535049	5.158011	2.2711256
5.549384245612924	5.1567545	2.2708488
5.566931629917724	5.188249	2.277773
5.584479144863822	5.2168665	2.2840462
5.6020267908656205	5.2423935	2.2896273
5.619574568337545	5.244725	2.2901366
5.637122477694054	5.2574196	2.2929063
5.654670519349629	5.2085147	2.282217
5.672218693718784	5.1442223	2.2680879
5.689767001216059	5.163113	2.2722485
5.707315442256021	5.112943	2.2611818
5.724864017253266	5.18053	2.2760777
5.7424127266224225	5.2136617	2.2833445
5.75996157077814	5.201419	2.2806618
5.777510550135105	5.182891	2.2765963
5.795059665108022	5.1423855	2.2676828
5.812608916111639	5.165369	2.272745
5.830158303560715	5.3616495	2.3155236
5.847707827870055	5.4056215	2.3249993
5.86525748945448	5.4605927	2.336791
5.8828072887288485	5.478498	2.340619
5.900357226108044	5.512827	2.347941
5.917907302006979	5.545605	2.3549109
5.9354575168406	6.187294	2.4874272
5.9530078710238765	6.8458033	2.6164486
5.970558364971812	7.348089	2.710736
5.988108999099438	7.6933403	2.7736871
6.005659773821818	8.183773	2.8607295
6.023210689554039	7.9304347	2.8161027
6.040761746711227	8.376546	2.8942263
6.058312945708531	7.760882	2.785836
6.075864286961132	7.2702413	2.6963384
6.093415770884244	6.6010423	2.5692494
6.1109673978931065	6.0238953	2.4543624
6.128519168402993	5.4165945	2.3273578
6.146071082829204	5.3771214	2.3188622
6.163623141587075	5.2917533	2.3003812
6.181175345091969	5.2218466	2.285136
6.198727693759281	5.177313	2.2753708
6.216280188004435	5.1024785	2.2588665
6.233832828242885	5.1034493	2.2590816
6.251385614890126	5.106417	2.2597382
6.268938548361669	5.0831323	2.2545803
6.286491629073067	5.048479	2.246882
6.304044857439898	5.0415382	2.245337
6.321598233877777	4.995952	2.2351627
6.339151758802344	5.022204	2.2410274
6.356705432629277	5.0638084	2.2502906
6.37425925577428	5.0412307	2.2452686
6.391813228653095	5.0623584	2.2499685
6.409367351681486	5.037848	2.2445152
6.426921625275259	5.041846	2.2454054
6.44447604985025	5.0514708	2.2475476
6.46203062582232	5.030818	2.2429485
6.47958535360737	4.9918275	2.2342398
6.497140233621328	4.936115	2.221737
6.514695266280161	4.9935207	2.2346187
6.532250451999859	5.0024786	2.236622
6.549805791196454	5.0281196	2.242347
6.567361284286002	4.958045	2.2266667
6.584916931684597	5.036364	2.2441845
6.602472733808367	5.0439587	2.2458758
6.6200286910734665	5.064026	2.250339
6.637584803896092	5.023969	2.2414212
6.655141072692462	4.9546638	2.2259073
6.672697497878842	4.897697	2.2130742
6.690254079871514	4.820121	2.1954772
6.707810819086808	4.7979393	2.19042
6.725367715941078	4.8108788	2.1933715
6.742924770850719	4.847461	2.201695
6.760481984232151	4.9401126	2.2226365
6.778039356501836	4.9871073	2.2331831
6.795596888076266	5.0515714	2.24757
6.813154579371963	5.0082397	2.2379098
6.830712430805492	4.9721045	2.2298217
6.84827044279344	4.9212117	2.2183805
6.865828615752445	4.9093823	2.2157125
6.883386950099159	4.886553	2.2105548
6.900945446250287	4.856408	2.203726
6.918504104622553	4.8243923	2.19645
6.936062925632727	4.8528814	2.2029257
6.953621909697607	4.9167976	2.2173853
6.971181057234028	5.001409	2.236383
6.988740368658859	5.066792	2.2509537
7.006299844389007	5.1570363	2.270911
7.023859484841407	5.1983194	2.2799823
7.041419290433036	5.3006883	2.3023224
7.058979261580902	5.3722267	2.3178065
7.0765393987020495	5.607907	2.3681018
7.094099702213559	5.9688554	2.443124
7.111660172532549	6.3595066	2.5218062
7.129220810076164	6.725833	2.593421
7.146781615261595	7.2639594	2.6951733
7.16434258850606	7.4578156	2.7309
7.181903730226821	7.8640027	2.804283
7.1994650408411704	8.078322	2.842239
7.217026520766437	8.245261	2.8714564
7.234588170419983	8.474925	2.9111724
7.252149990219215	8.48131	2.9122689
7.269711980581568	8.344632	2.8887076
7.2872741419245175	8.17176	2.858629
7.304836474665574	7.822578	2.7968872
7.322398979222286	7.501596	2.7389042
7.339961656012233	7.175532	2.6787183
7.357524505453039	6.755288	2.5990937
7.375087527962357	6.4617615	2.5419996
7.392650723957886	6.1825175	2.486467
7.410214093857353	5.8595905	2.420659
7.427777638078528	5.675567	2.382345
7.445341357039213	5.52334	2.3501787
7.4629052511572525	5.366235	2.3165135
7.480469320850524	5.2523603	2.291803
7.498033566536948	5.180005	2.2759624
7.5155979886344735	5.1441345	2.2680686
7.5331625875610975	5.0492597	2.2470558
7.550727363734844	5.034694	2.2438123
7.568292317573788	5.0573187	2.2488482
7.585857449496025	5.1260843	2.2640858
7.603422759919705	5.1449275	2.2682433
7.620988249263007	5.1500206	2.2693658
7.638553917944147	5.1402154	2.2672043
7.656119766381391	5.1488113	2.2690992
7.673685794993023	5.1505566	2.2694838
7.691252004197388	5.20541	2.2815368
7.70881839441285	5.2027416	2.280952
7.726384966057826	5.241842	2.289507
7.743951719550762	5.1773543	2.2753801
7.761518655310149	5.1719537	2.274193
7.779085773754511	5.0991983	2.2581406
7.796653075302419	5.148818	2.2691007
7.814220560372475	5.1466103	2.268614
7.831788229383323	5.1781983	2.2755654
7.8493560827536495	5.2086716	2.2822514
7.866924120902174	5.2398224	2.2890658
7.884492344247663	5.2776866	2.2973216
7.9020607532089135	5.3244424	2.3074753
7.919629348204771	5.3450537	2.311937
7.937198129654115	5.3670864	2.3166974
7.954767097975865	5.3404727	2.3109462
7.972336253588986	5.3500834	2.3130248
7.989905596912472	5.340099	2.3108654
8.007475128365371	5.307161	2.3037276
8.025044848366756	5.319473	2.3063982
8.042614757335754	5.4890027	2.3428621
8.060184855691523	5.5988207	2.3661828
8.07775514385327	5.7477202	2.3974404
8.095325622240228	5.7381477	2.3954432
8.112896291271687	5.749403	2.3977914
8.130467151366968	5.8700724	2.4228232
8.148038202945436	5.973644	2.444104
8.165609446426497	5.9728384	2.4439392
8.183180882229594	5.9930215	2.4480648
8.200752510774217	5.916259	2.432336
8.218324332479893	5.865598	2.4218998
8.235896347766193	5.843476	2.4173284
8.253468557052724	5.881704	2.4252224
8.27104096075914	5.8746696	2.4237719
8.288613559305137	5.916743	2.4324355
8.306186353110448	5.9615226	2.441623
8.32375934259485	6.0404634	2.4577355
8.341332528178162	6.07575	2.4649036
8.358905910280246	6.138572	2.4776142
8.376479489321003	6.229689	2.4959345
8.394053265720377	6.2822785	2.5064473
8.411627239898356	6.2398148	2.4979622
8.42920141227497	6.1756363	2.4850829
8.44677578327029	6.1476736	2.4794502
8.464350353304427	6.1894674	2.487864
8.48192512279754	6.2221527	2.4944243
8.499500092169827	6.148022	2.4795206
8.51707526184153	6.082194	2.4662104
8.534650632232934	6.0563965	2.4609747
8.552226203764365	6.0554504	2.4607825
8.569801976856192	6.067383	2.4632058
8.587377951928834	6.075665	2.4648864
8.60495412940274	6.159099	2.4817533
8.622530509698416	6.2370815	2.497415
8.6401070932364	6.389095	2.5276659
8.657683880437283	6.530243	2.555434
8.675260871721695	6.621913	2.5733078
8.692838067510303	6.720508	2.5923944
8.710415468223834	6.7746477	2.6028154
8.727993074283043	6.9451814	2.6353712
8.745570886108737	7.029058	2.651237
8.763148904121765	7.1113586	2.666713
8.78072712874302	7.1428285	2.672607
8.798305560393441	7.3345156	2.708231
8.815884199494006	7.477252	2.7344565
8.833463046465745	7.6579204	2.767295
8.851042101729728	7.7297297	2.780239
8.86862136570707	8.0254135	2.832916
8.886200838818924	8.190922	2.8619785
8.903780521486505	8.245335	2.871469
8.921360414131055	8.229418	2.8686962
8.938940517173874	8.313862	2.8833768
8.956520831036297	8.424235	2.9024534
8.97410135613971	8.741882	2.9566674
8.99168209290554	8.920841	2.9867778
9.009263041755265	9.285166	3.047157
9.026844203110405	9.571857	3.0938418
9.044425577392525	9.866208	3.141052
9.062007165023239	9.886582	3.1442935
9.079588966424197	10.145639	3.1852221
9.097170982017108	10.199277	3.1936307
9.11475321222372	11.389751	3.3748705
9.132335657465825	12.389437	3.5198631
9.149918318165264	12.608675	3.5508697
9.167501194743924	13.150826	3.626407
9.18508428762374	12.757878	3.5718172
9.202667597226693	12.646762	3.5562286
9.220251123974803	12.279339	3.5041888
9.237834868290143	11.951179	3.4570477
9.255418830594836	11.739934	3.4263587
9.273003011311046	11.200494	3.3467138
9.290587410860985	10.984476	3.3142836
9.308172029666911	10.320524	3.2125573
9.32575686815113	10.059449	3.1716635
9.343341926735997	8.741159	2.956545
9.360927205843916	8.490216	2.9137976
9.378512705897327	8.300625	2.8810804
9.396098427318728	8.046758	2.8366807
9.413684370530664	8.036868	2.834937
9.431270535955722	7.940745	2.8179328
9.448856924016539	7.8936567	2.8095653
9.466443535135806	7.7298946	2.780269
9.484030369736251	7.7353253	2.7812452
9.501617428240658	7.7543526	2.784664
9.519204711071852	7.735472	2.7812717
9.536792218652714	7.689951	2.773076
9.55437995140617	7.6107693	2.7587624
9.571967909755191	7.671694	2.7697823
9.589556094122802	7.691707	2.7733927
9.60714450493207	7.77452	2.7882826
9.624733142606116	7.8021884	2.7932398
9.642322007568108	7.912867	2.8129818
9.659911100241267	7.9579906	2.820991
9.677500421048851	7.9739003	2.8238096
9.695089970414175	7.9472337	2.819084
9.712679748760609	7.9779916	2.824534
9.730269756511557	8.086206	2.8436255
9.747859994090492	8.112864	2.8483088
9.765450461920915	8.15251	2.85526
9.78304116042639	8.191477	2.8620756
9.800632090030527	8.221357	2.867291
9.81822325115699	8.179992	2.8600686
9.835814644229481	8.18977	2.8617773
9.853406269671762	8.242978	2.8710587
9.870998127907646	8.350763	2.8897688
9.888590219360985	8.339356	2.8877945
9.906182544455698	8.373446	2.8936908
9.923775103615734	8.316552	2.8838432
9.941367897265108	8.307173	2.8822167
9.958960925827878	8.299799	2.880937
9.97655418972816	8.373337	2.8936718
9.994147689390106	8.442668	2.905627
10.011741425237934	8.45818	2.9082952
10.029335397695904	8.401559	2.8985443
10.04692960718833	8.277824	2.877121
10.06452405413958	8.174542	2.8591156
10.082118738974064	8.161899	2.8569038
10.099713662116246	8.123697	2.85021
10.117308823990651	8.186988	2.8612914
10.134904225021844	8.22189	2.867384
10.152499865634445	8.2698	2.875726
10.170095746253125	8.262214	2.8744066
10.18769186730261	8.271987	2.8761063
10.205288229207675	8.221157	2.867256
10.222884832393145	8.208658	2.8650756
10.2404816772839	8.133021	2.8518453
10.258078764304868	8.023704	2.8326142
10.275676093881035	7.977492	2.8244455
10.293273666437438	7.9841127	2.8256173
10.310871482399158	8.087924	2.8439276
10.32846954219134	8.12379	2.8502262
10.346067846239173	8.1551075	2.8557148
10.363666394967908	8.101528	2.8463182
10.38126518880283	8.089925	2.8442793
10.398864228169298	8.156684	2.855991
10.416463513492713	8.21616	2.8663845
10.434063045198531	8.18378	2.8607306
10.451662823712262	8.122239	2.8499541
10.469262849459467	8.07714	2.842031
10.486863122865758	8.038332	2.8351953
10.504463644356806	7.982862	2.8253958
10.522064414358338	7.9505954	2.81968
10.539665433296118	7.974918	2.8239896
10.557266701595987	7.9297075	2.8159735
10.574868219683818	7.8091884	2.7944925
10.592469987985552	7.6874	2.7726161
10.610072006927185	7.5708666	2.7515209
10.627674276934751	7.463498	2.7319403
10.64527679843435	7.2868915	2.6994243
10.662879571852143	7.1999846	2.6832788
10.680482597614331	7.1047707	2.6654775
10.698085876147173	7.070397	2.6590219
10.715689407876988	6.9850545	2.6429253
10.733293193230146	6.8883348	2.6245637
10.750897232633072	6.737974	2.5957608
10.76850152651225	6.612922	2.5715604
10.786106075294207	6.48817	2.5471888
10.803710879405534	6.4431677	2.5383396
10.821315939272877	6.3331347	2.516572
10.83892125532294	6.2556195	2.5011237
10.856526827982472	6.225555	2.4951062
10.874132657678285	6.175013	2.4849575
10.891738744837243	6.202794	2.490541
10.909345089886271	6.170149	2.4839785
10.926951693252343	6.164105	2.4827616
10.944558555362494	6.066678	2.4630628
10.96216567664381	5.9515724	2.4395845
10.979773057523436	5.9216437	2.4334428
10.997380698428573	5.8340635	2.4153807
11.014988599786477	5.7931128	2.4068887
11.032596762024461	5.7106934	2.3897057
11.050205185569892	5.616596	2.369936
11.067813870850198	5.586455	2.3635683
11.085422818292859	5.528541	2.351285
11.10303202832541	5.4502068	2.3345678
11.120641501375454	5.351242	2.313275
11.138251237870636	5.274536	2.2966359
11.155861238238671	5.2239738	2.2856014
11.173471502907317	5.1175795	2.2622068
11.191082032304402	5.0442333	2.245937
11.208692826857805	5.022508	2.2410953
11.226303886995465	5.0358405	2.244068
11.243915213145371	5.0082693	2.2379162
11.261526805735578	4.890059	2.2113478
11.279138665194196	4.824879	2.1965609
11.296750791949393	4.8043528	2.1918833
11.314363186429393	4.769626	2.1839473
11.331975849062479	4.760736	2.181911
11.34958878027699	4.6483164	2.1559954
11.36720198050133	4.5895605	2.1423259
11.384815450163948	4.490361	2.1190472
11.402429189693366	4.498001	2.1208491
11.420043199518153	4.48678	2.1182022
11.437657480066942	63.47159	7.9669056
11.455272031768422	85.1354	9.226885
11.472886855051353	107.54477	10.370379
11.490501950344528	99.11601	9.955703
11.508117318076819	84.49998	9.192387
11.52573295867715	45.901478	6.775063
11.543348872574514	4.218581	2.0539186
11.560965060197946	4.2448277	2.060298
11.57858152197655	4.2318745	2.057152
11.59619825833949	4.2320313	2.0571902
11.613815269715985	4.1181293	2.0293174
11.631432556535323	38.55581	6.2093325
11.649050119226837	83.00695	9.110815
11.666667958219929	93.39259	9.663984
11.68428607394406	107.680565	10.3769245
11.701904466828756	82.52	9.084052
11.719523137303586	65.37719	8.085616
11.737142085798196	4.537333	2.1301017
11.754761312742286	3.6069973	1.8992096
11.772380818565619	3.5638669	1.8878207
11.790000603698015	3.5879862	1.8941981
11.80762066856935	3.5929818	1.8955163
11.825241013609572	3.5838518	1.8931063
11.842861639248683	3.530224	1.8788891
11.860482545916748	3.4625561	1.8607945
11.878103734043883	3.4027002	1.844641
11.895725204060282	3.3672733	1.8350132
11.91334695639619	3.3569274	1.832192
11.930968991481919	3.373803	1.8367915
11.948591309747824	3.376067	1.8374077
11.966213911624347	3.374882	1.8370851
11.98383679754198	3.3363738	1.8265743
12.001459967931268	3.2918384	1.8143424
12.019083423222835	3.2181928	1.7939322
12.036707163847352	3.1976783	1.7882054
12.05433119023556	3.1865785	1.785099
12.071955502818259	3.1864774	1.7850707
12.089580102026313	3.1856067	1.7848268
12.107204988290643	3.2040691	1.7899914
12.12483016204224	3.1911159	1.7863694
12.142455623712152	3.1750183	1.7818581
12.16008137373149	3.1214905	1.766774
12.177707412531431	3.0392506	1.7433447
12.19533374054321	2.9953506	1.7307081
12.212960358198126	2.9650748	1.7219392
12.230587265927545	2.9694932	1.7232218
12.248214464162889	3.0015633	1.732502
12.265841953335649	2.994649	1.7305053
12.283469733877375	2.9711807	1.7237113
12.301097806219685	2.9687643	1.7230103
12.31872617079425	2.9442275	1.7158751
12.336354828032825	2.9275527	1.7110093
12.353983778367205	2.912078	1.7064811
12.371613022229262	2.9109037	1.7061371
12.389242560050928	2.9127028	1.7066642
12.406872392264201	2.8858316	1.6987735
12.424502519301143	2.8510766	1.6885132
12.442132941593874	2.8154001	1.6779155
12.459763659574586	2.8168764	1.6783552
12.477394673675532	2.8191738	1.6790396
12.49502598432903	2.8345678	1.6836175
12.51265759196746	2.8383443	1.6847386
12.530289497023267	2.8215315	1.6797415
12.547921699928967	2.8032749	1.6742983
12.565554201117134	2.7912261	1.6706963
12.583187001020404	2.8077066	1.6756213
12.600820100071486	2.811834	1.6768525
12.618453498703152	2.8163092	1.6781863
12.636087197348235	2.794862	1.671784
12.65372119643964	2.799748	1.6732447
12.671355496410326	2.7643993	1.6626483
12.68899009769333	2.763414	1.662352
12.706625000721749	2.8136923	1.6774064
12.724260205928752	2.8796766	1.6969609
12.741895713747551	2.9349952	1.7131828
12.759531524611454	2.9810553	1.7265732
12.777167638953818	3.004019	1.7332106
12.794804057208072	3.037362	1.742803
12.812440779807702	3.0919251	1.7583871
12.830077807186271	3.2662814	1.8072857
12.847715139777405	3.2710545	1.8086057
12.865352778014795	3.442712	1.8554547
12.882990722332197	3.5062306	1.8724931
12.90062897316344	3.5758824	1.8910004
12.918267530942412	3.682074	1.9188731
12.935906396103071	3.5998633	1.8973305
12.953545569079449	3.7874327	1.9461328
12.971185050305628	3.5670397	1.8886608
12.988824840215775	3.5693302	1.8892671
13.006464939244115	3.5801475	1.8921278
13.024105347824943	3.441496	1.855127
13.041746066392617	3.5321116	1.8793913
13.05938709538157	3.3281026	1.8243088
13.077028435226296	3.3425152	1.8282547
13.094670086361363	3.2325451	1.797928
13.112312049221401	3.1303291	1.7692736
13.129954324241112	3.0214913	1.7382437
13.147596911855258	2.8706963	1.6943129
13.165239812498685	2.8623679	1.6918534
13.182883026606293	2.832172	1.6829058
13.200526554613058	2.7514157	1.6587392
13.218170396954017	2.68376	1.6382185
13.235814554064284	2.6685646	1.6335741
13.253459026379034	2.6748424	1.6354945
13.271103814333523	2.6588173	1.630588
13.288748918363058	2.6491103	1.6276088
13.306394338903031	2.6541247	1.6291485
13.32404007638889	2.6422822	1.6255099
13.341686131256164	2.628207	1.6211746
13.359332503940449	2.6103806	1.6156672
13.376979194877402	2.6116896	1.6160723
13.394626204502751	2.6824725	1.6378255
13.412273533252307	2.7237897	1.6503907
13.429921181561937	2.6911361	1.6404682
13.447569149867581	2.7012851	1.6435586
13.465217438605247	2.6984587	1.6426986
13.482866048211022	2.698129	1.6425983
13.500514979121052	2.7202046	1.6493043
13.518164231771568	2.6674817	1.6332427
13.535813806598844	2.656985	1.6300261
13.553463704039254	2.6279588	1.621098
13.571113924529229	2.62075	1.618873
13.588764468505275	2.651754	1.6284207
13.606415336403956	2.695205	1.6417079
13.624066528661917	2.7204874	1.64939
13.641718045715882	2.7577207	1.6606387
13.659369888002635	2.822258	1.6799577
13.67702205595903	2.8637686	1.6922673
13.694674550021993	2.949256	1.7173398
13.712327370628532	3.0126755	1.7357061
13.729980518215713	3.1063914	1.7624958
13.747633993220681	3.1633825	1.7785901
13.765287796080647	3.202496	1.7895519
13.7829419272329	3.2770135	1.8102523
13.800596387114801	3.2970245	1.8157711
13.818251176163775	3.3092513	1.8191347
13.835906294817324	3.325333	1.8235496
13.853561743513023	3.3916936	1.8416551
13.871217522688525	3.4410326	1.855002
13.888873632781538	3.4646652	1.8613611
13.906530074229858	3.5003412	1.8709198
13.92418684747135	3.5266073	1.8779263
13.941843952943948	3.5211878	1.8764828
13.959501391085665	3.5250442	1.8775101
13.977159162334578	3.434097	1.8531317
13.994817267128846	3.413344	1.8475237
14.012475705906693	3.3015304	1.8170114
14.030134479106424	3.2245114	1.7956924
14.047793587166414	3.061302	1.7496576
14.065453030525108	2.9943264	1.7304122
14.083112809621026	2.9261787	1.7106076
14.100772924892766	2.905689	1.7046082
14.118433376778997	2.8594964	1.6910045
14.136094165718458	2.7643752	1.662641
14.153755292149969	2.6919355	1.6407119
14.171416756512416	2.6270628	1.6208216
14.189078559244768	2.6096208	1.615432
14.20674070078606	2.6076226	1.6148134
14.224403181575408	2.6114044	1.6159841
14.242066002051999	2.5599673	1.5999898
14.259729162655093	2.502874	1.5820473
14.277392663824022	2.4518201	1.5658289
14.295056505998208	2.4252954	1.557336
14.312720689617128	2.3705423	1.5396565
14.330385215120348	2.419583	1.5555009
14.348050082947497	2.3963914	1.5480282
14.3657152935383	2.3740456	1.5407938
14.383380847332528	2.3561194	1.5349656
14.401046744770051	2.3743598	1.5408958
14.418712986290798	2.3836973	1.5439227
14.436379572334793	2.3892226	1.545711
14.454046503342123	2.3849607	1.5443318
14.471713779752946	2.3816743	1.5432674
14.489381402007504	2.3482766	1.5324087
14.507049370546113	2.33407	1.5277663
14.524717685809168	2.3313534	1.526877
14.542386348237134	2.3884802	1.5454708
14.560055358270553	2.414818	1.5539684
14.577724716350051	2.471475	1.5720925
14.595394422916325	2.4657829	1.5702811
14.61306447841015	2.4763036	1.5736275
14.63073488327237	2.41986	1.5555899
14.648405637943917	2.4215646	1.5561377
14.6660767428658	2.404616	1.5506824
14.683748198479094	2.4597068	1.5683452
14.701420005224954	2.53128	1.5909997
14.719092163544628	2.6327732	1.6225822
14.73676467387942	2.6830714	1.6380084
14.754437536670727	2.6835895	1.6381665
14.772110752360014	2.6613336	1.6313595
14.78978432138882	2.6626503	1.631763
14.807458244198777	2.688925	1.6397942
14.82513252123159	2.6920311	1.640741
14.842807152929028	2.7134438	1.6472534
14.860482139732962	2.6920717	1.6407534
14.87815748208531	2.686879	1.6391702
14.8958331804281	2.654959	1.6294044
14.91350923520342	2.5952263	1.6109706
14.931185646853438	2.6147816	1.6170286
14.948862415820408	2.6223817	1.6193769
14.966539542546656	2.6683254	1.6335009
14.98421702747459	2.6688354	1.6336571
15.001894871046696	2.6588373	1.6305941
15.019573073705542	2.6636183	1.6320596
15.037251635893766	2.6465788	1.6268309
15.054930558054092	2.6531045	1.6288353
15.072609840629323	2.7272189	1.6514293
15.090289484062351	2.854949	1.6896595
15.107969488796124	3.107127	1.7627045
15.125649855273691	3.434933	1.8533572
15.14333058393817	3.9315803	1.9828213
15.161011675232768	4.9571424	2.226464
15.17869312960076	6.3379774	2.517534
15.196374947485506	8.254492	2.873063
15.214057129330447	11.412429	3.3782287
15.231739675579114	16.074757	4.0093336
15.249422586675102	21.189367	4.603191
15.267105863062092	24.4415	4.9438343
15.284789505183847	24.927769	4.9927716
15.302473513484218	22.918598	4.7873373
15.320157888407127	19.294651	4.3925676
15.337842630396578	15.010846	3.8743832
15.355527739896656	11.65187	3.4134836
15.37321321735153	8.992855	2.9988089
15.39089906320545	6.482859	2.546146
15.408585277902748	4.8451986	2.2011812
15.42627186188783	3.7333183	1.9321797
15.443958815605198	3.2195168	1.7943012
15.461646139499424	2.8924932	1.7007332
15.479333834015168	2.7440245	1.6565098
15.497021899597165	2.667203	1.6331574
15.514710336690234	2.5952682	1.6109836
15.53239914573928	2.5468535	1.5958865
15.550088327189297	2.5203507	1.5875612
15.567777881485336	2.5083804	1.5837867
15.58546780907256	2.5067635	1.5832762
15.6031581103962	2.5220892	1.5881087
15.620848785901568	2.5290983	1.5903139
15.638539836034063	2.5055869	1.5829046
15.656231261239173	2.4561014	1.5671954
15.673923061962451	2.3949041	1.5475478
15.691615238649552	2.4003327	1.5493007
15.709307791746202	2.3660827	1.5382077
15.727000721698221	2.339364	1.529498
15.744694028951498	2.3358202	1.528339
15.76238771395202	2.3410048	1.5300343
15.780081777145844	2.3624487	1.5370259
15.797776218979125	2.377003	1.5417532
15.815471039898094	2.3903248	1.5460676
15.833166240349064	2.3905916	1.5461538
15.850861820778437	2.375585	1.5412933
15.868557781632699	2.3644269	1.5376693
15.886254123358412	2.3790464	1.5424157
15.903950846402232	2.4033506	1.5502744
15.921647951210897	2.4132433	1.5534617
15.939345438231225	2.4079914	1.5517704
15.957043307910133	2.4184942	1.5551509
15.974741560694602	2.3915813	1.5464739
15.992440197031714	2.3631349	1.5372491
16.01013921736862	2.343096	1.5307175
16.02783862215259	2.3436062	1.5308841
16.045538411830933	2.3474648	1.5321438
16.06323858685107	2.3170989	1.522202
16.080939147660512	2.3115914	1.5203918
16.09864009470684	2.310083	1.5198957
16.11634142843774	2.360422	1.5363665
16.134043149300954	2.3918016	1.546545
16.15174525774433	2.3924568	1.5467569
16.169447754215817	2.3827744	1.5436238
16.18715063916342	2.370855	1.5397581
16.204853913035244	2.3808277	1.5429931
16.222557576279478	2.3679402	1.5388113
16.240261629344403	22.366674	4.729342
16.257966072678386	42.934002	6.5524044
16.275670906729868	38.046207	6.168161
16.293376131947387	2.4741402	1.57294
16.31108174877957	2.523924	1.5886862
16.328787757675133	2.5653286	1.6016643
16.34649415908287	2.538368	1.5932256
16.364200953451657	2.5437	1.5948981
16.38190814123048	2.5518608	1.5974544
16.39961572286839	2.6192908	1.6184223
16.41732369881455	2.6614752	1.6314029
16.43503206951817	2.7025886	1.6439551
16.45274083542859	2.7571561	1.6604687
16.47044999699522	2.797763	1.6726515
16.488159554667558	2.8693252	1.6939082
16.505869508895184	2.9171484	1.7079661
16.523579860127786	2.9367657	1.7136995
16.541290608815117	2.9534807	1.7185694
16.559001755407035	2.9452064	1.7161604
16.57671330035348	2.9909449	1.7294348
16.59442524410448	3.077014	1.7541419
16.61213758711015	3.1317139	1.7696649
16.629850329820705	3.2058814	1.7904975
16.647563472686436	3.3079913	1.8187884
16.665277016157724	3.4134007	1.8475391
16.682990960685053	3.4531121	1.8582551
16.70070530671898	3.4508543	1.8576475
16.718420054710155	3.4721885	1.8633809
16.736135205109335	3.5690618	1.889196
16.753850758367335	3.6759853	1.9172859
16.771566714935087	3.72274	1.9294403
16.789283075263597	3.7546513	1.9376923
16.80699983980398	3.8184743	1.9540917
16.82471700900741	3.8916361	1.972723
16.84243458332518	3.9161217	1.9789194
16.860152563208665	3.9790354	1.9947519
16.87787094910932	4.039552	2.0098636
16.89558974147871	4.139481	2.0345714
16.913308940768466	4.19533	2.0482504
16.931028547430333	4.2498927	2.0615268
16.94874856191613	4.2725515	2.0670152
16.966468984677785	4.329495	2.0807438
16.98418981616729	4.382828	2.0935206
17.00191105683676	4.4289584	2.104509
17.019632707138374	4.501276	2.1216211
17.03735476752442	4.524685	2.1271307
17.05507723844728	4.552852	2.1337414
17.072800120359403	4.575943	2.1391454
17.090523413713353	4.5744534	2.1387973
17.108247118961785	4.6300163	2.1517472
17.125971236557437	4.6527295	2.1570187
17.143695766953133	4.644232	2.155048
17.161420710601806	4.6265836	2.1509495
17.179146067956477	4.62688	2.1510184
17.19687183947025	4.638804	2.1537883
17.21459802559634	4.647403	2.1557837
17.232324626788028	4.634988	2.1529021
17.25005164349871	4.5838013	2.1409814
17.267779076181863	4.589018	2.1421993
17.285506925291074	4.563082	2.1361372
17.30323519127999	4.5798635	2.1400616
17.320963874602384	4.558321	2.1350224
17.33869297571211	4.544911	2.1318796
17.356422495063114	4.5306916	2.1285422
17.37415243310944	4.4701567	2.1142745
17.391882790305218	4.459631	2.1117837
17.40961356710468	4.4417095	2.1075363
17.42734476396215	4.4928794	2.1196413
17.445076381332044	4.5067286	2.1229057
17.462808419668868	4.582515	2.140681
17.48054087942723	4.6861234	2.1647456
17.498273761061835	4.970225	2.2294002
17.51600706502747	5.398397	2.323445
17.533740791779024	6.0668135	2.4630902
17.551474941771485	7.4503427	2.7295315
17.56920951545993	8.616981	2.9354694
17.586944513299528	10.995727	3.3159804
17.60467993574556	12.783317	3.5753765
17.622415783253373	14.611413	3.8224878
17.64015205627843	16.05782	4.0072207
17.657888755276293	17.231722	4.151111
17.675625880702604	17.826593	4.222155
17.69336343301311	17.64435	4.2005177
17.71110141266366	16.758043	4.093659
17.728839820110178	15.600873	3.949794
17.746578655808705	14.499279	3.807792
17.764317920215372	13.003415	3.6060247
17.7820576137864	11.500751	3.3912756
17.79979773697811	9.473746	3.0779452
17.81753829024692	7.473661	2.7337997
17.835279274049356	5.76766	2.4015954
17.85302068884201	4.6855636	2.1646163
17.870762535081607	4.10027	2.0249124
17.888504813224934	3.8343294	1.9581444
17.90624752372891	3.6883361	1.9205041
17.923990667050536	3.57005	1.8894576
17.941734243646895	3.4692123	1.8625822
17.959478253975185	3.4141333	1.8477373
17.9772226984927	3.3883796	1.8407551
17.994967577656833	3.3646364	1.8342946
18.01271289192506	3.3196151	1.8219811
18.030458641754965	3.275368	1.8097978
18.04820482760425	3.2656448	1.8071095
18.06595144993067	3.2725692	1.8090243
18.083698509192125	3.2770429	1.8102604
18.101446005846576	3.2206337	1.7946124
18.119193940352105	3.2103498	1.791745
18.136942313166887	3.164772	1.7789806
18.1546911247492	3.1406345	1.7721835
18.1724403755574	3.0761962	1.7539089
18.19019006604997	3.07999	1.75499
18.207940196685467	3.1128109	1.764316
18.225690767922575	3.115159	1.7649813
18.243441780220046	3.0881171	1.757304
18.261193234036764	3.0858703	1.7566645
18.278945129831676	3.1090844	1.7632595
18.29669746806386	3.0490065	1.7461405
18.314450249192483	2.990001	1.729162
18.3322034736768	2.9849923	1.727713
18.349957141976184	3.01387	1.7360501
18.3677112545501	3.0103455	1.7350347
18.385465811858108	3.0222445	1.7384604
18.403220814359884	3.0929358	1.7586745
18.420976262515172	3.15474	1.7761588
18.43873215678387	3.1794522	1.7831018
18.456488497625923	3.1469011	1.7739507
18.474245285501407	3.2133522	1.7925825
18.492002520870486	3.2606452	1.8057257
18.50976020419343	3.361765	1.8335116
18.527518335930615	3.6327627	1.9059807
18.545276916542516	4.2153134	2.0531228
18.563035946489688	4.338491	2.0829043
18.580795426232832	4.7583323	2.1813602
18.598555356232698	4.6194377	2.1492877
18.616315736950185	4.9573174	2.2265034
18.63407656884626	4.6892486	2.1654673
18.65183785238201	4.8682165	2.2064035
18.669599588018617	4.6533785	2.157169
18.68736177621737	4.646099	2.155481
18.705124417439652	4.6515536	2.1567461
18.72288751214696	4.442866	2.1078107
18.740651060800886	4.556636	2.1346278
18.758415063863115	4.284514	2.0699067
18.77617952179546	4.4710016	2.1144743
18.793944435059814	4.251828	2.0619962
18.811709804118184	4.2138205	2.0527592
18.829475629432675	4.1189938	2.0295305
18.8472419114655	3.9155288	1.9787695
18.86500865067897	4.0592127	2.0147488
18.88277584753551	3.7846816	1.9454257
18.90054350249763	3.7772672	1.9435192
18.918311616027957	3.403515	1.8448619
18.936080188589226	3.2917411	1.8143156
18.953849220644265	2.9993987	1.7318772
18.971618712656007	2.8406262	1.6854157
18.9893886650875	2.7765634	1.6663023
19.007159078401887	7.9777594	2.8244927
19.024929953062408	32.88325	5.734392
19.042701289532435	32.844246	5.73099
19.060473088275405	25.37364	5.0372252
19.07824534975489	2.6193843	1.6184512
19.096018074434568	2.5610955	1.6003423
19.113791262778197	2.505492	1.5828745
19.13156491524966	2.4879196	1.577314
19.149339032312945	2.507734	1.5835826
19.167113614432136	2.5599663	1.5999895
19.184888662071433	2.567711	1.6024079
19.202664175695123	2.5336475	1.5917436
19.220440155767623	2.5046184	1.5825986
19.238216602753447	2.506983	1.5833455
19.2559935171172	2.517264	1.5865887
19.27377089932361	2.5204148	1.5875814
19.291548749837514	2.4970427	1.5802034
19.309327069123835	2.4745648	1.5730749
19.32710585764763	2.489432	1.5777935
19.344885115874032	2.4832454	1.5758317
19.362664844268313	2.491898	1.5785747
19.380445043295822	2.4823782	1.5755565
19.39822571342203	2.4799607	1.574789
19.41600685511252	2.4562757	1.567251
19.43378846883297	2.4584265	1.567937
19.451570555049173	2.4472368	1.5643647
19.469353114227037	2.4403682	1.5621678
19.48713614683254	2.4402251	1.562122
19.50491965333182	2.4532626	1.5662894
19.52270363419109	2.4491398	1.5649728
19.540488089876686	2.4477468	1.5645276
19.55827302085503	2.4217181	1.556187
19.576058427592674	2.4237595	1.5568428
19.593844310556282	2.4257848	1.5574931
19.611630670212598	2.4736698	1.5727904
19.629417507028506	2.516728	1.5864198
19.64720482147098	2.5108225	1.5845575
19.6649926140071	2.4609754	1.5687497
19.682780885104084	2.443225	1.5630819
19.70056963522921	2.4733765	1.5726972
19.718358864849908	2.4809053	1.575089
19.7361485744337	2.4901125	1.578009
19.753938764448215	2.4694633	1.5714526
19.771729435361202	2.4641056	1.569747
19.789520587640506	2.4670916	1.5706978
19.807312221754092	2.5089395	1.5839633
19.825104338170043	2.5220218	1.5880874
19.842896937356517	2.5400374	1.5937495
19.860690019781824	2.5332222	1.59161
19.87848358591436	2.5273924	1.5897775
19.896277636222635	2.5140102	1.5855631
19.914072171175278	2.483167	1.5758067
19.931867191241015	2.4683108	1.5710859
19.94966269688869	2.4652574	1.5701138
19.967458688587264	2.5048063	1.5826579
19.985255166805807	2.5159094	1.5861619
20.00305213201348	2.4909286	1.5782676
20.020849584679578	2.4741547	1.5729446
20.038647525273507	2.5004137	1.5812696
20.05644595426477	2.4828353	1.5757015
20.07424487212299	2.4597554	1.5683607
20.092044279317903	2.4123824	1.5531846
20.109844176319353	2.3918943	1.5465751
20.127644563597304	2.403627	1.5503634
20.145445441621817	2.4416728	1.5625854
20.16324681086307	2.4434927	1.5631675
20.181048671791373	2.4361353	1.5608124
20.198851024877122	2.413125	1.5534236
20.216653870590836	2.383885	1.5439835
20.234457209403146	2.3834734	1.5438502
20.252261041784802	2.362575	1.537067
20.270065368206662	2.367351	1.5386199
20.287870189139685	2.3991866	1.5489308
20.305675505054968	2.410537	1.5525904
20.323481316423702	2.3845797	1.5442084
20.341287623717207	2.3607438	1.5364712
20.359094427406884	2.3560534	1.534944
20.376901727964288	2.3369057	1.5286942
20.39470952586107	2.3052306	1.5182986
20.41251782156899	2.304983	1.518217
20.430326615559935	2.3371065	1.5287598
20.448135908305886	2.3558455	1.5348763
20.465945700278965	2.3431563	1.5307372
20.483755991951384	2.335207	1.5281384
20.50156678379548	2.310427	1.5200089
20.519378076283708	2.3330765	1.5274411
20.537189869888635	2.358482	1.535735
20.55500216508294	2.3806107	1.5429227
20.572814962339415	2.360974	1.5365461
20.59062826213098	2.3662288	1.5382551
20.60844206493066	2.3545525	1.5344551
20.626256371211593	2.3007374	1.5168182
20.644071181447032	2.2690763	1.5063454
20.66188649611036	2.281654	1.5105145
20.67970231567506	2.3095007	1.5197041
20.697518640614742	2.2998996	1.516542
20.715335471403122	2.2994132	1.5163816
20.73315280851404	2.2992194	1.5163177
20.750970652421447	2.291432	1.5137477
20.768789003599412	2.2435472	1.4978476
20.786607862522136	2.2412386	1.4970766
20.8044272296639	2.2440743	1.4980235
20.82224710549913	2.225761	1.4918984
20.84006749050237	2.2151873	1.4883505
20.857888385148268	3.7792284	1.9440237
20.8757097899116	45.927883	6.7770114
20.893531705267254	64.807434	8.050306
20.911354131690224	83.8144	9.155021
20.92917706965566	69.01596	8.307585
20.94700051963877	50.05711	7.0751047
20.96482448211493	29.358957	5.4183908
20.982648957559622	4.135589	2.0336149
21.00047394644843	2.266544	1.5055046
21.01829944925707	2.2469206	1.4989731
21.036125466461375	2.243775	1.4979235
21.053951998537297	2.2481596	1.4993864
21.071779045960906	2.2527287	1.5009093
21.089606609208378	2.2696471	1.5065348
21.10743468875603	2.240584	1.496858
21.12526328508028	2.242283	1.4974254
21.143092398657675	2.223124	1.4910145
21.16092202996488	2.2203014	1.4900676
21.17875217947867	2.1858978	1.4784782
21.19658284767596	2.2165136	1.488796
21.21441403503377	2.2441378	1.4980446
21.232245742029225	2.2306569	1.4935384
21.2500779691396	2.1944065	1.4813529
21.26791071684227	2.1784449	1.4759556
21.28574398561475	2.1783128	1.4759108
21.30357777593465	2.1888843	1.4794879
21.321412088279704	2.160879	1.4699929
21.339246923127792	2.1708157	1.4733689
21.357082280956888	2.1767735	1.4753892
21.3749181622451	2.1940224	1.4812232
21.392754567470647	2.1517808	1.466895
21.41059149711187	2.1258333	1.4580238
21.42842895164726	2.0935087	1.4468962
21.446266931555378	2.13595	1.461489
21.464105437314945	2.1257806	1.4580057
21.481944469404798	2.124435	1.4575442
21.49978402830388	2.0825024	1.4430878
21.51762411449127	2.0914679	1.4461908
21.53546472844617	2.0696192	1.4386171
21.553305870647876	2.067542	1.437895
21.571147541575865	2.0570843	1.4342539
21.58898974170967	2.049714	1.4316822
21.60683247152899	2.0588143	1.4348569
21.62467573151363	2.0787454	1.4417855
21.642519522143523	2.046827	1.4306736
21.660363843898722	2.0261743	1.4234375
21.6782086972594	2.0135002	1.4189786
21.696054082705864	2.0470989	1.4307686
21.713900000718535	2.0255537	1.4232194
21.73174645177795	2.0059767	1.4163251
21.749593436364794	1.9894435	1.4104763
21.767440954959845	2.0322819	1.4255812
21.785289008044032	2.0389225	1.4279084
21.803137596098388	2.0285485	1.4242712
21.820986719604086	1.9935043	1.4119151
21.838836379042412	2.0169103	1.4201797
21.85668657489478	2.0424898	1.429157
21.87453730764273	2.0274808	1.4238963
21.892388577767914	1.9789737	1.40676
21.91024038575213	1.985831	1.4091952
21.928092732077285	2.0109823	1.418091
21.945945617225426	2.0148911	1.4194686
21.963799041678694	1.9985114	1.4136872
21.981653005919398	31.278067	5.5926795
21.999507510429943	78.085945	8.836625
22.01736255569286	73.03674	8.546154
22.035218142190818	4.134194	2.0332718
22.05307427040661	1.9489499	1.396048
22.07093094082315	1.9228499	1.3866687
22.088788153923474	1.9196606	1.3855182
22.106645910190746	1.9393684	1.3926121
22.12450421010827	1.953121	1.397541
22.142363054159464	1.9582546	1.3993765
22.16022244282787	1.9594742	1.3998122
22.178082376597164	1.9593453	1.3997662
22.195942855951145	1.9444848	1.3944478
22.213803881373742	1.9492635	1.3961602
22.231665453349002	1.9351554	1.3910986
22.24952757236111	1.9412336	1.3932816
22.26739023889438	1.9809043	1.407446
22.28525345343323	2.0048568	1.4159297
22.30311721646225	1.9978962	1.4134696
22.320981528466113	1.9558456	1.3985155
22.33884638992964	1.9410948	1.3932317
22.356711801337788	1.9614319	1.4005113
22.37457776317561	1.934112	1.3907236
22.392444275928337	1.929025	1.3888935
22.410311340081282	1.9085478	1.381502
22.428178956119904	1.9219749	1.3863531
22.446047124529805	1.8934038	1.3760101
22.46391584579669	1.8903394	1.3748962
22.481785120406414	1.9118185	1.3826853
22.49965494884496	1.9403731	1.3929727
22.51752533159841	1.9273359	1.3882853
22.53539626915302	1.9142638	1.3835692
22.553267761995137	1.950887	1.3967415
22.571139810611264	1.9578097	1.3992175
22.589012415488025	1.967366	1.4026282
22.60688557711216	1.9489536	1.3960493
22.624759295970566	1.9471469	1.3954021
22.642633572550263	1.9218373	1.3863034
22.660508407338362	1.9068816	1.3808988
22.67838380082217	1.8877208	1.3739436
22.696259753489077	1.8817655	1.3717746
22.714136265826614	1.8962092	1.3770292
22.73201333832246	1.899422	1.3781952
22.74989097146439	1.8693426	1.367239
22.76776916574035	1.8769416	1.3700151
22.785647921638393	1.933006	1.3903259
22.803527239646712	1.9243238	1.3872
22.82140712025363	1.9425462	1.3937526
22.839287563947593	1.9434069	1.3940613
22.85716857121719	1.923686	1.38697
22.875050142551135	1.8785845	1.3706146
22.892932278438277	1.85162	1.3607424
22.910814979367604	1.8730556	1.3685962
22.928698245828222	1.8879948	1.3740432
22.946582078309387	1.8950973	1.3766253
22.96446647730047	1.8638549	1.3652307
22.98235144329098	1.8237079	1.3504473
23.000236976770562	1.8682692	1.3668464
23.018123078229	1.9053353	1.3803388
23.03600974815619	1.9251038	1.3874811
23.053896987042194	1.9174958	1.3847368
23.071784795377173	1.9287981	1.3888117
23.08967317365145	1.9069484	1.380923
23.10756212235546	1.9304125	1.3893929
23.125451641979787	1.9119029	1.3827158
23.143341733015134	1.9264767	1.3879758
23.161232395952357	1.9317243	1.3898648
23.179123631282426	1.9243432	1.387207
23.197015439496468	1.8978312	1.377618
23.214907821085717	1.913402	1.3832577
23.23280077654157	1.938064	1.3921436
23.250694306355538	1.9751852	1.4054128
23.268588411019277	1.9532797	1.3975978
23.28648309102458	1.949187	1.396133
23.304378346863356	1.9253186	1.3875585
23.322274179027676	1.9296954	1.3891348
23.340170588009723	1.9243516	1.38721
23.358067574301852	1.9222164	1.3864402
23.37596513839651	1.8670249	1.3663912
23.39386328078629	1.8453816	1.3584483
23.411762001963947	1.9012451	1.3788564
23.429661302422353	1.9069455	1.380922
23.4475611826545	1.9163817	1.3843344
23.46546164315356	1.889384	1.3745487
23.48336268441279	1.859616	1.3636774
23.501264306925638	1.8373073	1.3554732
23.51916651118564	1.8636308	1.3651487
23.537069297686497	1.8892801	1.3745109
23.554972666922037	1.9016602	1.379007
23.57287661938623	1.9000001	1.3784049
23.59078115557318	1.88269	1.3721114
23.608686275977128	1.8862761	1.3734177
23.62659198109246	1.84176	1.3571146
23.6444982714137	1.8198284	1.3490101
23.66240514743549	1.8648376	1.3655906
23.68031260965263	1.9290825	1.3889141
23.698220658560068	1.8999065	1.378371
23.716129294652845	1.909745	1.3819352
23.7340385184262	1.8963287	1.3770725
23.75194833037546	1.8850414	1.3729681
23.769858730996123	1.8685408	1.3669457
23.78776972078382	1.8807086	1.3713893
23.80568130023431	1.9028808	1.3794495
23.823593469843495	1.9141451	1.3835263
23.841506230107424	1.8751092	1.3693463
23.859419581522275	1.9066037	1.3807982
23.87733352458438	1.9064994	1.3807604
23.89524805979019	1.9176549	1.3847941
23.913163187636318	1.8685688	1.366956
23.931078908619508	1.8616995	1.364441
23.948995223236633	1.8608156	1.3641171
23.966912131984735	1.9106486	1.3822621
23.98482963536096	1.9411511	1.393252
24.002747733862616	1.9694868	1.4033841
24.020666427987155	2.0062003	1.416404
24.038585718232156	2.0040681	1.4156511
24.056505605095353	1.996697	1.4130453
24.074426089074617	2.0353718	1.4266646
24.092347170667946	2.0459683	1.4303734
24.110268850373515	2.0394416	1.4280902
24.128191128689586	2.0611215	1.4356606
24.146114006114626	2.0364137	1.4270296
24.164037483147187	2.0223439	1.4220914
24.181961560286005	2.002201	1.4149915
24.199886238029926	2.006264	1.4164264
24.21781151687797	2.038211	1.4276593
24.235737397329274	2.0483935	1.431221
24.253663879883135	2.0487888	1.431359
24.271590965038975	2.006372	1.4164646
24.289518653296376	2.003628	1.4154956
24.30744694515505	2.0361295	1.4269301
24.32537584111486	2.0543606	1.4333041
24.34330534167581	2.045231	1.4301158
24.361235447338046	2.0376756	1.4274718
24.379166158601876	1.9899904	1.4106702
24.39709747596772	1.9710853	1.4039534
24.41502939993615	1.9988517	1.4138075
24.432961931007917	2.006259	1.4164248
24.450895069683856	1.9683632	1.4029837
24.468828816465	1.9477963	1.3956348
24.4867631718525	1.9522555	1.3972313
24.504698136347656	1.9599714	1.3999898
24.52263371045192	1.9749277	1.4053212
24.540569894666874	1.9827726	1.4081095
24.558506689494266	1.9921017	1.4114183
24.57644409543597	1.9641169	1.4014696
24.594382112994012	1.9369649	1.3917489
24.61232074267057	1.921356	1.3861299
24.630259984967953	1.9081618	1.3813623
24.64819984038863	1.9034646	1.3796611
24.66614030943522	1.9165212	1.3843848
24.684081392610462	1.9354165	1.3911924
24.702023090417274	1.9763547	1.4058288
24.7199654033587	1.9932953	1.4118412
24.737908331937927	1.98789	1.4099256
24.755851876658305	1.9560362	1.3985837
24.773796038023324	2.021001	1.4216192
24.79174081653661	2.0525324	1.4326662
24.809686212701962	2.035464	1.4266969
24.827632227023294	2.0049083	1.4159478
24.8455788600047	2.0199063	1.421234
24.8635261121504	2.0775125	1.4413579
24.88147398396475	2.0934546	1.4468775
24.899422475952303	2.0823438	1.4430329
24.917371588617698	2.081776	1.442836
24.935321322465768	2.110873	1.4528843
24.953271678001478	2.229034	1.4929949
24.97122265572994	2.4396415	1.5619352
24.989174256156414	2.8049614	1.674802
25.00712647978632	3.35558	1.8318243
25.02507932712521	3.8836017	1.9706856
25.043032798678798	4.3334236	2.0816877
25.060986894952933	4.998375	2.2357047
25.078941616453637	5.8621182	2.4211812
25.096896963687055	6.8901963	2.6249185
25.114852937159508	8.018633	2.8317192
25.132809537377444	8.426999	2.9029293
25.150766764847468	8.390154	2.8965762
25.168724620076347	7.7786417	2.7890217
25.186683103570985	6.7473187	2.5975602
25.204642215838426	5.5246677	2.3504612
25.222601957385894	4.144255	2.0357444
25.24056232872074	3.1899285	1.7860371
25.25852333035048	2.6087856	1.6151736
25.276484962782778	2.2076535	1.4858174
25.294447226525435	2.0556846	1.4337659
25.312410122086423	2.0120082	1.4184527
25.330373649973843	1.9554994	1.3983917
25.348337810695988	1.9178697	1.3848717
25.366302604761245	1.9176853	1.3848051
25.384268032678207	1.9254547	1.3876076
25.40223409495558	1.928517	1.3887105
25.420200792102257	1.9110562	1.3824096
25.438168124627246	1.8757235	1.3695705
25.45613609303974	1.8314449	1.3533088
25.474104697849057	1.8451937	1.3583791
25.492073939564698	1.8196199	1.3489329
25.510043818696285	1.781735	1.3348165
25.528014335753614	1.7891622	1.3375957
25.54598549124664	1.8413473	1.3569626
25.56395728568544	1.8867296	1.3735827
25.58192971958028	1.8851719	1.3730156
25.59990279344156	1.8709805	1.3678379
25.617876507779833	1.8317912	1.3534368
25.635850863105826	1.8221749	1.3498796
25.653825859930386	1.8085446	1.3448215
25.671801498764548	1.8470591	1.3590655
25.68977778011949	1.8707699	1.3677609
25.707754704506524	1.8600775	1.3638465
25.725732272437153	1.8347626	1.354534
25.743710484423012	1.8332462	1.3539742
25.761689340975888	1.8852617	1.3730483
25.77966884260774	1.8689506	1.3670957
25.797648989830662	1.8589705	1.3634408
25.815629783156922	1.8212651	1.3495425
25.83361122309895	1.8523954	1.3610274
25.85159331016929	1.853507	1.3614357
25.869576044880695	1.8314488	1.3533103
25.887559427746034	1.8130897	1.3465102
25.90554345927836	1.8265043	1.3514823
25.92352813999086	1.9231908	1.3867916
25.94151347039689	1.9215285	1.3861921
25.959499451009965	1.8702484	1.3675703
25.97748608234374	1.7785561	1.3336252
25.995473364912062	1.7791624	1.3338524
26.013461299228904	1.7971483	1.3405776
26.03144988580839	1.8103633	1.3454974
26.04943912516483	1.8438509	1.3578846
26.067429017812675	1.8463612	1.3588088
26.085419564266537	1.7949697	1.3397648
26.103410765041186	1.7862055	1.33649
26.12140262065155	1.8061894	1.3439455
26.139395131612723	1.8812761	1.3715962
26.157388298439948	1.8562608	1.3624467
26.17538212164861	1.8138092	1.3467773
26.193376601754295	1.8028237	1.3426927
26.211371739272714	1.8078289	1.3445553
26.229367534719746	1.8086545	1.3448622
26.247363988611433	1.827728	1.3519349
26.26536110146397	1.8571593	1.3627763
26.283358873793727	1.8308234	1.3530792
26.301357306117204	1.8222117	1.3498932
26.319356398951104	1.8307027	1.3530346
26.33735615281224	1.8254207	1.3510814
26.35535656821762	1.815236	1.347307
26.373357645684404	1.8093679	1.3451275
26.39135938572991	1.8356586	1.3548647
26.409361788871614	1.834773	1.354538
26.427364855627165	1.8679615	1.3667339
26.445368586514352	1.8690745	1.367141
26.46337298205115	1.8326546	1.3537557
26.48137804275568	1.7964225	1.3403069
26.499383769146217	1.8095257	1.3451861
26.517390161741215	1.800816	1.3419449
26.53539722105928	1.7805406	1.334369
26.553404947619182	1.7594213	1.3264318
26.571413341939856	1.768435	1.3298252
26.589422404540397	1.813627	1.3467097
26.60743213594006	1.8022956	1.342496
26.62544253665827	1.7594255	1.3264334
26.64345360721459	1.7196305	1.3113468
26.66146534812879	1.7222092	1.3123296
26.679477759920758	1.7538258	1.3243209
26.69749084311057	1.799339	1.3413944
26.71550459821847	1.814186	1.3469173
26.733519025764842	1.7644479	1.3283253
26.751534126270258	1.7489531	1.32248
26.769549900255434	1.7418882	1.3198061
26.787566348241267	1.787358	1.3369211
26.80558347074881	1.7933723	1.3391685
26.823601268299267	1.7923167	1.3387743
26.841619741414036	1.758054	1.3259163
26.85963889061465	1.7706493	1.3306575
26.877658716422832	1.8103756	1.345502
26.89567921936045	1.8351668	1.3546833
26.913700399949544	1.8400687	1.3564913
26.93172225871233	1.8347256	1.3545204
26.949744796171174	1.8383907	1.3558726
26.967768012848605	1.8579043	1.3630496
26.98579190926733	1.8625299	1.3647454
27.003816485950225	1.8733044	1.3686872
27.021841743420318	1.8156188	1.347449
27.039867682200814	1.7873086	1.3369026
27.057894302815072	1.7893924	1.3376817
27.07592160578664	1.8083503	1.3447492
27.0939495916392	1.8015553	1.3422203
27.111978260896635	1.7821136	1.3349583
27.13000761408296	1.7396429	1.3189552
27.148037651722397	1.7481955	1.3221935
27.166068374339304	1.7793344	1.3339169
27.184099782458215	1.80189	1.342345
27.20213187660384	1.7937292	1.3393017
27.22016465730105	1.7869412	1.3367652
27.23819812507487	1.8115451	1.3459365
27.256232280450533	1.8035764	1.342973
27.274267123953383	1.7633561	1.3279142
27.292302656108987	1.7439792	1.320598
27.31033887744306	1.8216584	1.3496883
27.32837578848146	1.8951485	1.3766439
27.34641338975026	1.8637091	1.3651773
27.364451681775673	1.8478895	1.3593711
27.382490665084074	1.7932745	1.339132
27.400530340202046	1.7562901	1.325251
27.41857070765629	1.754976	1.3247551
27.436611767973726	1.8133202	1.3465958
27.454653521681404	1.8451082	1.3583475
27.472695969306564	1.8506833	1.3603982
27.490739111376627	1.8911461	1.3751894
27.508782948419153	1.8810226	1.3715037
27.526827480961902	1.8199438	1.3490529
27.54487270953279	1.7825613	1.3351259
27.562918634659898	1.8102136	1.3454418
27.580965256871508	1.819245	1.3487939
27.599012576696026	1.784807	1.3359667
27.617060594662068	1.7947294	1.3396751
27.63510931129842	1.7650644	1.3285573
27.65315872713401	1.7347265	1.3170902
27.67120884269797	1.7059305	1.3061128
27.68925965851958	1.727635	1.3143953
27.707311175128307	1.7272179	1.3142366
27.725363393053787	1.7250777	1.3134222
27.74341631282583	1.7681279	1.3297098
27.7614699349744	1.8274856	1.3518453
27.77952426002968	2.0129206	1.4187744
27.797579288521973	2.1349392	1.4611431
27.815635020981784	2.489877	1.5779344
27.83369145793979	2.5066912	1.5832534
27.85174859992682	2.3647332	1.537769
27.869806447473923	2.271313	1.5070876
27.887865001112267	1.9852685	1.4089955
27.905924261373233	1.875207	1.3693819
27.92398422878836	1.8676375	1.3666153
27.94204490388936	1.9002166	1.3784834
27.96010628720813	1.8522455	1.3609723
27.978168379276728	1.8800074	1.3711336
27.9962311806274	1.9072874	1.3810457
28.014294691792568	1.8930424	1.3758788
28.0323589133048	1.810419	1.3455181
28.050423845696887	1.8256356	1.3511608
28.068489489501758	1.9077387	1.3812091
28.086555845252523	1.9851094	1.4089391
28.104622913482487	1.9898502	1.4106205
28.122690694725115	1.9325492	1.3901616
28.14075918951405	1.8353668	1.3547571
28.15882839838312	1.8220401	1.3498297
28.176898321866304	1.8667172	1.3662786
28.1949689604978	1.8886378	1.3742772
28.213040314811945	1.9055307	1.3804096
28.23111238534327	1.9311492	1.389658
28.249185172626493	1.9313918	1.3897452
28.267258677196473	1.9355531	1.3912416
28.285332899588294	1.9404756	1.3930095
28.303407840337172	1.9423068	1.3936666
28.321483499978545	1.8396245	1.3563275
28.33955987904799	1.7955701	1.3399888
28.357636978081285	1.8237323	1.3504564
28.37571479761439	1.9011996	1.37884
28.393793338183425	1.9340966	1.390718
28.41187260032469	1.9055593	1.38042
28.429952584574686	1.8583664	1.3632191
28.448033291470065	1.9103507	1.3821543
28.46611472154769	1.9477785	1.3956283
28.484196875344566	1.9790763	1.4067965
28.502279753397914	1.9954257	1.4125954
28.52036335624511	1.9975058	1.4133314
28.538447684423716	1.9701425	1.4036176
28.556532738471482	1.964428	1.4015806
28.574618518926325	1.9530673	1.3975219
28.59270502632635	1.9303014	1.3893529
28.61079226120985	1.934288	1.3907869
28.628880224115274	1.9834441	1.408348
28.646968915581287	2.0849178	1.4439244
28.66505833614671	2.0874658	1.4448065
28.68314848635055	2.0066042	1.4165466
28.701239366732004	1.9747623	1.4052624
28.71933097783044	2.077535	1.4413656
28.737423320185403	2.1272182	1.4584986
28.75551639433665	2.108317	1.4520044
28.773610200824074	2.1178408	1.4552803
28.791704740187793	2.177698	1.4757025
28.80980001296809	2.1906705	1.4800913
28.827896019705413	2.187828	1.4791309
28.845992760940433	2.1808167	1.4767588
28.86409023721397	2.2497404	1.4999135
28.88218844906704	2.2336931	1.4945545
28.900287397040845	2.1941354	1.4812614
28.918387081676755	2.197021	1.4822352
28.936487503516343	2.1838088	1.4777715
28.954588663101365	2.2342203	1.4947308
28.97269056097374	2.298998	1.5162448
28.990793197675597	2.3184555	1.5226475
29.00889657374923	2.3020804	1.5172608
29.027000689737125	2.3417873	1.53029
29.04510554618196	2.3626626	1.5370955
29.06321114362659	2.3636396	1.5374132
29.08131748261405	2.3508446	1.5332464
29.099424563687567	2.440716	1.5622791
29.11753238739057	2.5196104	1.5873281
29.13564095426663	2.535467	1.592315
29.15375026485954	2.6076775	1.6148305
29.171860319713275	2.603114	1.6134168
29.18997111937199	2.5950563	1.6109178
29.20808266438002	2.6962757	1.642034
29.226194955281898	2.8399098	1.6852032
29.244307992622335	2.9421134	1.715259
29.26242177694624	2.9088109	1.7055236
29.2805363087987	2.8841808	1.6982876
29.29865158872498	2.8674204	1.6933459
29.316767617270557	2.8896325	1.6998919
29.334884394981064	2.9330409	1.7126123
29.353001922402367	3.0577586	1.7486448
29.37112020008047	3.0837939	1.7560735
29.389239228561596	3.1457305	1.7736207
29.407359008392152	3.3079093	1.8187659
29.42547954011872	3.6454656	1.9093102
29.44360082428809	4.3163943	2.0775933
29.46172286144722	5.3832164	2.320176
29.479845652143283	7.0249248	2.6504574
29.497969196923606	9.210151	3.034823
29.516093496335728	11.945316	3.4561996
29.5342185509274	14.802629	3.8474185
29.55234436124651	17.251678	4.153514
29.570470927841175	18.724955	4.3272343
29.588598251259686	18.44682	4.294976
29.60672633205055	17.021118	4.1256657
29.624855170762405	14.748947	3.8404357
29.642984767944146	11.829351	3.4393823
29.66111512414481	8.917543	2.9862256
29.67924623991366	6.5974007	2.5685406
29.697378115800138	5.004233	2.2370143
29.71551075235387	4.021347	2.0053296
29.733644150124675	3.5756276	1.890933
29.751778309662576	3.4310472	1.8523086
29.769913231517766	3.4703236	1.8628805
29.78804891624066	3.4064553	1.8456585
29.806185364381818	3.348575	1.8299112
29.82432257649206	3.3445277	1.828805
29.842460553122333	3.356305	1.8320221
29.86059929482382	3.3253465	1.8235532
29.878738802147872	3.2648249	1.8068826
29.896879075646048	3.2261832	1.7961578
29.915020115870114	3.2119417	1.7921891
29.933161923371976	3.219759	1.7943687
29.951304498703777	3.2307527	1.7974294
29.969447842417857	3.2534	1.8037184
29.987591955066733	3.186637	1.7851154
30.005736837203123	3.127514	1.7684778
30.023882489379943	3.1294014	1.7690114
30.04202891215028	3.1129801	1.7643639
30.060176106067455	3.144841	1.7733699
30.078324071684946	3.1355739	1.7707552
30.09647280955646	3.1750507	1.7818671
30.114622320235863	3.1633825	1.7785901
30.132772604277257	3.1345737	1.7704728
30.1509236622349	3.1049113	1.7620759
30.16907549466328	3.0399075	1.743533
30.18722810211705	3.0964465	1.7596723
30.205381485151097	3.1358838	1.7708427
30.22353564432045	3.086592	1.7568699
30.241690580180403	2.9847693	1.7276485
30.25984629328638	3.032015	1.7412683
30.278002784194037	3.0483518	1.745953
30.296160053459246	3.079751	1.7549219
30.314318101638033	3.0765858	1.7540199
30.332476929286646	3.0713358	1.7525227
30.35063653696153	3.0119321	1.7354919
30.368796925219307	2.9444206	1.7159314
30.386958094616844	2.8942077	1.7012371
30.40512004571115	2.8173273	1.6784896
30.423282779059463	2.817368	1.6785017
30.441446295219233	2.8791127	1.6967949
30.459610594748067	2.845818	1.6869552
30.47777567820382	2.775321	1.6659294
30.495941546144504	2.8091617	1.6760554
30.51410819912835	2.8364367	1.6841724
30.532275637713795	2.824983	1.6807685
30.55044386245946	2.8131514	1.6772451
30.56861287392416	2.8145018	1.6776477
30.586782672666956	2.7946682	1.6717261
30.604953259247047	2.7519991	1.658915
30.623124634223885	2.7569761	1.6604145
30.641296798157075	2.7620971	1.6619558
30.659469751606462	2.7168696	1.6482929
30.677643495132074	2.70262	1.6439648
30.695818029294152	2.6435192	1.6258903
30.713993354653116	2.6008003	1.6126996
30.73216947176962	2.6630144	1.6318746
30.75034638120448	2.7938356	1.6714771
30.768524083518756	2.7940907	1.6715534
30.786702579273673	2.7222567	1.6499263
30.80488186903069	2.7269068	1.6513349
30.82306195335144	2.8954985	1.7016164
30.841242832797782	3.090666	1.758029
30.85942450793176	3.3530838	1.8311428
30.877606979315637	3.7209	1.9289634
30.895790247511883	4.1510706	2.0374177
30.913974313083134	4.6549335	2.1575296
30.932159176592283	4.9479427	2.2243972
30.95034483860237	4.9475594	2.2243109
30.968531299676698	4.7606897	2.1819005
30.98671856037873	4.422231	2.1029103
31.00490662127215	3.9564788	1.98909
31.023095482920848	3.4838934	1.8665191
31.04128514588892	3.1203005	1.7664373
31.059475610740662	2.784153	1.6685781
31.07766687804056	2.5612636	1.6003948
31.09585894835335	2.518761	1.5870605
31.11405182224393	2.4587944	1.5680543
31.132245500277417	2.4613674	1.5688746
31.15043998301914	2.4068453	1.5514011
31.168635271034628	2.3678095	1.5387689
31.18683136488964	2.350487	1.5331298
31.20502826515008	2.3858705	1.5446264
31.223225972382135	2.3867085	1.5448976
31.241424487152155	2.3737085	1.5406845
31.259623810026692	2.4147255	1.5539387
31.27782394157253	2.5113893	1.5847363
31.296024882356644	2.5323956	1.5913502
31.314226632946237	2.4815722	1.5753007
31.332429193908684	2.4650192	1.570038
31.350632565811598	2.4945793	1.5794238
31.368836749222787	2.498903	1.580792
31.387041744710295	2.4544523	1.5666692
31.40524755284232	2.4673626	1.5707841
31.423454174187317	2.421299	1.5560523
31.441661609313922	2.3772156	1.5418222
31.459869858791002	2.3264024	1.5252548
31.478078923187628	2.3208418	1.523431
31.496288803073064	2.370913	1.5397769
31.514499499016807	2.4019125	1.5498104
31.532711011588546	2.3416743	1.530253
31.550923341358178	2.2800944	1.5099981
31.56913648889584	2.3251638	1.5248488
31.587350454771844	2.329694	1.5263336
31.605565239556732	2.2726266	1.5075233
31.62378084382127	2.2910514	1.5136219
31.641997268136382	2.2792857	1.5097303
31.660214513073274	2.2473476	1.4991156
31.67843257920331	2.2281647	1.4927038
31.6966514670981	2.2139387	1.487931
31.71487117732944	2.2135265	1.4877925
31.733091710469346	2.2673113	1.5057594
31.751313067090052	2.2509062	1.5003021
31.769535247764008	2.2065022	1.48543
31.787758253063878	2.198999	1.4829022
31.805982083562526	2.2756693	1.5085322
31.824206739833024	2.265461	1.5051448
31.84243222244869	2.2291765	1.4930427
31.860658531983013	2.280069	1.5099897
31.878885669009737	2.231258	1.4937396
31.897113634102784	2.1532645	1.4674006
31.91534242783632	2.1375942	1.4620514
31.933572050784694	2.1649022	1.4713607
31.951802503522508	2.1367443	1.4617606
31.970033786624548	2.164057	1.4710734
31.988265900665834	2.1693282	1.4728639
32.006498846221575	2.2073226	1.4857061
32.02473262386724	2.1431942	1.4639652
32.04296723417845	2.1779714	1.4757951
32.0612026777311	2.1676373	1.4722898
32.07943895510129	2.148922	1.4659202
32.097676066865304	2.1710312	1.473442
32.115914013599685	2.1840963	1.4778688
32.13415279588115	2.120647	1.4562441
32.152392414286666	2.0945654	1.4472613
32.1706328693934	2.154586	1.4678508
32.18887416177875	2.2020264	1.4839226
32.20711629202032	2.209989	1.4866031
32.225359260695924	2.122265	1.4567996
32.243603068383614	2.0187936	1.4208425
32.26184771566166	2.0556118	1.4337405
32.28009320310852	2.1488106	1.4658822
32.2983395313029	2.1658537	1.471684
32.31658670082372	2.1315284	1.4599755
32.33483471225012	2.082379	1.4430451
32.35308356616143	2.0927515	1.4466345
32.371333263137245	2.155966	1.4683208
32.38958380375734	2.0720258	1.4394532
32.407835188601744	2.0425172	1.4291666
32.42608741825067	2.0581388	1.4346215
32.444340493284585	2.0330355	1.4258455
32.46259441428416	1.9988005	1.4137894
32.48084918183028	2.0390425	1.4279505
32.49910479650405	2.056342	1.4339951
32.51736125888683	2.016528	1.420045
32.53561856956014	2.0039039	1.4155931
32.5538767291058	1.9911017	1.411064
32.572135738105764	1.9882927	1.4100683
32.59039559714228	2.027449	1.4238851
32.608656306797776	2.0602067	1.435342
32.62691786765491	2.073528	1.439975
32.645180280296586	2.0332875	1.425934
32.663443545305896	2.0561073	1.4339132
32.68170766326619	2.0909126	1.4459988
32.69997263476099	2.056945	1.4342054
32.7182384603741	2.0093718	1.4175231
32.7365051406895	1.9859571	1.4092399
32.75477267629144	2.0641806	1.4367256
32.77304106776434	2.10205	1.4498448
32.79131031569289	2.0624354	1.4361181
32.809580420661966	2.099889	1.4490994
32.827851383256714	2.1222494	1.4567943
32.84612320406245	1.9961917	1.4128665
32.86439588366476	1.9248587	1.3873928
32.88266942264945	2.0117624	1.4183661
32.9009438216025	2.0872116	1.4447185
32.9192190811102	2.1054611	1.4510207
32.937495201758985	2.046827	1.4306736
32.95577218413556	1.9628793	1.4010279
32.974050028826866	1.9924911	1.4115562
32.992328736420035	1.947003	1.3953505
33.010608307502444	1.9072896	1.3810465
33.02888874266169	1.867973	1.3667381
33.047170042485604	1.8394481	1.3562626
33.06545220756225	1.9183857	1.385058
33.083735238479896	2.0320203	1.4254895
33.10201913582707	1.9723778	1.4044137
33.12030390019248	1.8375072	1.3555468
33.138589532165135	1.8493229	1.3598981
33.15687603233419	1.8890465	1.3744259
33.17516340128909	1.9460545	1.3950106
33.19345163961947	2.021758	1.4218854
33.211740747915215	2.0308933	1.4250941
33.23003072676643	1.9215318	1.3861933
33.248321576763466	1.8678086	1.3666779
33.266613298496885	1.9001999	1.3784773
33.28490589255747	1.9555955	1.398426
33.30319935953626	2.006594	1.416543
33.32149370002451	1.9200673	1.3856649
33.339788914613706	1.9011437	1.3788197
33.358085003895575	1.9079497	1.3812855
33.376381968462034	1.9722468	1.4043671
33.39467980890529	1.891618	1.3753611
33.41297852581774	1.8021234	1.3424319
33.43127811979204	1.8675814	1.3665948
33.44957859142105	1.9682435	1.402941
33.467879941297866	1.9691501	1.403264
33.486182170015844	1.9631035	1.4011079
33.50448527816853	1.9923538	1.4115076
33.522789266349754	1.9805533	1.4073213
33.541094135153514	1.9950576	1.4124651
33.55939988517411	1.9523609	1.3972691
33.57770651700602	2.008976	1.4173836
33.59601403124398	1.9879233	1.4099374
33.61432242848296	1.9696755	1.4034513
33.632631709318154	1.915148	1.3838887
33.650941874344994	1.8920102	1.3755037
33.66925292415916	1.9308126	1.3895369
33.68756485935654	1.8907951	1.3750619
33.70587768053328	1.8806578	1.3713708
33.724191388285746	1.8790752	1.3707936
33.74250598321054	1.7492437	1.3225898
33.760821465904506	1.7696902	1.330297
33.77913783696474	1.8277777	1.3519533
33.79745509698852	1.8288699	1.3523571
33.815773246573414	1.8695446	1.3673129
33.8340922863172	1.9877245	1.4098668
33.852412216817896	2.0776672	1.4414115
33.87073303867377	2.0946074	1.4472759
33.889054752483304	1.9357688	1.3913192
33.907377358845245	1.8118063	1.3460336
33.92570085835853	1.7766188	1.3328986
33.94402525162239	1.9151773	1.3838993
33.96235053923627	1.9222152	1.3864398
33.980676721799824	1.9128958	1.3830748
33.999003799912984	1.8390502	1.3561158
34.01733177417592	1.7939101	1.3393693
34.03566064518901	1.8311827	1.353212
34.0539904135529	1.821301	1.3495559
34.07232107986846	1.7244564	1.3131856
34.090652644736785	1.6947771	1.301836
34.108985108759235	1.8966882	1.377203
34.12731847253742	2.1451168	1.4646218
34.14565273667313	2.1006145	1.4493496
34.16398790176847	1.9246675	1.3873239
34.18232396842574	1.7360716	1.3176007
34.20066093724749	1.6346887	1.2785494
34.21899880883651	1.734236	1.316904
34.23733758379583	1.903336	1.3796145
34.25567726272874	1.9304447	1.3894044
34.27401784623872	1.9712386	1.404008
34.29235933492957	1.9257001	1.3876959
34.31070172940526	1.8782848	1.3705053
34.32904503027003	1.8482846	1.3595163
34.347389238128386	1.7623518	1.327536
34.36573435358502	1.7641076	1.3281971
34.38408037724492	1.8101381	1.3454137
34.402427309713296	1.7942165	1.3394836
34.42077515159559	1.8489255	1.3597519
34.43912390349752	1.9341851	1.3907498
34.45747356602499	1.9744765	1.4051607
34.47582413978423	1.9528102	1.3974298
34.49417562538163	2.0368814	1.4271935
34.51252802342388	1.9950838	1.4124744
34.53088133451789	2.0546913	1.4334195
34.54923555927084	1.9733542	1.4047613
34.567590698290104	1.8204477	1.3492397
34.58594675218336	1.9086788	1.3815494
34.6043037215585	2.0128813	1.4187604
34.62266160702365	1.9460316	1.3950024
34.641020409187234	1.870975	1.3678359
34.65938012865785	1.8822604	1.3719549
34.677740766044394	1.9126563	1.3829882
34.69610232195598	1.9830459	1.4082066
34.714464797002016	2.0092607	1.4174839
34.73282819179208	1.9893337	1.4104375
34.751192506936064	2.0922914	1.4464755
34.76955774304408	2.0983436	1.4485661
34.7879239007265	2.030708	1.4250292
34.80629098059391	1.9446719	1.3945149
34.824658983257194	1.9798613	1.4070754
34.843027909327446	1.9643799	1.4015634
34.86139775941603	1.9886459	1.4101936
34.879768534134534	2.0469818	1.4307277
34.89814023409483	1.9828527	1.408138
34.91651285990901	2.1388292	1.4624736
34.93488641218944	2.176095	1.4751593
34.95326089154871	2.032743	1.425743
34.97163629859967	1.8768073	1.3699661
34.99001263395542	1.8296713	1.3526534
35.00838989822934	1.9432472	1.394004
35.02676809203499	1.9839286	1.40852
35.04514721598624	1.9089016	1.3816301
35.063527270697215	1.8740286	1.3689517
35.081908256782256	1.9716458	1.4041531
35.10029017485597	2.0582268	1.4346522
35.11867302553321	2.0842645	1.4436982
35.137056809429104	2.019261	1.421007
35.155441527159006	1.9539347	1.3978322
35.173827179338524	1.9807999	1.407409
35.19221376658354	1.9923027	1.4114895
35.21060128951017	1.9408607	1.3931478
35.2289897487348	1.9404013	1.3929828
35.24737914487405	1.9765788	1.4059086
35.26576947854479	2.0046582	1.4158596
35.28416075036418	2.0525694	1.432679
35.30255296094958	2.3494263	1.5327839
35.32094611091867	2.503583	1.5822715
35.33934020088932	2.2676957	1.505887
35.35773523147969	2.2516623	1.500554
35.3761312033082	2.0682373	1.4381367
35.394528116993506	1.9332092	1.390399
35.41292597315452	2.104508	1.4506922
35.431324772410434	2.3370602	1.5287447
35.449724515380666	2.3509598	1.533284
35.46812520268491	2.5461624	1.5956699
35.486526834943106	2.527077	1.5896783
35.504929412775454	2.0416234	1.4288539
35.52333293680242	2.246782	1.498927
35.54173740764471	2.543842	1.5949427
35.560142825923286	2.674456	1.6353763
35.5785491922594	2.6093347	1.6153436
35.59695650727454	2.0404763	1.4284524
35.61536477159042	1.1140177	1.0554703
