0.008763373481513119	0.0	0.0
0.026290120649546365	0.11242709	0.3353015
0.043816868432600686	0.12596065	0.35490936
0.06134361724069026	0.16758075	0.40936628
0.07887036748382949	0.17898525	0.4230665
0.0963971195720331	0.16408099	0.4050691
0.11392387391531617	0.13972424	0.37379706
0.1314506309236943	0.11986196	0.34621087
0.1489773910071836	0.048312068	0.21980007
0.16650415457580078	0.041543286	0.2038217
0.18403092203956356	0.1501541	0.38749722
0.20155769380849	0.2188504	0.4678145
0.2190844702925996	0.23167922	0.48133066
0.2366112519019124	0.21788096	0.4667772
0.2541380390464497	0.11839318	0.3440831
0.27166483213623416	0.106157474	0.32581815
0.28919163158128947	0.10346264	0.32165608
0.3067184377916406	0.14924513	0.38632256
0.324245251177314	0.16472338	0.4058613
0.34177207214833777	0.24228594	0.4922255
0.3592989011147415	0.22607708	0.47547564
0.37682573848655654	0.2507426	0.5007421
0.39435258467381573	0.184114	0.42908508
0.41187944008655414	0.12464398	0.35304955
0.42940630513480854	0.103673115	0.3219831
0.446933180228618	0.12060939	0.3472886
0.4644600657780234	0.16614622	0.4076104
0.48198696219306775	0.20295873	0.45050943
0.49951386988379676	0.17183775	0.41453317
0.5170407892602581	0.11537847	0.33967406
0.5345677207325025	0.06604546	0.25699311
0.5520946647105822	0.063446626	0.25188613
0.5696216216045534	0.12915716	0.35938442
0.5871485918244737	0.16892989	0.4110108
0.6046755757804043	0.18737563	0.43286908
0.6222025738824094	0.17407109	0.41721827
0.6397295865405557	0.17453164	0.41776985
0.6572566141649129	0.18727706	0.4327552
0.6747836571655547	0.18099204	0.42543158
0.6923107159525568	0.17493102	0.41824755
0.7098377909359992	0.19648342	0.4432645
0.7273648825259653	0.21508372	0.4637712
0.7448919911325411	0.24077737	0.4906907
0.762419117165817	0.2001774	0.4474119
0.7799462610358868	0.21703097	0.46586582
0.7974734231528482	0.23282929	0.48252386
0.8150006039268024	0.23335356	0.48306683
0.8325278037678551	0.2351792	0.48495278
0.8500550230861152	0.21448149	0.46312147
0.8675822622916969	0.22141972	0.47055256
0.8851095217947171	0.23793174	0.48778248
0.9026368020052984	0.21553662	0.4642592
0.9201641033335665	0.1994852	0.44663766
0.9376914261896523	0.17577013	0.41924948
0.9552187709836915	0.20640457	0.4543177
0.9727461381258234	0.21553296	0.46425527
0.990273528026193	0.2592822	0.5091976
1.0078009410949496	0.2408841	0.49079946
1.0253283777422473	0.25843534	0.50836533
1.0428558383782454	0.27648938	0.5258226
1.0603833234131086	0.2888014	0.53740245
1.0779108332570058	0.35302174	0.5941563
1.0954383683201119	0.3268892	0.57174224
1.112965929012607	0.37926275	0.6158431
1.1304935157446763	0.43095544	0.65647197
1.1480211289265108	0.47511995	0.68928945
1.1655487689683062	1.3736657	1.1720349
1.1830764362802655	1.6778073	1.295302
1.200604131272596	2.108472	1.4520578
1.2181318543555117	2.404433	1.5506234
1.235659605939232	2.4608161	1.5686989
1.253187386433982	3.8789306	1.9695001
1.270715196249994	6.0113244	2.4518003
1.2882430357975057	11.614539	3.408011
1.3057709054867608	16.454155	4.056372
1.3232988057280106	22.487865	4.7421374
1.3408267369315112	27.849243	5.2772384
1.358354699507526	31.587284	5.6202564
1.3758826938663256	35.978577	5.9982142
1.3934107204181858	37.466564	6.1209936
1.410938779573391	37.68852	6.1390977
1.4284668717422309	38.36623	6.194048
1.4459949973350033	38.455635	6.2012606
1.4635231567620117	38.28465	6.187459
1.4810513504335687	37.455505	6.1200905
1.4985795787599925	36.4935	6.040985
1.5161078421516088	36.002094	6.0001745
1.5336361410187505	34.763374	5.896047
1.5511644757717598	34.30466	5.857018
1.5686928468209842	34.594078	5.881673
1.58622125457678	35.6839	5.9736004
1.6037496994495108	37.229954	6.1016355
1.621278181849548	37.486736	6.122641
1.6388067021872719	38.536488	6.2077765
1.6563352608730693	38.200176	6.1806293
1.673863858317336	37.38207	6.1140876
1.6913924949304753	36.510635	6.042403
1.7089211711228998	35.37127	5.947375
1.7264498873050296	34.210724	5.8489933
1.7439786438872935	33.33942	5.7740297
1.7615074412801288	32.425774	5.694363
1.779036279893981	31.772057	5.6366706
1.796565160139305	30.951694	5.5634246
1.814094082426564	30.092405	5.4856544
1.8316230471662298	29.260843	5.4093294
1.849152054768784	28.023006	5.293676
1.8666811056447168	27.607924	5.2543244
1.8842102002045273	26.943583	5.190721
1.901739338858724	26.401434	5.1382327
1.9192685220178245	25.94927	5.094043
1.9367977500923557	25.034472	5.003446
1.9543270234928547	24.573202	4.9571366
1.971856342629867	24.050594	4.9041405
1.9893857079139496	23.508345	4.8485403
2.006915119755667	22.988136	4.7945943
2.0244445785655945	22.422663	4.7352576
2.0419740847543175	22.142506	4.7055826
2.0595036387324317	21.776577	4.6665382
2.0770332409105414	21.256472	4.610474
2.094562891699263	20.881493	4.5696273
2.1120925915092217	20.633581	4.5424204
2.129622340751053	20.184242	4.4926877
2.1471521398354043	188.3321	13.723414
2.1646819891729323	444.65002	21.086727
2.182211889174303	440.77805	20.994715
2.1997418402501974	453.17197	21.287836
2.2172718428113023	433.1058	20.811193
2.234801897268317	320.9353	17.914667
2.2523320040319548	17.32478	4.1623044
2.269862163512935	17.01424	4.124832
2.287392376121992	16.694378	4.0858755
2.304922642269869	16.441597	4.054824
2.322452962367322	16.160221	4.0199776
2.3399833368251164	15.695405	3.9617426
2.357513766054032	15.498557	3.9368207
2.3750442504648586	15.239971	3.9038405
2.3925747904683963	14.92279	3.8630028
2.410105386475459	14.68178	3.831681
2.4276360388968707	14.352466	3.7884648
2.445166748143469	14.247883	3.7746367
2.4626975146261025	13.932325	3.732603
2.4802283387556323	13.534546	3.6789327
2.4977592209429305	13.304912	3.64759
2.5152901615988825	12.902166	3.5919585
2.5328211611343865	12.742186	3.56962
2.5503522199603523	12.52888	3.5396159
2.5678833384877024	12.349702	3.5142143
2.5854145171273712	12.138636	3.4840546
2.6029457562903064	12.190697	3.4915178
2.620477056387469	12.183972	3.4905548
2.6380084178298326	12.058182	3.4724894
2.655539841028383	11.595423	3.4052052
2.673071326394119	11.3368845	3.367029
2.6906028743380523	11.243495	3.353132
2.708134485271211	11.048693	3.3239574
2.7256661596046325	10.983582	3.3141487
2.743197897749369	10.910403	3.3030899
2.760729700116486	10.857148	3.2950187
2.778261567117063	10.527805	3.244658
2.795793499162193	10.313999	3.2115417
2.8133254966629817	10.170268	3.1890857
2.830857560030551	10.141	3.1844935
2.8483896896760337	9.910222	3.1480505
2.865921886010578	9.723177	3.118201
2.883454149445347	9.613676	3.1005929
2.9009864803915177	9.602998	3.0988705
2.91851887926028	9.516404	3.084867
2.9360513464628384	9.356045	3.0587652
2.953583882410413	9.043344	3.0072153
2.9711164875142373	8.804544	2.9672453
2.9886491621855606	8.676526	2.9455943
3.0061819068356455	8.596314	2.9319472
3.023714721875769	8.552977	2.9245472
3.041247607717225	8.517669	2.9185045
3.0587805647713213	8.348046	2.8892987
3.0763135934493806	8.216187	2.866389
3.0938466941627407	8.1419325	2.8534071
3.1113798673227544	8.190424	2.8618917
3.1289131133407904	8.160083	2.856586
3.1464464326282315	8.0058975	2.8294694
3.1639798255964786	7.8398876	2.79998
3.1815132926569443	7.7166343	2.777883
3.1990468342210603	7.7718678	2.787807
3.216580450700272	7.872029	2.8057137
3.2341141425060416	7.821409	2.7966783
3.251647910049847	7.733074	2.7808406
3.2691817537431813	7.5311117	2.744287
3.286715673997555	7.4237556	2.724657
3.3042496712244938	7.2960963	2.7011287
3.32178374583554	7.179907	2.679535
3.339317898242251	7.0375166	2.6528318
3.3568521288562034	6.97714	2.6414275
3.3743864380889876	6.8496346	2.6171806
3.3919208263522127	6.826653	2.6127865
3.4094552940575023	6.672119	2.5830445
3.4269898416164972	6.6371384	2.5762644
3.444524469440858	6.6409216	2.5769985
3.4620591779422587	6.629153	2.5747142
3.479593967532391	6.690483	2.5865967
3.4971288386229658	6.5735946	2.5639021
3.5146637916257086	6.523079	2.5540318
3.5321988269523628	6.418249	2.5334263
3.5497339450146903	6.4907713	2.5476992
3.5672691462244708	6.488463	2.5472462
3.5848044309934988	6.40681	2.5311677
3.60233979973359	6.373186	2.524517
3.619875252856575	6.3578663	2.521481
3.6374107907743034	6.37007	2.5238998
3.6549464138986427	6.42454	2.5346677
3.6724821226414788	6.3951464	2.5288627
3.690017917414714	6.3377733	2.5174935
3.7075537986302702	6.4016485	2.530148
3.7250897667000857	6.4418573	2.5380814
3.7426258220361235	6.58217	2.565574
3.7601619650503553	6.8549376	2.6181936
3.777698196154779	7.3587065	2.7126937
3.7952345157614067	8.42062	2.9018304
3.8127709242822716	9.308189	3.0509326
3.830307422129425	11.515901	3.3935087
3.847844009714936	30.363823	5.510338
3.8653806874508954	97.81826	9.890311
3.882917455749409	97.015015	9.84962
3.900454315022606	96.783394	9.837855
3.917991265682631	41.268883	6.424086
3.9355283081416506	10.8934555	3.3005235
3.9530654428118495	8.727449	2.9542258
3.970602670105433	7.5409036	2.7460706
3.9881399904346244	6.6518993	2.5791276
4.005677404211669	6.534911	2.5563471
4.023214911848827	6.384693	2.5267951
4.0407525137583855	6.426081	2.5349717
4.058290210352644	6.491305	2.5478039
4.075828002043927	6.557595	2.56078
4.0933658892445814	6.5467167	2.5586553
4.110903872366966	6.418625	2.5335004
4.128441951823468	6.202911	2.4905643
4.145980128026488	6.076485	2.4650528
4.163518401388452	6.128247	2.4755297
4.181056772321807	6.251155	2.500231
4.1985952412390155	6.2927704	2.5085394
4.216133808552567	6.3915596	2.5281534
4.233672474674966	6.326196	2.515193
4.251211240018741	6.526145	2.554632
4.268750104996445	6.728756	2.5939846
4.286289070020643	7.755633	2.7848938
4.303828135503928	9.458476	3.0754635
4.3213673018589125	29.663208	5.446394
4.3389065694982305	90.78493	9.528112
4.356445938834537	166.07428	12.886981
4.3739854102805085	171.6238	13.100527
4.391524984248844	172.552	13.135905
4.409064661152262	136.52939	11.684579
4.426604441403504	96.896286	9.843591
4.444144325415337	75.88708	8.711319
4.461684313600543	22.00938	4.691416
4.47922440637193	22.362549	4.7289057
4.496764604142329	20.742186	4.554359
4.5143049073245916	18.935183	4.3514576
4.531845316331589	16.842344	4.1039424
4.5493858315762195	13.861775	3.7231405
4.566926453471405	11.436404	3.3817754
4.584467182430081	9.411419	3.0678036
4.602008018865218	8.370402	2.8931649
4.619548963189798	7.742977	2.7826207
4.637090015816834	7.215092	2.6860924
4.654631177159353	6.8776555	2.6225286
4.672172447630417	6.557461	2.560754
4.689713827643102	6.3938684	2.52861
4.7072553176105085	6.164977	2.482937
4.724796917945764	6.028708	2.4553428
4.742338629062015	5.9745197	2.444283
4.759880451372434	5.897009	2.4283757
4.777422385290215	5.8241796	2.4133337
4.794964431228581	5.776397	2.4034138
4.812506589600768	5.7923617	2.4067326
4.830048860820047	5.6960526	2.3866405
4.847591245299709	5.626178	2.3719566
4.8651337434530655	5.5280967	2.3511906
4.882676355693457	5.6300416	2.3727708
4.900219082434242	5.697775	2.3870013
4.917761924088813	5.7256374	2.3928304
4.935304881070575	5.7323446	2.3942316
4.952847953792969	5.6973076	2.3869033
4.970391142669449	5.574263	2.3609877
4.9879344481135055	5.515222	2.348451
5.005477870538642	5.465961	2.3379395
5.023021410358394	5.6018486	2.3668225
5.040565067986324	5.6822805	2.3837535
5.05810884383601	5.635126	2.373842
5.075652738321066	5.521094	2.3497007
5.09319675185512	5.4503875	2.3346064
5.110740884851836	5.420712	2.3282423
5.128285137724894	5.3378744	2.310384
5.145829510888007	5.2537293	2.2921016
5.163374004754908	5.2853694	2.298993
5.1809186197393595	5.3690143	2.3171134
5.198463356255145	5.457898	2.3362145
5.216008214716077	5.438306	2.3320177
5.233553195535998	5.370836	2.3175063
5.251098299128764	5.3295827	2.308589
5.268643525908272	5.346543	2.3122592
5.286188876288432	5.3278084	2.3082047
5.3037343506831895	5.386357	2.3208525
5.32127994950651	5.3993783	2.3236563
5.3388256731723915	5.4738016	2.3396156
5.356371522094851	5.345804	2.3120995
5.373917496687938	5.2600946	2.2934897
5.391463597365729	5.147297	2.2687654
5.40900982454232	5.132085	2.2654104
5.426556178631843	5.184392	2.276926
5.444102660048449	5.2320156	2.28736
5.4616492692063225	5.3134665	2.3050957
5.479196006519669	5.343778	2.3116612
5.496742872402727	5.31255	2.304897
5.514289867269756	5.2203627	2.2848113
5.531836991535049	5.2180014	2.2842946
5.549384245612924	5.202776	2.2809594
5.566931629917724	5.2878876	2.2995408
5.584479144863822	5.306286	2.3035376
5.6020267908656205	5.3280373	2.3082542
5.619574568337545	5.2906823	2.3001482
5.637122477694054	5.219739	2.284675
5.654670519349629	5.2675405	2.2951124
5.672218693718784	5.321841	2.3069115
5.689767001216059	5.2931004	2.300674
5.707315442256021	5.2299585	2.2869103
5.724864017253266	5.127598	2.26442
5.7424127266224225	5.1626534	2.2721474
5.75996157077814	5.0935416	2.2568877
5.777510550135105	5.1568117	2.2708614
5.795059665108022	5.2195444	2.2846322
5.812608916111639	5.255885	2.2925718
5.830158303560715	5.306491	2.3035822
5.847707827870055	5.287933	2.2995505
5.86525748945448	5.288817	2.2997427
5.8828072887288485	5.3817463	2.319859
5.900357226108044	5.457885	2.3362117
5.917907302006979	5.6344957	2.3737092
5.9354575168406	6.252365	2.500473
5.9530078710238765	6.9112782	2.628931
5.970558364971812	7.4215336	2.7242491
5.988108999099438	7.746308	2.7832189
6.005659773821818	8.275968	2.8767982
6.023210689554039	7.9996743	2.8283696
6.040761746711227	8.409787	2.8999634
6.058312945708531	7.841791	2.80032
6.075864286961132	7.4184856	2.7236898
6.093415770884244	6.8417473	2.6156733
6.1109673978931065	6.266549	2.5033076
6.128519168402993	5.684945	2.3843124
6.146071082829204	5.5469594	2.3551984
6.163623141587075	5.4087873	2.32568
6.181175345091969	5.3370256	2.3102005
6.198727693759281	5.2432003	2.2898035
6.216280188004435	5.2272887	2.2863264
6.233832828242885	5.2105455	2.282662
6.251385614890126	5.230684	2.2870688
6.268938548361669	5.2308207	2.2870986
6.286491629073067	5.244241	2.290031
6.304044857439898	5.2258563	2.2860131
6.321598233877777	5.088805	2.255838
6.339151758802344	5.0013537	2.2363706
6.356705432629277	4.9080243	2.2154062
6.37425925577428	4.9192524	2.2179387
6.391813228653095	4.947622	2.224325
6.409367351681486	4.937133	2.221966
6.426921625275259	4.9779415	2.2311301
6.44447604985025	4.9579988	2.2266564
6.46203062582232	5.021037	2.240767
6.47958535360737	4.966268	2.2285125
6.497140233621328	4.9732137	2.2300704
6.514695266280161	4.992623	2.2344177
6.532250451999859	5.0587735	2.2491717
6.549805791196454	5.126014	2.2640703
6.567361284286002	5.1187277	2.2624605
6.584916931684597	5.0689783	2.251439
6.602472733808367	5.0779533	2.2534316
6.6200286910734665	5.1405883	2.2672865
6.637584803896092	5.2052755	2.2815073
6.655141072692462	5.161514	2.2718966
6.672697497878842	5.0662465	2.2508323
6.690254079871514	4.9570546	2.2264445
6.707810819086808	5.01889	2.240288
6.725367715941078	5.0740957	2.2525754
6.742924770850719	5.105563	2.2595494
6.760481984232151	5.104239	2.2592564
6.778039356501836	5.135007	2.2660553
6.795596888076266	5.1233997	2.2634928
6.813154579371963	5.048193	2.2468183
6.830712430805492	4.988835	2.23357
6.84827044279344	4.9966464	2.235318
6.865828615752445	5.038145	2.2445812
6.883386950099159	5.0778866	2.2534165
6.900945446250287	5.052374	2.2477486
6.918504104622553	5.1066585	2.2597916
6.936062925632727	5.146341	2.2685547
6.953621909697607	5.1454163	2.268351
6.971181057234028	5.1554103	2.2705529
6.988740368658859	5.226641	2.2861848
7.006299844389007	5.292028	2.3004408
7.023859484841407	5.3416324	2.3111973
7.041419290433036	5.402559	2.3243406
7.058979261580902	5.491442	2.3433826
7.0765393987020495	5.733378	2.3944473
7.094099702213559	6.0894427	2.4676797
7.111660172532549	6.442262	2.5381613
7.129220810076164	6.823504	2.6121838
7.146781615261595	7.3993125	2.7201676
7.16434258850606	7.647067	2.7653332
7.181903730226821	8.106012	2.847106
7.1994650408411704	8.218254	2.8667498
7.217026520766437	8.343654	2.8885384
7.234588170419983	8.520235	2.9189441
7.252149990219215	8.5463085	2.923407
7.269711980581568	8.421383	2.9019618
7.2872741419245175	8.253792	2.8729413
7.304836474665574	7.8435507	2.800634
7.322398979222286	7.518219	2.7419372
7.339961656012233	7.265937	2.6955402
7.357524505453039	6.8973465	2.62628
7.375087527962357	6.6209655	2.5731237
7.392650723957886	6.3202686	2.5140145
7.410214093857353	5.9342403	2.4360297
7.427777638078528	5.758191	2.3996232
7.445341357039213	5.5595646	2.357873
7.4629052511572525	5.4651	2.3377552
7.480469320850524	5.4092817	2.3257864
7.498033566536948	5.3887634	2.321371
7.5155979886344735	5.3572927	2.3145826
7.5331625875610975	5.337268	2.3102527
7.550727363734844	5.24587	2.2903864
7.568292317573788	5.1391296	2.266965
7.585857449496025	5.0642323	2.250385
7.603422759919705	5.123654	2.2635489
7.620988249263007	5.1637383	2.272386
7.638553917944147	5.187033	2.2775059
7.656119766381391	5.197201	2.279737
7.673685794993023	5.22558	2.2859528
7.691252004197388	5.2678933	2.2951891
7.70881839441285	5.280875	2.2980156
7.726384966057826	5.293529	2.300767
7.743951719550762	5.314565	2.305334
7.761518655310149	5.309756	2.3042908
7.779085773754511	5.332342	2.3091865
7.796653075302419	5.383789	2.3202994
7.814220560372475	5.387452	2.3210886
7.831788229383323	5.3503633	2.3130853
7.8493560827536495	5.310572	2.304468
7.866924120902174	5.293132	2.3006806
7.884492344247663	5.3177495	2.3060246
7.9020607532089135	5.3552494	2.3141413
7.919629348204771	5.385959	2.320767
7.937198129654115	5.4186544	2.3278003
7.954767097975865	5.4580398	2.3362448
7.972336253588986	5.4430866	2.3330424
7.989905596912472	5.3996096	2.323706
8.007475128365371	5.408309	2.325577
8.025044848366756	5.4892917	2.3429236
8.042614757335754	5.6527843	2.3775585
8.060184855691523	5.719032	2.3914497
8.07775514385327	5.815893	2.4116163
8.095325622240228	5.8052807	2.409415
8.112896291271687	5.8054905	2.4094586
8.130467151366968	5.793885	2.4070492
8.148038202945436	5.8953	2.4280238
8.165609446426497	6.03215	2.4560435
8.183180882229594	6.1196	2.4737825
8.200752510774217	6.0549774	2.4606864
8.218324332479893	5.9764876	2.4446857
8.235896347766193	6.0102253	2.451576
8.253468557052724	6.047793	2.4592261
8.27104096075914	6.1057935	2.4709904
8.288613559305137	6.1436377	2.4786363
8.306186353110448	6.1646886	2.4828792
8.32375934259485	6.2260737	2.4952102
8.341332528178162	6.2441883	2.4988375
8.358905910280246	6.248403	2.4996805
8.376479489321003	6.254128	2.5008254
8.394053265720377	6.279513	2.5058956
8.411627239898356	6.312542	2.5124772
8.42920141227497	6.390334	2.527911
8.44677578327029	6.3446827	2.5188653
8.464350353304427	6.2651696	2.503032
8.48192512279754	6.1816454	2.4862914
8.499500092169827	6.144749	2.4788604
8.51707526184153	6.1427417	2.4784555
8.534650632232934	6.2021146	2.4904046
8.552226203764365	6.2639246	2.5027833
8.569801976856192	6.3490825	2.5197387
8.587377951928834	6.3638606	2.5226693
8.60495412940274	6.3882513	2.527499
8.622530509698416	6.327099	2.5153725
8.6401070932364	6.3939004	2.5286162
8.657683880437283	6.4973845	2.5489967
8.675260871721695	6.7228994	2.5928555
8.692838067510303	6.8917694	2.625218
8.710415468223834	7.0416117	2.6536036
8.727993074283043	7.1490407	2.673769
8.745570886108737	7.168947	2.677489
8.763148904121765	7.2772913	2.6976454
8.78072712874302	7.2482195	2.6922517
8.798305560393441	7.520498	2.7423525
8.815884199494006	7.616111	2.75973
8.833463046465745	7.791357	2.7913003
8.851042101729728	7.8841267	2.8078687
8.86862136570707	8.1775875	2.8596482
8.886200838818924	8.3698	2.8930607
8.903780521486505	8.438427	2.904897
8.921360414131055	8.574042	2.9281466
8.938940517173874	8.70229	2.9499643
8.956520831036297	8.87203	2.9785953
8.97410135613971	9.167944	3.0278614
8.99168209290554	9.325247	3.0537267
9.009263041755265	9.683064	3.1117623
9.026844203110405	9.842608	3.137293
9.044425577392525	9.987581	3.1603134
9.062007165023239	10.06353	3.1723068
9.079588966424197	10.357014	3.2182314
9.097170982017108	10.474954	3.2365034
9.11475321222372	11.385535	3.374246
9.132335657465825	12.34034	3.512882
9.149918318165264	12.541371	3.54138
9.167501194743924	13.041339	3.6112795
9.18508428762374	12.587954	3.5479505
9.202667597226693	12.503403	3.536015
9.220251123974803	12.134273	3.4834282
9.237834868290143	11.887769	3.4478643
9.255418830594836	11.899123	3.4495106
9.273003011311046	11.472721	3.3871405
9.290587410860985	11.160622	3.3407516
9.308172029666911	10.458304	3.23393
9.32575686815113	10.195649	3.1930625
9.343341926735997	9.08877	3.0147586
9.360927205843916	8.8125305	2.9685907
9.378512705897327	8.585378	2.9300816
9.396098427318728	8.341861	2.888228
9.413684370530664	8.181961	2.8604128
9.431270535955722	8.102691	2.8465226
9.448856924016539	8.00598	2.829484
9.466443535135806	7.9146814	2.8133044
9.484030369736251	7.92088	2.8144057
9.501617428240658	7.9161935	2.8135731
9.519204711071852	7.8473454	2.8013113
9.536792218652714	7.79219	2.7914495
9.55437995140617	7.784948	2.7901518
9.571967909755191	7.8286963	2.7979808
9.589556094122802	7.892196	2.8093052
9.60714450493207	7.9744353	2.8239043
9.624733142606116	8.019384	2.8318517
9.642322007568108	8.128584	2.851067
9.659911100241267	8.173384	2.858913
9.677500421048851	8.220411	2.867126
9.695089970414175	8.211014	2.8654866
9.712679748760609	8.204983	2.864434
9.730269756511557	8.217128	2.8665533
9.747859994090492	8.307993	2.882359
9.765450461920915	8.336425	2.8872867
9.78304116042639	8.314738	2.8835287
9.800632090030527	8.256726	2.873452
9.81822325115699	8.2799835	2.877496
9.835814644229481	8.339196	2.8877666
9.853406269671762	8.335073	2.8870528
9.870998127907646	8.328216	2.8858647
9.888590219360985	8.346748	2.8890738
9.906182544455698	8.402815	2.898761
9.923775103615734	8.44123	2.9053795
9.941367897265108	8.421844	2.9020412
9.958960925827878	8.403872	2.8989432
9.97655418972816	8.428485	2.9031854
9.994147689390106	8.383241	2.8953826
10.011741425237934	8.419116	2.9015713
10.029335397695904	8.474936	2.9111743
10.04692960718833	8.494951	2.91461
10.06452405413958	8.480111	2.9120631
10.082118738974064	8.370279	2.8931434
10.099713662116246	8.259155	2.8738747
10.117308823990651	8.209212	2.8651724
10.134904225021844	8.209897	2.8652918
10.152499865634445	8.236234	2.869884
10.170095746253125	8.293542	2.879851
10.18769186730261	8.303332	2.8815503
10.205288229207675	8.282882	2.8779995
10.222884832393145	8.201488	2.863824
10.2404816772839	8.220595	2.8671582
10.258078764304868	8.211026	2.8654888
10.275676093881035	8.214213	2.866045
10.293273666437438	8.218604	2.8668108
10.310871482399158	8.2314825	2.869056
10.32846954219134	8.253297	2.8728552
10.346067846239173	8.187721	2.8614194
10.363666394967908	8.208788	2.8650982
10.38126518880283	8.246443	2.8716621
10.398864228169298	8.358659	2.8911345
10.416463513492713	8.371514	2.893357
10.434063045198531	8.232921	2.8693066
10.451662823712262	8.201261	2.8637843
10.469262849459467	8.256678	2.8734436
10.486863122865758	8.264058	2.8747275
10.504463644356806	8.307861	2.8823361
10.522064414358338	8.1556425	2.8558085
10.539665433296118	8.100337	2.8461092
10.557266701595987	8.005899	2.82947
10.574868219683818	7.940868	2.8179545
10.592469987985552	7.8228335	2.796933
10.610072006927185	7.680953	2.7714531
10.627674276934751	7.51591	2.741516
10.64527679843435	7.386593	2.7178288
10.662879571852143	7.263053	2.6950052
10.680482597614331	7.203503	2.6839342
10.698085876147173	7.174413	2.6785095
10.715689407876988	7.138555	2.6718075
10.733293193230146	7.0780306	2.660457
10.750897232633072	6.931788	2.632829
10.76850152651225	6.7709746	2.6021097
10.786106075294207	6.59918	2.568887
10.803710879405534	6.4796677	2.545519
10.821315939272877	6.4480963	2.5393102
10.83892125532294	6.393886	2.5286136
10.856526827982472	6.3092093	2.5118139
10.874132657678285	6.222175	2.4944289
10.891738744837243	6.1872277	2.487414
10.909345089886271	6.1662307	2.4831896
10.926951693252343	6.111731	2.4721916
10.944558555362494	6.0622888	2.4621716
10.96216567664381	6.0079675	2.4511156
10.979773057523436	5.9698153	2.4433205
10.997380698428573	5.908781	2.4307985
11.014988599786477	5.8652325	2.4218242
11.032596762024461	5.806415	2.4096503
11.050205185569892	5.771764	2.4024496
11.067813870850198	5.724889	2.392674
11.085422818292859	5.684067	2.384128
11.10303202832541	5.5413613	2.3540096
11.120641501375454	5.426229	2.3294268
11.138251237870636	5.365215	2.3162932
11.155861238238671	5.377473	2.3189378
11.173471502907317	5.2994013	2.302043
11.191082032304402	5.245696	2.2903485
11.208692826857805	5.1974983	2.2798023
11.226303886995465	5.1498356	2.269325
11.243915213145371	5.0090566	2.2380922
11.261526805735578	4.9195924	2.2180154
11.279138665194196	4.9238296	2.2189703
11.296750791949393	4.8746767	2.207867
11.314363186429393	4.844615	2.2010486
11.331975849062479	4.7848163	2.1874223
11.34958878027699	4.709214	2.1700723
11.36720198050133	4.6824613	2.1638997
11.384815450163948	4.6417274	2.1544669
11.402429189693366	4.6176815	2.148879
11.420043199518153	4.576388	2.1392493
11.437657480066942	63.516945	7.969752
11.455272031768422	85.232475	9.232143
11.472886855051353	107.61287	10.373662
11.490501950344528	99.21564	9.960705
11.508117318076819	84.58247	9.196873
11.52573295867715	45.93546	6.7775702
11.543348872574514	4.2229733	2.0549874
11.560965060197946	4.1638937	2.0405622
11.57858152197655	4.1104064	2.0274136
11.59619825833949	4.038941	2.0097117
11.613815269715985	3.997653	1.9994131
11.631432556535323	38.515568	6.2060914
11.649050119226837	83.11585	9.11679
11.666667958219929	93.52522	9.670844
11.68428607394406	107.815475	10.383423
11.701904466828756	82.61026	9.089019
11.719523137303586	65.436325	8.0892725
11.737142085798196	4.639091	2.1538548
11.754761312742286	3.7416809	1.9343425
11.772380818565619	3.7254825	1.9301509
11.790000603698015	3.677739	1.9177432
11.80762066856935	3.6169455	1.9018269
11.825241013609572	3.5812628	1.8924224
11.842861639248683	3.5771127	1.8913256
11.860482545916748	3.5347328	1.8800886
11.878103734043883	3.4782786	1.8650144
11.895725204060282	3.4722161	1.8633883
11.91334695639619	3.4890206	1.867892
11.930968991481919	3.5591164	1.886562
11.948591309747824	3.4869359	1.8673339
11.966213911624347	3.4439702	1.8557937
11.98383679754198	3.328844	1.824512
12.001459967931268	3.3241172	1.8232162
12.019083423222835	3.2901473	1.8138763
12.036707163847352	3.256719	1.8046383
12.05433119023556	3.214289	1.7928438
12.071955502818259	3.1963303	1.7878283
12.089580102026313	3.1948924	1.7874262
12.107204988290643	3.1873083	1.7853035
12.12483016204224	3.1905057	1.7861987
12.142455623712152	3.1837738	1.7843132
12.16008137373149	3.151482	1.7752414
12.177707412531431	3.1482399	1.774328
12.19533374054321	3.1629634	1.7784722
12.212960358198126	3.1770692	1.7824335
12.230587265927545	3.1823645	1.7839183
12.248214464162889	3.1188676	1.7660316
12.265841953335649	3.0635157	1.7502902
12.283469733877375	3.0402434	1.7436293
12.301097806219685	3.0416517	1.7440332
12.31872617079425	3.0113392	1.735321
12.336354828032825	2.9596949	1.7203764
12.353983778367205	2.9169586	1.7079105
12.371613022229262	2.9306095	1.7119023
12.389242560050928	2.9805655	1.7264315
12.406872392264201	2.9322028	1.7123677
12.424502519301143	2.9155622	1.7075018
12.442132941593874	2.8699617	1.6940961
12.459763659574586	2.8854177	1.6986517
12.477394673675532	2.8916974	1.7004992
12.49502598432903	2.871628	1.6945878
12.51265759196746	2.8817759	1.6975794
12.530289497023267	2.8743443	1.6953892
12.547921699928967	2.8225818	1.6800541
12.565554201117134	2.7795138	1.6671875
12.583187001020404	2.7707481	1.6645564
12.600820100071486	2.834115	1.683483
12.618453498703152	2.878649	1.6966581
12.636087197348235	2.8581762	1.6906141
12.65372119643964	2.8069541	1.6753967
12.671355496410326	2.7659957	1.6631283
12.68899009769333	2.8072844	1.6754953
12.706625000721749	2.864849	1.6925865
12.724260205928752	2.8908486	1.7002496
12.741895713747551	2.9189417	1.7084911
12.759531524611454	2.9994333	1.7318872
12.777167638953818	3.0599625	1.7492748
12.794804057208072	3.112697	1.7642837
12.812440779807702	3.165159	1.7790893
12.830077807186271	3.330619	1.8249984
12.847715139777405	3.3722675	1.8363734
12.865352778014795	3.5743797	1.890603
12.882990722332197	3.6578798	1.9125584
12.90062897316344	3.723672	1.9296818
12.918267530942412	3.7443168	1.9350237
12.935906396103071	3.6088448	1.899696
12.953545569079449	3.767245	1.9409392
12.971185050305628	3.6228292	1.9033731
12.988824840215775	3.6403704	1.9079754
13.006464939244115	3.6440127	1.9089297
13.024105347824943	3.484864	1.8667791
13.041746066392617	3.5430782	1.8823066
13.05938709538157	3.3355398	1.826346
13.077028435226296	3.3228848	1.8228781
13.094670086361363	3.2909298	1.814092
13.112312049221401	3.2117052	1.7921231
13.129954324241112	3.139927	1.7719839
13.147596911855258	2.9407887	1.7148728
13.165239812498685	2.9251463	1.7103059
13.182883026606293	2.85564	1.6898639
13.200526554613058	2.806925	1.675388
13.218170396954017	2.7553258	1.6599174
13.235814554064284	2.7279634	1.6516547
13.253459026379034	2.732909	1.6531513
13.271103814333523	2.7165248	1.6481884
13.288748918363058	2.7147768	1.647658
13.306394338903031	2.7079167	1.6455749
13.32404007638889	2.6922953	1.6408216
13.341686131256164	2.7114635	1.6466522
13.359332503940449	2.764097	1.6625574
13.376979194877402	2.7575526	1.660588
13.394626204502751	2.7839699	1.6685233
13.412273533252307	2.770325	1.6644293
13.429921181561937	2.7522438	1.6589888
13.447569149867581	2.748675	1.6579129
13.465217438605247	2.7171676	1.6483834
13.482866048211022	2.7127976	1.6470573
13.500514979121052	2.7049496	1.6446731
13.518164231771568	2.685605	1.6387815
13.535813806598844	2.6812017	1.6374376
13.553463704039254	2.7119346	1.6467953
13.571113924529229	2.7559144	1.6600947
13.588764468505275	2.729045	1.6519821
13.606415336403956	2.7386842	1.654897
13.624066528661917	2.70816	1.6456488
13.641718045715882	2.8188467	1.6789421
13.659369888002635	2.909306	1.7056688
13.67702205595903	2.9762645	1.7251854
13.694674550021993	3.0150084	1.736378
13.712327370628532	3.0169146	1.7369268
13.729980518215713	3.1083694	1.7630569
13.747633993220681	3.1904542	1.7861843
13.765287796080647	3.2753396	1.8097899
13.7829419272329	3.2928665	1.8146257
13.800596387114801	3.289135	1.8135972
13.818251176163775	3.3212304	1.8224243
13.835906294817324	3.3983433	1.8434596
13.853561743513023	3.4760377	1.8644135
13.871217522688525	3.511268	1.8738377
13.888873632781538	3.5027168	1.8715546
13.906530074229858	3.4983447	1.8703862
13.92418684747135	3.5447724	1.8827566
13.941843952943948	3.5635524	1.8877374
13.959501391085665	3.520967	1.876424
13.977159162334578	3.4517152	1.8578793
13.994817267128846	3.451319	1.8577726
14.012475705906693	3.3892198	1.8409834
14.030134479106424	3.3455617	1.8290877
14.047793587166414	3.251006	1.8030546
14.065453030525108	3.1597307	1.7775631
14.083112809621026	3.0515985	1.7468826
14.100772924892766	2.9514415	1.717976
14.118433376778997	2.9445906	1.7159809
14.136094165718458	2.9083707	1.7053946
14.153755292149969	2.8683875	1.6936314
14.171416756512416	2.7662513	1.6632051
14.189078559244768	2.706477	1.6451373
14.20674070078606	2.6308682	1.6219951
14.224403181575408	2.58819	1.6087853
14.242066002051999	2.5759075	1.6049634
14.259729162655093	2.53195	1.5912102
14.277392663824022	2.4703338	1.5717295
14.295056505998208	2.423548	1.5567749
14.312720689617128	2.404883	1.5507685
14.330385215120348	2.4037461	1.5504019
14.348050082947497	2.4024043	1.5499691
14.3657152935383	2.3834457	1.5438412
14.383380847332528	2.3723733	1.540251
14.401046744770051	2.340449	1.5298526
14.418712986290798	2.3507447	1.5332139
14.436379572334793	2.3752408	1.5411817
14.454046503342123	2.4278052	1.5581416
14.471713779752946	2.4460728	1.5639926
14.489381402007504	2.435901	1.5607373
14.507049370546113	2.3990667	1.5488921
14.524717685809168	2.4025626	1.5500202
14.542386348237134	2.4214325	1.5560952
14.560055358270553	2.4555483	1.5670189
14.577724716350051	2.4728324	1.5725242
14.595394422916325	2.4851182	1.5764258
14.61306447841015	2.535065	1.5921887
14.63073488327237	2.5761654	1.6050438
14.648405637943917	2.5839796	1.6074761
14.6660767428658	2.539727	1.5936521
14.683748198479094	2.5276306	1.5898523
14.701420005224954	2.5348322	1.5921156
14.719092163544628	2.6103678	1.6156633
14.73676467387942	2.6849356	1.6385773
14.754437536670727	2.7332268	1.6532474
14.772110752360014	2.7301488	1.6523162
14.78978432138882	2.6669285	1.6330733
14.807458244198777	2.6669507	1.6330801
14.82513252123159	2.668926	1.6336848
14.842807152929028	2.7150323	1.6477355
14.860482139732962	2.6901064	1.6401544
14.87815748208531	2.7010064	1.6434739
14.8958331804281	2.7212875	1.6496326
14.91350923520342	2.7308035	1.6525143
14.931185646853438	2.7390804	1.6550168
14.948862415820408	2.6930633	1.6410556
14.966539542546656	2.6895292	1.6399784
14.98421702747459	2.694291	1.6414295
15.001894871046696	2.6833982	1.6381081
15.019573073705542	2.7008939	1.6434397
15.037251635893766	2.6782713	1.6365424
15.054930558054092	2.7132397	1.6471914
15.072609840629323	2.7588449	1.6609771
15.090289484062351	2.8486779	1.6878027
15.107969488796124	3.1024132	1.7613668
15.125649855273691	3.5098438	1.8734577
15.14333058393817	4.0841837	2.0209363
15.161011675232768	5.124892	2.2638226
15.17869312960076	6.648501	2.5784688
15.196374947485506	8.647189	2.9406104
15.214057129330447	11.946715	3.456402
15.231739675579114	16.751137	4.0928154
15.249422586675102	21.69343	4.6576204
15.267105863062092	24.44865	4.9445577
15.284789505183847	24.3581	4.935393
15.302473513484218	22.197962	4.711471
15.320157888407127	18.696335	4.323926
15.337842630396578	14.558328	3.8155377
15.355527739896656	11.284088	3.3591797
15.37321321735153	8.606541	2.9336905
15.39089906320545	6.2009892	2.4901786
15.408585277902748	4.6740613	2.1619577
15.42627186188783	3.6591713	1.912896
15.443958815605198	3.1964972	1.787875
15.461646139499424	2.9446888	1.7160095
15.479333834015168	2.8641438	1.6923782
15.497021899597165	2.7765667	1.6663033
15.514710336690234	2.7014704	1.643615
15.53239914573928	2.61442	1.6169168
15.550088327189297	2.6200216	1.618648
15.567777881485336	2.5967739	1.6114509
15.58546780907256	2.5745487	1.60454
15.6031581103962	2.5345495	1.5920268
15.620848785901568	2.5134745	1.5853941
15.638539836034063	2.507652	1.5835568
15.656231261239173	2.4397378	1.5619661
15.673923061962451	2.419328	1.5554188
15.691615238649552	2.4184363	1.5551323
15.709307791746202	2.4124894	1.5532191
15.727000721698221	2.4241621	1.5569721
15.744694028951498	2.4335463	1.5599828
15.76238771395202	2.431179	1.5592239
15.780081777145844	2.4083483	1.5518854
15.797776218979125	2.396906	1.5481944
15.815471039898094	2.3927145	1.5468402
15.833166240349064	2.362908	1.5371753
15.850861820778437	2.3720987	1.5401618
15.868557781632699	2.4041505	1.5505323
15.886254123358412	2.432022	1.5594941
15.903950846402232	2.4005609	1.5493743
15.921647951210897	2.3559911	1.5349238
15.939345438231225	2.3398397	1.5296534
15.957043307910133	2.3635173	1.5373735
15.974741560694602	2.4095583	1.5522752
15.992440197031714	2.437531	1.5612594
16.01013921736862	2.4310994	1.5591984
16.02783862215259	2.420716	1.555865
16.045538411830933	2.4140837	1.5537322
16.06323858685107	2.3743193	1.5408826
16.080939147660512	2.3764064	1.5415597
16.09864009470684	2.3813465	1.5431612
16.11634142843774	2.4109538	1.5527246
16.134043149300954	2.4261513	1.5576108
16.15174525774433	2.4215245	1.5561248
16.169447754215817	2.464862	1.5699879
16.18715063916342	2.4742525	1.5729756
16.204853913035244	2.4797213	1.5747131
16.222557576279478	2.4188044	1.5552506
16.240261629344403	22.410427	4.7339654
16.257966072678386	42.96683	6.5549088
16.275670906729868	38.126957	6.174703
16.293376131947387	2.5752857	1.6047697
16.31108174877957	2.5690336	1.6028205
16.328787757675133	2.5453706	1.5954218
16.34649415908287	2.5479279	1.596223
16.364200953451657	2.608558	1.6151031
16.38190814123048	2.6641383	1.6322188
16.39961572286839	2.6708322	1.634268
16.41732369881455	2.6629627	1.6318587
16.43503206951817	2.6945586	1.6415111
16.45274083542859	2.7523003	1.6590058
16.47044999699522	2.8288066	1.6819056
16.488159554667558	2.878916	1.6967369
16.505869508895184	2.9054463	1.7045369
16.523579860127786	2.943529	1.7156715
16.541290608815117	2.9759324	1.7250891
16.559001755407035	3.056638	1.7483244
16.57671330035348	3.1075623	1.7628279
16.59442524410448	3.1908822	1.7863041
16.61213758711015	3.2259173	1.7960839
16.629850329820705	3.307078	1.8185372
16.647563472686436	3.368252	1.8352798
16.665277016157724	3.420335	1.8494148
16.682990960685053	3.45966	1.8600161
16.70070530671898	3.448296	1.8569589
16.718420054710155	3.4906213	1.8683205
16.736135205109335	3.5074766	1.8728259
16.753850758367335	3.5338004	1.8798405
16.771566714935087	3.5863657	1.8937702
16.789283075263597	3.6944778	1.9221025
16.80699983980398	3.8312914	1.9573685
16.82471700900741	3.9095178	1.9772501
16.84243458332518	3.939781	1.9848882
16.860152563208665	3.959251	1.9897866
16.87787094910932	4.019945	2.00498
16.89558974147871	4.080404	2.020001
16.913308940768466	4.1711326	2.042335
16.931028547430333	4.2282834	2.056279
16.94874856191613	4.291848	2.0716777
16.966468984677785	4.3542604	2.0866864
16.98418981616729	4.420344	2.1024613
17.00191105683676	4.454697	2.1106153
17.019632707138374	4.5174866	2.125438
17.03735476752442	4.598197	2.1443408
17.05507723844728	4.6295724	2.1516442
17.072800120359403	4.629611	2.151653
17.090523413713353	4.6523714	2.1569357
17.108247118961785	4.700656	2.1680996
17.125971236557437	4.7445817	2.178206
17.143695766953133	4.785414	2.187559
17.161420710601806	4.80151	2.1912348
17.179146067956477	4.763483	2.1825404
17.19687183947025	4.7677197	2.1835108
17.21459802559634	4.714531	2.171297
17.232324626788028	4.6929927	2.1663315
17.25005164349871	4.646081	2.155477
17.267779076181863	4.6169767	2.148715
17.285506925291074	4.6393957	2.1539257
17.30323519127999	4.661806	2.1591215
17.320963874602384	4.6638155	2.159587
17.33869297571211	4.607034	2.1464002
17.356422495063114	4.6154575	2.1483617
17.37415243310944	4.6439066	2.1549726
17.391882790305218	4.6329494	2.1524286
17.40961356710468	4.5747027	2.1388555
17.42734476396215	4.552347	2.1336231
17.445076381332044	4.5644207	2.1364505
17.462808419668868	4.635015	2.1529086
17.48054087942723	4.7647004	2.1828194
17.498273761061835	5.1097074	2.260466
17.51600706502747	5.659215	2.3789105
17.533740791779024	6.498731	2.5492609
17.551474941771485	8.0710535	2.84096
17.56920951545993	9.278699	3.0460956
17.586944513299528	11.478273	3.38796
17.60467993574556	13.201382	3.6333706
17.622415783253373	14.80694	3.8479786
17.64015205627843	16.170681	4.0212784
17.657888755276293	17.089378	4.13393
17.675625880702604	17.46466	4.1790743
17.69336343301311	17.327547	4.162637
17.71110141266366	16.663504	4.0820956
17.728839820110178	15.8571825	3.9821079
17.746578655808705	14.996072	3.872476
17.764317920215372	13.376409	3.6573772
17.7820576137864	11.525974	3.3949926
17.79979773697811	9.224082	3.0371175
17.81753829024692	7.248432	2.6922913
17.835279274049356	5.615145	2.3696299
17.85302068884201	4.6505027	2.1565025
17.870762535081607	4.0657115	2.016361
17.888504813224934	3.8386424	1.9592453
17.90624752372891	3.7678092	1.9410845
17.923990667050536	3.7204688	1.9288517
17.941734243646895	3.648151	1.9100133
17.959478253975185	3.608201	1.8995265
17.9772226984927	3.5828695	1.892847
17.994967577656833	3.5530055	1.8849418
18.01271289192506	3.4958518	1.8697197
18.030458641754965	3.4367537	1.8538483
18.04820482760425	3.3892343	1.8409873
18.06595144993067	3.373073	1.8365928
18.083698509192125	3.3419676	1.828105
18.101446005846576	3.3254302	1.8235762
18.119193940352105	3.285082	1.8124795
18.136942313166887	3.2344418	1.7984554
18.1546911247492	3.1987114	1.7884942
18.1724403755574	3.1845593	1.7845334
18.19019006604997	3.1556635	1.7764187
18.207940196685467	3.152366	1.7754903
18.225690767922575	3.1616828	1.7781122
18.243441780220046	3.167068	1.7796258
18.261193234036764	3.1167066	1.7654197
18.278945129831676	3.0922158	1.7584697
18.29669746806386	3.0999558	1.7606691
18.314450249192483	3.1431139	1.7728829
18.3322034736768	3.1362634	1.7709498
18.349957141976184	3.085197	1.7564728
18.3677112545501	3.0630627	1.7501608
18.385465811858108	3.0781975	1.7544793
18.403220814359884	3.1221669	1.7669654
18.420976262515172	3.13203	1.7697542
18.43873215678387	3.1229851	1.767197
18.456488497625923	3.1243556	1.7675847
18.474245285501407	3.2675586	1.807639
18.492002520870486	3.3505318	1.8304458
18.50976020419343	3.4485943	1.8570391
18.527518335930615	3.7110984	1.9264212
18.545276916542516	4.3157516	2.0774386
18.563035946489688	4.480905	2.1168149
18.580795426232832	4.975047	2.2304814
18.598555356232698	4.8665566	2.2060273
18.616315736950185	5.219477	2.2846174
18.63407656884626	4.821537	2.1957998
18.65183785238201	4.9789886	2.2313647
18.669599588018617	4.7301426	2.174889
18.68736177621737	4.7389836	2.1769207
18.705124417439652	4.73326	2.1756058
18.72288751214696	4.5300827	2.1283991
18.740651060800886	4.6741476	2.1619778
18.758415063863115	4.3780093	2.0923693
18.77617952179546	4.6018767	2.1451986
18.793944435059814	4.3118258	2.0764935
18.811709804118184	4.311724	2.0764692
18.829475629432675	4.2729187	2.0671039
18.8472419114655	4.101811	2.0252929
18.86500865067897	4.217697	2.0537033
18.88277584753551	3.8779373	1.9692479
18.90054350249763	3.8854878	1.9711641
18.918311616027957	3.5352986	1.880239
18.936080188589226	3.4056506	1.8454405
18.953849220644265	3.060147	1.7493275
18.971618712656007	2.8851252	1.6985656
18.9893886650875	2.8168716	1.6783539
19.007159078401887	7.967235	2.8226292
19.024929953062408	32.837376	5.7303905
19.042701289532435	32.80078	5.7271967
19.060473088275405	25.37709	5.037568
19.07824534975489	2.6639805	1.6321704
19.096018074434568	2.666466	1.6329317
19.113791262778197	2.6507492	1.6281122
19.13156491524966	2.634136	1.6230022
19.149339032312945	2.6199214	1.6186172
19.167113614432136	2.6253414	1.6202905
19.184888662071433	2.589878	1.6093098
19.202664175695123	2.5513911	1.5973074
19.220440155767623	2.5844262	1.6076151
19.238216602753447	2.5979884	1.6118276
19.2559935171172	2.609116	1.6152759
19.27377089932361	2.5769925	1.6053014
19.291548749837514	2.5294652	1.5904293
19.309327069123835	2.512598	1.5851177
19.32710585764763	2.5289931	1.5902809
19.344885115874032	2.5207171	1.5876766
19.362664844268313	2.535541	1.5923382
19.380445043295822	2.542176	1.5944203
19.39822571342203	2.570604	1.6033103
19.41600685511252	2.5754607	1.6048242
19.43378846883297	2.5393102	1.5935214
19.451570555049173	2.5055375	1.582889
19.469353114227037	2.514858	1.5858303
19.48713614683254	2.494998	1.5795562
19.50491965333182	2.4740486	1.5729109
19.52270363419109	2.459839	1.5683874
19.540488089876686	2.5092123	1.5840493
19.55827302085503	2.5399756	1.5937301
19.576058427592674	2.5777936	1.6055509
19.593844310556282	2.5510895	1.597213
19.611630670212598	2.494902	1.5795258
19.629417507028506	2.4428017	1.5629464
19.64720482147098	2.4620857	1.5691035
19.6649926140071	2.4701889	1.5716834
19.682780885104084	2.4930518	1.57894
19.70056963522921	2.4764493	1.5736738
19.718358864849908	2.5132377	1.5853194
19.7361485744337	2.5105963	1.5844861
19.753938764448215	2.5265687	1.5895184
19.771729435361202	2.5281975	1.5900307
19.789520587640506	2.5171149	1.5865418
19.807312221754092	2.4898677	1.5779314
19.825104338170043	2.4890914	1.5776855
19.842896937356517	2.54505	1.5953213
19.860690019781824	2.5799491	1.606222
19.87848358591436	2.5898013	1.609286
19.896277636222635	2.5600379	1.6000118
19.914072171175278	2.5321891	1.5912853
19.931867191241015	2.5076644	1.5835607
19.94966269688869	2.4752738	1.5733004
19.967458688587264	2.4625878	1.5692635
19.985255166805807	2.4486525	1.5648171
20.00305213201348	2.448134	1.5646514
20.020849584679578	2.4615333	1.5689274
20.038647525273507	2.4696734	1.5715195
20.05644595426477	2.4498308	1.5651935
20.07424487212299	2.4494188	1.5650619
20.092044279317903	2.434199	1.560192
20.109844176319353	2.406033	1.5511392
20.127644563597304	2.3796413	1.5426086
20.145445441621817	2.3844643	1.5441711
20.16324681086307	2.4262335	1.5576372
20.181048671791373	2.4248748	1.5572009
20.198851024877122	2.4175076	1.5548337
20.216653870590836	2.411608	1.5529352
20.234457209403146	2.4041166	1.5505214
20.252261041784802	2.397679	1.548444
20.270065368206662	2.3631775	1.537263
20.287870189139685	2.4039848	1.5504789
20.305675505054968	2.4256709	1.5574565
20.323481316423702	2.4299905	1.5588427
20.341287623717207	2.384679	1.5442406
20.359094427406884	2.389034	1.54565
20.376901727964288	2.4266083	1.5577575
20.39470952586107	2.4402702	1.5621364
20.41251782156899	2.423296	1.5566939
20.430326615559935	2.3941228	1.5472953
20.448135908305886	2.3860126	1.5446724
20.465945700278965	2.3486538	1.5325319
20.483755991951384	2.361888	1.5368435
20.50156678379548	2.3470452	1.5320069
20.519378076283708	2.3644795	1.5376865
20.537189869888635	2.3668203	1.5384474
20.55500216508294	2.3322818	1.527181
20.572814962339415	2.344724	1.5312492
20.59062826213098	2.3642437	1.5376097
20.60844206493066	2.3718286	1.5400742
20.626256371211593	2.350481	1.5331279
20.644071181447032	2.346057	1.5316844
20.66188649611036	2.3413308	1.5301408
20.67970231567506	2.3420937	1.53039
20.697518640614742	2.3668609	1.5384605
20.715335471403122	2.3733091	1.5405548
20.73315280851404	2.3735852	1.5406444
20.750970652421447	2.3343587	1.5278609
20.768789003599412	2.3544297	1.5344151
20.786607862522136	2.3402505	1.5297878
20.8044272296639	2.3565867	1.5351179
20.82224710549913	2.3352978	1.5281681
20.84006749050237	2.342619	1.5305617
20.857888385148268	3.916507	1.9790167
20.8757097899116	46.030296	6.784563
20.893531705267254	64.834366	8.051979
20.911354131690224	83.806015	9.154563
20.92917706965566	69.08603	8.311801
20.94700051963877	50.149723	7.081647
20.96482448211493	29.429995	5.424942
20.982648957559622	4.183158	2.0452769
21.00047394644843	2.2861292	1.5119951
21.01829944925707	2.264879	1.5049515
21.036125466461375	2.2456882	1.4985621
21.053951998537297	2.2379549	1.4959795
21.071779045960906	2.2363951	1.4954581
21.089606609208378	2.249052	1.499684
21.10743468875603	2.2395475	1.4965118
21.12526328508028	2.2375245	1.4958358
21.143092398657675	2.2326305	1.4941989
21.16092202996488	2.2513456	1.5004485
21.17875217947867	2.238196	1.4960601
21.19658284767596	2.2319992	1.4939877
21.21441403503377	2.212367	1.4874028
21.232245742029225	2.1784878	1.4759701
21.2500779691396	2.1717684	1.473692
21.26791071684227	2.1591806	1.4694151
21.28574398561475	2.163192	1.4707794
21.30357777593465	2.1412883	1.4633142
21.321412088279704	2.1666756	1.4719632
21.339246923127792	2.1694963	1.472921
21.357082280956888	2.1611712	1.4700923
21.3749181622451	2.1355946	1.4613674
21.392754567470647	2.118492	1.455504
21.41059149711187	2.1212366	1.4564465
21.42842895164726	2.1281753	1.4588267
21.446266931555378	2.1598094	1.4696289
21.464105437314945	2.163989	1.4710504
21.481944469404798	2.186249	1.4785969
21.49978402830388	2.1895716	1.4797201
21.51762411449127	2.1702528	1.4731778
21.53546472844617	2.1497679	1.4662087
21.553305870647876	2.1568165	1.4686104
21.571147541575865	2.1720903	1.4738013
21.58898974170967	2.1665833	1.4719318
21.60683247152899	2.0954492	1.4475666
21.62467573151363	2.0458791	1.4303423
21.642519522143523	2.0321996	1.4255524
21.660363843898722	2.0667236	1.4376104
21.6782086972594	2.0851004	1.4439877
21.696054082705864	2.1130607	1.4536371
21.713900000718535	2.1130514	1.4536339
21.73174645177795	2.1225488	1.456897
21.749593436364794	2.1100583	1.4526039
21.767440954959845	2.0937116	1.4469663
21.785289008044032	2.0734875	1.439961
21.803137596098388	2.0552368	1.4336097
21.820986719604086	2.0595524	1.435114
21.838836379042412	2.0573843	1.4343585
21.85668657489478	2.0245419	1.422864
21.87453730764273	2.033663	1.4260656
21.892388577767914	2.0418959	1.4289492
21.91024038575213	2.0465295	1.4305696
21.928092732077285	2.033713	1.4260831
21.945945617225426	2.0363133	1.4269944
21.963799041678694	2.0293236	1.4245433
21.981653005919398	31.344816	5.5986443
21.999507510429943	78.14696	8.840076
22.01736255569286	73.10029	8.5498705
22.035218142190818	4.1806035	2.0446525
22.05307427040661	2.0179026	1.420529
22.07093094082315	2.0270917	1.4237597
22.088788153923474	2.054814	1.4334623
22.106645910190746	1.9974815	1.4133228
22.12450421010827	2.0134997	1.4189785
22.142363054159464	2.0063996	1.4164743
22.16022244282787	1.9919713	1.4113721
22.178082376597164	1.9312483	1.3896936
22.195942855951145	1.9059033	1.3805445
22.213803881373742	1.9369639	1.3917485
22.231665453349002	2.0049608	1.4159664
22.24952757236111	2.0461032	1.4304206
22.26739023889438	2.0251756	1.4230866
22.28525345343323	1.9739527	1.4049742
22.30311721646225	1.9834583	1.4083531
22.320981528466113	1.9934982	1.4119129
22.33884638992964	2.0068314	1.4166268
22.356711801337788	1.9585027	1.3994651
22.37457776317561	1.9526874	1.397386
22.392444275928337	1.9426107	1.3937757
22.410311340081282	1.9704721	1.403735
22.428178956119904	2.0069554	1.4166706
22.446047124529805	2.026263	1.4234687
22.46391584579669	2.0038261	1.4155656
22.481785120406414	1.9868139	1.4095439
22.49965494884496	1.9849164	1.4088706
22.51752533159841	1.9807657	1.4073968
22.53539626915302	2.0029829	1.4152678
22.553267761995137	2.0042436	1.4157131
22.571139810611264	1.9868562	1.4095589
22.589012415488025	1.9728922	1.4045968
22.60688557711216	1.9480755	1.3957348
22.624759295970566	1.9296528	1.3891194
22.642633572550263	1.9209862	1.3859965
22.660508407338362	1.9507724	1.3967005
22.67838380082217	1.9540228	1.3978636
22.696259753489077	1.95026	1.3965172
22.714136265826614	1.9154431	1.3839953
22.73201333832246	1.9024237	1.3792838
22.74989097146439	1.9230793	1.3867513
22.76776916574035	1.9358326	1.391342
22.785647921638393	1.9440415	1.3942889
22.803527239646712	1.9223671	1.3864945
22.82140712025363	1.9235712	1.3869287
22.839287563947593	1.9060006	1.3805798
22.85716857121719	1.9273182	1.3882788
22.875050142551135	1.9201168	1.3856828
22.892932278438277	1.9277747	1.3884432
22.910814979367604	1.9164711	1.3843666
22.928698245828222	1.9493706	1.3961986
22.946582078309387	1.9550127	1.3982177
22.96446647730047	1.9434521	1.3940775
22.98235144329098	1.9141417	1.3835251
23.000236976770562	1.9308993	1.389568
23.018123078229	1.929772	1.3891623
23.03600974815619	1.9098475	1.3819723
23.053896987042194	1.8871708	1.3737433
23.071784795377173	1.8926739	1.3757448
23.08967317365145	1.877657	1.3702762
23.10756212235546	1.9466453	1.3952223
23.125451641979787	1.9705898	1.403777
23.143341733015134	2.0112207	1.4181751
23.161232395952357	1.9664742	1.4023103
23.179123631282426	1.9116263	1.3826158
23.197015439496468	1.8687488	1.3670219
23.214907821085717	1.8955979	1.3768071
23.23280077654157	1.9088771	1.3816212
23.250694306355538	1.9199588	1.3856258
23.268588411019277	1.8962364	1.377039
23.28648309102458	1.9253911	1.3875846
23.304378346863356	1.9477795	1.3956287
23.322274179027676	1.9424713	1.3937256
23.340170588009723	1.9142148	1.3835515
23.358067574301852	1.910905	1.3823549
23.37596513839651	1.930959	1.3895895
23.39386328078629	1.9520843	1.3971701
23.411762001963947	1.9338169	1.3906175
23.429661302422353	1.9162408	1.3842835
23.4475611826545	1.9257389	1.38771
23.46546164315356	1.943496	1.3940933
23.48336268441279	1.9509401	1.3967606
23.501264306925638	1.9666435	1.4023707
23.51916651118564	1.9314089	1.3897513
23.537069297686497	1.9221275	1.3864081
23.554972666922037	1.8821089	1.3718997
23.57287661938623	1.8977933	1.3776041
23.59078115557318	1.9419287	1.3935311
23.608686275977128	1.979695	1.4070163
23.62659198109246	1.986531	1.4094435
23.6444982714137	1.97685	1.406005
23.66240514743549	1.931079	1.3896327
23.68031260965263	1.9158974	1.3841594
23.698220658560068	1.8801694	1.3711927
23.716129294652845	1.8832039	1.3722987
23.7340385184262	1.90326	1.3795869
23.75194833037546	1.8821934	1.3719306
23.769858730996123	1.8779751	1.3703923
23.78776972078382	1.902723	1.3793923
23.80568130023431	1.9417098	1.3934524
23.823593469843495	1.9175748	1.3847653
23.841506230107424	1.8920519	1.3755188
23.859419581522275	1.88595	1.3732989
23.87733352458438	1.8890465	1.3744259
23.89524805979019	1.9403462	1.3929632
23.913163187636318	1.9400954	1.392873
23.931078908619508	1.9374061	1.3919073
23.948995223236633	1.9374535	1.3919244
23.966912131984735	1.9758028	1.4056325
23.98482963536096	1.9919351	1.4113593
24.002747733862616	2.0002227	1.4142923
24.020666427987155	1.989006	1.4103212
24.038585718232156	2.009931	1.4177204
24.056505605095353	2.031355	1.4252561
24.074426089074617	2.0682995	1.4381584
24.092347170667946	2.0574853	1.4343938
24.110268850373515	2.0492558	1.4315223
24.128191128689586	2.0638049	1.4365948
24.146114006114626	2.069501	1.438576
24.164037483147187	2.0494018	1.4315732
24.181961560286005	2.0180938	1.4205962
24.199886238029926	2.0301363	1.4248285
24.21781151687797	2.0525563	1.4326745
24.235737397329274	2.042513	1.4291651
24.253663879883135	2.0441494	1.4297376
24.271590965038975	2.0677161	1.4379555
24.289518653296376	2.072529	1.4396281
24.30744694515505	2.0764596	1.4409926
24.32537584111486	2.0805752	1.4424199
24.34330534167581	2.0665042	1.4375341
24.361235447338046	2.06046	1.4354303
24.379166158601876	2.0088007	1.4173217
24.39709747596772	1.9816408	1.4077077
24.41502939993615	1.9814074	1.4076247
24.432961931007917	1.9893304	1.4104363
24.450895069683856	2.0064485	1.4164916
24.468828816465	1.9934431	1.4118935
24.4867631718525	1.9596994	1.3998927
24.504698136347656	1.9400672	1.3928629
24.52263371045192	1.9602982	1.4001064
24.540569894666874	2.0039396	1.4156058
24.558506689494266	1.97424	1.4050765
24.57644409543597	1.9872398	1.4096949
24.594382112994012	1.9991055	1.4138973
24.61232074267057	2.0110953	1.4181309
24.630259984967953	1.9890381	1.4103327
24.64819984038863	2.032745	1.4257436
24.66614030943522	2.0562801	1.4339736
24.684081392610462	2.0360656	1.4269077
24.702023090417274	1.9831966	1.4082601
24.7199654033587	1.9962046	1.412871
24.737908331937927	1.9857571	1.409169
24.755851876658305	1.9955729	1.4126475
24.773796038023324	2.0504355	1.4319342
24.79174081653661	2.0819764	1.4429055
24.809686212701962	2.110398	1.4527209
24.827632227023294	2.122538	1.4568933
24.8455788600047	2.1172538	1.4550786
24.8635261121504	2.093513	1.4468977
24.88147398396475	2.0742593	1.4402289
24.899422475952303	2.132094	1.4601691
24.917371588617698	2.190896	1.4801676
24.935321322465768	2.241845	1.4972792
24.953271678001478	2.3571272	1.5352938
24.97122265572994	2.5877721	1.6086553
24.989174256156414	2.9681869	1.7228427
25.00712647978632	3.397675	1.8432783
25.02507932712521	3.9426463	1.9856098
25.043032798678798	4.4205256	2.1025045
25.060986894952933	5.1165233	2.2619734
25.078941616453637	5.9273973	2.4346247
25.096896963687055	6.9267235	2.631867
25.114852937159508	8.061718	2.8393164
25.132809537377444	8.385663	2.8958008
25.150766764847468	8.339147	2.887758
25.168724620076347	7.5541396	2.7484796
25.186683103570985	6.390443	2.5279324
25.204642215838426	5.125422	2.2639394
25.222601957385894	3.8688407	1.9669368
25.24056232872074	3.0278368	1.7400681
25.25852333035048	2.5526454	1.5977
25.276484962782778	2.2388716	1.4962859
25.294447226525435	2.0945191	1.4472454
25.312410122086423	1.9882852	1.4100657
25.330373649973843	1.9480745	1.3957344
25.348337810695988	1.9506046	1.3966404
25.366302604761245	1.9619738	1.4007047
25.384268032678207	1.9385675	1.3923244
25.40223409495558	1.9271759	1.3882276
25.420200792102257	1.932844	1.3902676
25.438168124627246	1.9466356	1.3952188
25.45613609303974	1.9715099	1.4041047
25.474104697849057	1.9626211	1.4009358
25.492073939564698	1.9104016	1.3821728
25.510043818696285	1.8708538	1.3677915
25.528014335753614	1.8834674	1.3723948
25.54598549124664	1.8489841	1.3597735
25.56395728568544	1.8308891	1.3531035
25.58192971958028	1.8458437	1.3586183
25.59990279344156	1.9105215	1.3822162
25.617876507779833	1.9206039	1.3858585
25.635850863105826	1.8815198	1.371685
25.653825859930386	1.8358701	1.3549428
25.671801498764548	1.8265413	1.351496
25.68977778011949	1.8643388	1.365408
25.707754704506524	1.8644581	1.3654516
25.725732272437153	1.8714557	1.3680116
25.743710484423012	1.8435127	1.3577602
25.761689340975888	1.8042775	1.343234
25.77966884260774	1.7994777	1.3414462
25.797648989830662	1.8359073	1.3549566
25.815629783156922	1.8674254	1.3665378
25.83361122309895	1.8672688	1.3664805
25.85159331016929	1.8405249	1.3566594
25.869576044880695	1.8526464	1.3611195
25.887559427746034	1.855688	1.3622364
25.90554345927836	1.8888309	1.3743474
25.92352813999086	1.8627979	1.3648435
25.94151347039689	1.8773551	1.3701661
25.959499451009965	1.8771007	1.3700732
25.97748608234374	1.866706	1.3662745
25.995473364912062	1.8505529	1.3603503
26.013461299228904	1.8464637	1.3588464
26.03144988580839	1.8088192	1.3449235
26.04943912516483	1.7900766	1.3379375
26.067429017812675	1.8549196	1.3619543
26.085419564266537	1.9144282	1.3836286
26.103410765041186	1.8854449	1.3731151
26.12140262065155	1.8378972	1.3556907
26.139395131612723	1.7796822	1.3340473
26.157388298439948	1.7805725	1.334381
26.17538212164861	1.7655472	1.3287389
26.193376601754295	1.8073881	1.3443913
26.211371739272714	1.8553785	1.3621228
26.229367534719746	1.830726	1.3530432
26.247363988611433	1.813716	1.3467427
26.26536110146397	1.84208	1.3572325
26.283358873793727	1.8909916	1.3751333
26.301357306117204	1.9110351	1.382402
26.319356398951104	1.885704	1.3732094
26.33735615281224	1.879773	1.3710481
26.35535656821762	1.9003955	1.3785484
26.373357645684404	1.8890107	1.3744129
26.39135938572991	1.8250715	1.350952
26.409361788871614	1.7550057	1.3247663
26.427364855627165	1.7848629	1.3359876
26.445368586514352	1.8071351	1.3442973
26.46337298205115	1.8524402	1.3610438
26.48137804275568	1.830045	1.3527915
26.499383769146217	1.8443211	1.3580579
26.517390161741215	1.8556477	1.3622216
26.53539722105928	1.8435347	1.3577683
26.553404947619182	1.8680812	1.3667777
26.571413341939856	1.8837649	1.3725032
26.589422404540397	1.9015899	1.3789815
26.60743213594006	1.8541228	1.3616618
26.62544253665827	1.859793	1.3637422
26.64345360721459	1.821138	1.3494954
26.66146534812879	1.8092526	1.3450847
26.679477759920758	1.8337643	1.3541656
26.69749084311057	1.842538	1.3574013
26.71550459821847	1.8459853	1.3586705
26.733519025764842	1.8420295	1.3572139
26.751534126270258	1.8459773	1.3586675
26.769549900255434	1.8663348	1.3661387
26.787566348241267	1.8512905	1.3606213
26.80558347074881	1.8323445	1.3536413
26.823601268299267	1.7924052	1.3388073
26.841619741414036	1.7862025	1.3364888
26.85963889061465	1.7853479	1.3361691
26.877658716422832	1.8115098	1.3459234
26.89567921936045	1.8209844	1.3494385
26.913700399949544	1.8307437	1.3530498
26.93172225871233	1.8412797	1.3569376
26.949744796171174	1.8780514	1.3704201
26.967768012848605	1.8879447	1.374025
26.98579190926733	1.8537823	1.3615367
27.003816485950225	1.8278809	1.3519914
27.021841743420318	1.8164603	1.3477612
27.039867682200814	1.80758	1.3444628
27.057894302815072	1.8467506	1.358952
27.07592160578664	1.8567319	1.3626195
27.0939495916392	1.8756937	1.3695596
27.111978260896635	1.8832501	1.3723156
27.13000761408296	1.8554033	1.362132
27.148037651722397	1.8648856	1.3656081
27.166068374339304	1.9162127	1.3842733
27.184099782458215	1.8661097	1.3660563
27.20213187660384	1.8380811	1.3557585
27.22016465730105	1.8113539	1.3458655
27.23819812507487	1.8295898	1.3526233
27.256232280450533	1.8526068	1.361105
27.274267123953383	1.8537548	1.3615266
27.292302656108987	1.8082595	1.3447154
27.31033887744306	1.7786843	1.3336732
27.32837578848146	1.827304	1.3517781
27.34641338975026	1.8666005	1.3662359
27.364451681775673	1.8581176	1.3631278
27.382490665084074	1.8316094	1.3533696
27.400530340202046	1.8124764	1.3462825
27.41857070765629	1.8664873	1.3661945
27.436611767973726	1.8823876	1.3720013
27.454653521681404	1.886539	1.3735133
27.472695969306564	1.8533816	1.3613896
27.490739111376627	1.8132262	1.3465608
27.508782948419153	1.7785821	1.333635
27.526827480961902	1.7520149	1.323637
27.54487270953279	1.7773607	1.333177
27.562918634659898	1.8044857	1.3433114
27.580965256871508	1.7979815	1.3408884
27.599012576696026	1.7333512	1.316568
27.617060594662068	1.7492572	1.3225949
27.63510931129842	1.7894938	1.3377197
27.65315872713401	1.8009574	1.3419975
27.67120884269797	1.8130426	1.3464928
27.68925965851958	1.8247494	1.3508328
27.707311175128307	1.8257347	1.3511975
27.725363393053787	1.7856466	1.3362808
27.74341631282583	1.8073683	1.344384
27.7614699349744	1.8454678	1.35848
27.77952426002968	2.0333784	1.4259658
27.797579288521973	2.1559336	1.4683098
27.815635020981784	2.6682868	1.6334891
27.83369145793979	2.7665985	1.6633095
27.85174859992682	2.551066	1.5972056
27.869806447473923	2.3703067	1.5395801
27.887865001112267	2.048192	1.4311506
27.905924261373233	1.9734331	1.4047893
27.92398422878836	1.9139569	1.3834583
27.94204490388936	1.8575499	1.3629196
27.96010628720813	1.8376045	1.3555827
27.978168379276728	1.8614062	1.3643336
27.9962311806274	1.8547332	1.3618859
28.014294691792568	1.8511437	1.3605675
28.0323589133048	1.8834584	1.3723915
28.050423845696887	1.8716081	1.3680673
28.068489489501758	1.8210322	1.3494562
28.086555845252523	1.8489088	1.3597459
28.104622913482487	1.8713298	1.3679656
28.122690694725115	1.8896601	1.374649
28.14075918951405	1.8961397	1.3770039
28.15882839838312	1.9216249	1.3862269
28.176898321866304	1.8824818	1.3720356
28.1949689604978	1.864533	1.365479
28.213040314811945	1.8809148	1.3714645
28.23111238534327	1.9316901	1.3898525
28.249185172626493	1.9375818	1.3919705
28.267258677196473	1.8722316	1.3682952
28.285332899588294	1.8899659	1.3747603
28.303407840337172	1.9595644	1.3998444
28.321483499978545	1.9574797	1.3990996
28.33955987904799	1.9487809	1.3959874
28.357636978081285	1.9410809	1.3932269
28.37571479761439	1.9328731	1.3902781
28.393793338183425	1.9389564	1.3924642
28.41187260032469	1.9292462	1.3889731
28.429952584574686	1.9087092	1.3815604
28.448033291470065	1.8651716	1.3657129
28.46611472154769	1.8664572	1.3661834
28.484196875344566	1.9278529	1.3884714
28.502279753397914	1.969696	1.4034586
28.52036335624511	1.9984657	1.413671
28.538447684423716	2.0288613	1.424381
28.556532738471482	2.0531163	1.4328699
28.574618518926325	2.0368974	1.4271991
28.59270502632635	2.064635	1.4368838
28.61079226120985	2.0722303	1.4395243
28.628880224115274	2.0733335	1.4399074
28.646968915581287	2.0379465	1.4275666
28.66505833614671	2.0682244	1.4381323
28.68314848635055	2.116947	1.4549732
28.701239366732004	2.0816827	1.4428037
28.71933097783044	2.0927594	1.4466373
28.737423320185403	2.1254735	1.4579004
28.75551639433665	2.1501002	1.4663221
28.773610200824074	2.1070669	1.451574
28.791704740187793	2.1472342	1.4653444
28.80980001296809	2.1929011	1.4808447
28.827896019705413	2.1828175	1.4774361
28.845992760940433	2.132438	1.460287
28.86409023721397	2.1145608	1.454153
28.88218844906704	2.1655397	1.4715773
28.900287397040845	2.2297802	1.4932449
28.918387081676755	2.2227826	1.4908999
28.936487503516343	2.3013906	1.5170335
28.954588663101365	2.3715112	1.5399712
28.97269056097374	2.390045	1.545977
28.990793197675597	2.3521833	1.533683
29.00889657374923	2.339256	1.5294627
29.027000689737125	2.3510728	1.5333208
29.04510554618196	2.4032955	1.5502566
29.06321114362659	2.4512498	1.5656468
29.08131748261405	2.4194894	1.5554708
29.099424563687567	2.4808393	1.575068
29.11753238739057	2.5575805	1.5992438
29.13564095426663	2.5843065	1.6075778
29.15375026485954	2.587844	1.6086776
29.171860319713275	2.6133845	1.6165966
29.18997111937199	2.663188	1.6319277
29.20808266438002	2.7372122	1.6544522
29.226194955281898	2.7807295	1.667552
29.244307992622335	2.7999	1.6732901
29.26242177694624	2.8477159	1.6875176
29.2805363087987	2.923216	1.7097415
29.29865158872498	2.925024	1.7102702
29.316767617270557	2.8974202	1.702181
29.334884394981064	2.9388814	1.7143166
29.353001922402367	2.949451	1.7173966
29.37112020008047	3.0627785	1.7500795
29.389239228561596	3.26243	1.8062198
29.407359008392152	3.5088952	1.8732045
29.42547954011872	3.9185545	1.9795339
29.44360082428809	4.6662045	2.1601398
29.46172286144722	5.9151373	2.4321055
29.479845652143283	7.6621017	2.7680502
29.497969196923606	9.884448	3.1439543
29.516093496335728	12.505149	3.536262
29.5342185509274	15.220735	3.901376
29.55234436124651	17.01454	4.1248684
29.570470927841175	17.893572	4.2300797
29.588598251259686	17.510063	4.1845026
29.60672633205055	16.130117	4.0162315
29.624855170762405	13.758948	3.7093055
29.642984767944146	10.81107	3.2880192
29.66111512414481	8.116144	2.8488848
29.67924623991366	6.036007	2.4568286
29.697378115800138	4.7340846	2.175795
29.71551075235387	3.9524844	1.9880856
29.733644150124675	3.5922208	1.8953155
29.751778309662576	3.4619465	1.8606306
29.769913231517766	3.3772585	1.837732
29.78804891624066	3.3609645	1.8332933
29.806185364381818	3.2881863	1.8133357
29.82432257649206	3.1966124	1.7879072
29.842460553122333	3.2104099	1.7917616
29.86059929482382	3.3834136	1.8394058
29.878738802147872	3.4041893	1.8450445
29.896879075646048	3.315593	1.820877
29.915020115870114	3.3161397	1.821027
29.933161923371976	3.2968214	1.8157151
29.951304498703777	3.3375773	1.8269037
29.969447842417857	3.3145008	1.820577
29.987591955066733	3.2917802	1.8143264
30.005736837203123	3.2926786	1.8145739
30.023882489379943	3.2486715	1.8024071
30.04202891215028	3.1784582	1.7828231
30.060176106067455	3.268327	1.8078514
30.078324071684946	3.26923	1.8081012
30.09647280955646	3.2184048	1.7939913
30.114622320235863	3.1422641	1.7726432
30.132772604277257	3.1543684	1.7760541
30.1509236622349	3.2060158	1.7905351
30.16907549466328	3.2013788	1.7892398
30.18722810211705	3.1566224	1.7766886
30.205381485151097	3.086295	1.7567854
30.22353564432045	3.0108259	1.7351731
30.241690580180403	2.994835	1.7305591
30.25984629328638	3.079312	1.7547969
30.278002784194037	3.141938	1.7725513
30.296160053459246	3.0762763	1.7539316
30.314318101638033	3.0657344	1.7509239
30.332476929286646	3.0834756	1.7559828
30.35063653696153	3.0285606	1.740276
30.368796925219307	2.9485564	1.7171361
30.386958094616844	2.8770761	1.6961946
30.40512004571115	2.8494961	1.688045
30.423282779059463	2.90915	1.705623
30.441446295219233	2.947907	1.716947
30.459610594748067	2.9420094	1.7152287
30.47777567820382	2.9022582	1.7036015
30.495941546144504	2.8724678	1.6948357
30.51410819912835	2.8503737	1.688305
30.532275637713795	2.8350084	1.6837484
30.55044386245946	2.884761	1.6984584
30.56861287392416	2.9035604	1.7039837
30.586782672666956	2.8859003	1.6987938
30.604953259247047	2.8626554	1.6919384
30.623124634223885	2.8070948	1.6754386
30.641296798157075	2.8206866	1.67949
30.659469751606462	2.851857	1.6887442
30.677643495132074	2.846436	1.6871384
30.695818029294152	2.808628	1.6758962
30.713993354653116	2.795692	1.6720322
30.73216947176962	2.7479262	1.6576871
30.75034638120448	2.6923053	1.6408246
30.768524083518756	2.6813095	1.6374705
30.786702579273673	2.7289097	1.6519412
30.80488186903069	2.8281891	1.681722
30.82306195335144	2.9369252	1.713746
30.841242832797782	3.1420174	1.7725737
30.85942450793176	3.4535031	1.8583603
30.877606979315637	3.860022	1.9646939
30.895790247511883	4.2402434	2.059185
30.913974313083134	4.545033	2.1319082
30.932159176592283	4.807554	2.1926134
30.95034483860237	4.8071456	2.1925204
30.968531299676698	4.5899277	2.1424117
30.98671856037873	4.126667	2.03142
31.00490662127215	3.7799277	1.9442036
31.023095482920848	3.448238	1.8569431
31.04128514588892	3.0444016	1.7448214
31.059475610740662	2.6938574	1.6412975
31.07766687804056	2.5543687	1.5982393
31.09585894835335	2.5477777	1.5961759
31.11405182224393	2.5262816	1.5894281
31.132245500277417	2.5057647	1.5829607
31.15043998301914	2.4789178	1.574458
31.168635271034628	2.5190876	1.5871633
31.18683136488964	2.4985487	1.5806799
31.20502826515008	2.419748	1.5555539
31.223225972382135	2.3520854	1.533651
31.241424487152155	2.3715448	1.5399821
31.259623810026692	2.47988	1.5747635
31.27782394157253	2.5289285	1.5902605
31.296024882356644	2.4618933	1.5690422
31.314226632946237	2.3974764	1.5483787
31.332429193908684	2.4017997	1.549774
31.350632565811598	2.4456632	1.5638616
31.368836749222787	2.4810696	1.5751411
31.387041744710295	2.528186	1.5900271
31.40524755284232	2.5214264	1.5879
31.423454174187317	2.458416	1.5679337
31.441661609313922	2.536259	1.5925636
31.459869858791002	2.5607526	1.6002352
31.478078923187628	2.5504267	1.5970056
31.496288803073064	2.441684	1.5625889
31.514499499016807	2.3874626	1.5451416
31.532711011588546	2.3286974	1.526007
31.550923341358178	2.3371532	1.5287751
31.56913648889584	2.3662093	1.5382488
31.587350454771844	2.3260882	1.5251518
31.605565239556732	2.336213	1.5284675
31.62378084382127	2.3481812	1.5323776
31.641997268136382	2.3904915	1.5461215
31.660214513073274	2.3824375	1.5435146
31.67843257920331	2.4045572	1.5506635
31.6966514670981	2.3625157	1.5370477
31.71487117732944	2.292427	1.5140764
31.733091710469346	2.235096	1.4950237
31.751313067090052	2.3133378	1.520966
31.769535247764008	2.3490567	1.5326632
31.787758253063878	2.2719674	1.5073047
31.805982083562526	2.1633508	1.4708334
31.824206739833024	2.2227123	1.4908763
31.84243222244869	2.3531919	1.5340117
31.860658531983013	2.3968363	1.5481719
31.878885669009737	2.2936976	1.5144958
31.897113634102784	2.2026322	1.4841267
31.91534242783632	2.2280266	1.4926575
31.933572050784694	2.30314	1.51761
31.951802503522508	2.2937691	1.5145195
31.970033786624548	2.2943344	1.514706
31.988265900665834	2.2846642	1.5115106
32.006498846221575	2.267712	1.5058925
32.02473262386724	2.250692	1.5002307
32.04296723417845	2.2621276	1.5040371
32.0612026777311	2.129497	1.4592797
32.07943895510129	2.113661	1.4538436
32.097676066865304	2.2215207	1.4904766
32.115914013599685	2.2832682	1.5110487
32.13415279588115	2.2298048	1.4932531
32.152392414286666	2.1542923	1.4677508
32.1706328693934	2.159174	1.4694128
32.18887416177875	2.1450257	1.4645907
32.20711629202032	2.1038406	1.4504622
32.225359260695924	2.121974	1.4566997
32.243603068383614	2.0928047	1.4466529
32.26184771566166	2.0844426	1.4437599
32.28009320310852	2.114939	1.454283
32.2983395313029	2.1478128	1.4655418
32.31658670082372	2.1226757	1.4569405
32.33483471225012	2.089442	1.4454902
32.35308356616143	2.140422	1.4630182
32.371333263137245	2.1516042	1.4668348
32.38958380375734	2.08585	1.4442472
32.407835188601744	2.08795	1.4449741
32.42608741825067	2.1077757	1.4518181
32.444340493284585	2.146863	1.4652177
32.46259441428416	2.1171243	1.4550341
32.48084918183028	2.0553486	1.4336487
32.49910479650405	2.009483	1.4175624
32.51736125888683	2.0109174	1.4180682
32.53561856956014	2.0882711	1.4450852
32.5538767291058	2.1114817	1.4530938
32.572135738105764	2.0683637	1.4381807
32.59039559714228	2.0444393	1.4298389
32.608656306797776	2.0777545	1.4414418
32.62691786765491	2.0443544	1.4298092
32.645180280296586	1.9896837	1.4105614
32.663443545305896	2.0584626	1.4347343
32.68170766326619	2.044904	1.4300014
32.69997263476099	1.99339	1.4118747
32.7182384603741	2.0308433	1.4250766
32.7365051406895	2.1158125	1.4545833
32.75477267629144	2.0915556	1.4462211
32.77304106776434	2.0958953	1.4477208
32.79131031569289	2.0797598	1.4421372
32.809580420661966	2.055663	1.4337584
32.827851383256714	1.9978904	1.4134675
32.84612320406245	1.9962804	1.4128978
32.86439588366476	2.0557044	1.4337728
32.88266942264945	2.0789838	1.4418682
32.9009438216025	2.016699	1.4201053
32.9192190811102	2.0301614	1.4248374
32.937495201758985	2.0484338	1.4312351
32.95577218413556	1.9997795	1.4141356
32.974050028826866	1.8338138	1.3541838
32.992328736420035	1.8211014	1.3494819
33.010608307502444	1.8688363	1.3670539
33.02888874266169	1.9514333	1.3969371
33.047170042485604	1.9582334	1.3993689
33.06545220756225	1.991125	1.4110723
33.083735238479896	1.9807651	1.4073966
33.10201913582707	1.958729	1.399546
33.12030390019248	1.9012454	1.3788565
33.138589532165135	1.9848208	1.4088367
33.15687603233419	2.04735	1.4308563
33.17516340128909	2.0366874	1.4271256
33.19345163961947	2.0249765	1.4230167
33.211740747915215	2.033832	1.4261248
33.23003072676643	2.0254228	1.4231735
33.248321576763466	1.8534971	1.3614321
33.266613298496885	1.7786196	1.333649
33.28490589255747	1.8742518	1.3690332
33.30319935953626	1.9679097	1.402822
33.32149370002451	1.9725106	1.4044609
33.339788914613706	1.9619049	1.4006802
33.358085003895575	1.8453562	1.3584388
33.376381968462034	1.8108851	1.3456913
33.39467980890529	1.8737439	1.3688476
33.41297852581774	2.0831625	1.4433165
33.43127811979204	2.1046076	1.4507266
33.44957859142105	1.9969383	1.4131306
33.467879941297866	1.9053911	1.380359
33.486182170015844	1.9597017	1.3998934
33.50448527816853	2.0093856	1.417528
33.522789266349754	2.0105424	1.417936
33.541094135153514	1.8990144	1.3780473
33.55939988517411	1.7632757	1.327884
33.57770651700602	1.792626	1.3388898
33.59601403124398	1.8818913	1.3718204
33.61432242848296	1.8845615	1.3727933
33.632631709318154	1.9048499	1.380163
33.650941874344994	1.9713054	1.4040319
33.66925292415916	2.1229317	1.4570284
33.68756485935654	2.0886354	1.4452112
33.70587768053328	2.0060937	1.4163663
33.724191388285746	1.989399	1.4104606
33.74250598321054	1.9531735	1.3975599
33.760821465904506	1.9381862	1.3921876
33.77913783696474	2.0284345	1.4242312
33.79745509698852	1.9805291	1.4073128
33.815773246573414	1.9178237	1.3848552
33.8340922863172	1.8883317	1.3741658
33.852412216817896	1.9261087	1.3878431
33.87073303867377	1.9732165	1.4047123
33.889054752483304	1.9851185	1.4089423
33.907377358845245	1.985305	1.4090085
33.92570085835853	2.026342	1.4234964
33.94402525162239	2.0699575	1.4387347
33.96235053923627	2.0110712	1.4181224
33.980676721799824	1.9149134	1.383804
33.999003799912984	1.8828489	1.3721694
34.01733177417592	1.8900261	1.3747822
34.03566064518901	2.120589	1.4562242
34.0539904135529	2.1562457	1.4684161
34.07232107986846	1.9505265	1.3966125
34.090652644736785	1.9322913	1.3900688
34.108985108759235	2.0421677	1.4290444
34.12731847253742	2.062949	1.4362969
34.14565273667313	2.101753	1.4497424
34.16398790176847	2.0801969	1.4422888
34.18232396842574	1.9776821	1.4063009
34.20066093724749	2.102805	1.4501052
34.21899880883651	2.114517	1.4541379
34.23733758379583	2.0989802	1.4487858
34.25567726272874	2.066661	1.4375886
34.27401784623872	2.143149	1.4639498
34.29235933492957	2.0257764	1.4232978
34.31070172940526	1.7916774	1.3385355
34.32904503027003	1.8568864	1.3626761
34.347389238128386	2.0095074	1.417571
34.36573435358502	1.992944	1.4117167
34.38408037724492	1.8452017	1.358382
34.402427309713296	1.8542705	1.361716
34.42077515159559	1.8410354	1.3568475
34.43912390349752	1.9019207	1.3791014
34.45747356602499	2.0126143	1.4186664
34.47582413978423	2.1147795	1.4542282
34.49417562538163	2.0283315	1.424195
34.51252802342388	2.0390317	1.4279467
34.53088133451789	2.1322842	1.4602343
34.54923555927084	2.0613017	1.4357234
34.567590698290104	2.009393	1.4175305
34.58594675218336	2.0027838	1.4151975
34.6043037215585	2.0222921	1.4220731
34.62266160702365	2.0424225	1.4291335
34.641020409187234	2.136847	1.4617958
34.65938012865785	2.0045118	1.4158078
34.677740766044394	1.9631454	1.4011229
34.69610232195598	2.0998647	1.449091
34.714464797002016	2.0724876	1.4396137
34.73282819179208	2.0205574	1.4214631
34.751192506936064	2.1295633	1.4593023
34.76955774304408	2.166222	1.4718091
34.7879239007265	2.0953174	1.4475211
34.80629098059391	2.0187044	1.4208112
34.824658983257194	1.9157608	1.3841101
34.843027909327446	1.9135287	1.3833035
34.86139775941603	2.043174	1.4293964
34.879768534134534	2.0787935	1.4418021
34.89814023409483	2.0751286	1.4405307
34.91651285990901	1.9843707	1.408677
34.93488641218944	1.7943269	1.3395249
34.95326089154871	1.6631949	1.2896491
34.97163629859967	1.8511138	1.3605565
34.99001263395542	1.9669328	1.4024738
35.00838989822934	2.0041032	1.4156635
35.02676809203499	1.8747069	1.3691994
35.04514721598624	1.7340537	1.3168347
35.063527270697215	1.6785791	1.2955999
35.081908256782256	1.8738792	1.3688971
35.10029017485597	2.1945522	1.4814022
35.11867302553321	2.2369597	1.495647
35.137056809429104	2.1104958	1.4527546
35.155441527159006	2.2024689	1.4840717
35.173827179338524	2.1753538	1.474908
35.19221376658354	1.8886901	1.3742962
35.21060128951017	1.8651817	1.3657166
35.2289897487348	1.9066614	1.3808191
35.24737914487405	2.039412	1.4280798
35.26576947854479	2.0129652	1.4187901
35.28416075036418	1.9471514	1.3954036
35.30255296094958	2.316703	1.522072
35.32094611091867	2.574321	1.6044691
35.33934020088932	2.289009	1.5129472
35.35773523147969	1.8358133	1.3549218
35.3761312033082	1.9622982	1.4008205
35.394528116993506	2.1991355	1.4829483
35.41292597315452	2.1494513	1.4661007
35.431324772410434	2.14111	1.4632533
35.449724515380666	2.1657696	1.4716554
35.46812520268491	2.0994844	1.4489598
35.486526834943106	2.2114809	1.4871049
35.504929412775454	2.369253	1.5392377
35.52333293680242	2.0590484	1.4349384
35.54173740764471	2.119318	1.4557878
35.560142825923286	2.1652594	1.471482
35.5785491922594	1.903142	1.3795441
35.59695650727454	1.1963066	1.093758
35.61536477159042	1.0391313	1.019378
