0.008763373481513119	0.0	0.0
0.026290120649546365	0.0	0.0
0.043816868432600686	0.13170215	0.36290792
0.06134361724069026	0.09919149	0.3149468
0.07887036748382949	0.07748628	0.27836356
0.0963971195720331	0.0036183195	0.060152467
0.11392387391531617	0.031012928	0.17610487
0.1314506309236943	0.038722407	0.1967801
0.1489773910071836	0.049677297	0.22288404
0.16650415457580078	0.13137645	0.36245888
0.18403092203956356	0.1791116	0.42321578
0.20155769380849	0.20295466	0.4505049
0.2190844702925996	0.161194	0.40148973
0.2366112519019124	0.15060374	0.388077
0.2541380390464497	0.15650311	0.39560473
0.27166483213623416	0.20674807	0.45469558
0.28919163158128947	0.2499632	0.4999632
0.3067184377916406	0.1947141	0.4412642
0.324245251177314	0.17094055	0.4134496
0.34177207214833777	0.1551755	0.39392322
0.3592989011147415	0.18190707	0.42650566
0.37682573848655654	0.16572744	0.40709636
0.39435258467381573	0.17723054	0.42098758
0.41187944008655414	0.20190176	0.4493348
0.42940630513480854	0.20108253	0.44842225
0.446933180228618	0.18771495	0.43326083
0.4644600657780234	0.17340285	0.41641667
0.48198696219306775	0.17329887	0.4162918
0.49951386988379676	0.176865	0.4205532
0.5170407892602581	0.19822527	0.44522497
0.5345677207325025	0.1774062	0.42119616
0.5520946647105822	0.16425124	0.40527922
0.5696216216045534	0.13497972	0.36739588
0.5871485918244737	0.15034321	0.38774115
0.6046755757804043	0.16088471	0.40110436
0.6222025738824094	0.15062611	0.3881058
0.6397295865405557	0.14763507	0.3842331
0.6572566141649129	0.11867963	0.3444991
0.6747836571655547	0.16507162	0.40629008
0.6923107159525568	0.15913296	0.39891472
0.7098377909359992	0.14257206	0.37758717
0.7273648825259653	0.118998215	0.34496117
0.7448919911325411	0.12803759	0.3578234
0.762419117165817	0.17069463	0.41315207
0.7799462610358868	0.19087663	0.4368943
0.7974734231528482	0.18719932	0.43266538
0.8150006039268024	0.20301506	0.45057192
0.8325278037678551	0.22972599	0.4792974
0.8500550230861152	0.24477604	0.49474847
0.8675822622916969	0.2280219	0.47751638
0.8851095217947171	0.20314053	0.45071113
0.9026368020052984	0.19125292	0.43732473
0.9201641033335665	0.21764684	0.46652636
0.9376914261896523	0.20693853	0.45490497
0.9552187709836915	0.22005582	0.46910107
0.9727461381258234	0.23870537	0.48857483
0.990273528026193	0.25603008	0.50599414
1.0078009410949496	0.28648156	0.5352397
1.0253283777422473	0.2941338	0.54234105
1.0428558383782454	0.24315736	0.49310988
1.0603833234131086	0.19810984	0.4450953
1.0779108332570058	0.24504843	0.49502367
1.0954383683201119	0.31460482	0.56089646
1.112965929012607	0.42809603	0.6542905
1.1304935157446763	0.49242133	0.7017274
1.1480211289265108	0.4806346	0.69327813
1.1655487689683062	1.3019491	1.1410298
1.1830764362802655	1.6213444	1.2733202
1.200604131272596	2.0068507	1.4166336
1.2181318543555117	2.2705636	1.5068389
1.235659605939232	2.328871	1.5260639
1.253187386433982	3.687553	1.9203002
1.270715196249994	5.7550254	2.3989635
1.2882430357975057	11.093183	3.330643
1.3057709054867608	16.167877	4.02093
1.3232988057280106	21.962742	4.6864424
1.3408267369315112	26.813078	5.1781344
1.358354699507526	30.191637	5.494692
1.3758826938663256	34.207592	5.848726
1.3934107204181858	35.861664	5.988461
1.410938779573391	36.8076	6.0669265
1.4284668717422309	37.585934	6.130737
1.4459949973350033	37.292767	6.1067805
1.4635231567620117	37.060097	6.0877004
1.4810513504335687	36.20071	6.0167027
1.4985795787599925	35.448856	5.953894
1.5161078421516088	34.63055	5.884773
1.5336361410187505	33.78168	5.812201
1.5511644757717598	33.607124	5.7971654
1.5686928468209842	34.175343	5.8459682
1.58622125457678	34.645527	5.886045
1.6037496994495108	36.17117	6.0142474
1.621278181849548	36.18771	6.015622
1.6388067021872719	36.67729	6.056178
1.6563352608730693	36.08486	6.0070677
1.673863858317336	35.18612	5.931789
1.6913924949304753	34.7006	5.8907213
1.7089211711228998	33.802647	5.8140044
1.7264498873050296	33.21045	5.7628508
1.7439786438872935	32.380737	5.6904073
1.7615074412801288	31.3016	5.5947833
1.779036279893981	30.686092	5.539503
1.796565160139305	29.499115	5.4313087
1.814094082426564	28.845707	5.37082
1.8316230471662298	27.91997	5.283935
1.849152054768784	27.06385	5.202293
1.8666811056447168	26.682295	5.1654906
1.8842102002045273	25.947588	5.0938773
1.901739338858724	25.583609	5.0580244
1.9192685220178245	24.770094	4.9769564
1.9367977500923557	24.11456	4.910658
1.9543270234928547	23.715565	4.869863
1.971856342629867	23.076336	4.8037834
1.9893857079139496	22.633427	4.75746
2.006915119755667	22.039923	4.6946697
2.0244445785655945	21.42211	4.6284027
2.0419740847543175	21.112988	4.5948873
2.0595036387324317	20.824877	4.5634284
2.0770332409105414	20.41432	4.518221
2.094562891699263	20.212713	4.4958553
2.1120925915092217	19.832855	4.453409
2.129622340751053	19.678356	4.4360294
2.1471521398354043	187.7286	13.701409
2.1646819891729323	443.95654	21.070276
2.182211889174303	440.07596	20.977987
2.1997418402501974	452.59036	21.274172
2.2172718428113023	432.55154	20.797874
2.234801897268317	320.49533	17.902384
2.2523320040319548	16.854046	4.105368
2.269862163512935	16.605198	4.0749474
2.287392376121992	16.178766	4.0222836
2.304922642269869	15.920611	3.9900641
2.322452962367322	15.470107	3.9332056
2.3399833368251164	15.209986	3.8999982
2.357513766054032	14.984666	3.8710032
2.3750442504648586	14.691695	3.8329747
2.3925747904683963	14.317935	3.7839048
2.410105386475459	14.118189	3.757418
2.4276360388968707	13.928877	3.732141
2.445166748143469	13.698774	3.7011855
2.4626975146261025	13.269253	3.6426985
2.4802283387556323	13.0011015	3.605704
2.4977592209429305	12.925169	3.595159
2.5152901615988825	12.629726	3.5538325
2.5328211611343865	12.359598	3.515622
2.5503522199603523	12.145399	3.485025
2.5678833384877024	12.118563	3.4811726
2.5854145171273712	12.036097	3.469308
2.6029457562903064	11.764072	3.4298794
2.620477056387469	11.445634	3.3831396
2.6380084178298326	11.247548	3.3537364
2.655539841028383	11.209534	3.3480642
2.673071326394119	11.149888	3.3391447
2.6906028743380523	10.949952	3.3090713
2.708134485271211	10.717215	3.2737157
2.7256661596046325	10.550061	3.2480857
2.743197897749369	10.347361	3.2167313
2.760729700116486	10.172174	3.1893847
2.778261567117063	9.909226	3.1478925
2.795793499162193	9.830154	3.1353078
2.8133254966629817	9.749854	3.1224756
2.830857560030551	9.635638	3.1041324
2.8483896896760337	9.568203	3.0932512
2.865921886010578	9.32036	3.0529265
2.883454149445347	9.243574	3.0403247
2.9009864803915177	8.994293	2.9990487
2.91851887926028	8.832164	2.9718957
2.9360513464628384	8.722326	2.9533584
2.953583882410413	8.75059	2.9581397
2.9711164875142373	8.786587	2.9642177
2.9886491621855606	8.776727	2.962554
3.0061819068356455	8.562692	2.9262078
3.023714721875769	8.482403	2.9124565
3.041247607717225	8.249658	2.8722217
3.0587805647713213	8.17262	2.8587794
3.0763135934493806	8.133952	2.8520083
3.0938466941627407	8.06792	2.8404083
3.1113798673227544	7.881686	2.807434
3.1289131133407904	7.700994	2.7750664
3.1464464326282315	7.4317365	2.7261212
3.1639798255964786	7.370897	2.7149396
3.1815132926569443	7.3602176	2.7129722
3.1990468342210603	7.4061027	2.7214155
3.216580450700272	7.413505	2.7227752
3.2341141425060416	7.290294	2.7000544
3.251647910049847	7.0779524	2.660442
3.2691817537431813	6.9235563	2.6312652
3.286715673997555	6.798176	2.6073313
3.3042496712244938	6.789919	2.6057472
3.32178374583554	6.7223797	2.5927553
3.339317898242251	6.6779523	2.5841734
3.3568521288562034	6.6615744	2.5810025
3.3743864380889876	6.603873	2.5698001
3.3919208263522127	6.510172	2.551504
3.4094552940575023	6.420989	2.533967
3.4269898416164972	6.374192	2.5247164
3.444524469440858	6.360546	2.5220122
3.4620591779422587	6.467593	2.5431464
3.479593967532391	6.4760075	2.5448
3.4971288386229658	6.391288	2.5280995
3.5146637916257086	6.235643	2.4971268
3.5321988269523628	6.149261	2.4797704
3.5497339450146903	6.080776	2.465923
3.5672691462244708	6.169617	2.4838715
3.5848044309934988	6.2196655	2.4939258
3.60233979973359	6.2799006	2.5059729
3.619875252856575	6.2952423	2.5090322
3.6374107907743034	6.1754947	2.4850543
3.6549464138986427	6.128818	2.475645
3.6724821226414788	5.976002	2.4445863
3.690017917414714	5.9548626	2.4402587
3.7075537986302702	6.0699687	2.4637306
3.7250897667000857	6.2034574	2.490674
3.7426258220361235	6.40246	2.5303082
3.7601619650503553	6.716509	2.5916228
3.777698196154779	7.2257605	2.6880774
3.7952345157614067	8.293705	2.8798792
3.8127709242822716	9.201168	3.0333428
3.830307422129425	11.375395	3.372743
3.847844009714936	30.231186	5.4982896
3.8653806874508954	97.637085	9.881148
3.882917455749409	96.78979	9.838181
3.900454315022606	96.53146	9.825043
3.917991265682631	41.07655	6.409099
3.9355283081416506	10.7449045	3.2779422
3.9530654428118495	8.587233	2.930398
3.970602670105433	7.383546	2.717268
3.9881399904346244	6.515845	2.5526154
4.005677404211669	6.3577003	2.5214481
4.023214911848827	6.2858734	2.5071645
4.0407525137583855	6.320994	2.5141587
4.058290210352644	6.3439345	2.5187168
4.075828002043927	6.220146	2.4940221
4.0933658892445814	6.1717854	2.4843078
4.110903872366966	6.1623483	2.4824078
4.128441951823468	6.106044	2.471041
4.145980128026488	6.0794377	2.4656515
4.163518401388452	6.0691295	2.4635603
4.181056772321807	6.015355	2.4526222
4.1985952412390155	6.0380597	2.4572463
4.216133808552567	6.065378	2.4627988
4.233672474674966	6.1747727	2.484909
4.251211240018741	6.348978	2.519718
4.268750104996445	6.4901166	2.5475707
4.286289070020643	7.492951	2.7373254
4.303828135503928	9.272642	3.0451014
4.3213673018589125	29.61952	5.442382
4.3389065694982305	90.75918	9.526761
4.356445938834537	165.727	12.8735
4.3739854102805085	170.95862	13.075114
4.391524984248844	171.73326	13.104704
4.409064661152262	135.84213	11.655133
4.426604441403504	96.27831	9.812151
4.444144325415337	75.34701	8.680265
4.461684313600543	21.352303	4.6208553
4.47922440637193	21.663347	4.6543903
4.496764604142329	19.969112	4.4686813
4.5143049073245916	18.012089	4.2440653
4.531845316331589	15.891103	3.9863646
4.5493858315762195	13.068278	3.6150074
4.566926453471405	10.791397	3.2850263
4.584467182430081	8.873018	2.9787612
4.602008018865218	7.810883	2.7947958
4.619548963189798	7.328551	2.7071297
4.637090015816834	6.9006586	2.6269104
4.654631177159353	6.660247	2.5807455
4.672172447630417	6.3485923	2.5196414
4.689713827643102	6.146327	2.4791787
4.7072553176105085	5.9430833	2.437844
4.724796917945764	5.8332877	2.41522
4.742338629062015	5.733452	2.3944628
4.759880451372434	5.6024537	2.3669503
4.777422385290215	5.6082754	2.3681798
4.794964431228581	5.5727553	2.3606684
4.812506589600768	5.537919	2.3532784
4.830048860820047	5.4882116	2.3426933
4.847591245299709	5.493418	2.3438041
4.8651337434530655	5.4938064	2.343887
4.882676355693457	5.4893064	2.342927
4.900219082434242	5.5208898	2.3496573
4.917761924088813	5.486716	2.3423738
4.935304881070575	5.421268	2.3283617
4.952847953792969	5.3227596	2.3071105
4.970391142669449	5.341508	2.3111703
4.9879344481135055	5.39763	2.32328
5.005477870538642	5.3785224	2.3191643
5.023021410358394	5.3196745	2.306442
5.040565067986324	5.3098884	2.3043196
5.05810884383601	5.262963	2.2941148
5.075652738321066	5.2832174	2.298525
5.09319675185512	5.225705	2.2859802
5.110740884851836	5.2680693	2.2952275
5.128285137724894	5.2714825	2.295971
5.145829510888007	5.282373	2.2983413
5.163374004754908	5.3101535	2.304377
5.1809186197393595	5.345466	2.3120265
5.198463356255145	5.395248	2.3227673
5.216008214716077	5.338102	2.3104331
5.233553195535998	5.3312483	2.3089497
5.251098299128764	5.2604356	2.2935638
5.268643525908272	5.1917586	2.278543
5.286188876288432	5.175695	2.2750154
5.3037343506831895	5.240025	2.2891102
5.32127994950651	5.230744	2.287082
5.3388256731723915	5.18519	2.2771013
5.356371522094851	5.1208253	2.262924
5.373917496687938	5.068758	2.2513902
5.391463597365729	4.9919634	2.23427
5.40900982454232	4.9960885	2.2351933
5.426556178631843	5.009919	2.2382848
5.444102660048449	5.0186133	2.2402263
5.4616492692063225	5.0194254	2.2404075
5.479196006519669	5.047919	2.2467575
5.496742872402727	5.0637407	2.2502756
5.514289867269756	5.0643735	2.2504163
5.531836991535049	5.0671167	2.2510257
5.549384245612924	5.0808825	2.2540812
5.566931629917724	5.064681	2.2504847
5.584479144863822	5.0516124	2.2475793
5.6020267908656205	5.137843	2.2666812
5.619574568337545	5.1237826	2.2635775
5.637122477694054	5.056589	2.248686
5.654670519349629	4.922461	2.218662
5.672218693718784	4.8654017	2.2057655
5.689767001216059	4.8793645	2.2089283
5.707315442256021	4.9147215	2.216917
5.724864017253266	4.897307	2.212986
5.7424127266224225	4.891162	2.2115972
5.75996157077814	4.959029	2.2268877
5.777510550135105	5.0628805	2.2500846
5.795059665108022	5.124005	2.2636266
5.812608916111639	5.22767	2.2864099
5.830158303560715	5.345725	2.3120823
5.847707827870055	5.31429	2.3052745
5.86525748945448	5.306248	2.3035295
5.8828072887288485	5.35078	2.3131752
5.900357226108044	5.443218	2.3330705
5.917907302006979	5.5225606	2.3500128
5.9354575168406	6.135784	2.4770515
5.9530078710238765	6.7338977	2.5949755
5.970558364971812	7.3106112	2.7038143
5.988108999099438	7.6876817	2.772667
6.005659773821818	8.194686	2.862636
6.023210689554039	7.9467	2.8189893
6.040761746711227	8.319313	2.884322
6.058312945708531	7.6742983	2.7702525
6.075864286961132	7.200591	2.6833918
6.093415770884244	6.593571	2.567795
6.1109673978931065	6.09882	2.469579
6.128519168402993	5.5255575	2.3506505
6.146071082829204	5.318833	2.3062594
6.163623141587075	5.132439	2.2654886
6.181175345091969	5.033284	2.243498
6.198727693759281	5.0489593	2.246989
6.216280188004435	5.0408735	2.245189
6.233832828242885	5.010644	2.2384467
6.251385614890126	4.9616203	2.2274694
6.268938548361669	4.9801884	2.2316337
6.286491629073067	4.9746485	2.230392
6.304044857439898	5.01518	2.2394598
6.321598233877777	5.005497	2.2372968
6.339151758802344	4.9773607	2.231
6.356705432629277	4.91869	2.217812
6.37425925577428	4.8088303	2.1929045
6.391813228653095	4.7657394	2.1830573
6.409367351681486	4.791523	2.1889548
6.426921625275259	4.849354	2.2021248
6.44447604985025	4.944759	2.2236814
6.46203062582232	4.9321766	2.2208505
6.47958535360737	4.9227743	2.2187326
6.497140233621328	4.940527	2.2227297
6.514695266280161	4.897532	2.2130368
6.532250451999859	4.893643	2.212158
6.549805791196454	4.9205546	2.2182324
6.567361284286002	4.92025	2.2181637
6.584916931684597	4.9210544	2.218345
6.602472733808367	4.9004974	2.2137067
6.6200286910734665	4.8891563	2.2111437
6.637584803896092	4.86266	2.205144
6.655141072692462	4.9102206	2.2159019
6.672697497878842	4.868106	2.2063785
6.690254079871514	4.934184	2.2213023
6.707810819086808	4.9060984	2.2149713
6.725367715941078	4.924301	2.2190766
6.742924770850719	4.9104156	2.2159457
6.760481984232151	4.8987474	2.2133114
6.778039356501836	4.885719	2.2103662
6.795596888076266	4.863628	2.2053635
6.813154579371963	4.929221	2.220185
6.830712430805492	4.935613	2.221624
6.84827044279344	4.893866	2.2122085
6.865828615752445	4.7978134	2.190391
6.883386950099159	4.749209	2.179268
6.900945446250287	4.79111	2.1888604
6.918504104622553	4.8727045	2.2074203
6.936062925632727	4.918462	2.2177606
6.953621909697607	4.9458113	2.223918
6.971181057234028	4.9498153	2.224818
6.988740368658859	4.954331	2.2258327
7.006299844389007	4.995756	2.2351189
7.023859484841407	5.1453834	2.2683437
7.041419290433036	5.2489214	2.2910526
7.058979261580902	5.375092	2.3184245
7.0765393987020495	5.542235	2.354195
7.094099702213559	5.8228073	2.4130495
7.111660172532549	6.1570377	2.4813378
7.129220810076164	6.525092	2.554426
7.146781615261595	7.161098	2.6760228
7.16434258850606	7.425256	2.7249322
7.181903730226821	7.8191805	2.7962797
7.1994650408411704	7.912385	2.8128963
7.217026520766437	8.030508	2.833815
7.234588170419983	8.233253	2.8693645
7.252149990219215	8.319695	2.8843882
7.269711980581568	8.265665	2.875007
7.2872741419245175	8.1096945	2.8477526
7.304836474665574	7.6660366	2.768761
7.322398979222286	7.3578777	2.7125409
7.339961656012233	7.0801864	2.660862
7.357524505453039	6.7314286	2.5944996
7.375087527962357	6.471131	2.5438418
7.392650723957886	6.2441354	2.4988267
7.410214093857353	5.8226943	2.4130259
7.427777638078528	5.5739126	2.3609135
7.445341357039213	5.4256506	2.3293025
7.4629052511572525	5.3319073	2.3090923
7.480469320850524	5.28725	2.299402
7.498033566536948	5.183941	2.2768269
7.5155979886344735	5.095989	2.2574298
7.5331625875610975	5.038778	2.2447221
7.550727363734844	5.039795	2.2449489
7.568292317573788	5.0572124	2.2488246
7.585857449496025	5.062983	2.2501073
7.603422759919705	5.0700417	2.2516754
7.620988249263007	5.098732	2.258037
7.638553917944147	5.0780683	2.253457
7.656119766381391	5.066225	2.2508276
7.673685794993023	5.1158085	2.2618153
7.691252004197388	5.192106	2.2786193
7.70881839441285	5.228592	2.2866116
7.726384966057826	5.241278	2.289384
7.743951719550762	5.1450047	2.2682602
7.761518655310149	5.047473	2.246658
7.779085773754511	5.0265665	2.2420006
7.796653075302419	5.101874	2.2587328
7.814220560372475	5.1846313	2.2769785
7.831788229383323	5.2055087	2.2815585
7.8493560827536495	5.204324	2.2812986
7.866924120902174	5.169307	2.273611
7.884492344247663	5.1653423	2.272739
7.9020607532089135	5.199156	2.2801657
7.919629348204771	5.241497	2.2894316
7.937198129654115	5.2598248	2.2934308
7.954767097975865	5.29253	2.30055
7.972336253588986	5.3132243	2.3050432
7.989905596912472	5.367478	2.3167818
8.007475128365371	5.393694	2.3224328
8.025044848366756	5.4000163	2.3237934
8.042614757335754	5.4680305	2.338382
8.060184855691523	5.538285	2.3533561
8.07775514385327	5.624368	2.371575
8.095325622240228	5.726861	2.3930862
8.112896291271687	5.774765	2.403074
8.130467151366968	5.7705407	2.402195
8.148038202945436	5.7608294	2.4001727
8.165609446426497	5.711249	2.389822
8.183180882229594	5.75325	2.3985934
8.200752510774217	5.7642627	2.400888
8.218324332479893	5.804869	2.4093297
8.235896347766193	5.8611317	2.4209774
8.253468557052724	5.8810163	2.4250808
8.27104096075914	5.89136	2.4272122
8.288613559305137	5.934674	2.4361186
8.306186353110448	6.0129943	2.4521408
8.32375934259485	6.1275077	2.4753804
8.341332528178162	6.1471276	2.47934
8.358905910280246	6.12371	2.4746132
8.376479489321003	6.04915	2.459502
8.394053265720377	6.066672	2.4630616
8.411627239898356	6.058348	2.4613712
8.42920141227497	6.1017375	2.4701695
8.44677578327029	6.044988	2.4586558
8.464350353304427	5.9724183	2.4438531
8.48192512279754	5.9117928	2.431418
8.499500092169827	5.9069953	2.4304311
8.51707526184153	5.9340744	2.4359956
8.534650632232934	5.9904337	2.4475362
8.552226203764365	6.0211267	2.4537985
8.569801976856192	6.0539055	2.4604685
8.587377951928834	6.0574617	2.4611912
8.60495412940274	6.0903463	2.4678626
8.622530509698416	6.171588	2.4842682
8.6401070932364	6.3412147	2.5181768
8.657683880437283	6.4780335	2.5451982
8.675260871721695	6.612438	2.5714662
8.692838067510303	6.719326	2.5921662
8.710415468223834	6.8336773	2.6141303
8.727993074283043	6.9007154	2.6269212
8.745570886108737	6.9349613	2.6334314
8.763148904121765	7.0414214	2.6535678
8.78072712874302	7.181692	2.679868
8.798305560393441	7.4451246	2.7285755
8.815884199494006	7.624084	2.7611744
8.833463046465745	7.726954	2.7797399
8.851042101729728	7.8425403	2.8004537
8.86862136570707	8.033403	2.834326
8.886200838818924	8.163346	2.857157
8.903780521486505	8.280278	2.8775473
8.921360414131055	8.415728	2.9009874
8.938940517173874	8.6157055	2.9352522
8.956520831036297	8.740344	2.9564073
8.97410135613971	8.955868	2.9926355
8.99168209290554	8.97195	2.9953213
9.009263041755265	9.179311	3.0297377
9.026844203110405	9.397528	3.0655386
9.044425577392525	9.653903	3.107073
9.062007165023239	9.751067	3.12267
9.079588966424197	10.003379	3.1628118
9.097170982017108	10.001461	3.1625087
9.11475321222372	11.012938	3.3185747
9.132335657465825	11.891768	3.4484444
9.149918318165264	12.028583	3.4682248
9.167501194743924	12.636094	3.5547285
9.18508428762374	12.40554	3.52215
9.202667597226693	12.423981	3.5247667
9.220251123974803	11.962029	3.4586167
9.237834868290143	11.649073	3.4130738
9.255418830594836	11.468016	3.3864458
9.273003011311046	11.03995	3.322642
9.290587410860985	10.792949	3.2852623
9.308172029666911	10.121654	3.1814547
9.32575686815113	9.81293	3.1325598
9.343341926735997	8.572366	2.9278603
9.360927205843916	8.337372	2.8874507
9.378512705897327	8.110712	2.8479311
9.396098427318728	7.9687295	2.8228939
9.413684370530664	7.880939	2.807301
9.431270535955722	7.7745695	2.7882915
9.448856924016539	7.6658564	2.7687283
9.466443535135806	7.505685	2.7396505
9.484030369736251	7.5448437	2.7467878
9.501617428240658	7.551838	2.7480607
9.519204711071852	7.5976243	2.756379
9.536792218652714	7.604241	2.7575788
9.55437995140617	7.638764	2.7638314
9.571967909755191	7.688228	2.7727654
9.589556094122802	7.701057	2.7750778
9.60714450493207	7.6648345	2.7685437
9.624733142606116	7.664818	2.7685406
9.642322007568108	7.6667414	2.768888
9.659911100241267	7.7725244	2.7879248
9.677500421048851	7.847238	2.8012922
9.695089970414175	7.8931494	2.809475
9.712679748760609	7.922132	2.8146281
9.730269756511557	7.9276137	2.8156018
9.747859994090492	7.932914	2.8165429
9.765450461920915	7.938395	2.8175159
9.78304116042639	8.043342	2.8360786
9.800632090030527	8.118062	2.8492212
9.81822325115699	8.138749	2.8528492
9.835814644229481	8.091899	2.8446264
9.853406269671762	8.120562	2.84966
9.870998127907646	8.225546	2.8680212
9.888590219360985	8.271728	2.8760612
9.906182544455698	8.218356	2.8667676
9.923775103615734	8.195178	2.8627222
9.941367897265108	8.175063	2.8592067
9.958960925827878	8.238664	2.8703072
9.97655418972816	8.239648	2.8704786
9.994147689390106	8.234915	2.8696542
10.011741425237934	8.147702	2.854418
10.029335397695904	8.145517	2.8540354
10.04692960718833	8.148961	2.8546386
10.06452405413958	8.190005	2.8618186
10.082118738974064	8.120926	2.8497238
10.099713662116246	8.056715	2.8384354
10.117308823990651	7.987184	2.8261607
10.134904225021844	7.936079	2.8171048
10.152499865634445	7.902646	2.8111646
10.170095746253125	7.962881	2.8218577
10.18769186730261	8.031164	2.833931
10.205288229207675	8.101674	2.846344
10.222884832393145	8.029974	2.833721
10.2404816772839	7.9666896	2.8225324
10.258078764304868	7.926687	2.8154373
10.275676093881035	7.909928	2.8124595
10.293273666437438	7.834966	2.7991009
10.310871482399158	7.868577	2.8050983
10.32846954219134	7.874749	2.8061984
10.346067846239173	7.895249	2.8098485
10.363666394967908	7.8984303	2.8104146
10.38126518880283	7.935306	2.8169675
10.398864228169298	8.037859	2.8351119
10.416463513492713	8.087152	2.8437917
10.434063045198531	8.056617	2.838418
10.451662823712262	7.9982414	2.8281162
10.469262849459467	7.999433	2.828327
10.486863122865758	7.889481	2.808822
10.504463644356806	7.885301	2.8080778
10.522064414358338	7.9191055	2.8140905
10.539665433296118	7.8780904	2.8067937
10.557266701595987	7.8029037	2.7933679
10.574868219683818	7.628151	2.7619107
10.592469987985552	7.527081	2.7435527
10.610072006927185	7.461192	2.7315183
10.627674276934751	7.420309	2.7240245
10.64527679843435	7.304753	2.7027307
10.662879571852143	7.2334604	2.6895094
10.680482597614331	7.1502337	2.6739922
10.698085876147173	7.048111	2.6548278
10.715689407876988	6.91537	2.629709
10.733293193230146	6.793117	2.606361
10.750897232633072	6.707164	2.5898192
10.76850152651225	6.619478	2.5728347
10.786106075294207	6.5535645	2.559993
10.803710879405534	6.421587	2.534085
10.821315939272877	6.3271804	2.5153887
10.83892125532294	6.2501097	2.500022
10.856526827982472	6.1906676	2.4881053
10.874132657678285	6.1980643	2.4895911
10.891738744837243	6.1739287	2.484739
10.909345089886271	6.142533	2.4784133
10.926951693252343	6.0218644	2.4539487
10.944558555362494	5.893763	2.4277074
10.96216567664381	5.794421	2.4071603
10.979773057523436	5.755039	2.3989663
10.997380698428573	5.719842	2.3916192
11.014988599786477	5.6362386	2.3740764
11.032596762024461	5.60557	2.3676085
11.050205185569892	5.5461493	2.3550265
11.067813870850198	5.539189	2.353548
11.085422818292859	5.4506593	2.3346648
11.10303202832541	5.353999	2.3138711
11.120641501375454	5.2575836	2.292942
11.138251237870636	5.2115684	2.282886
11.155861238238671	5.1933136	2.2788842
11.173471502907317	5.1272726	2.2643483
11.191082032304402	5.0368752	2.2442985
11.208692826857805	5.0056157	2.2373233
11.226303886995465	4.9745555	2.2303712
11.243915213145371	4.982311	2.232109
11.261526805735578	4.9131308	2.2165582
11.279138665194196	4.8289022	2.1974764
11.296750791949393	4.741475	2.1774929
11.314363186429393	4.6536603	2.1572344
11.331975849062479	4.6511774	2.156659
11.34958878027699	4.616208	2.1485362
11.36720198050133	4.5933137	2.1432018
11.384815450163948	4.511804	2.1241007
11.402429189693366	4.4879746	2.118484
11.420043199518153	4.439208	2.106943
11.437657480066942	63.447	7.9653625
11.455272031768422	85.17333	9.22894
11.472886855051353	107.54222	10.370256
11.490501950344528	99.109764	9.955389
11.508117318076819	84.36436	9.185007
11.52573295867715	45.707813	6.7607555
11.543348872574514	4.01064	2.0026584
11.560965060197946	4.0323462	2.0080702
11.57858152197655	4.008713	2.002177
11.59619825833949	3.9573987	1.9893211
11.613815269715985	3.9369073	1.9841641
11.631432556535323	38.452415	6.201001
11.649050119226837	82.9823	9.109462
11.666667958219929	93.36863	9.6627445
11.68428607394406	107.60827	10.373441
11.701904466828756	82.47368	9.081502
11.719523137303586	65.356316	8.084325
11.737142085798196	4.568547	2.137416
11.754761312742286	3.6844785	1.9194995
11.772380818565619	3.6479752	1.9099673
11.790000603698015	3.629124	1.905026
11.80762066856935	3.5504584	1.884266
11.825241013609572	3.4512174	1.8577453
11.842861639248683	3.3816845	1.8389357
11.860482545916748	3.3295357	1.8247015
11.878103734043883	3.3667793	1.8348786
11.895725204060282	3.426217	1.8510044
11.91334695639619	3.4396539	1.8546304
11.930968991481919	3.4122145	1.847218
11.948591309747824	3.2756495	1.8098756
11.966213911624347	3.252457	1.8034569
11.98383679754198	3.2419715	1.8005476
12.001459967931268	3.2666857	1.8073975
12.019083423222835	3.2135148	1.7926279
12.036707163847352	3.172219	1.7810725
12.05433119023556	3.158316	1.7771652
12.071955502818259	3.1603293	1.7777315
12.089580102026313	3.135745	1.7708035
12.107204988290643	3.1035817	1.7616985
12.12483016204224	3.0409973	1.7438456
12.142455623712152	3.022625	1.7385699
12.16008137373149	3.030209	1.7407496
12.177707412531431	3.0927086	1.7586099
12.19533374054321	3.092025	1.7584155
12.212960358198126	3.0648866	1.7506818
12.230587265927545	2.9971573	1.73123
12.248214464162889	2.9716904	1.7238592
12.265841953335649	2.9688	1.7230207
12.283469733877375	2.9580214	1.71989
12.301097806219685	2.9269075	1.7108207
12.31872617079425	2.9204056	1.7089194
12.336354828032825	2.90845	1.7054178
12.353983778367205	2.9227357	1.709601
12.371613022229262	2.9008696	1.7031939
12.389242560050928	2.8701787	1.6941602
12.406872392264201	2.8587184	1.6907744
12.424502519301143	2.899743	1.7028632
12.442132941593874	2.9058683	1.7046608
12.459763659574586	2.894942	1.701453
12.477394673675532	2.8357415	1.683966
12.49502598432903	2.8057463	1.6750362
12.51265759196746	2.7936087	1.6714091
12.530289497023267	2.7872064	1.6694928
12.547921699928967	2.8109772	1.6765969
12.565554201117134	2.7849243	1.6688093
12.583187001020404	2.7430346	1.6562109
12.600820100071486	2.6868105	1.6391493
12.618453498703152	2.6473062	1.6270545
12.636087197348235	2.6563385	1.6298277
12.65372119643964	2.650868	1.6281487
12.671355496410326	2.6778219	1.6364051
12.68899009769333	2.7040427	1.6443974
12.706625000721749	2.7832258	1.6683003
12.724260205928752	2.8473175	1.6873996
12.741895713747551	2.876155	1.695923
12.759531524611454	2.8956804	1.7016699
12.777167638953818	2.9196522	1.708699
12.794804057208072	2.9114811	1.7063063
12.812440779807702	2.9587064	1.7200891
12.830077807186271	3.0779812	1.7544177
12.847715139777405	3.1319993	1.7697456
12.865352778014795	3.381913	1.8389978
12.882990722332197	3.5298324	1.8787848
12.90062897316344	3.5932128	1.8955772
12.918267530942412	3.6331213	1.9060749
12.935906396103071	3.50039	1.8709329
12.953545569079449	3.662769	1.9138362
12.971185050305628	3.4958436	1.8697175
12.988824840215775	3.5219154	1.8766767
13.006464939244115	3.536662	1.8806015
13.024105347824943	3.3618345	1.8335307
13.041746066392617	3.425025	1.8506823
13.05938709538157	3.221152	1.7947568
13.077028435226296	3.2705016	1.8084528
13.094670086361363	3.2076101	1.7909802
13.112312049221401	3.1408613	1.7722476
13.129954324241112	3.0262456	1.7396108
13.147596911855258	2.846063	1.6870278
13.165239812498685	2.7972183	1.6724887
13.182883026606293	2.7583349	1.6608236
13.200526554613058	2.702265	1.6438568
13.218170396954017	2.652257	1.6285751
13.235814554064284	2.623887	1.6198417
13.253459026379034	2.5960412	1.6112235
13.271103814333523	2.5802705	1.606322
13.288748918363058	2.6234362	1.6197025
13.306394338903031	2.6447904	1.6262811
13.32404007638889	2.6377127	1.6241037
13.341686131256164	2.621843	1.6192106
13.359332503940449	2.611486	1.6160092
13.376979194877402	2.6120906	1.6161963
13.394626204502751	2.6905692	1.6402955
13.412273533252307	2.714865	1.6476847
13.429921181561937	2.7108283	1.6464593
13.447569149867581	2.6884797	1.6396585
13.465217438605247	2.710158	1.6462557
13.482866048211022	2.6636362	1.632065
13.500514979121052	2.6227746	1.6194983
13.518164231771568	2.5836647	1.6073782
13.535813806598844	2.586685	1.6083174
13.553463704039254	2.6087153	1.6151518
13.571113924529229	2.6121187	1.6162051
13.588764468505275	2.6263573	1.620604
13.606415336403956	2.6472569	1.6270393
13.624066528661917	2.666764	1.633023
13.641718045715882	2.7315404	1.6527373
13.659369888002635	2.7886765	1.6699331
13.67702205595903	2.8468504	1.6872612
13.694674550021993	2.922415	1.7095072
13.712327370628532	3.0042608	1.7332803
13.729980518215713	3.089727	1.757762
13.747633993220681	3.1658955	1.7792964
13.765287796080647	3.1962378	1.7878025
13.7829419272329	3.226366	1.7962087
13.800596387114801	3.2338903	1.798302
13.818251176163775	3.2522566	1.8034014
13.835906294817324	3.2915938	1.814275
13.853561743513023	3.315745	1.8209188
13.871217522688525	3.3439903	1.8286581
13.888873632781538	3.39056	1.8413473
13.906530074229858	3.453824	1.8584467
13.92418684747135	3.4914057	1.8685304
13.941843952943948	3.4419675	1.855254
13.959501391085665	3.3760157	1.8373938
13.977159162334578	3.3386562	1.827199
13.994817267128846	3.3131192	1.8201976
14.012475705906693	3.243539	1.8009828
14.030134479106424	3.1377192	1.7713609
14.047793587166414	3.071967	1.7527027
14.065453030525108	3.024228	1.7390308
14.083112809621026	2.9715633	1.7238224
14.100772924892766	2.9099882	1.7058687
14.118433376778997	2.8868704	1.6990793
14.136094165718458	2.8317153	1.6827701
14.153755292149969	2.7434027	1.656322
14.171416756512416	2.7049668	1.6446784
14.189078559244768	2.6316326	1.6222308
14.20674070078606	2.5897346	1.6092652
14.224403181575408	2.536432	1.592618
14.242066002051999	2.4775264	1.574016
14.259729162655093	2.4374592	1.5612365
14.277392663824022	2.4218104	1.5562167
14.295056505998208	2.3965185	1.5480692
14.312720689617128	2.3971307	1.548267
14.330385215120348	2.398192	1.5486097
14.348050082947497	2.3772979	1.5418489
14.3657152935383	2.3789027	1.5423691
14.383380847332528	2.329817	1.5263739
14.401046744770051	2.3474963	1.5321541
14.418712986290798	2.33133	1.5268694
14.436379572334793	2.3342457	1.5278238
14.454046503342123	2.3216786	1.5237056
14.471713779752946	2.3388157	1.5293187
14.489381402007504	2.3398752	1.5296651
14.507049370546113	2.324408	1.524601
14.524717685809168	2.3099012	1.519836
14.542386348237134	2.3447182	1.5312473
14.560055358270553	2.3724885	1.5402884
14.577724716350051	2.370154	1.5395304
14.595394422916325	2.3656569	1.5380692
14.61306447841015	2.4155023	1.5541886
14.63073488327237	2.4370627	1.5611094
14.648405637943917	2.4829724	1.575745
14.6660767428658	2.47159	1.5721291
14.683748198479094	2.5055366	1.5828887
14.701420005224954	2.5280368	1.5899801
14.719092163544628	2.5889814	1.6090312
14.73676467387942	2.6147811	1.6170285
14.754437536670727	2.6074948	1.6147739
14.772110752360014	2.5906887	1.6095617
14.78978432138882	2.5802774	1.6063242
14.807458244198777	2.6047857	1.6139349
14.82513252123159	2.580094	1.6062671
14.842807152929028	2.639807	1.6247482
14.860482139732962	2.6464777	1.6267998
14.87815748208531	2.649213	1.6276404
14.8958331804281	2.6388972	1.6244683
14.91350923520342	2.5710995	1.6034648
14.931185646853438	2.6085029	1.6150861
14.948862415820408	2.588152	1.6087735
14.966539542546656	2.6395648	1.6246737
14.98421702747459	2.6066709	1.6145188
15.001894871046696	2.5977135	1.6117424
15.019573073705542	2.5836306	1.6073676
15.037251635893766	2.5632644	1.6010197
15.054930558054092	2.600368	1.6125656
15.072609840629323	2.6122751	1.6162534
15.090289484062351	2.7464275	1.6572349
15.107969488796124	2.8739958	1.6952864
15.125649855273691	3.0959492	1.7595309
15.14333058393817	3.4750183	1.86414
15.161011675232768	4.0565176	2.0140798
15.17869312960076	4.711642	2.1706316
15.196374947485506	5.4058642	2.3250515
15.214057129330447	6.7465963	2.5974212
15.231739675579114	8.877047	2.9794374
15.249422586675102	13.3870535	3.6588323
15.267105863062092	17.856804	4.2257314
15.284789505183847	25.057625	5.0057592
15.302473513484218	30.048532	5.481654
15.320157888407127	34.204437	5.848456
15.337842630396578	32.95687	5.7408075
15.355527739896656	30.068907	5.4835124
15.37321321735153	23.364405	4.833674
15.39089906320545	15.934119	3.9917564
15.408585277902748	10.196775	3.193239
15.42627186188783	6.2773294	2.50546
15.443958815605198	4.4767065	2.1158228
15.461646139499424	3.7019246	1.9240386
15.479333834015168	3.2785885	1.8106873
15.497021899597165	2.9809666	1.7265476
15.514710336690234	2.712109	1.6468482
15.53239914573928	2.5959568	1.6111974
15.550088327189297	2.5243278	1.5888133
15.567777881485336	2.5193484	1.5872456
15.58546780907256	2.5214846	1.5879183
15.6031581103962	2.5353346	1.5922734
15.620848785901568	2.4940238	1.5792478
15.638539836034063	2.4428868	1.5629737
15.656231261239173	2.3818011	1.5433085
15.673923061962451	2.3663967	1.5383097
15.691615238649552	2.402193	1.549901
15.709307791746202	2.4044914	1.5506423
15.727000721698221	2.4069254	1.5514269
15.744694028951498	2.3808477	1.5429996
15.76238771395202	2.3494563	1.5327936
15.780081777145844	2.3280084	1.5257813
15.797776218979125	2.337535	1.5288999
15.815471039898094	2.3596904	1.5361284
15.833166240349064	2.4005034	1.5493557
15.850861820778437	2.414715	1.5539353
15.868557781632699	2.4059482	1.5511119
15.886254123358412	2.4066663	1.5513433
15.903950846402232	2.4220412	1.5562909
15.921647951210897	2.46395	1.5696974
15.939345438231225	2.4838145	1.5760123
15.957043307910133	2.551285	1.5972743
15.974741560694602	2.5943274	1.6106915
15.992440197031714	2.578082	1.6056406
16.01013921736862	2.534545	1.5920254
16.02783862215259	2.5158377	1.5861392
16.045538411830933	2.4770386	1.573861
16.06323858685107	2.468995	1.5713036
16.080939147660512	2.4317193	1.5593971
16.09864009470684	2.354825	1.5345439
16.11634142843774	2.3030195	1.5175703
16.134043149300954	2.3140178	1.5211896
16.15174525774433	2.4073303	1.5515574
16.169447754215817	2.4172487	1.5547503
16.18715063916342	2.4199805	1.5556287
16.204853913035244	2.4190567	1.5553317
16.222557576279478	2.4479647	1.5645972
16.240261629344403	22.424503	4.7354517
16.257966072678386	42.95744	6.5541925
16.275670906729868	38.09652	6.172238
16.293376131947387	2.5317197	1.5911379
16.31108174877957	2.5425408	1.5945346
16.328787757675133	2.5139413	1.5855414
16.34649415908287	2.5382025	1.5931737
16.364200953451657	2.5624077	1.6007522
16.38190814123048	2.6330683	1.6226732
16.39961572286839	2.6786897	1.6366704
16.41732369881455	2.680613	1.6372578
16.43503206951817	2.6728206	1.6348764
16.45274083542859	2.696617	1.6421379
16.47044999699522	2.7435899	1.6563785
16.488159554667558	2.8309438	1.6825409
16.505869508895184	2.9024215	1.7036494
16.523579860127786	2.979747	1.7261944
16.541290608815117	2.9913895	1.7295634
16.559001755407035	2.9853475	1.7278159
16.57671330035348	3.0600843	1.7493097
16.59442524410448	3.225522	1.7959739
16.61213758711015	3.4468307	1.8565643
16.629850329820705	3.523593	1.8771236
16.647563472686436	3.539351	1.8813163
16.665277016157724	3.441762	1.8551986
16.682990960685053	3.4307418	1.8522261
16.70070530671898	3.4106362	1.8467908
16.718420054710155	3.454223	1.858554
16.736135205109335	3.5546758	1.8853848
16.753850758367335	3.62182	1.903108
16.771566714935087	3.6627285	1.9138256
16.789283075263597	3.6811042	1.9186203
16.80699983980398	3.7229633	1.9294982
16.82471700900741	3.7601714	1.9391161
16.84243458332518	3.8423328	1.960187
16.860152563208665	3.951477	1.9878323
16.87787094910932	4.037818	2.0094323
16.89558974147871	4.1292152	2.032047
16.913308940768466	4.191156	2.0472312
16.931028547430333	4.1998057	2.0493429
16.94874856191613	4.172951	2.0427802
16.966468984677785	4.257739	2.0634289
16.98418981616729	4.3116364	2.076448
17.00191105683676	4.3569846	2.0873392
17.019632707138374	4.3377724	2.082732
17.03735476752442	4.3149915	2.0772557
17.05507723844728	4.3820686	2.0933392
17.072800120359403	4.5180936	2.1255808
17.090523413713353	4.594101	2.1433854
17.108247118961785	4.5894775	2.1423066
17.125971236557437	4.5769963	2.1393917
17.143695766953133	4.6153245	2.1483307
17.161420710601806	4.638787	2.1537843
17.179146067956477	4.633333	2.1525178
17.19687183947025	4.68228	2.1638577
17.21459802559634	4.6884375	2.16528
17.232324626788028	4.613157	2.147826
17.25005164349871	4.5129023	2.1243594
17.267779076181863	4.456715	2.1110933
17.285506925291074	4.477802	2.1160817
17.30323519127999	4.4647794	2.1130025
17.320963874602384	4.4859138	2.1179976
17.33869297571211	4.4567037	2.1110907
17.356422495063114	4.461273	2.1121726
17.37415243310944	4.4292383	2.1045756
17.391882790305218	4.4320936	2.1052537
17.40961356710468	4.379555	2.0927386
17.42734476396215	4.365725	2.0894318
17.445076381332044	4.453996	2.1104493
17.462808419668868	4.5607147	2.135583
17.48054087942723	4.692885	2.1663067
17.498273761061835	4.786102	2.187716
17.51600706502747	5.1298637	2.2649202
17.533740791779024	5.746732	2.3972342
17.551474941771485	6.5586495	2.560986
17.56920951545993	8.404517	2.8990545
17.586944513299528	9.712702	3.116521
17.60467993574556	12.724201	3.5670998
17.622415783253373	15.417676	3.926535
17.64015205627843	18.142296	4.2593775
17.657888755276293	20.366047	4.5128756
17.675625880702604	21.868952	4.676425
17.69336343301311	20.485664	4.526109
17.71110141266366	18.38587	4.2878747
17.728839820110178	15.626288	3.95301
17.746578655808705	12.439085	3.5269086
17.764317920215372	10.255291	3.2023883
17.7820576137864	8.539111	2.9221756
17.79979773697811	7.159323	2.6756911
17.81753829024692	5.841396	2.416898
17.835279274049356	5.111007	2.2607536
17.85302068884201	4.406896	2.0992608
17.870762535081607	4.0325236	2.0081143
17.888504813224934	3.8331306	1.9578383
17.90624752372891	3.6837306	1.9193047
17.923990667050536	3.550838	1.8843668
17.941734243646895	3.446236	1.8564041
17.959478253975185	3.4276588	1.8513937
17.9772226984927	3.4265742	1.8511008
17.994967577656833	3.3756392	1.8372912
18.01271289192506	3.334287	1.826003
18.030458641754965	3.2648132	1.8068794
18.04820482760425	3.2507703	1.8029892
18.06595144993067	3.2649748	1.8069241
18.083698509192125	3.3261588	1.823776
18.101446005846576	3.3362648	1.8265445
18.119193940352105	3.2846186	1.8123517
18.136942313166887	3.2093887	1.7914767
18.1546911247492	3.1028836	1.7615004
18.1724403755574	3.0581398	1.7487538
18.19019006604997	3.0520847	1.7470217
18.207940196685467	3.0393937	1.7433857
18.225690767922575	3.0410678	1.7438657
18.243441780220046	3.0251849	1.7393059
18.261193234036764	3.0328624	1.7415116
18.278945129831676	3.0050266	1.7335012
18.29669746806386	3.023098	1.7387059
18.314450249192483	3.0273287	1.739922
18.3322034736768	3.0774057	1.7542536
18.349957141976184	3.072294	1.752796
18.3677112545501	3.0338726	1.7418015
18.385465811858108	2.96926	1.7231541
18.403220814359884	2.9746041	1.724704
18.420976262515172	3.031572	1.7411411
18.43873215678387	3.0563524	1.7482426
18.456488497625923	3.0746515	1.7534684
18.474245285501407	3.1350985	1.770621
18.492002520870486	3.2441542	1.8011535
18.50976020419343	3.3233564	1.8230075
18.527518335930615	3.6219625	1.9031454
18.545276916542516	4.1663733	2.0411696
18.563035946489688	4.298515	2.073286
18.580795426232832	4.782284	2.1868434
18.598555356232698	4.6760693	2.1624222
18.616315736950185	4.975354	2.2305503
18.63407656884626	4.5535536	2.1339056
18.65183785238201	4.758874	2.1814845
18.669599588018617	4.602061	2.1452415
18.68736177621737	4.6309566	2.1519659
18.705124417439652	4.6081777	2.1466665
18.72288751214696	4.4181004	2.1019278
18.740651060800886	4.5501657	2.1331117
18.758415063863115	4.252508	2.062161
18.77617952179546	4.3935013	2.0960681
18.793944435059814	4.150449	2.037265
18.811709804118184	4.152171	2.0376878
18.829475629432675	4.1017632	2.025281
18.8472419114655	3.8937993	1.9732713
18.86500865067897	3.9983256	1.9995813
18.88277584753551	3.6807024	1.9185157
18.90054350249763	3.6781693	1.9178554
18.918311616027957	3.3927195	1.8419336
18.936080188589226	3.292936	1.8146449
18.953849220644265	2.976346	1.725209
18.971618712656007	2.8062987	1.675201
18.9893886650875	2.7807243	1.6675504
19.007159078401887	7.9780207	2.824539
19.024929953062408	32.863487	5.7326684
19.042701289532435	32.80823	5.727847
19.060473088275405	25.359762	5.0358477
19.07824534975489	2.6501508	1.6279284
19.096018074434568	2.6342537	1.6230384
19.113791262778197	2.6042175	1.6137588
19.13156491524966	2.5580144	1.5993794
19.149339032312945	2.560163	1.6000509
19.167113614432136	2.5195694	1.5873152
19.184888662071433	2.5146902	1.5857775
19.202664175695123	2.4747818	1.573144
19.220440155767623	2.4839532	1.5760562
19.238216602753447	2.4965925	1.580061
19.2559935171172	2.4847372	1.5763049
19.27377089932361	2.4836943	1.5759741
19.291548749837514	2.440469	1.5622001
19.309327069123835	2.433606	1.5600019
19.32710585764763	2.4462574	1.5640516
19.344885115874032	2.4659648	1.5703391
19.362664844268313	2.4651022	1.5700644
19.380445043295822	2.4539006	1.566493
19.39822571342203	2.4660103	1.5703536
19.41600685511252	2.4560227	1.5671703
19.43378846883297	2.4667728	1.5705963
19.451570555049173	2.473116	1.5726143
19.469353114227037	2.4862726	1.5767919
19.48713614683254	2.4577942	1.5677353
19.50491965333182	2.4408615	1.5623257
19.52270363419109	2.4849534	1.5763735
19.540488089876686	2.5063915	1.5831587
19.55827302085503	2.513625	1.5854416
19.576058427592674	2.4823546	1.575549
19.593844310556282	2.4793246	1.5745871
19.611630670212598	2.483359	1.5758678
19.629417507028506	2.4908063	1.5782288
19.64720482147098	2.487741	1.5772574
19.6649926140071	2.4331896	1.5598685
19.682780885104084	2.42819	1.5582651
19.70056963522921	2.4338484	1.5600796
19.718358864849908	2.4679332	1.5709656
19.7361485744337	2.4809952	1.5751175
19.753938764448215	2.504858	1.5826743
19.771729435361202	2.513787	1.5854927
19.789520587640506	2.4855306	1.5765566
19.807312221754092	2.4503393	1.565356
19.825104338170043	2.4459658	1.5639584
19.842896937356517	2.4534833	1.5663599
19.860690019781824	2.4536242	1.5664049
19.87848358591436	2.4708366	1.5718895
19.896277636222635	2.5042393	1.5824789
19.914072171175278	2.501076	1.5814791
19.931867191241015	2.4663649	1.5704664
19.94966269688869	2.4509966	1.565566
19.967458688587264	2.4252195	1.5573117
19.985255166805807	2.406327	1.551234
20.00305213201348	2.4352963	1.5605435
20.020849584679578	2.4547768	1.5667727
20.038647525273507	2.4609723	1.5687486
20.05644595426477	2.423673	1.556815
20.07424487212299	2.439046	1.5617445
20.092044279317903	2.430531	1.559016
20.109844176319353	2.4313393	1.5592753
20.127644563597304	2.4054866	1.5509632
20.145445441621817	2.3986797	1.5487672
20.16324681086307	2.3915162	1.5464528
20.181048671791373	2.3814301	1.5431883
20.198851024877122	2.3450813	1.5313659
20.216653870590836	2.3837538	1.543941
20.234457209403146	2.413261	1.5534674
20.252261041784802	2.4124517	1.5532069
20.270065368206662	2.3673413	1.5386167
20.287870189139685	2.3363376	1.5285083
20.305675505054968	2.3281527	1.5258285
20.323481316423702	2.345453	1.5314872
20.341287623717207	2.3641124	1.537567
20.359094427406884	2.3779545	1.5420618
20.376901727964288	2.3353865	1.5281972
20.39470952586107	2.336258	1.5284822
20.41251782156899	2.2936122	1.5144676
20.430326615559935	2.3037162	1.5177997
20.448135908305886	2.299479	1.5164033
20.465945700278965	2.3109972	1.5201964
20.483755991951384	2.2827532	1.5108783
20.50156678379548	2.2848198	1.5115621
20.519378076283708	2.2913284	1.5137135
20.537189869888635	2.2374427	1.4958084
20.55500216508294	2.2262144	1.4920504
20.572814962339415	2.2283354	1.492761
20.59062826213098	2.2908359	1.5135508
20.60844206493066	2.2828586	1.5109131
20.626256371211593	2.262299	1.5040941
20.644071181447032	2.2652292	1.5050678
20.66188649611036	2.316752	1.522088
20.67970231567506	2.2801492	1.5100163
20.697518640614742	2.2800512	1.5099839
20.715335471403122	2.3195226	1.5229979
20.73315280851404	2.3289633	1.5260941
20.750970652421447	2.3125727	1.5207145
20.768789003599412	2.265351	1.5051084
20.786607862522136	2.2686176	1.506193
20.8044272296639	2.2438555	1.4979504
20.82224710549913	2.2326667	1.4942111
20.84006749050237	2.224022	1.4913155
20.857888385148268	3.827751	1.9564639
20.8757097899116	45.93974	6.777886
20.893531705267254	64.77929	8.048558
20.911354131690224	83.77602	9.152924
20.92917706965566	69.020256	8.307843
20.94700051963877	50.098217	7.0780096
20.96482448211493	29.398525	5.4220405
20.982648957559622	4.1386533	2.034368
21.00047394644843	2.2293398	1.4930974
21.01829944925707	2.230051	1.4933355
21.036125466461375	2.2352893	1.4950885
21.053951998537297	2.208331	1.4860455
21.071779045960906	2.1533246	1.467421
21.089606609208378	2.1205845	1.4562227
21.10743468875603	2.1562922	1.4684318
21.12526328508028	2.181063	1.4768422
21.143092398657675	2.167795	1.4723433
21.16092202996488	2.1541946	1.4677175
21.17875217947867	2.160834	1.4699776
21.19658284767596	2.1791744	1.4762027
21.21441403503377	2.1682684	1.4725041
21.232245742029225	2.13687	1.4618037
21.2500779691396	2.143354	1.4640198
21.26791071684227	2.1542852	1.4677483
21.28574398561475	2.1363459	1.4616244
21.30357777593465	2.152522	1.4671476
21.321412088279704	2.1432836	1.4639958
21.339246923127792	2.1487806	1.4658719
21.357082280956888	2.1198115	1.4559573
21.3749181622451	2.146496	1.4650925
21.392754567470647	2.1494522	1.466101
21.41059149711187	2.126628	1.4582963
21.42842895164726	2.1137645	1.4538791
21.446266931555378	2.0962763	1.4478523
21.464105437314945	2.1066058	1.4514151
21.481944469404798	2.098009	1.4484506
21.49978402830388	2.0911622	1.4460851
21.51762411449127	2.0515218	1.4323134
21.53546472844617	2.0615804	1.4358205
21.553305870647876	2.057614	1.4344386
21.571147541575865	2.060357	1.4353944
21.58898974170967	2.0548744	1.4334834
21.60683247152899	2.0410297	1.4286461
21.62467573151363	2.0405211	1.4284681
21.642519522143523	2.0212772	1.4217163
21.660363843898722	2.0191398	1.4209644
21.6782086972594	1.9732767	1.4047337
21.696054082705864	1.952776	1.3974175
21.713900000718535	1.9612447	1.4004445
21.73174645177795	1.9857993	1.4091839
21.749593436364794	1.9739026	1.4049565
21.767440954959845	2.0071385	1.4167352
21.785289008044032	2.0177467	1.420474
21.803137596098388	2.0202065	1.4213396
21.820986719604086	2.014138	1.4192033
21.838836379042412	1.9985175	1.4136894
21.85668657489478	1.9643582	1.4015557
21.87453730764273	1.9646034	1.4016432
21.892388577767914	1.9756671	1.4055842
21.91024038575213	1.9955149	1.412627
21.928092732077285	1.9853458	1.409023
21.945945617225426	1.9827603	1.4081053
21.963799041678694	1.9339187	1.3906541
21.981653005919398	31.25054	5.590218
21.999507510429943	78.05414	8.8348255
22.01736255569286	73.003746	8.544223
22.035218142190818	4.110894	2.027534
22.05307427040661	1.9651557	1.4018401
22.07093094082315	1.9662457	1.4022288
22.088788153923474	1.9290351	1.3888971
22.106645910190746	1.9343866	1.3908223
22.12450421010827	1.9571294	1.3989744
22.142363054159464	1.9893351	1.410438
22.16022244282787	2.0173469	1.4203334
22.178082376597164	2.0249746	1.4230161
22.195942855951145	1.9800917	1.4071573
22.213803881373742	1.9588025	1.3995723
22.231665453349002	1.951536	1.3969738
22.24952757236111	1.9409617	1.3931841
22.26739023889438	1.9154518	1.3839985
22.28525345343323	1.9244703	1.3872528
22.30311721646225	1.9192618	1.3853743
22.320981528466113	1.9246917	1.3873326
22.33884638992964	1.9201365	1.3856899
22.356711801337788	1.9342188	1.390762
22.37457776317561	1.938463	1.392287
22.392444275928337	1.933247	1.3904126
22.410311340081282	1.9299281	1.3892184
22.428178956119904	1.9256037	1.3876612
22.446047124529805	1.9191163	1.3853217
22.46391584579669	1.8937119	1.3761221
22.481785120406414	1.8362327	1.3550767
22.49965494884496	1.8555472	1.3621848
22.51752533159841	1.9166764	1.3844408
22.53539626915302	1.9344382	1.3908409
22.553267761995137	1.937722	1.3920208
22.571139810611264	1.9519597	1.3971255
22.589012415488025	1.9604203	1.4001501
22.60688557711216	1.9313246	1.389721
22.624759295970566	1.9402664	1.3929344
22.642633572550263	1.9607252	1.400259
22.660508407338362	1.9332607	1.3904175
22.67838380082217	1.9201608	1.3856987
22.696259753489077	1.9269077	1.388131
22.714136265826614	1.9283742	1.3886591
22.73201333832246	1.9083827	1.3814422
22.74989097146439	1.8884802	1.3742199
22.76776916574035	1.8873363	1.3738036
22.785647921638393	1.890648	1.3750083
22.803527239646712	1.8803494	1.3712584
22.82140712025363	1.8804725	1.3713032
22.839287563947593	1.8777882	1.3703241
22.85716857121719	1.9091998	1.381738
22.875050142551135	1.8745872	1.3691556
22.892932278438277	1.8096159	1.3452196
22.910814979367604	1.7833426	1.3354185
22.928698245828222	1.8172097	1.3480393
22.946582078309387	1.8498051	1.3600754
22.96446647730047	1.8393087	1.3562112
22.98235144329098	1.8547243	1.3618826
23.000236976770562	1.8999192	1.3783755
23.018123078229	1.9216888	1.3862499
23.03600974815619	1.913309	1.3832241
23.053896987042194	1.9257927	1.3877293
23.071784795377173	1.9187814	1.3852009
23.08967317365145	1.9228308	1.3866618
23.10756212235546	1.9249496	1.3874255
23.125451641979787	1.8835164	1.3724127
23.143341733015134	1.8591659	1.3635124
23.161232395952357	1.8351011	1.3546591
23.179123631282426	1.8389206	1.356068
23.197015439496468	1.8937007	1.376118
23.214907821085717	1.9228534	1.3866699
23.23280077654157	1.948015	1.3957131
23.250694306355538	1.9514676	1.3969494
23.268588411019277	1.9327219	1.3902236
23.28648309102458	1.9077914	1.3812282
23.304378346863356	1.8740312	1.3689526
23.322274179027676	1.9091834	1.381732
23.340170588009723	1.9388412	1.3924228
23.358067574301852	1.9770439	1.4060739
23.37596513839651	1.9393784	1.3926157
23.39386328078629	1.9309818	1.3895977
23.411762001963947	1.9304703	1.3894137
23.429661302422353	1.9141915	1.3835431
23.4475611826545	1.8738488	1.368886
23.46546164315356	1.869948	1.3674605
23.48336268441279	1.9213411	1.3861245
23.501264306925638	1.9315023	1.389785
23.51916651118564	1.9395238	1.3926679
23.537069297686497	1.9143454	1.3835987
23.554972666922037	1.8964369	1.3771118
23.57287661938623	1.8569075	1.3626839
23.59078115557318	1.8706111	1.3677028
23.608686275977128	1.9032124	1.3795696
23.62659198109246	1.9135063	1.3832954
23.6444982714137	1.8777313	1.3703034
23.66240514743549	1.8668194	1.366316
23.68031260965263	1.8780973	1.3704369
23.698220658560068	1.8567358	1.362621
23.716129294652845	1.8854222	1.3731068
23.7340385184262	1.8823322	1.3719811
23.75194833037546	1.8833523	1.3723528
23.769858730996123	1.8530724	1.361276
23.78776972078382	1.8574107	1.3628685
23.80568130023431	1.8707674	1.36776
23.823593469843495	1.8573945	1.3628626
23.841506230107424	1.8618256	1.3644873
23.859419581522275	1.8693	1.3672235
23.87733352458438	1.8842471	1.3726788
23.89524805979019	1.8600125	1.3638228
23.913163187636318	1.8686748	1.3669947
23.931078908619508	1.9091055	1.3817039
23.948995223236633	1.9548936	1.3981751
23.966912131984735	1.9685882	1.4030639
23.98482963536096	1.9713913	1.4040624
24.002747733862616	1.9827149	1.408089
24.020666427987155	1.9933131	1.4118474
24.038585718232156	2.0343301	1.4262995
24.056505605095353	2.0538013	1.4331089
24.074426089074617	2.0171757	1.4202731
24.092347170667946	2.0071201	1.4167286
24.110268850373515	2.0485253	1.431267
24.128191128689586	2.0862374	1.4443814
24.146114006114626	1.998223	1.4135852
24.164037483147187	1.9551332	1.3982608
24.181961560286005	1.9588181	1.3995779
24.199886238029926	1.9685106	1.4030362
24.21781151687797	1.9841137	1.4085857
24.235737397329274	2.01546	1.419669
24.253663879883135	2.0434103	1.429479
24.271590965038975	2.014315	1.4192656
24.289518653296376	2.0055573	1.416177
24.30744694515505	2.0269363	1.4237051
24.32537584111486	2.0459473	1.4303662
24.34330534167581	2.0566576	1.4341052
24.361235447338046	2.027363	1.423855
24.379166158601876	2.0317194	1.4253839
24.39709747596772	2.0037167	1.415527
24.41502939993615	1.9840695	1.40857
24.432961931007917	1.93889	1.3924403
24.450895069683856	1.9335881	1.3905352
24.468828816465	1.9330099	1.3903272
24.4867631718525	1.9347144	1.3909401
24.504698136347656	1.8986555	1.377917
24.52263371045192	1.9097443	1.381935
24.540569894666874	1.9298173	1.3891786
24.558506689494266	1.9256976	1.3876951
24.57644409543597	1.9088409	1.3816081
24.594382112994012	1.9460268	1.3950007
24.61232074267057	1.9835962	1.408402
24.630259984967953	1.9685625	1.4030547
24.64819984038863	1.9907831	1.4109511
24.66614030943522	1.9677954	1.4027812
24.684081392610462	1.9461147	1.3950322
24.702023090417274	1.9528604	1.3974478
24.7199654033587	1.9477596	1.3956215
24.737908331937927	1.9680648	1.4028773
24.755851876658305	1.9612633	1.4004511
24.773796038023324	2.029182	1.4244936
24.79174081653661	2.0118191	1.4183861
24.809686212701962	2.0264301	1.4235274
24.827632227023294	2.0542336	1.4332597
24.8455788600047	2.0369852	1.4272299
24.8635261121504	2.0595005	1.435096
24.88147398396475	2.0725522	1.4396361
24.899422475952303	2.0944588	1.4472245
24.917371588617698	2.0982256	1.4485253
24.935321322465768	2.1542704	1.4677433
24.953271678001478	2.2450309	1.4983428
24.97122265572994	2.40816	1.5518247
24.989174256156414	2.717076	1.6483556
25.00712647978632	3.3043344	1.8177829
25.02507932712521	4.339371	2.0831158
25.043032798678798	5.858046	2.42034
25.060986894952933	7.4520364	2.7298417
25.078941616453637	8.922636	2.9870782
25.096896963687055	9.890792	3.144963
25.114852937159508	10.688779	3.2693698
25.132809537377444	10.455178	3.2334468
25.150766764847468	9.698998	3.1143215
25.168724620076347	8.336987	2.887384
25.186683103570985	7.0677104	2.6585166
25.204642215838426	5.6758933	2.3824134
25.222601957385894	4.516269	2.1251516
25.24056232872074	3.4457595	1.8562757
25.25852333035048	2.7443228	1.6565998
25.276484962782778	2.3452163	1.5314099
25.294447226525435	2.180813	1.4767576
25.312410122086423	2.0562727	1.4339709
25.330373649973843	1.9994448	1.4140173
25.348337810695988	1.9976476	1.4133816
25.366302604761245	1.96986	1.403517
25.384268032678207	1.9213083	1.3861127
25.40223409495558	1.8998102	1.3783361
25.420200792102257	1.9513165	1.3968953
25.438168124627246	1.9448164	1.3945668
25.45613609303974	1.962715	1.4009693
25.474104697849057	1.928386	1.3886634
25.492073939564698	1.9005661	1.3786103
25.510043818696285	1.8782783	1.370503
25.528014335753614	1.8809006	1.3714592
25.54598549124664	1.8892351	1.3744946
25.56395728568544	1.8913636	1.3752686
25.58192971958028	1.8798375	1.3710717
25.59990279344156	1.8787851	1.3706878
25.617876507779833	1.8427409	1.3574759
25.635850863105826	1.8152417	1.3473091
25.653825859930386	1.8325746	1.3537261
25.671801498764548	1.8397273	1.3563654
25.68977778011949	1.8455411	1.3585069
25.707754704506524	1.8392516	1.3561901
25.725732272437153	1.8388494	1.3560418
25.743710484423012	1.7990917	1.3413023
25.761689340975888	1.8219355	1.3497909
25.77966884260774	1.8512868	1.36062
25.797648989830662	1.9076014	1.3811594
25.815629783156922	1.8770089	1.3700397
25.83361122309895	1.8838528	1.3725352
25.85159331016929	1.8899157	1.374742
25.869576044880695	1.8744278	1.3690975
25.887559427746034	1.8014011	1.3421628
25.90554345927836	1.8072687	1.344347
25.92352813999086	1.8478924	1.359372
25.94151347039689	1.8444539	1.3581067
25.959499451009965	1.8060716	1.3439016
25.97748608234374	1.7739427	1.3318944
25.995473364912062	1.8095059	1.3451787
26.013461299228904	1.8665001	1.3661991
26.03144988580839	1.8581883	1.3631538
26.04943912516483	1.8275166	1.3518567
26.067429017812675	1.8442154	1.3580189
26.085419564266537	1.8801222	1.3711755
26.103410765041186	1.8914797	1.3753108
26.12140262065155	1.8626199	1.3647783
26.139395131612723	1.8654526	1.3658158
26.157388298439948	1.8232734	1.3502864
26.17538212164861	1.8065733	1.3440883
26.193376601754295	1.7788448	1.3337334
26.211371739272714	1.7839038	1.3356286
26.229367534719746	1.7612133	1.3271071
26.247363988611433	1.7697663	1.3303256
26.26536110146397	1.7784872	1.3335993
26.283358873793727	1.7868956	1.3367481
26.301357306117204	1.7764777	1.3328457
26.319356398951104	1.7718794	1.3311197
26.33735615281224	1.7942835	1.3395087
26.35535656821762	1.8805654	1.371337
26.373357645684404	1.9195058	1.3854623
26.39135938572991	1.8778507	1.3703469
26.409361788871614	1.8615516	1.3643869
26.427364855627165	1.8267992	1.3515913
26.445368586514352	1.8363655	1.3551257
26.46337298205115	1.8352675	1.3547205
26.48137804275568	1.8227396	1.3500887
26.499383769146217	1.8147837	1.3471391
26.517390161741215	1.8110629	1.3457574
26.53539722105928	1.8072742	1.344349
26.553404947619182	1.8183179	1.3484502
26.571413341939856	1.7799047	1.3341306
26.589422404540397	1.7517949	1.3235539
26.60743213594006	1.7851427	1.3360924
26.62544253665827	1.7777485	1.3333223
26.64345360721459	1.8176615	1.3482068
26.66146534812879	1.8267125	1.3515593
26.679477759920758	1.8606919	1.3640718
26.69749084311057	1.8371167	1.3554028
26.71550459821847	1.8323295	1.3536357
26.733519025764842	1.7746284	1.3321518
26.751534126270258	1.7449208	1.3209546
26.769549900255434	1.7429117	1.3201938
26.787566348241267	1.7632453	1.3278725
26.80558347074881	1.7845455	1.3358688
26.823601268299267	1.7544808	1.3245682
26.841619741414036	1.7458622	1.3213108
26.85963889061465	1.8029134	1.3427261
26.877658716422832	1.8881388	1.3740957
26.89567921936045	1.8519651	1.3608693
26.913700399949544	1.7769653	1.3330286
26.93172225871233	1.7757945	1.3325894
26.949744796171174	1.789717	1.337803
26.967768012848605	1.7901806	1.3379763
26.98579190926733	1.7546217	1.3246213
27.003816485950225	1.7469866	1.3217362
27.021841743420318	1.7632586	1.3278775
27.039867682200814	1.8003175	1.3417591
27.057894302815072	1.8243649	1.3506905
27.07592160578664	1.8346803	1.3545038
27.0939495916392	1.8172143	1.3480409
27.111978260896635	1.7812572	1.3346374
27.13000761408296	1.7275172	1.3143505
27.148037651722397	1.7215413	1.3120751
27.166068374339304	1.7492241	1.3225824
27.184099782458215	1.7807926	1.3344634
27.20213187660384	1.8141735	1.3469126
27.22016465730105	1.845406	1.3584572
27.23819812507487	1.831717	1.3534094
27.256232280450533	1.8140339	1.3468608
27.274267123953383	1.8153512	1.3473498
27.292302656108987	1.8044384	1.3432938
27.31033887744306	1.757021	1.3255267
27.32837578848146	1.7504022	1.3230276
27.34641338975026	1.7650715	1.32856
27.364451681775673	1.8060106	1.343879
27.382490665084074	1.8377181	1.3556247
27.400530340202046	1.8126796	1.346358
27.41857070765629	1.7744201	1.3320736
27.436611767973726	1.7558738	1.3250939
27.454653521681404	1.7737025	1.3318043
27.472695969306564	1.7365731	1.317791
27.490739111376627	1.698429	1.3032379
27.508782948419153	1.6984427	1.3032432
27.526827480961902	1.7351422	1.317248
27.54487270953279	1.7445847	1.3208272
27.562918634659898	1.7643708	1.3282962
27.580965256871508	1.7726581	1.3314121
27.599012576696026	1.7714899	1.3309733
27.617060594662068	1.7390482	1.3187298
27.63510931129842	1.7610514	1.3270462
27.65315872713401	1.7894797	1.3377143
27.67120884269797	1.7987705	1.3411825
27.68925965851958	1.8099347	1.3453381
27.707311175128307	1.8685664	1.3669552
27.725363393053787	1.8374665	1.3555318
27.74341631282583	1.8153045	1.3473324
27.7614699349744	1.8134174	1.3466319
27.77952426002968	2.023408	1.4224654
27.797579288521973	2.140315	1.4629816
27.815635020981784	2.5797117	1.6061481
27.83369145793979	2.6757944	1.6357856
27.85174859992682	2.5424085	1.5944932
27.869806447473923	2.3608758	1.5365142
27.887865001112267	2.023841	1.4226177
27.905924261373233	1.9050913	1.3802505
27.92398422878836	1.8931059	1.3759018
27.94204490388936	1.8608094	1.3641149
27.96010628720813	1.8368515	1.355305
27.978168379276728	1.8413558	1.3569657
27.9962311806274	1.8133657	1.3466127
28.014294691792568	1.82358	1.3504
28.0323589133048	1.7889727	1.3375249
28.050423845696887	1.8340064	1.354255
28.068489489501758	1.8134279	1.3466358
28.086555845252523	1.8539202	1.3615874
28.104622913482487	1.8554006	1.3621309
28.122690694725115	1.8458267	1.3586121
28.14075918951405	1.8500851	1.3601784
28.15882839838312	1.8940465	1.3762436
28.176898321866304	1.9054818	1.380392
28.1949689604978	1.8928425	1.3758061
28.213040314811945	1.8683771	1.3668859
28.23111238534327	1.8532048	1.3613247
28.249185172626493	1.8391191	1.3561412
28.267258677196473	1.8252919	1.3510337
28.285332899588294	1.841058	1.356856
28.303407840337172	1.8628101	1.364848
28.321483499978545	1.8631765	1.3649822
28.33955987904799	1.8718649	1.3681612
28.357636978081285	1.9368465	1.3917063
28.37571479761439	1.9328753	1.3902788
28.393793338183425	1.9267913	1.3880891
28.41187260032469	1.9568226	1.3988647
28.429952584574686	2.01376	1.4190701
28.448033291470065	2.0280557	1.4240983
28.46611472154769	2.0338023	1.4261144
28.484196875344566	2.0134985	1.418978
28.502279753397914	2.030448	1.4249378
28.52036335624511	2.0122476	1.4185371
28.538447684423716	2.0182474	1.4206504
28.556532738471482	2.0205393	1.4214567
28.574618518926325	2.0141013	1.4191904
28.59270502632635	1.9905761	1.4108778
28.61079226120985	2.027335	1.4238452
28.628880224115274	2.0673006	1.437811
28.646968915581287	2.061598	1.4358267
28.66505833614671	2.0293877	1.4245658
28.68314848635055	2.0157335	1.4197652
28.701239366732004	2.0250154	1.4230304
28.71933097783044	2.0398147	1.4282209
28.737423320185403	2.1213224	1.456476
28.75551639433665	2.1367543	1.4617641
28.773610200824074	2.0921323	1.4464206
28.791704740187793	2.100744	1.4493943
28.80980001296809	2.1951826	1.4816148
28.827896019705413	2.2386703	1.4962187
28.845992760940433	2.2079487	1.4859167
28.86409023721397	2.117186	1.4550554
28.88218844906704	2.1293976	1.4592456
28.900287397040845	2.1975856	1.4824256
28.918387081676755	2.1980217	1.4825727
28.936487503516343	2.2161748	1.4886823
28.954588663101365	2.2727199	1.5075543
28.97269056097374	2.323732	1.5243791
28.990793197675597	2.3677921	1.5387632
29.00889657374923	2.4096127	1.5522927
29.027000689737125	2.38519	1.544406
29.04510554618196	2.4222934	1.5563719
29.06321114362659	2.4379587	1.5613964
29.08131748261405	2.4052281	1.5508798
29.099424563687567	2.4051094	1.5508416
29.11753238739057	2.474083	1.5729218
29.13564095426663	2.483443	1.5758944
29.15375026485954	2.534988	1.5921645
29.171860319713275	2.6354125	1.6233953
29.18997111937199	2.6671102	1.633129
29.20808266438002	2.6871383	1.6392493
29.226194955281898	2.7816205	1.6678191
29.244307992622335	2.8626087	1.6919246
29.26242177694624	2.8662014	1.6929859
29.2805363087987	2.8145716	1.6776685
29.29865158872498	2.7986655	1.6729213
29.316767617270557	2.823525	1.6803348
29.334884394981064	2.8732061	1.6950535
29.353001922402367	2.9736266	1.7244207
29.37112020008047	3.060669	1.7494768
29.389239228561596	3.1166432	1.7654017
29.407359008392152	3.3109508	1.8196018
29.42547954011872	3.6198916	1.9026012
29.44360082428809	4.0560255	2.0139577
29.46172286144722	4.7725973	2.1846275
29.479845652143283	6.3983474	2.5294955
29.497969196923606	9.15399	3.025556
29.516093496335728	13.009166	3.606822
29.5342185509274	16.675314	4.083542
29.55234436124651	19.765898	4.4458857
29.570470927841175	21.202599	4.604628
29.588598251259686	20.9823	4.580644
29.60672633205055	19.401491	4.404712
29.624855170762405	16.297272	4.036988
29.642984767944146	12.775294	3.5742543
29.66111512414481	9.465806	3.076655
29.67924623991366	7.1058493	2.66568
29.697378115800138	5.2959023	2.3012826
29.71551075235387	4.268898	2.066131
29.733644150124675	3.7551918	1.9378318
29.751778309662576	3.5673897	1.8887535
29.769913231517766	3.4823349	1.8661015
29.78804891624066	3.4227629	1.8500711
29.806185364381818	3.3207033	1.8222797
29.82432257649206	3.336578	1.8266302
29.842460553122333	3.3299797	1.8248231
29.86059929482382	3.3567228	1.8321362
29.878738802147872	3.4308524	1.8522561
29.896879075646048	3.407851	1.8460366
29.915020115870114	3.324738	1.8233864
29.933161923371976	3.2738857	1.8093882
29.951304498703777	3.2372963	1.7992488
29.969447842417857	3.2313285	1.7975897
29.987591955066733	3.245073	1.8014086
30.005736837203123	3.2388215	1.7996726
30.023882489379943	3.2143857	1.7928708
30.04202891215028	3.204459	1.7901002
30.060176106067455	3.1856332	1.7848343
30.078324071684946	3.15324	1.7757365
30.09647280955646	3.1221075	1.7669487
30.114622320235863	3.1554377	1.7763551
30.132772604277257	3.1758263	1.7820848
30.1509236622349	3.1545932	1.7761174
30.16907549466328	3.1769102	1.7823889
30.18722810211705	3.1434872	1.7729882
30.205381485151097	3.0386088	1.7431606
30.22353564432045	2.989729	1.7290833
30.241690580180403	3.0059628	1.7337713
30.25984629328638	2.939316	1.7144433
30.278002784194037	2.8899133	1.6999745
30.296160053459246	2.8663888	1.6930413
30.314318101638033	2.8959773	1.7017571
30.332476929286646	2.953627	1.718612
30.35063653696153	2.941302	1.7150224
30.368796925219307	2.866992	1.6932194
30.386958094616844	2.8514001	1.6886089
30.40512004571115	2.938314	1.7141511
30.423282779059463	2.9404464	1.7147729
30.441446295219233	2.9307313	1.7119379
30.459610594748067	2.870233	1.6941762
30.47777567820382	2.8688836	1.6937779
30.495941546144504	2.8163562	1.6782002
30.51410819912835	2.7584045	1.6608446
30.532275637713795	2.734268	1.6535622
30.55044386245946	2.744189	1.6565593
30.56861287392416	2.7689345	1.6640116
30.586782672666956	2.8001804	1.6733739
30.604953259247047	2.8255398	1.6809342
30.623124634223885	2.7763638	1.6662425
30.641296798157075	2.702497	1.6439273
30.659469751606462	2.6831234	1.6380242
30.677643495132074	2.69253	1.640893
30.695818029294152	2.6762524	1.6359255
30.713993354653116	2.6275787	1.6209807
30.73216947176962	2.6980863	1.6425853
30.75034638120448	2.7733848	1.6653483
30.768524083518756	2.7564623	1.6602597
30.786702579273673	2.7963924	1.6722417
30.80488186903069	2.9211383	1.7091337
30.82306195335144	3.114789	1.7648765
30.841242832797782	3.3372574	1.8268162
30.85942450793176	3.6477191	1.9099003
30.877606979315637	3.9680614	1.9919994
30.895790247511883	4.295147	2.0724735
30.913974313083134	4.720119	2.1725836
30.932159176592283	5.1732125	2.2744696
30.95034483860237	5.5530014	2.3564808
30.968531299676698	5.580958	2.362405
30.98671856037873	5.307529	2.3038075
31.00490662127215	4.832464	2.1982868
31.023095482920848	4.389161	2.0950325
31.04128514588892	3.8673594	1.9665602
31.059475610740662	3.3156817	1.8209014
31.07766687804056	2.9036512	1.7040104
31.09585894835335	2.6111586	1.615908
31.11405182224393	2.4942987	1.5793349
31.132245500277417	2.4986317	1.5807061
31.15043998301914	2.5080228	1.5836738
31.168635271034628	2.4738758	1.572856
31.18683136488964	2.4051938	1.5508687
31.20502826515008	2.4240987	1.5569518
31.223225972382135	2.4613001	1.5688531
31.241424487152155	2.4615796	1.5689422
31.259623810026692	2.4257345	1.557477
31.27782394157253	2.4252481	1.5573208
31.296024882356644	2.4094806	1.5522501
31.314226632946237	2.4423447	1.5628003
31.332429193908684	2.3983328	1.5486552
31.350632565811598	2.3826118	1.5435711
31.368836749222787	2.4061027	1.5511618
31.387041744710295	2.3942406	1.5473334
31.40524755284232	2.476009	1.5735339
31.423454174187317	2.5116456	1.5848172
31.441661609313922	2.518262	1.5869032
31.459869858791002	2.4533458	1.566316
31.478078923187628	2.4489791	1.5649215
31.496288803073064	2.5024192	1.5819037
31.514499499016807	2.4876	1.5772128
31.532711011588546	2.3472726	1.5320811
31.550923341358178	2.2864842	1.5121125
31.56913648889584	2.3147454	1.5214287
31.587350454771844	2.3491948	1.5327083
31.605565239556732	2.290069	1.5132974
31.62378084382127	2.2311468	1.4937024
31.641997268136382	2.262494	1.504159
31.660214513073274	2.2905877	1.5134687
31.67843257920331	2.260695	1.5035608
31.6966514670981	2.238102	1.4960288
31.71487117732944	2.2481015	1.499367
31.733091710469346	2.2486296	1.4995431
31.751313067090052	2.270253	1.5067358
31.769535247764008	2.3103385	1.5199797
31.787758253063878	2.3695025	1.5393188
31.805982083562526	2.3485327	1.5324923
31.824206739833024	2.2988634	1.5162003
31.84243222244869	2.3275468	1.52563
31.860658531983013	2.3064969	1.5187155
31.878885669009737	2.2700958	1.5066837
31.897113634102784	2.3188403	1.5227739
31.91534242783632	2.2665372	1.5055023
31.933572050784694	2.2237782	1.4912338
31.951802503522508	2.213842	1.4878985
31.970033786624548	2.1770716	1.4754903
31.988265900665834	2.1787558	1.4760609
32.006498846221575	2.2439737	1.4979899
32.02473262386724	2.2321162	1.4940269
32.04296723417845	2.1285381	1.458951
32.0612026777311	2.0520542	1.4324993
32.07943895510129	2.0885866	1.4451942
32.097676066865304	2.1589894	1.46935
32.115914013599685	2.1216114	1.4565753
32.13415279588115	2.0757344	1.440741
32.152392414286666	2.0711203	1.4391388
32.1706328693934	2.06159	1.4358238
32.18887416177875	2.1123972	1.4534088
32.20711629202032	2.0773165	1.4412899
32.225359260695924	2.0482926	1.4311857
32.243603068383614	2.0904403	1.4458355
32.26184771566166	2.180826	1.4767619
32.28009320310852	2.163436	1.4708623
32.2983395313029	2.1395214	1.4627103
32.31658670082372	2.172344	1.4738873
32.33483471225012	2.141461	1.4633731
32.35308356616143	2.1742535	1.474535
32.371333263137245	2.1402829	1.4629706
32.38958380375734	2.1181738	1.4553947
32.407835188601744	2.070962	1.4390837
32.42608741825067	2.068966	1.43839
32.444340493284585	2.022954	1.4223058
32.46259441428416	1.9734621	1.4047997
32.48084918183028	2.0425735	1.4291863
32.49910479650405	2.1937742	1.4811395
32.51736125888683	2.2006116	1.4834459
32.53561856956014	2.1164463	1.4548011
32.5538767291058	2.0069659	1.4166743
32.572135738105764	2.038501	1.4277608
32.59039559714228	2.0593264	1.4350353
32.608656306797776	2.0874095	1.444787
32.62691786765491	2.0805855	1.4424235
32.645180280296586	2.0550904	1.4335587
32.663443545305896	2.0055246	1.4161655
32.68170766326619	2.009617	1.4176097
32.69997263476099	2.0420394	1.4289994
32.7182384603741	1.9502008	1.3964959
32.7365051406895	1.9233695	1.386856
32.75477267629144	2.0297253	1.4246843
32.77304106776434	2.1216881	1.4566016
32.79131031569289	2.0755997	1.4406942
32.809580420661966	1.9919904	1.4113789
32.827851383256714	1.9654795	1.4019556
32.84612320406245	2.011625	1.4183177
32.86439588366476	2.0412533	1.4287244
32.88266942264945	1.9706162	1.4037864
32.9009438216025	1.8902919	1.3748789
32.9192190811102	1.8917011	1.3753912
32.937495201758985	1.9147052	1.3837287
32.95577218413556	2.006885	1.4166456
32.974050028826866	2.0375514	1.4274282
32.992328736420035	1.9242733	1.3871818
33.010608307502444	1.8249177	1.3508952
33.02888874266169	1.9295135	1.3890693
33.047170042485604	2.0207183	1.4215198
33.06545220756225	1.9767957	1.4059857
33.083735238479896	1.9373822	1.3918988
33.10201913582707	2.0222788	1.4220685
33.12030390019248	1.9939682	1.4120795
33.138589532165135	1.9847349	1.4088062
33.15687603233419	1.9830897	1.4082222
33.17516340128909	2.006099	1.4163682
33.19345163961947	2.035126	1.4265784
33.211740747915215	1.929196	1.388955
33.23003072676643	1.9262406	1.3878907
33.248321576763466	1.8831937	1.372295
33.266613298496885	1.9131864	1.3831798
33.28490589255747	1.8986785	1.3779254
33.30319935953626	1.9216623	1.3862404
33.32149370002451	2.0197792	1.4211893
33.339788914613706	2.0268643	1.4236798
33.358085003895575	1.9686501	1.403086
33.376381968462034	1.956715	1.3988262
33.39467980890529	1.9705476	1.403762
33.41297852581774	2.0475724	1.4309341
33.43127811979204	2.0272834	1.423827
33.44957859142105	2.048242	1.4311681
33.467879941297866	1.979716	1.4070238
33.486182170015844	1.9082767	1.3814039
33.50448527816853	1.918238	1.3850048
33.522789266349754	1.9460298	1.3950018
33.541094135153514	1.9425372	1.3937494
33.55939988517411	1.9516832	1.3970265
33.57770651700602	1.8783375	1.3705245
33.59601403124398	1.8011826	1.3420814
33.61432242848296	1.7775476	1.3332471
33.632631709318154	1.7943025	1.3395158
33.650941874344994	1.9233915	1.386864
33.66925292415916	1.986899	1.409574
33.68756485935654	1.9947001	1.4123385
33.70587768053328	1.9315183	1.3897908
33.724191388285746	1.9067622	1.3808556
33.74250598321054	1.8465761	1.3588878
33.760821465904506	1.8393953	1.3562431
33.77913783696474	1.7830493	1.3353087
33.79745509698852	1.8132131	1.3465561
33.815773246573414	1.8723133	1.368325
33.8340922863172	1.8903109	1.3748858
33.852412216817896	1.8616592	1.3644264
33.87073303867377	1.8268747	1.3516192
33.889054752483304	1.9251056	1.3874817
33.907377358845245	1.9864641	1.4094198
33.92570085835853	1.8711985	1.3679175
33.94402525162239	1.8368475	1.3553035
33.96235053923627	1.8825619	1.3720648
33.980676721799824	1.8761144	1.3697132
33.999003799912984	1.7877111	1.3370532
34.01733177417592	1.7884524	1.3373303
34.03566064518901	1.8619076	1.3645173
34.0539904135529	1.8853824	1.3730923
34.07232107986846	1.9457082	1.3948864
34.090652644736785	2.0217707	1.4218898
34.108985108759235	1.9738038	1.4049213
34.12731847253742	1.9379753	1.3921118
34.14565273667313	2.0300915	1.4248128
34.16398790176847	2.0402613	1.4283772
34.18232396842574	1.8551764	1.3620486
34.20066093724749	1.6329012	1.2778503
34.21899880883651	1.7233076	1.3127481
34.23733758379583	1.864617	1.3655097
34.25567726272874	1.8929386	1.375841
34.27401784623872	1.9031645	1.3795522
34.29235933492957	1.8758231	1.369607
34.31070172940526	1.9211073	1.3860401
34.32904503027003	1.9844581	1.408708
34.347389238128386	1.9600546	1.4000195
34.36573435358502	1.9598095	1.399932
34.38408037724492	2.0499768	1.431774
34.402427309713296	2.0283632	1.4242061
34.42077515159559	1.8298343	1.3527137
34.43912390349752	1.8653718	1.3657862
34.45747356602499	2.0253844	1.42316
34.47582413978423	1.9742168	1.4050683
34.49417562538163	1.9291701	1.3889457
34.51252802342388	2.004136	1.4156752
34.53088133451789	2.135354	1.4612851
34.54923555927084	2.1747944	1.4747185
34.567590698290104	2.1912038	1.4802716
34.58594675218336	2.0639703	1.4366524
34.6043037215585	1.9477026	1.3956012
34.62266160702365	1.8095809	1.3452066
34.641020409187234	1.8613795	1.3643239
34.65938012865785	1.9104289	1.3821826
34.677740766044394	1.9763932	1.4058425
34.69610232195598	2.1051106	1.4509
34.714464797002016	2.1230748	1.4570775
34.73282819179208	1.9737725	1.4049102
34.751192506936064	1.8544515	1.3617824
34.76955774304408	1.8375123	1.3555487
34.7879239007265	1.8557048	1.3622426
34.80629098059391	1.6911929	1.3004587
34.824658983257194	1.6255168	1.2749575
34.843027909327446	1.8112125	1.3458129
34.86139775941603	1.9820737	1.4078614
34.879768534134534	1.9752266	1.4054276
34.89814023409483	1.9001962	1.378476
34.91651285990901	1.844253	1.3580327
34.93488641218944	1.8285408	1.3522354
34.95326089154871	1.7911999	1.3383572
34.97163629859967	1.6875962	1.2990751
34.99001263395542	1.914996	1.3838338
35.00838989822934	1.8956984	1.3768437
35.02676809203499	1.7524742	1.3238105
35.04514721598624	1.8408294	1.3567717
35.063527270697215	2.016293	1.4199623
35.081908256782256	2.0407474	1.4285473
35.10029017485597	1.8496454	1.3600167
35.11867302553321	1.9050545	1.3802371
35.137056809429104	2.0134816	1.418972
35.155441527159006	2.017054	1.4202303
35.173827179338524	1.9191116	1.3853201
35.19221376658354	1.6953121	1.3020415
35.21060128951017	1.7503949	1.3230249
35.2289897487348	1.9788096	1.4067017
35.24737914487405	2.064967	1.4369993
35.26576947854479	1.9633467	1.4011947
35.28416075036418	1.9223177	1.3864768
35.30255296094958	2.024029	1.4226837
35.32094611091867	2.1467106	1.4651657
35.33934020088932	2.0564978	1.4340495
35.35773523147969	1.9592949	1.3997482
35.3761312033082	1.9758029	1.4056326
35.394528116993506	1.8392081	1.3561741
35.41292597315452	1.5812367	1.2574724
35.431324772410434	1.8029951	1.3427565
35.449724515380666	2.3516934	1.5335232
35.46812520268491	2.2597916	1.5032604
35.486526834943106	2.0077872	1.416964
35.504929412775454	1.9392453	1.3925679
35.52333293680242	1.9084386	1.3814625
35.54173740764471	2.0487127	1.4313325
35.560142825923286	1.940176	1.392902
35.5785491922594	1.7720761	1.3311934
35.59695650727454	2.213723	1.4878585
35.61536477159042	2.8026795	1.6741205
