0.008763373481513119	0.0	0.0
0.026290120649546365	0.11242709	0.3353015
0.043816868432600686	0.121336736	0.34833422
0.06134361724069026	0.08375415	0.2894031
0.07887036748382949	0.058829147	0.2425472
0.0963971195720331	0.0	0.0
0.11392387391531617	0.0916023	0.30265874
0.1314506309236943	0.1665515	0.40810722
0.1489773910071836	0.24234687	0.4922874
0.16650415457580078	0.2859267	0.53472114
0.18403092203956356	0.19473408	0.44128686
0.20155769380849	0.14785773	0.38452274
0.2190844702925996	0.07515643	0.27414674
0.2366112519019124	0.0632078	0.25141162
0.2541380390464497	0.10568113	0.32508636
0.27166483213623416	0.10777802	0.32829562
0.28919163158128947	0.13787578	0.37131628
0.3067184377916406	0.11032005	0.33214462
0.324245251177314	0.1534106	0.39167666
0.34177207214833777	0.1353182	0.36785623
0.3592989011147415	0.1446852	0.38037506
0.37682573848655654	0.09056283	0.30093658
0.39435258467381573	0.09439587	0.30723912
0.41187944008655414	0.15565716	0.3945341
0.42940630513480854	0.20233001	0.44981107
0.446933180228618	0.2120276	0.46046454
0.4644600657780234	0.1678393	0.40968195
0.48198696219306775	0.1579669	0.3974505
0.49951386988379676	0.20895039	0.4571109
0.5170407892602581	0.20836139	0.4564662
0.5345677207325025	0.22359014	0.47285318
0.5520946647105822	0.17341833	0.41643527
0.5696216216045534	0.19518974	0.44180283
0.5871485918244737	0.19736521	0.44425803
0.6046755757804043	0.1804912	0.42484257
0.6222025738824094	0.16098401	0.40122813
0.6397295865405557	0.17043896	0.41284254
0.6572566141649129	0.2090891	0.4572626
0.6747836571655547	0.19572353	0.44240654
0.6923107159525568	0.18786302	0.43343168
0.7098377909359992	0.15356429	0.3918728
0.7273648825259653	0.12812343	0.35794333
0.7448919911325411	0.11623966	0.34093937
0.762419117165817	0.12269864	0.35028365
0.7799462610358868	0.13710748	0.37028027
0.7974734231528482	0.14961487	0.38680083
0.8150006039268024	0.1807306	0.4251242
0.8325278037678551	0.17835462	0.42232051
0.8500550230861152	0.18565676	0.43087906
0.8675822622916969	0.2165614	0.4653616
0.8851095217947171	0.20583771	0.45369342
0.9026368020052984	0.19743009	0.44433105
0.9201641033335665	0.19607812	0.44280708
0.9376914261896523	0.20270427	0.4502269
0.9552187709836915	0.23518606	0.48495984
0.9727461381258234	0.24958715	0.49958697
0.990273528026193	0.26142773	0.5113
1.0078009410949496	0.2594659	0.50937796
1.0253283777422473	0.28731838	0.5360209
1.0428558383782454	0.27053732	0.520132
1.0603833234131086	0.24498305	0.49495763
1.0779108332570058	0.28978297	0.53831494
1.0954383683201119	0.32301936	0.56834793
1.112965929012607	0.3810912	0.61732584
1.1304935157446763	0.4719568	0.6869911
1.1480211289265108	0.49002004	0.7000143
1.1655487689683062	1.3476623	1.1608886
1.1830764362802655	1.6691859	1.2919698
1.200604131272596	2.057601	1.434434
1.2181318543555117	2.2970603	1.5156056
1.235659605939232	2.3005118	1.5167438
1.253187386433982	3.980804	1.9951953
1.270715196249994	6.4563537	2.5409355
1.2882430357975057	11.928137	3.4537134
1.3057709054867608	16.976791	4.1202903
1.3232988057280106	22.792126	4.77411
1.3408267369315112	27.777376	5.270425
1.358354699507526	31.43596	5.606778
1.3758826938663256	35.572502	5.9642687
1.3934107204181858	37.55493	6.1282077
1.410938779573391	38.057434	6.1690707
1.4284668717422309	38.446724	6.2005424
1.4459949973350033	37.936558	6.159266
1.4635231567620117	38.130753	6.17501
1.4810513504335687	37.297997	6.1072087
1.4985795787599925	36.605106	6.0502152
1.5161078421516088	35.80241	5.9835114
1.5336361410187505	34.982986	5.914642
1.5511644757717598	35.052902	5.920549
1.5686928468209842	36.024734	6.002061
1.58622125457678	36.82651	6.0684853
1.6037496994495108	38.191532	6.1799297
1.621278181849548	37.901512	6.15642
1.6388067021872719	38.417797	6.1982093
1.6563352608730693	37.828217	6.1504645
1.673863858317336	36.652084	6.0540967
1.6913924949304753	35.697845	5.974767
1.7089211711228998	34.7498	5.894896
1.7264498873050296	34.314705	5.8578753
1.7439786438872935	33.677414	5.8032246
1.7615074412801288	32.935905	5.7389812
1.779036279893981	31.856348	5.6441426
1.796565160139305	30.528097	5.5252237
1.814094082426564	29.732431	5.4527454
1.8316230471662298	29.000309	5.3851933
1.849152054768784	28.488905	5.3375
1.8666811056447168	28.007587	5.2922196
1.8842102002045273	27.386087	5.233172
1.901739338858724	26.7546	5.172485
1.9192685220178245	26.089397	5.107778
1.9367977500923557	25.26761	5.02669
1.9543270234928547	24.842424	4.9842176
1.971856342629867	24.290659	4.9285555
1.9893857079139496	23.863302	4.885008
2.006915119755667	23.350204	4.832205
2.0244445785655945	22.796795	4.774599
2.0419740847543175	22.469065	4.7401543
2.0595036387324317	22.073301	4.698223
2.0770332409105414	21.30398	4.6156235
2.094562891699263	20.786	4.5591664
2.1120925915092217	20.372364	4.5135756
2.129622340751053	19.96235	4.4679246
2.1471521398354043	188.29099	13.721916
2.1646819891729323	444.40637	21.080948
2.182211889174303	440.72943	20.993557
2.1997418402501974	453.06747	21.285381
2.2172718428113023	432.90997	20.806488
2.234801897268317	320.865	17.912704
2.2523320040319548	17.26471	4.155082
2.269862163512935	16.930714	4.114695
2.287392376121992	16.621761	4.0769796
2.304922642269869	16.514696	4.063828
2.322452962367322	16.404495	4.0502462
2.3399833368251164	16.005766	4.0007205
2.357513766054032	15.725272	3.9655104
2.3750442504648586	15.318713	3.9139128
2.3925747904683963	14.823481	3.8501275
2.410105386475459	14.793879	3.846281
2.4276360388968707	14.522084	3.8107853
2.445166748143469	14.506228	3.8087044
2.4626975146261025	14.155915	3.7624347
2.4802283387556323	13.863376	3.7233555
2.4977592209429305	13.413058	3.6623843
2.5152901615988825	13.085057	3.6173275
2.5328211611343865	12.915673	3.5938382
2.5503522199603523	12.621122	3.5526218
2.5678833384877024	12.558428	3.5437872
2.5854145171273712	12.307634	3.5082238
2.6029457562903064	12.045384	3.4706461
2.620477056387469	11.910044	3.4510932
2.6380084178298326	11.69019	3.419092
2.655539841028383	11.579887	3.4029233
2.673071326394119	11.349669	3.368927
2.6906028743380523	11.102615	3.3320587
2.708134485271211	10.920387	3.304601
2.7256661596046325	10.751844	3.2790005
2.743197897749369	10.54493	3.2472959
2.760729700116486	10.389398	3.2232587
2.778261567117063	10.336416	3.2150297
2.795793499162193	10.343293	3.216099
2.8133254966629817	10.368068	3.2199483
2.830857560030551	10.294486	3.208502
2.8483896896760337	10.152208	3.186253
2.865921886010578	9.865483	3.1409366
2.883454149445347	9.566353	3.092952
2.9009864803915177	9.30898	3.051062
2.91851887926028	9.217917	3.0361023
2.9360513464628384	9.171609	3.0284665
2.953583882410413	9.051091	3.0085032
2.9711164875142373	8.964418	2.9940639
2.9886491621855606	8.901152	2.9834797
3.0061819068356455	8.803217	2.9670215
3.023714721875769	8.574414	2.92821
3.041247607717225	8.446269	2.9062467
3.0587805647713213	8.333601	2.8867977
3.0763135934493806	8.336351	2.887274
3.0938466941627407	8.333186	2.886726
3.1113798673227544	8.217189	2.866564
3.1289131133407904	8.10641	2.8471758
3.1464464326282315	7.9909663	2.8268297
3.1639798255964786	7.959784	2.8213089
3.1815132926569443	7.869736	2.805305
3.1990468342210603	7.747811	2.783489
3.216580450700272	7.525522	2.7432685
3.2341141425060416	7.3806434	2.716734
3.251647910049847	7.2419004	2.691078
3.2691817537431813	7.1476974	2.6735177
3.286715673997555	7.0288477	2.6511974
3.3042496712244938	6.982577	2.6424565
3.32178374583554	6.961987	2.6385577
3.339317898242251	6.9792395	2.641825
3.3568521288562034	6.9156146	2.6297557
3.3743864380889876	6.871154	2.6212885
3.3919208263522127	6.854024	2.618019
3.4094552940575023	6.8208165	2.6116693
3.4269898416164972	6.793742	2.6064808
3.444524469440858	6.701946	2.5888116
3.4620591779422587	6.589319	2.566967
3.479593967532391	6.56211	2.5616615
3.4971288386229658	6.5676913	2.5627508
3.5146637916257086	6.596969	2.5684566
3.5321988269523628	6.5390434	2.5571554
3.5497339450146903	6.532809	2.555936
3.5672691462244708	6.5126324	2.551986
3.5848044309934988	6.382808	2.526422
3.60233979973359	6.2413616	2.4982717
3.619875252856575	6.1793847	2.4858367
3.6374107907743034	6.2130246	2.492594
3.6549464138986427	6.2054963	2.4910834
3.6724821226414788	6.2508583	2.5001717
3.690017917414714	6.299641	2.5099087
3.7075537986302702	6.2767096	2.5053363
3.7250897667000857	6.4180284	2.533383
3.7426258220361235	6.567542	2.5627217
3.7601619650503553	6.92161	2.6308954
3.777698196154779	7.4562364	2.730611
3.7952345157614067	8.437594	2.9047537
3.8127709242822716	9.199879	3.0331302
3.830307422129425	11.538485	3.3968346
3.847844009714936	30.370193	5.5109158
3.8653806874508954	97.878654	9.893364
3.882917455749409	97.13497	9.855707
3.900454315022606	96.9747	9.847573
3.917991265682631	41.543427	6.445419
3.9355283081416506	11.2142	3.348761
3.9530654428118495	8.891326	2.9818327
3.970602670105433	7.5092635	2.7403035
3.9881399904346244	6.576922	2.564551
4.005677404211669	6.4568934	2.5410419
4.023214911848827	6.5500355	2.5593038
4.0407525137583855	6.571951	2.5635817
4.058290210352644	6.545378	2.5583937
4.075828002043927	6.4525127	2.5401797
4.0933658892445814	6.3657374	2.5230412
4.110903872366966	6.3633766	2.5225735
4.128441951823468	6.28147	2.5062861
4.145980128026488	6.2654023	2.5030785
4.163518401388452	6.3278904	2.5155299
4.181056772321807	6.3141193	2.5127912
4.1985952412390155	6.2822495	2.5064416
4.216133808552567	6.210715	2.4921305
4.233672474674966	6.22849	2.4956942
4.251211240018741	6.527986	2.5549924
4.268750104996445	6.775988	2.603073
4.286289070020643	7.81599	2.7957091
4.303828135503928	9.415414	3.0684547
4.3213673018589125	29.796217	5.458591
4.3389065694982305	91.005684	9.53969
4.356445938834537	166.28888	12.895305
4.3739854102805085	171.54958	13.097693
4.391524984248844	172.3308	13.127482
4.409064661152262	136.3835	11.678334
4.426604441403504	96.67071	9.832127
4.444144325415337	75.958015	8.715389
4.461684313600543	22.083744	4.6993346
4.47922440637193	22.310604	4.72341
4.496764604142329	20.539412	4.532043
4.5143049073245916	18.49921	4.3010707
4.531845316331589	16.497812	4.06175
4.5493858315762195	13.679548	3.6985874
4.566926453471405	11.423065	3.3798025
4.584467182430081	9.420713	3.069318
4.602008018865218	8.216205	2.8663924
4.619548963189798	7.6653028	2.7686284
4.637090015816834	7.244761	2.6916094
4.654631177159353	7.0393095	2.6531696
4.672172447630417	6.711452	2.590647
4.689713827643102	6.439259	2.5375695
4.7072553176105085	6.1560125	2.4811313
4.724796917945764	5.953876	2.4400566
4.742338629062015	5.9131813	2.4317033
4.759880451372434	5.790315	2.4063075
4.777422385290215	5.7265644	2.3930242
4.794964431228581	5.7139745	2.390392
4.812506589600768	5.6836205	2.3840344
4.830048860820047	5.595415	2.365463
4.847591245299709	5.5267587	2.350906
4.8651337434530655	5.5942035	2.365207
4.882676355693457	5.681805	2.3836536
4.900219082434242	5.707866	2.3891141
4.917761924088813	5.599953	2.366422
4.935304881070575	5.5227213	2.350047
4.952847953792969	5.471906	2.3392105
4.970391142669449	5.5747356	2.3610878
4.9879344481135055	5.6179023	2.3702114
5.005477870538642	5.691966	2.3857841
5.023021410358394	5.6903877	2.3854535
5.040565067986324	5.619498	2.370548
5.05810884383601	5.583287	2.3628979
5.075652738321066	5.5263906	2.3508277
5.09319675185512	5.468284	2.3384364
5.110740884851836	5.4600453	2.336674
5.128285137724894	5.4807186	2.3410935
5.145829510888007	5.5132813	2.3480377
5.163374004754908	5.3926377	2.3222053
5.1809186197393595	5.3946333	2.322635
5.198463356255145	5.4217286	2.3284605
5.216008214716077	5.490959	2.3432796
5.233553195535998	5.4091454	2.325757
5.251098299128764	5.327213	2.3080757
5.268643525908272	5.33016	2.308714
5.286188876288432	5.3601065	2.3151903
5.3037343506831895	5.366291	2.3165257
5.32127994950651	5.227817	2.286442
5.3388256731723915	5.1365952	2.2664058
5.356371522094851	5.1140156	2.2614188
5.373917496687938	5.1732078	2.2744687
5.391463597365729	5.262664	2.2940497
5.40900982454232	5.2690067	2.2954316
5.426556178631843	5.330374	2.3087602
5.444102660048449	5.3124924	2.3048844
5.4616492692063225	5.3544784	2.3139746
5.479196006519669	5.2680497	2.2952232
5.496742872402727	5.1845	2.2769496
5.514289867269756	5.176937	2.2752883
5.531836991535049	5.204493	2.2813358
5.549384245612924	5.3208947	2.3067064
5.566931629917724	5.3439198	2.311692
5.584479144863822	5.3013988	2.3024766
5.6020267908656205	5.2886305	2.2997022
5.619574568337545	5.282072	2.298276
5.637122477694054	5.331645	2.3090355
5.654670519349629	5.28183	2.2982233
5.672218693718784	5.1657662	2.2728322
5.689767001216059	5.1778913	2.275498
5.707315442256021	5.1803336	2.2760346
5.724864017253266	5.2459307	2.2903998
5.7424127266224225	5.2157855	2.2838094
5.75996157077814	5.205464	2.2815485
5.777510550135105	5.2123055	2.2830474
5.795059665108022	5.251668	2.2916517
5.812608916111639	5.310884	2.3045356
5.830158303560715	5.443445	2.3331192
5.847707827870055	5.456359	2.335885
5.86525748945448	5.488496	2.342754
5.8828072887288485	5.6012006	2.3666856
5.900357226108044	5.6772227	2.3826923
5.917907302006979	5.754397	2.3988323
5.9354575168406	6.4313374	2.5360081
5.9530078710238765	7.0358872	2.6525247
5.970558364971812	7.6321497	2.7626345
5.988108999099438	7.9604726	2.821431
6.005659773821818	8.472344	2.9107292
6.023210689554039	8.198597	2.8633192
6.040761746711227	8.514146	2.917901
6.058312945708531	7.8654494	2.8045409
6.075864286961132	7.3870096	2.7179053
6.093415770884244	6.7179265	2.5918963
6.1109673978931065	6.19686	2.4893494
6.128519168402993	5.623421	2.3713753
6.146071082829204	5.5553417	2.3569772
6.163623141587075	5.4603076	2.33673
6.181175345091969	5.363794	2.3159866
6.198727693759281	5.252523	2.2918384
6.216280188004435	5.281302	2.2981083
6.233832828242885	5.2707715	2.2958162
6.251385614890126	5.3140726	2.3052273
6.268938548361669	5.2576766	2.2929623
6.286491629073067	5.253271	2.2920015
6.304044857439898	5.2190337	2.2845204
6.321598233877777	5.1495576	2.2692637
6.339151758802344	5.0787706	2.2536128
6.356705432629277	5.0356016	2.2440145
6.37425925577428	5.0562296	2.2486062
6.391813228653095	5.0519643	2.2476575
6.409367351681486	5.0763783	2.253082
6.426921625275259	5.084839	2.2549586
6.44447604985025	5.11597	2.261851
6.46203062582232	5.1352262	2.2661037
6.47958535360737	5.0713415	2.2519639
6.497140233621328	5.0087795	2.2380302
6.514695266280161	4.9740343	2.2302544
6.532250451999859	4.965645	2.2283726
6.549805791196454	4.989747	2.2337742
6.567361284286002	5.0165186	2.2397585
6.584916931684597	5.1048203	2.2593849
6.602472733808367	5.1568704	2.2708743
6.6200286910734665	5.200911	2.2805507
6.637584803896092	5.1761117	2.275107
6.655141072692462	5.1621184	2.2720296
6.672697497878842	5.1316185	2.2653077
6.690254079871514	5.0798526	2.2538528
6.707810819086808	5.0127387	2.2389147
6.725367715941078	4.985306	2.2327797
6.742924770850719	5.0017686	2.2364633
6.760481984232151	5.008619	2.2379944
6.778039356501836	5.0591927	2.249265
6.795596888076266	5.0474524	2.2466536
6.813154579371963	4.9807363	2.2317562
6.830712430805492	4.9695	2.2292376
6.84827044279344	5.0085382	2.2379763
6.865828615752445	5.0654035	2.2506452
6.883386950099159	5.161727	2.2719433
6.900945446250287	5.2030897	2.2810283
6.918504104622553	5.2331066	2.2875984
6.936062925632727	5.150819	2.2695415
6.953621909697607	5.12139	2.263049
6.971181057234028	5.0860324	2.2552233
6.988740368658859	5.147385	2.268785
7.006299844389007	5.224052	2.2856185
7.023859484841407	5.3541656	2.313907
7.041419290433036	5.417286	2.3275063
7.058979261580902	5.516919	2.3488123
7.0765393987020495	5.706015	2.3887267
7.094099702213559	5.993721	2.4482076
7.111660172532549	6.324644	2.5148845
7.129220810076164	6.716524	2.5916257
7.146781615261595	7.362735	2.713436
7.16434258850606	7.7002316	2.774929
7.181903730226821	8.116947	2.8490257
7.1994650408411704	8.199827	2.863534
7.217026520766437	8.275799	2.8767688
7.234588170419983	8.559729	2.9257014
7.252149990219215	8.591818	2.9311802
7.269711980581568	8.599803	2.932542
7.2872741419245175	8.305838	2.881985
7.304836474665574	7.8384066	2.7997155
7.322398979222286	7.512101	2.7408214
7.339961656012233	7.281408	2.6984084
7.357524505453039	6.966409	2.6393957
7.375087527962357	6.6148744	2.5719397
7.392650723957886	6.297188	2.50942
7.410214093857353	5.968526	2.4430566
7.427777638078528	5.82543	2.4135928
7.445341357039213	5.6533504	2.3776774
7.4629052511572525	5.5440607	2.354583
7.480469320850524	5.4350185	2.3313127
7.498033566536948	5.366379	2.3165445
7.5155979886344735	5.257606	2.292947
7.5331625875610975	5.226724	2.286203
7.550727363734844	5.2231297	2.2854168
7.568292317573788	5.222273	2.2852292
7.585857449496025	5.258654	2.2931755
7.603422759919705	5.2537937	2.2921154
7.620988249263007	5.2618814	2.293879
7.638553917944147	5.271636	2.2960043
7.656119766381391	5.262886	2.2940981
7.673685794993023	5.2903	2.3000653
7.691252004197388	5.274368	2.2965991
7.70881839441285	5.2414875	2.2894294
7.726384966057826	5.227164	2.2862992
7.743951719550762	5.234292	2.2878575
7.761518655310149	5.286713	2.2992854
7.779085773754511	5.3595943	2.3150797
7.796653075302419	5.349408	2.3128788
7.814220560372475	5.2749867	2.2967339
7.831788229383323	5.236941	2.2884364
7.8493560827536495	5.230785	2.287091
7.866924120902174	5.3011065	2.3024132
7.884492344247663	5.3478584	2.3125436
7.9020607532089135	5.395448	2.3228104
7.919629348204771	5.3742805	2.3182495
7.937198129654115	5.311603	2.3046916
7.954767097975865	5.3240924	2.3073995
7.972336253588986	5.3883705	2.3212864
7.989905596912472	5.448534	2.3342094
8.007475128365371	5.4543033	2.335445
8.025044848366756	5.506443	2.3465812
8.042614757335754	5.6702604	2.3812308
8.060184855691523	5.727304	2.3931787
8.07775514385327	5.8576875	2.420266
8.095325622240228	5.8286953	2.4142692
8.112896291271687	5.864416	2.4216557
8.130467151366968	5.9111614	2.431288
8.148038202945436	5.936251	2.4364424
8.165609446426497	5.9983044	2.4491436
8.183180882229594	6.053639	2.4604144
8.200752510774217	6.0018573	2.449869
8.218324332479893	5.9653034	2.442397
8.235896347766193	5.912671	2.4315984
8.253468557052724	5.9106407	2.431181
8.27104096075914	5.914616	2.4319985
8.288613559305137	6.0532207	2.4603293
8.306186353110448	6.2319613	2.4963896
8.32375934259485	6.355826	2.5210764
8.341332528178162	6.3591003	2.5217257
8.358905910280246	6.346183	2.5191631
8.376479489321003	6.3481283	2.5195491
8.394053265720377	6.40724	2.5312526
8.411627239898356	6.4055147	2.530912
8.42920141227497	6.439914	2.5376985
8.44677578327029	6.4535737	2.5403886
8.464350353304427	6.401245	2.5300682
8.48192512279754	6.3450384	2.518936
8.499500092169827	6.303377	2.5106528
8.51707526184153	6.243611	2.4987218
8.534650632232934	6.254956	2.5009909
8.552226203764365	6.248419	2.4996839
8.569801976856192	6.2388215	2.4977634
8.587377951928834	6.231752	2.4963477
8.60495412940274	6.297763	2.5095344
8.622530509698416	6.347452	2.5194151
8.6401070932364	6.4506965	2.539822
8.657683880437283	6.4905148	2.547649
8.675260871721695	6.673127	2.5832396
8.692838067510303	6.785213	2.604844
8.710415468223834	6.988139	2.643509
8.727993074283043	7.1280017	2.6698318
8.745570886108737	7.2610507	2.6946337
8.763148904121765	7.340718	2.7093759
8.78072712874302	7.325195	2.7065098
8.798305560393441	7.4984107	2.7383225
8.815884199494006	7.6353383	2.7632115
8.833463046465745	7.777803	2.7888713
8.851042101729728	7.865556	2.8045597
8.86862136570707	8.064056	2.839728
8.886200838818924	8.219245	2.8669226
8.903780521486505	8.401372	2.8985121
8.921360414131055	8.530588	2.920717
8.938940517173874	8.713177	2.9518092
8.956520831036297	8.79357	2.9653955
8.97410135613971	9.004	3.0006666
8.99168209290554	9.1837225	3.0304658
9.009263041755265	9.557975	3.0915976
9.026844203110405	9.786572	3.1283498
9.044425577392525	9.947375	3.153946
9.062007165023239	10.027671	3.1666498
9.079588966424197	10.296596	3.2088308
9.097170982017108	10.448402	3.2323987
9.11475321222372	11.446886	3.3833246
9.132335657465825	12.377945	3.5182304
9.149918318165264	12.521763	3.5386102
9.167501194743924	13.16683	3.6286128
9.18508428762374	12.827493	3.581549
9.202667597226693	12.753298	3.571176
9.220251123974803	12.427418	3.5252542
9.237834868290143	12.095308	3.477831
9.255418830594836	11.94338	3.4559195
9.273003011311046	11.392435	3.3752682
9.290587410860985	11.134739	3.3368757
9.308172029666911	10.454148	3.2332876
9.32575686815113	10.197633	3.1933732
9.343341926735997	8.879336	2.9798214
9.360927205843916	8.67985	2.9461584
9.378512705897327	8.544786	2.9231467
9.396098427318728	8.329887	2.8861544
9.413684370530664	8.229883	2.8687773
9.431270535955722	8.056933	2.8384738
9.448856924016539	7.951671	2.8198707
9.466443535135806	7.852272	2.8021905
9.484030369736251	7.845675	2.8010132
9.501617428240658	7.8765693	2.8065226
9.519204711071852	7.899592	2.8106213
9.536792218652714	7.924542	2.8150563
9.55437995140617	7.959517	2.8212616
9.571967909755191	7.9886003	2.8264112
9.589556094122802	8.051634	2.8375401
9.60714450493207	8.051928	2.837592
9.624733142606116	8.017693	2.831553
9.642322007568108	8.0671425	2.8402715
9.659911100241267	8.128243	2.8510075
9.677500421048851	8.185118	2.8609645
9.695089970414175	8.215908	2.8663406
9.712679748760609	8.193716	2.8624668
9.730269756511557	8.233504	2.8694084
9.747859994090492	8.193862	2.8624923
9.765450461920915	8.198003	2.8632154
9.78304116042639	8.315583	2.8836753
9.800632090030527	8.373284	2.8936627
9.81822325115699	8.404219	2.899003
9.835814644229481	8.35951	2.8912818
9.853406269671762	8.367561	2.8926737
9.870998127907646	8.3635645	2.8919828
9.888590219360985	8.3400755	2.887919
9.906182544455698	8.326527	2.8855722
9.923775103615734	8.321445	2.8846915
9.941367897265108	8.388555	2.8963
9.958960925827878	8.417318	2.9012616
9.97655418972816	8.414293	2.9007401
9.994147689390106	8.399553	2.8981984
10.011741425237934	8.404902	2.899121
10.029335397695904	8.438494	2.9049087
10.04692960718833	8.4576435	2.908203
10.06452405413958	8.388189	2.8962371
10.082118738974064	8.333764	2.886826
10.099713662116246	8.308999	2.8825336
10.117308823990651	8.292313	2.8796375
10.134904225021844	8.280587	2.877601
10.152499865634445	8.290658	2.8793502
10.170095746253125	8.355753	2.890632
10.18769186730261	8.318269	2.884141
10.205288229207675	8.291445	2.8794868
10.222884832393145	8.29066	2.8793507
10.2404816772839	8.286499	2.878628
10.258078764304868	8.304855	2.8818145
10.275676093881035	8.190978	2.8619885
10.293273666437438	8.1508465	2.8549688
10.310871482399158	8.1308	2.851456
10.32846954219134	8.131447	2.8515692
10.346067846239173	8.165881	2.8576007
10.363666394967908	8.135327	2.8522496
10.38126518880283	8.196915	2.8630254
10.398864228169298	8.250247	2.8723242
10.416463513492713	8.250628	2.8723907
10.434063045198531	8.232963	2.869314
10.451662823712262	8.20048	2.8636482
10.469262849459467	8.2690935	2.8756032
10.486863122865758	8.1667385	2.8577507
10.504463644356806	8.180082	2.8600843
10.522064414358338	8.120925	2.8497236
10.539665433296118	8.120689	2.8496823
10.557266701595987	8.028487	2.8334584
10.574868219683818	7.9501257	2.8195968
10.592469987985552	7.8434153	2.8006098
10.610072006927185	7.7001915	2.774922
10.627674276934751	7.563317	2.7501485
10.64527679843435	7.4245987	2.7248118
10.662879571852143	7.402991	2.7208438
10.680482597614331	7.2559147	2.6936805
10.698085876147173	7.0965967	2.6639438
10.715689407876988	6.9627333	2.638699
10.733293193230146	6.936607	2.633744
10.750897232633072	6.928585	2.6322205
10.76850152651225	6.8208213	2.6116703
10.786106075294207	6.6957355	2.587612
10.803710879405534	6.614009	2.5717716
10.821315939272877	6.518842	2.5532024
10.83892125532294	6.458959	2.541448
10.856526827982472	6.4399757	2.5377107
10.874132657678285	6.4426622	2.53824
10.891738744837243	6.463868	2.542414
10.909345089886271	6.381936	2.5262494
10.926951693252343	6.2450433	2.4990084
10.944558555362494	6.1241374	2.4746995
10.96216567664381	6.0108705	2.4517076
10.979773057523436	5.906468	2.4303226
10.997380698428573	5.8210607	2.4126875
11.014988599786477	5.7473154	2.397356
11.032596762024461	5.6962876	2.3866897
11.050205185569892	5.742688	2.3963907
11.067813870850198	5.7195754	2.3915634
11.085422818292859	5.650586	2.3770962
11.10303202832541	5.512622	2.3478973
11.120641501375454	5.5035086	2.3459558
11.138251237870636	5.449893	2.3345006
11.155861238238671	5.4373	2.331802
11.173471502907317	5.308827	2.304089
11.191082032304402	5.2184215	2.2843864
11.208692826857805	5.1255646	2.263971
11.226303886995465	5.0622797	2.2499511
11.243915213145371	5.009776	2.2382529
11.261526805735578	4.949535	2.224755
11.279138665194196	4.8954277	2.2125614
11.296750791949393	4.8557196	2.2035697
11.314363186429393	4.847147	2.2016237
11.331975849062479	4.844912	2.201116
11.34958878027699	4.807074	2.1925042
11.36720198050133	4.729058	2.1746397
11.384815450163948	4.7168517	2.1718314
11.402429189693366	4.679951	2.1633196
11.420043199518153	4.5734725	2.138568
11.437657480066942	63.483837	7.9676747
11.455272031768422	85.158585	9.228141
11.472886855051353	107.5971	10.372902
11.490501950344528	99.15263	9.957541
11.508117318076819	84.5218	9.193574
11.52573295867715	45.893246	6.7744555
11.543348872574514	4.2474456	2.060933
11.560965060197946	4.2041802	2.0504098
11.57858152197655	4.1969275	2.0486405
11.59619825833949	4.1255665	2.0311491
11.613815269715985	4.1048636	2.0260463
11.631432556535323	38.596977	6.2126465
11.649050119226837	83.12915	9.117518
11.666667958219929	93.52296	9.670727
11.68428607394406	107.74758	10.380154
11.701904466828756	82.54429	9.085389
11.719523137303586	65.36251	8.084708
11.737142085798196	4.598861	2.1444955
11.754761312742286	3.7004914	1.9236661
11.772380818565619	3.6488805	1.9102043
11.790000603698015	3.609464	1.899859
11.80762066856935	3.5947924	1.8959937
11.825241013609572	3.5814981	1.8924847
11.842861639248683	3.5737095	1.8904258
11.860482545916748	3.5555499	1.8856165
11.878103734043883	3.532887	1.8795975
11.895725204060282	3.45172	1.8578805
11.91334695639619	3.4064903	1.845668
11.930968991481919	3.3755012	1.8372537
11.948591309747824	3.3908906	1.8414371
11.966213911624347	3.3781624	1.8379778
11.98383679754198	3.3716826	1.8362142
12.001459967931268	3.3515198	1.8307157
12.019083423222835	3.2919667	1.8143778
12.036707163847352	3.274481	1.8095527
12.05433119023556	3.2368536	1.7991258
12.071955502818259	3.2285826	1.7968256
12.089580102026313	3.192679	1.786807
12.107204988290643	3.1882293	1.7855613
12.12483016204224	3.1588755	1.7773225
12.142455623712152	3.173568	1.7814511
12.16008137373149	3.183267	1.7841712
12.177707412531431	3.188268	1.7855722
12.19533374054321	3.1501563	1.774868
12.212960358198126	3.1198795	1.7663181
12.230587265927545	3.1181448	1.765827
12.248214464162889	3.0831397	1.7558872
12.265841953335649	3.0439162	1.7446823
12.283469733877375	3.0335007	1.7416948
12.301097806219685	3.0219655	1.7383802
12.31872617079425	3.0378504	1.742943
12.336354828032825	3.0397966	1.7435012
12.353983778367205	3.0374296	1.7428223
12.371613022229262	2.989375	1.7289809
12.389242560050928	2.9726925	1.7241498
12.406872392264201	2.9142096	1.7071056
12.424502519301143	2.9281952	1.711197
12.442132941593874	2.907528	1.7051475
12.459763659574586	2.9051719	1.7044564
12.477394673675532	2.9017682	1.7034577
12.49502598432903	2.918724	1.7084273
12.51265759196746	2.914124	1.7070806
12.530289497023267	2.90033	1.7030356
12.547921699928967	2.875309	1.6956736
12.565554201117134	2.841344	1.6856287
12.583187001020404	2.820841	1.679536
12.600820100071486	2.7846882	1.6687385
12.618453498703152	2.771894	1.6649005
12.636087197348235	2.75169	1.6588218
12.65372119643964	2.7581449	1.6607664
12.671355496410326	2.7700183	1.6643372
12.68899009769333	2.7883112	1.6698238
12.706625000721749	2.8204083	1.6794071
12.724260205928752	2.9131935	1.706808
12.741895713747551	3.0121968	1.7355682
12.759531524611454	3.1113002	1.7638878
12.777167638953818	3.131536	1.7696147
12.794804057208072	3.0726264	1.7528908
12.812440779807702	3.041509	1.7439922
12.830077807186271	3.2087605	1.7913014
12.847715139777405	3.29563	1.815387
12.865352778014795	3.5509076	1.8843852
12.882990722332197	3.6595807	1.9130031
12.90062897316344	3.7055154	1.9249716
12.918267530942412	3.7844748	1.9453727
12.935906396103071	3.6450522	1.909202
12.953545569079449	3.8041847	1.950432
12.971185050305628	3.6084807	1.8996001
12.988824840215775	3.609524	1.8998747
13.006464939244115	3.6018484	1.8978536
13.024105347824943	3.456943	1.8592856
13.041746066392617	3.5493307	1.8839668
13.05938709538157	3.3865893	1.8402689
13.077028435226296	3.4086463	1.846252
13.094670086361363	3.319887	1.8220557
13.112312049221401	3.2139652	1.7927536
13.129954324241112	3.1062005	1.7624416
13.147596911855258	2.8648043	1.6925733
13.165239812498685	2.852106	1.688818
13.182883026606293	2.8331215	1.683188
13.200526554613058	2.836973	1.6843317
13.218170396954017	2.807891	1.6756762
13.235814554064284	2.7492423	1.6580839
13.253459026379034	2.7544777	1.6596619
13.271103814333523	2.7132103	1.6471826
13.288748918363058	2.7353363	1.6538852
13.306394338903031	2.7091575	1.6459519
13.32404007638889	2.7057233	1.6449083
13.341686131256164	2.7446675	1.6567038
13.359332503940449	2.723974	1.6504467
13.376979194877402	2.7120779	1.6468388
13.394626204502751	2.7369423	1.6543707
13.412273533252307	2.7708516	1.6645875
13.429921181561937	2.7944074	1.6716481
13.447569149867581	2.7721896	1.6649894
13.465217438605247	2.7327342	1.6530983
13.482866048211022	2.7139728	1.647414
13.500514979121052	2.7248793	1.6507208
13.518164231771568	2.7119894	1.6468118
13.535813806598844	2.693424	1.6411655
13.553463704039254	2.656434	1.6298571
13.571113924529229	2.6202848	1.6187294
13.588764468505275	2.660405	1.6310748
13.606415336403956	2.7266505	1.6512573
13.624066528661917	2.766433	1.6632597
13.641718045715882	2.8241	1.6805059
13.659369888002635	2.856119	1.6900055
13.67702205595903	2.9392974	1.714438
13.694674550021993	2.9981947	1.7315296
13.712327370628532	3.0791698	1.7547563
13.729980518215713	3.1596162	1.7775309
13.747633993220681	3.2145119	1.7929059
13.765287796080647	3.2556996	1.8043557
13.7829419272329	3.3144634	1.8205668
13.800596387114801	3.3509376	1.8305566
13.818251176163775	3.3979154	1.8433435
13.835906294817324	3.421482	1.8497249
13.853561743513023	3.4603934	1.8602133
13.871217522688525	3.4865606	1.8672334
13.888873632781538	3.517402	1.8754737
13.906530074229858	3.508272	1.8730382
13.92418684747135	3.5345826	1.8800485
13.941843952943948	3.5688393	1.8891371
13.959501391085665	3.4989843	1.8705572
13.977159162334578	3.380296	1.8385581
13.994817267128846	3.3154953	1.8208501
14.012475705906693	3.2385168	1.799588
14.030134479106424	3.2202566	1.7945074
14.047793587166414	3.1842852	1.7844565
14.065453030525108	3.126613	1.768223
14.083112809621026	3.0648584	1.7506737
14.100772924892766	3.0068932	1.7340395
14.118433376778997	2.9747212	1.724738
14.136094165718458	2.9187741	1.708442
14.153755292149969	2.8413684	1.6856359
14.171416756512416	2.7818604	1.667891
14.189078559244768	2.7254632	1.6508976
14.20674070078606	2.6736815	1.6351396
14.224403181575408	2.5806024	1.6064254
14.242066002051999	2.5201008	1.5874826
14.259729162655093	2.4612193	1.5688274
14.277392663824022	2.4547048	1.5667497
14.295056505998208	2.4503238	1.565351
14.312720689617128	2.4424074	1.5628203
14.330385215120348	2.4577253	1.5677134
14.348050082947497	2.424718	1.5571506
14.3657152935383	2.4222434	1.5563558
14.383380847332528	2.404352	1.5505973
14.401046744770051	2.4183488	1.5551041
14.418712986290798	2.4415905	1.562559
14.436379572334793	2.4146311	1.5539083
14.454046503342123	2.4225712	1.5564611
14.471713779752946	2.4093084	1.5521947
14.489381402007504	2.4226258	1.5564786
14.507049370546113	2.4079056	1.5517428
14.524717685809168	2.385178	1.5444021
14.542386348237134	2.3603268	1.5363355
14.560055358270553	2.3577075	1.5354828
14.577724716350051	2.40341	1.5502936
14.595394422916325	2.4303348	1.5589532
14.61306447841015	2.470418	1.5717564
14.63073488327237	2.5017333	1.5816869
14.648405637943917	2.5152018	1.5859388
14.6660767428658	2.482488	1.5755913
14.683748198479094	2.458443	1.5679423
14.701420005224954	2.5046964	1.5826232
14.719092163544628	2.6369355	1.6238644
14.73676467387942	2.7403295	1.6553941
14.754437536670727	2.7743633	1.665642
14.772110752360014	2.784194	1.6685904
14.78978432138882	2.736874	1.65435
14.807458244198777	2.7482188	1.6577753
14.82513252123159	2.73162	1.6527613
14.842807152929028	2.743435	1.6563318
14.860482139732962	2.7106042	1.6463913
14.87815748208531	2.6817796	1.637614
14.8958331804281	2.68052	1.6372294
14.91350923520342	2.6590555	1.630661
14.931185646853438	2.7019675	1.6437663
14.948862415820408	2.7163851	1.6481459
14.966539542546656	2.739372	1.6551049
14.98421702747459	2.7034488	1.6442168
15.001894871046696	2.704058	1.644402
15.019573073705542	2.6906073	1.6403071
15.037251635893766	2.677577	1.6363304
15.054930558054092	2.7225506	1.6500154
15.072609840629323	2.7869945	1.6694294
15.090289484062351	2.9567266	1.7195134
15.107969488796124	3.2170546	1.793615
15.125649855273691	3.561909	1.887302
15.14333058393817	4.007074	2.0017676
15.161011675232768	4.973538	2.230143
15.17869312960076	6.3894877	2.5277436
15.196374947485506	8.28609	2.878557
15.214057129330447	11.376573	3.3729174
15.231739675579114	16.181067	4.0225697
15.249422586675102	21.38464	4.624353
15.267105863062092	24.643408	4.964213
15.284789505183847	24.951511	4.9951487
15.302473513484218	23.006727	4.7965326
15.320157888407127	19.411436	4.4058414
15.337842630396578	15.130277	3.8897657
15.355527739896656	11.6782675	3.417348
15.37321321735153	8.994522	2.9990869
15.39089906320545	6.5696006	2.5631232
15.408585277902748	4.9628105	2.2277367
15.42627186188783	3.8578622	1.9641441
15.443958815605198	3.251506	1.8031933
15.461646139499424	2.857753	1.6904889
15.479333834015168	2.7002568	1.6432458
15.497021899597165	2.6627138	1.6317824
15.514710336690234	2.646524	1.626814
15.53239914573928	2.6047864	1.6139351
15.550088327189297	2.5632932	1.6010288
15.567777881485336	2.5392354	1.5934979
15.58546780907256	2.5270224	1.5896611
15.6031581103962	2.5336046	1.5917301
15.620848785901568	2.5233865	1.5885171
15.638539836034063	2.5011837	1.5815132
15.656231261239173	2.4951525	1.5796052
15.673923061962451	2.4647517	1.5699527
15.691615238649552	2.4939203	1.579215
15.709307791746202	2.475025	1.5732212
15.727000721698221	2.43624	1.5608459
15.744694028951498	2.4029326	1.5501395
15.76238771395202	2.4076188	1.5516503
15.780081777145844	2.393517	1.5470996
15.797776218979125	2.403632	1.5503651
15.815471039898094	2.3832345	1.5437728
15.833166240349064	2.410113	1.5524539
15.850861820778437	2.420148	1.5556824
15.868557781632699	2.4494357	1.5650673
15.886254123358412	2.4452791	1.5637388
15.903950846402232	2.4252467	1.5573204
15.921647951210897	2.4008343	1.5494626
15.939345438231225	2.4162943	1.5544434
15.957043307910133	2.4451685	1.5637034
15.974741560694602	2.4164157	1.5544825
15.992440197031714	2.4152057	1.5540932
16.01013921736862	2.426563	1.557743
16.02783862215259	2.4477673	1.5645342
16.045538411830933	2.469024	1.5713128
16.06323858685107	2.4775255	1.5740157
16.080939147660512	2.46815	1.5710347
16.09864009470684	2.4338408	1.5600772
16.11634142843774	2.4173312	1.5547769
16.134043149300954	2.441416	1.5625031
16.15174525774433	2.4639955	1.5697119
16.169447754215817	2.4804454	1.574943
16.18715063916342	2.5116632	1.5848228
16.204853913035244	2.518957	1.5871222
16.222557576279478	2.5099268	1.5842749
16.240261629344403	22.466444	4.739878
16.257966072678386	42.96334	6.5546427
16.275670906729868	38.101337	6.172628
16.293376131947387	2.5622942	1.6007168
16.31108174877957	2.6029	1.6133505
16.328787757675133	2.5954337	1.611035
16.34649415908287	2.6038544	1.6136463
16.364200953451657	2.6421783	1.6254779
16.38190814123048	2.67174	1.6345458
16.39961572286839	2.7068694	1.6452566
16.41732369881455	2.7113545	1.6466191
16.43503206951817	2.7491498	1.658056
16.45274083542859	2.7694707	1.6641726
16.47044999699522	2.7825887	1.6681093
16.488159554667558	2.808729	1.6759263
16.505869508895184	2.8635864	1.6922134
16.523579860127786	2.913685	1.706952
16.541290608815117	2.9729383	1.7242211
16.559001755407035	3.0358202	1.7423606
16.57671330035348	3.0551426	1.7478967
16.59442524410448	3.0954528	1.7593899
16.61213758711015	3.2001388	1.7888932
16.629850329820705	3.2961	1.8155165
16.647563472686436	3.3921106	1.8417684
16.665277016157724	3.4043357	1.8450842
16.682990960685053	3.436721	1.8538395
16.70070530671898	3.4332259	1.8528966
16.718420054710155	3.4386811	1.8543681
16.736135205109335	3.5127094	1.8742224
16.753850758367335	3.5950565	1.8960634
16.771566714935087	3.7018375	1.924016
16.789283075263597	3.7452168	1.9352562
16.80699983980398	3.7727509	1.9423571
16.82471700900741	3.794152	1.9478583
16.84243458332518	3.861941	1.9651822
16.860152563208665	3.9747107	1.9936676
16.87787094910932	4.0502896	2.0125332
16.89558974147871	4.173511	2.0429173
16.913308940768466	4.228773	2.0563982
16.931028547430333	4.275207	2.0676575
16.94874856191613	4.3330708	2.0816028
16.966468984677785	4.3840256	2.0938065
16.98418981616729	4.4681587	2.113802
17.00191105683676	4.5327597	2.1290278
17.019632707138374	4.5449686	2.1318932
17.03735476752442	4.6350713	2.1529217
17.05507723844728	4.6297364	2.1516821
17.072800120359403	4.6304507	2.1518483
17.090523413713353	4.6473503	2.1557715
17.108247118961785	4.7268906	2.1741414
17.125971236557437	4.744574	2.1782043
17.143695766953133	4.7235756	2.173379
17.161420710601806	4.733589	2.1756814
17.179146067956477	4.754259	2.1804264
17.19687183947025	4.7434454	2.1779451
17.21459802559634	4.7414126	2.1774786
17.232324626788028	4.733346	2.1756253
17.25005164349871	4.7232623	2.1733067
17.267779076181863	4.712619	2.1708567
17.285506925291074	4.702532	2.1685321
17.30323519127999	4.653667	2.1572359
17.320963874602384	4.5927954	2.1430807
17.33869297571211	4.5700216	2.1377609
17.356422495063114	4.5484037	2.1326988
17.37415243310944	4.517492	2.1254392
17.391882790305218	4.475118	2.1154475
17.40961356710468	4.4936666	2.119827
17.42734476396215	4.5201154	2.1260562
17.445076381332044	4.5595326	2.1353061
17.462808419668868	4.632603	2.1523483
17.48054087942723	4.7732096	2.1847677
17.498273761061835	5.075596	2.2529082
17.51600706502747	5.5215273	2.349793
17.533740791779024	6.21031	2.4920495
17.551474941771485	7.5760684	2.752466
17.56920951545993	8.736795	2.955807
17.586944513299528	11.047259	3.3237417
17.60467993574556	12.79108	3.576462
17.622415783253373	14.600351	3.8210406
17.64015205627843	16.14191	4.0176997
17.657888755276293	17.285873	4.1576285
17.675625880702604	17.778652	4.216474
17.69336343301311	17.664215	4.202882
17.71110141266366	16.864195	4.1066036
17.728839820110178	15.830648	3.9787748
17.746578655808705	14.743505	3.8397272
17.764317920215372	13.188993	3.6316655
17.7820576137864	11.54674	3.3980494
17.79979773697811	9.448402	3.0738254
17.81753829024692	7.5075126	2.739984
17.835279274049356	5.891523	2.4272459
17.85302068884201	4.886227	2.2104812
17.870762535081607	4.241338	2.0594509
17.888504813224934	3.907947	1.9768528
17.90624752372891	3.7463334	1.9355447
17.923990667050536	3.6522067	1.9110748
17.941734243646895	3.551885	1.8846445
17.959478253975185	3.4834964	1.8664128
17.9772226984927	3.4393263	1.854542
17.994967577656833	3.4373064	1.8539975
18.01271289192506	3.448927	1.8571286
18.030458641754965	3.4552383	1.8588271
18.04820482760425	3.4326725	1.8527473
18.06595144993067	3.3870742	1.8404006
18.083698509192125	3.366223	1.8347269
18.101446005846576	3.3452418	1.8290002
18.119193940352105	3.3357012	1.8263903
18.136942313166887	3.2707999	1.8085353
18.1546911247492	3.247725	1.8021445
18.1724403755574	3.2107408	1.791854
18.19019006604997	3.2190182	1.7941623
18.207940196685467	3.2206695	1.7946224
18.225690767922575	3.172198	1.7810665
18.243441780220046	3.1509562	1.7750933
18.261193234036764	3.1211376	1.7666742
18.278945129831676	3.0897887	1.7577795
18.29669746806386	3.082205	1.755621
18.314450249192483	3.085523	1.7565657
18.3322034736768	3.0635939	1.7503124
18.349957141976184	3.0695968	1.7520264
18.3677112545501	3.0911708	1.7581725
18.385465811858108	3.1483674	1.774364
18.403220814359884	3.1709406	1.7807136
18.420976262515172	3.1631742	1.7785314
18.43873215678387	3.1591022	1.7773863
18.456488497625923	3.1419404	1.7725519
18.474245285501407	3.208792	1.7913101
18.492002520870486	3.2870436	1.8130206
18.50976020419343	3.3796277	1.8383764
18.527518335930615	3.6718311	1.9162023
18.545276916542516	4.2191653	2.0540607
18.563035946489688	4.390656	2.0953891
18.580795426232832	4.7970734	2.1902223
18.598555356232698	4.661553	2.1590629
18.616315736950185	4.931074	2.2206023
18.63407656884626	4.6349697	2.152898
18.65183785238201	4.8797364	2.2090125
18.669599588018617	4.695611	2.166936
18.68736177621737	4.690913	2.1658516
18.705124417439652	4.655721	2.157712
18.72288751214696	4.44083	2.1073277
18.740651060800886	4.5824428	2.140664
18.758415063863115	4.332194	2.0813923
18.77617952179546	4.5226736	2.126658
18.793944435059814	4.2411184	2.0593977
18.811709804118184	4.2690325	2.0661638
18.829475629432675	4.226051	2.055736
18.8472419114655	4.069507	2.017302
18.86500865067897	4.1448565	2.035892
18.88277584753551	3.8167477	1.9536499
18.90054350249763	3.8272161	1.9563272
18.918311616027957	3.5097063	1.873421
18.936080188589226	3.3585024	1.8326217
18.953849220644265	2.9838574	1.7273846
18.971618712656007	2.8232543	1.6802542
18.9893886650875	2.8305824	1.6824335
19.007159078401887	8.0662	2.8401058
19.024929953062408	32.92116	5.7376966
19.042701289532435	32.810146	5.728014
19.060473088275405	25.338331	5.0337195
19.07824534975489	2.6317728	1.6222739
19.096018074434568	2.6590683	1.630665
19.113791262778197	2.676243	1.6359227
19.13156491524966	2.6700885	1.6340406
19.149339032312945	2.6055405	1.6141686
19.167113614432136	2.574214	1.6044357
19.184888662071433	2.5699153	1.6030955
19.202664175695123	2.5870652	1.6084356
19.220440155767623	2.5740378	1.6043808
19.238216602753447	2.5546594	1.5983301
19.2559935171172	2.5402977	1.5938312
19.27377089932361	2.5576344	1.5992606
19.291548749837514	2.5754225	1.6048123
19.309327069123835	2.5738747	1.60433
19.32710585764763	2.5472965	1.5960252
19.344885115874032	2.4959266	1.5798502
19.362664844268313	2.462068	1.5690979
19.380445043295822	2.4494822	1.5650822
19.39822571342203	2.44266	1.5629011
19.41600685511252	2.4870148	1.5770272
19.43378846883297	2.5037665	1.5823295
19.451570555049173	2.5030828	1.5821134
19.469353114227037	2.4862118	1.5767726
19.48713614683254	2.5036848	1.5823036
19.50491965333182	2.5164895	1.5863447
19.52270363419109	2.5342093	1.59192
19.540488089876686	2.5097482	1.5842185
19.55827302085503	2.4957685	1.5798001
19.576058427592674	2.4819932	1.5754343
19.593844310556282	2.4826639	1.5756471
19.611630670212598	2.4827027	1.5756595
19.629417507028506	2.4853106	1.5764868
19.64720482147098	2.4890869	1.577684
19.6649926140071	2.474446	1.5730373
19.682780885104084	2.4805856	1.5749875
19.70056963522921	2.5019226	1.5817467
19.718358864849908	2.5325274	1.5913917
19.7361485744337	2.5529623	1.5977992
19.753938764448215	2.5469801	1.5959262
19.771729435361202	2.5503378	1.5969777
19.789520587640506	2.5225017	1.5882386
19.807312221754092	2.514365	1.5856749
19.825104338170043	2.488378	1.5774593
19.842896937356517	2.5123692	1.5850455
19.860690019781824	2.551481	1.5973356
19.87848358591436	2.5933876	1.6103998
19.896277636222635	2.602313	1.6131686
19.914072171175278	2.5691931	1.6028702
19.931867191241015	2.5190027	1.5871366
19.94966269688869	2.4935582	1.5791005
19.967458688587264	2.50154	1.5816257
19.985255166805807	2.4827087	1.5756613
20.00305213201348	2.4438405	1.5632788
20.020849584679578	2.425502	1.5574024
20.038647525273507	2.4618835	1.5690391
20.05644595426477	2.4932375	1.5789989
20.07424487212299	2.4556293	1.5670447
20.092044279317903	2.4323514	1.5595998
20.109844176319353	2.434864	1.5604051
20.127644563597304	2.4384885	1.561566
20.145445441621817	2.417005	1.554672
20.16324681086307	2.4301424	1.5588914
20.181048671791373	2.4708738	1.5719013
20.198851024877122	2.4908347	1.5782379
20.216653870590836	2.4462523	1.56405
20.234457209403146	2.4225636	1.5564587
20.252261041784802	2.4188294	1.5552586
20.270065368206662	2.3960896	1.5479307
20.287870189139685	2.3611271	1.536596
20.305675505054968	2.368729	1.5390676
20.323481316423702	2.3715625	1.5399878
20.341287623717207	2.3596091	1.5361019
20.359094427406884	2.3296368	1.5263147
20.376901727964288	2.3303735	1.5265561
20.39470952586107	2.3510501	1.5333134
20.41251782156899	2.3895836	1.5458277
20.430326615559935	2.3934531	1.5470788
20.448135908305886	2.3809466	1.5430317
20.465945700278965	2.3680406	1.5388439
20.483755991951384	2.389736	1.5458771
20.50156678379548	2.382855	1.5436499
20.519378076283708	2.3541567	1.5343262
20.537189869888635	2.340588	1.529898
20.55500216508294	2.355289	1.534695
20.572814962339415	2.3547883	1.534532
20.59062826213098	2.3672402	1.5385839
20.60844206493066	2.360976	1.5365468
20.626256371211593	2.3304718	1.5265883
20.644071181447032	2.303339	1.5176755
20.66188649611036	2.3208613	1.5234374
20.67970231567506	2.3497624	1.5328935
20.697518640614742	2.3564177	1.5350628
20.715335471403122	2.3694706	1.5393084
20.73315280851404	2.3510222	1.5333043
20.750970652421447	2.362417	1.5370156
20.768789003599412	2.3504565	1.5331198
20.786607862522136	2.3515782	1.5334857
20.8044272296639	2.3056796	1.5184464
20.82224710549913	2.299624	1.5164511
20.84006749050237	2.2988718	1.516203
20.857888385148268	3.8820922	1.9703026
20.8757097899116	45.987408	6.7814016
20.893531705267254	64.85047	8.052979
20.911354131690224	83.87811	9.1585
20.92917706965566	69.16227	8.316385
20.94700051963877	50.235363	7.087691
20.96482448211493	29.463129	5.4279947
20.982648957559622	4.138431	2.0343134
21.00047394644843	2.2458992	1.4986324
21.01829944925707	2.2570856	1.50236
21.036125466461375	2.2590263	1.5030057
21.053951998537297	2.2270644	1.4923352
21.071779045960906	2.2713041	1.5070846
21.089606609208378	2.2773051	1.5090742
21.10743468875603	2.294199	1.5146613
21.12526328508028	2.267632	1.5058658
21.143092398657675	2.2264075	1.4921151
21.16092202996488	2.1834095	1.4776365
21.17875217947867	2.1985753	1.4827594
21.19658284767596	2.2181985	1.4893618
21.21441403503377	2.2355	1.4951589
21.232245742029225	2.2173593	1.4890801
21.2500779691396	2.2134953	1.487782
21.26791071684227	2.2002337	1.4833184
21.28574398561475	2.1870656	1.4788731
21.30357777593465	2.1679225	1.4723867
21.321412088279704	2.1634119	1.4708542
21.339246923127792	2.1699119	1.473062
21.357082280956888	2.157674	1.4689023
21.3749181622451	2.1813805	1.4769497
21.392754567470647	2.1749167	1.4747599
21.41059149711187	2.2091906	1.4863346
21.42842895164726	2.207598	1.4857987
21.446266931555378	2.192642	1.4807572
21.464105437314945	2.1706793	1.4733225
21.481944469404798	2.1642985	1.4711555
21.49978402830388	2.1596308	1.4695683
21.51762411449127	2.1676838	1.4723057
21.53546472844617	2.1410077	1.4632182
21.553305870647876	2.1296723	1.4593396
21.571147541575865	2.111306	1.4530333
21.58898974170967	2.1317887	1.4600646
21.60683247152899	2.125841	1.4580264
21.62467573151363	2.0917602	1.4462919
21.642519522143523	2.0561235	1.433919
21.660363843898722	2.0543518	1.433301
21.6782086972594	2.0423944	1.4291236
21.696054082705864	2.0356977	1.4267788
21.713900000718535	2.0665648	1.4375552
21.73174645177795	2.1051161	1.4509019
21.749593436364794	2.0922525	1.446462
21.767440954959845	2.0984812	1.4486135
21.785289008044032	2.0806417	1.442443
21.803137596098388	2.0767977	1.4411099
21.820986719604086	2.0528169	1.4327655
21.838836379042412	2.0492997	1.4315375
21.85668657489478	2.0593643	1.4350486
21.87453730764273	2.0483434	1.4312035
21.892388577767914	2.0323422	1.4256024
21.91024038575213	2.0110445	1.418113
21.928092732077285	1.9999533	1.4141971
21.945945617225426	2.0102081	1.4178181
21.963799041678694	2.0556211	1.4337437
21.981653005919398	31.401688	5.6037207
21.999507510429943	78.18456	8.842203
22.01736255569286	73.12688	8.551425
22.035218142190818	4.2231445	2.0550292
22.05307427040661	2.0795894	1.4420781
22.07093094082315	2.072072	1.4394693
22.088788153923474	2.0402846	1.4283854
22.106645910190746	2.0170014	1.4202118
22.12450421010827	2.0235634	1.42252
22.142363054159464	2.0053346	1.4160984
22.16022244282787	1.9955716	1.412647
22.178082376597164	1.9625157	1.4008982
22.195942855951145	1.9754821	1.4055184
22.213803881373742	2.0045125	1.4158081
22.231665453349002	2.0138028	1.4190851
22.24952757236111	2.0159357	1.4198365
22.26739023889438	2.0147524	1.4194198
22.28525345343323	2.0228028	1.4222528
22.30311721646225	2.0010293	1.4145774
22.320981528466113	1.9891039	1.4103559
22.33884638992964	1.9820919	1.4078679
22.356711801337788	1.9950693	1.4124693
22.37457776317561	1.9705483	1.4037622
22.392444275928337	1.9677541	1.4027666
22.410311340081282	1.9196533	1.3855156
22.428178956119904	1.9036921	1.3797435
22.446047124529805	1.8934394	1.376023
22.46391584579669	1.9278104	1.3884561
22.481785120406414	1.961543	1.400551
22.49965494884496	2.0122213	1.4185278
22.51752533159841	1.9990116	1.4138641
22.53539626915302	1.978404	1.4065576
22.553267761995137	1.9037308	1.3797575
22.571139810611264	1.8941658	1.376287
22.589012415488025	1.8996352	1.3782725
22.60688557711216	1.9477931	1.3956336
22.624759295970566	1.9634149	1.4012191
22.642633572550263	1.9852297	1.4089818
22.660508407338362	1.9801152	1.4071656
22.67838380082217	1.9408767	1.3931535
22.696259753489077	1.9151058	1.3838735
22.714136265826614	1.8858538	1.373264
22.73201333832246	1.8915731	1.3753448
22.74989097146439	1.9205807	1.3858502
22.76776916574035	1.9549953	1.3982115
22.785647921638393	1.9800885	1.4071561
22.803527239646712	1.9886528	1.4101961
22.82140712025363	1.9505162	1.3966088
22.839287563947593	1.9121495	1.382805
22.85716857121719	1.9095305	1.3818576
22.875050142551135	1.9217905	1.3862866
22.892932278438277	1.9350837	1.3910729
22.910814979367604	1.9230733	1.3867491
22.928698245828222	1.9006109	1.3786265
22.946582078309387	1.9020182	1.3791368
22.96446647730047	1.9052154	1.3802954
22.98235144329098	1.937346	1.3918858
23.000236976770562	1.9832746	1.4082878
23.018123078229	1.9719142	1.4042486
23.03600974815619	1.947508	1.3955314
23.053896987042194	1.9394857	1.3926542
23.071784795377173	1.9399097	1.3928064
23.08967317365145	1.9041631	1.3799142
23.10756212235546	1.8521574	1.3609399
23.125451641979787	1.8341739	1.3543168
23.143341733015134	1.8752532	1.3693988
23.161232395952357	1.9468677	1.395302
23.179123631282426	1.9843328	1.4086635
23.197015439496468	1.9860156	1.4092606
23.214907821085717	1.9994894	1.414033
23.23280077654157	1.9692109	1.4032857
23.250694306355538	1.9459001	1.3949553
23.268588411019277	1.9127342	1.3830163
23.28648309102458	1.9132962	1.3832195
23.304378346863356	1.9177339	1.3848227
23.322274179027676	1.898311	1.3777921
23.340170588009723	1.9132497	1.3832027
23.358067574301852	1.9424483	1.3937174
23.37596513839651	1.9799325	1.4071008
23.39386328078629	1.9645338	1.4016182
23.411762001963947	1.9393387	1.3926014
23.429661302422353	1.9151864	1.3839025
23.4475611826545	1.8717569	1.3681216
23.46546164315356	1.862773	1.3648344
23.48336268441279	1.8782855	1.3705056
23.501264306925638	1.8894219	1.3745625
23.51916651118564	1.8877828	1.3739661
23.537069297686497	1.903421	1.3796452
23.554972666922037	1.9267898	1.3880886
23.57287661938623	1.9174067	1.3847046
23.59078115557318	1.9163891	1.3843371
23.608686275977128	1.9370781	1.3917896
23.62659198109246	1.9782627	1.4065073
23.6444982714137	1.9754161	1.4054949
23.66240514743549	1.9387671	1.3923962
23.68031260965263	1.9172236	1.3846384
23.698220658560068	1.878539	1.3705981
23.716129294652845	1.9092196	1.3817451
23.7340385184262	1.929669	1.3891252
23.75194833037546	1.9387327	1.3923838
23.769858730996123	1.8819385	1.3718376
23.78776972078382	1.8532485	1.3613406
23.80568130023431	1.8665295	1.3662099
23.823593469843495	1.870186	1.3675474
23.841506230107424	1.8617735	1.3644682
23.859419581522275	1.8758872	1.3696303
23.87733352458438	1.9096425	1.3818982
23.89524805979019	1.9296782	1.3891286
23.913163187636318	1.9459327	1.394967
23.931078908619508	1.9465125	1.3951747
23.948995223236633	1.959669	1.3998817
23.966912131984735	1.9818447	1.40778
23.98482963536096	2.041391	1.4287726
24.002747733862616	2.0498328	1.4317237
24.020666427987155	2.0792644	1.4419655
24.038585718232156	2.07188	1.4394027
24.056505605095353	2.0664542	1.4375167
24.074426089074617	2.0659351	1.4373361
24.092347170667946	2.0795844	1.4420764
24.110268850373515	2.0859945	1.4442972
24.128191128689586	2.075446	1.4406408
24.146114006114626	2.0640688	1.4366868
24.164037483147187	2.0627792	1.4362378
24.181961560286005	2.027807	1.4240109
24.199886238029926	2.0246112	1.4228884
24.21781151687797	2.0020144	1.4149256
24.235737397329274	2.0439754	1.4296767
24.253663879883135	2.0519667	1.4324688
24.271590965038975	2.0431724	1.4293958
24.289518653296376	2.0388021	1.4278663
24.30744694515505	2.070217	1.4388248
24.32537584111486	2.0842907	1.4437073
24.34330534167581	2.0715094	1.439274
24.361235447338046	2.0663176	1.4374691
24.379166158601876	2.033296	1.4259369
24.39709747596772	1.987915	1.4099344
24.41502939993615	1.9812968	1.4075855
24.432961931007917	1.942641	1.3937865
24.450895069683856	1.9643639	1.4015577
24.468828816465	1.9596052	1.399859
24.4867631718525	2.0220685	1.4219946
24.504698136347656	2.0590954	1.4349549
24.52263371045192	2.0509534	1.432115
24.540569894666874	1.9921325	1.4114293
24.558506689494266	1.9704698	1.4037342
24.57644409543597	2.0207522	1.4215317
24.594382112994012	2.0019984	1.41492
24.61232074267057	1.986729	1.4095137
24.630259984967953	1.9230345	1.3867352
24.64819984038863	1.9354634	1.3912094
24.66614030943522	1.9862219	1.4093338
24.684081392610462	2.0140872	1.4191854
24.702023090417274	2.0249684	1.4230138
24.7199654033587	2.0450509	1.4300528
24.737908331937927	2.0796034	1.442083
24.755851876658305	2.0732424	1.4398758
24.773796038023324	2.071321	1.4392085
24.79174081653661	2.0854511	1.4441091
24.809686212701962	2.1545153	1.4678267
24.827632227023294	2.1973548	1.4823477
24.8455788600047	2.1827214	1.4774036
24.8635261121504	2.1413171	1.463324
24.88147398396475	2.153796	1.4675816
24.899422475952303	2.2228308	1.4909161
24.917371588617698	2.2517786	1.5005927
24.935321322465768	2.2077148	1.485838
24.953271678001478	2.2767994	1.5089067
24.97122265572994	2.4808877	1.5750834
24.989174256156414	2.8445878	1.6865906
25.00712647978632	3.2587721	1.8052069
25.02507932712521	3.840539	1.9597293
25.043032798678798	4.389818	2.0951893
25.060986894952933	5.1172986	2.2621448
25.078941616453637	5.8286586	2.4142616
25.096896963687055	6.8019395	2.6080527
25.114852937159508	7.976552	2.824279
25.132809537377444	8.490995	2.9139314
25.150766764847468	8.449976	2.9068842
25.168724620076347	7.891329	2.809151
25.186683103570985	6.916196	2.6298661
25.204642215838426	5.762992	2.4006233
25.222601957385894	4.3149824	2.0772536
25.24056232872074	3.287143	1.813048
25.25852333035048	2.693399	1.6411579
25.276484962782778	2.340631	1.5299121
25.294447226525435	2.123812	1.4573305
25.312410122086423	2.0688035	1.4383336
25.330373649973843	2.0535355	1.4330162
25.348337810695988	1.9968445	1.4130975
25.366302604761245	1.9743603	1.4051193
25.384268032678207	1.9311657	1.3896639
25.40223409495558	1.9448934	1.3945943
25.420200792102257	1.9077765	1.3812228
25.438168124627246	1.9054961	1.3803971
25.45613609303974	1.8899275	1.3747463
25.474104697849057	1.8861959	1.3733885
25.492073939564698	1.9176828	1.3848042
25.510043818696285	1.9349389	1.3910208
25.528014335753614	1.9610658	1.4003806
25.54598549124664	1.9934845	1.4119081
25.56395728568544	1.9626393	1.4009423
25.58192971958028	1.8647194	1.3655473
25.59990279344156	1.8282783	1.3521384
25.617876507779833	1.8378124	1.3556594
25.635850863105826	1.8438909	1.3578994
25.653825859930386	1.8367461	1.3552661
25.671801498764548	1.822934	1.3501607
25.68977778011949	1.8115634	1.3459433
25.707754704506524	1.8406478	1.3567047
25.725732272437153	1.8741671	1.3690022
25.743710484423012	1.8757602	1.369584
25.761689340975888	1.8853167	1.3730683
25.77966884260774	1.8796064	1.3709874
25.797648989830662	1.85904	1.3634661
25.815629783156922	1.8246868	1.3508097
25.83361122309895	1.8120028	1.3461065
25.85159331016929	1.8603402	1.3639429
25.869576044880695	1.9175631	1.384761
25.887559427746034	1.9221495	1.3864161
25.90554345927836	1.9125627	1.3829544
25.92352813999086	1.9035317	1.3796854
25.94151347039689	1.8838959	1.3725508
25.959499451009965	1.8229595	1.3501701
25.97748608234374	1.7644761	1.3283359
25.995473364912062	1.7981582	1.3409542
26.013461299228904	1.8173857	1.3481045
26.03144988580839	1.834463	1.3544235
26.04943912516483	1.8245039	1.350742
26.067429017812675	1.8333185	1.3540009
26.085419564266537	1.8335177	1.3540745
26.103410765041186	1.8307133	1.3530385
26.12140262065155	1.7937969	1.339327
26.139395131612723	1.7818125	1.3348455
26.157388298439948	1.795103	1.3398145
26.17538212164861	1.8795905	1.3709816
26.193376601754295	1.86222	1.3646319
26.211371739272714	1.8791269	1.3708125
26.229367534719746	1.8407828	1.3567545
26.247363988611433	1.8362225	1.3550729
26.26536110146397	1.7945995	1.3396267
26.283358873793727	1.7819537	1.3348984
26.301357306117204	1.7870338	1.3367999
26.319356398951104	1.8164444	1.3477553
26.33735615281224	1.8088624	1.3449396
26.35535656821762	1.7589861	1.3262677
26.373357645684404	1.7689558	1.330021
26.39135938572991	1.8190777	1.3487319
26.409361788871614	1.8727148	1.3684717
26.427364855627165	1.8866769	1.3735635
26.445368586514352	1.8804195	1.3712839
26.46337298205115	1.857636	1.3629512
26.48137804275568	1.8216952	1.3497019
26.499383769146217	1.8641651	1.3653443
26.517390161741215	1.8838031	1.3725171
26.53539722105928	1.8739604	1.3689268
26.553404947619182	1.8298012	1.3527014
26.571413341939856	1.7962351	1.3402369
26.589422404540397	1.7482871	1.3222281
26.60743213594006	1.744425	1.3207668
26.62544253665827	1.769739	1.3303154
26.64345360721459	1.7830387	1.3353047
26.66146534812879	1.7792151	1.3338722
26.679477759920758	1.8135988	1.3466992
26.69749084311057	1.8424244	1.3573593
26.71550459821847	1.8503615	1.3602799
26.733519025764842	1.784322	1.3357852
26.751534126270258	1.7952254	1.3398602
26.769549900255434	1.7961825	1.3402174
26.787566348241267	1.8403351	1.3565896
26.80558347074881	1.877358	1.3701671
26.823601268299267	1.9085491	1.3815025
26.841619741414036	1.8471774	1.359109
26.85963889061465	1.8406556	1.3567076
26.877658716422832	1.794184	1.3394716
26.89567921936045	1.8026593	1.3426315
26.913700399949544	1.7951254	1.3398229
26.93172225871233	1.7887151	1.3374286
26.949744796171174	1.7720883	1.3311981
26.967768012848605	1.7692242	1.3301219
26.98579190926733	1.7724683	1.3313408
27.003816485950225	1.7478373	1.322058
27.021841743420318	1.7753482	1.3324219
27.039867682200814	1.7772257	1.3331263
27.057894302815072	1.7691169	1.3300816
27.07592160578664	1.7704822	1.3305947
27.0939495916392	1.8464081	1.358826
27.111978260896635	1.868089	1.3667805
27.13000761408296	1.8688618	1.3670632
27.148037651722397	1.8431903	1.3576415
27.166068374339304	1.8471438	1.3590966
27.184099782458215	1.8647063	1.3655425
27.20213187660384	1.8406341	1.3566997
27.22016465730105	1.8198706	1.3490258
27.23819812507487	1.808238	1.3447074
27.256232280450533	1.8037654	1.3430433
27.274267123953383	1.8087679	1.3449044
27.292302656108987	1.8438905	1.3578993
27.31033887744306	1.8418386	1.3571435
27.32837578848146	1.7785002	1.3336042
27.34641338975026	1.7811135	1.3345836
27.364451681775673	1.8134475	1.3466431
27.382490665084074	1.8459047	1.3586408
27.400530340202046	1.8734021	1.3687228
27.41857070765629	1.905577	1.3804264
27.436611767973726	1.8769003	1.3700001
27.454653521681404	1.8440307	1.3579509
27.472695969306564	1.8369524	1.3553421
27.490739111376627	1.8049393	1.3434802
27.508782948419153	1.7974931	1.3407062
27.526827480961902	1.8054155	1.3436575
27.54487270953279	1.8288407	1.3523464
27.562918634659898	1.8479645	1.3593986
27.580965256871508	1.8459334	1.3586513
27.599012576696026	1.8053368	1.3436283
27.617060594662068	1.814926	1.3471919
27.63510931129842	1.8135122	1.346667
27.65315872713401	1.760032	1.326662
27.67120884269797	1.7548391	1.3247033
27.68925965851958	1.8515333	1.3607106
27.707311175128307	1.9178725	1.3848728
27.725363393053787	1.9160464	1.3842133
27.74341631282583	1.8894969	1.3745897
27.7614699349744	1.8619946	1.3645493
27.77952426002968	1.9936825	1.4119782
27.797579288521973	2.053712	1.4330778
27.815635020981784	2.484528	1.5762386
27.83369145793979	2.5971632	1.6115717
27.85174859992682	2.4804494	1.5749443
27.869806447473923	2.3483624	1.5324367
27.887865001112267	2.058558	1.4347676
27.905924261373233	1.920702	1.385894
27.92398422878836	1.8744104	1.369091
27.94204490388936	1.8927457	1.3757709
27.96010628720813	1.8604335	1.3639771
27.978168379276728	1.8178333	1.3482705
27.9962311806274	1.8045378	1.3433309
28.014294691792568	1.8633287	1.365038
28.0323589133048	1.8831787	1.3722895
28.050423845696887	1.9030589	1.379514
28.068489489501758	1.9057928	1.3805046
28.086555845252523	1.9326682	1.3902044
28.104622913482487	1.8944604	1.376394
28.122690694725115	1.8318691	1.3534656
28.14075918951405	1.8504322	1.3603059
28.15882839838312	1.8838526	1.3725351
28.176898321866304	1.8656772	1.365898
28.1949689604978	1.8788183	1.3706999
28.213040314811945	1.9461544	1.3950464
28.23111238534327	1.9586273	1.3995097
28.249185172626493	1.9320933	1.3899976
28.267258677196473	1.9530565	1.3975179
28.285332899588294	1.9793726	1.4069018
28.303407840337172	1.9798247	1.4070624
28.321483499978545	1.9312165	1.3896822
28.33955987904799	1.9051435	1.3802694
28.357636978081285	1.9327214	1.3902235
28.37571479761439	1.9679064	1.4028208
28.393793338183425	2.0093088	1.4175009
28.41187260032469	1.9851943	1.4089693
28.429952584574686	1.9711623	1.4039809
28.448033291470065	1.946583	1.3952
28.46611472154769	1.9219947	1.3863603
28.484196875344566	1.9712229	1.4040024
28.502279753397914	1.9847529	1.4088126
28.52036335624511	2.0002708	1.4143093
28.538447684423716	2.0289452	1.4244105
28.556532738471482	2.0573483	1.434346
28.574618518926325	2.03437	1.4263134
28.59270502632635	2.0420382	1.4289991
28.61079226120985	2.045916	1.4303552
28.628880224115274	2.0805404	1.4424078
28.646968915581287	2.0971928	1.4481688
28.66505833614671	2.0714664	1.4392589
28.68314848635055	2.0242934	1.4227767
28.701239366732004	2.107969	1.4518846
28.71933097783044	2.0987647	1.4487114
28.737423320185403	2.0904357	1.4458339
28.75551639433665	2.0815241	1.4427488
28.773610200824074	2.0470843	1.4307636
28.791704740187793	2.0448651	1.4299878
28.80980001296809	2.1147814	1.4542288
28.827896019705413	2.1807344	1.476731
28.845992760940433	2.1953375	1.4816672
28.86409023721397	2.2239814	1.4913019
28.88218844906704	2.2132974	1.4877155
28.900287397040845	2.1717753	1.4736944
28.918387081676755	2.180181	1.4765437
28.936487503516343	2.2225885	1.4908348
28.954588663101365	2.2529378	1.500979
28.97269056097374	2.2848973	1.5115877
28.990793197675597	2.3451576	1.5313908
29.00889657374923	2.3722517	1.5402116
29.027000689737125	2.3820298	1.5433825
29.04510554618196	2.420953	1.5559412
29.06321114362659	2.4525173	1.5660515
29.08131748261405	2.4647381	1.5699484
29.099424563687567	2.4910362	1.5783017
29.11753238739057	2.5464892	1.5957723
29.13564095426663	2.6084015	1.6150546
29.15375026485954	2.6503773	1.6279979
29.171860319713275	2.6562498	1.6298006
29.18997111937199	2.7257183	1.650975
29.20808266438002	2.7811105	1.6676662
29.226194955281898	2.7677965	1.6636696
29.244307992622335	2.829498	1.6821111
29.26242177694624	2.9006526	1.7031302
29.2805363087987	2.9208899	1.7090611
29.29865158872498	2.9469178	1.716659
29.316767617270557	2.9841135	1.7274587
29.334884394981064	3.0150878	1.7364008
29.353001922402367	3.0898666	1.7578017
29.37112020008047	3.134969	1.7705843
29.389239228561596	3.2631228	1.8064116
29.407359008392152	3.4955244	1.8696321
29.42547954011872	3.906334	1.9764447
29.44360082428809	4.5187025	2.125724
29.46172286144722	5.537196	2.3531249
29.479845652143283	7.0524654	2.6556478
29.497969196923606	9.247405	3.0409546
29.516093496335728	11.927335	3.4535973
29.5342185509274	14.95497	3.8671656
29.55234436124651	17.387976	4.169889
29.570470927841175	18.743149	4.3293357
29.588598251259686	18.361076	4.2849827
29.60672633205055	16.906881	4.111798
29.624855170762405	14.703543	3.8345199
29.642984767944146	11.821283	3.4382093
29.66111512414481	9.022426	3.0037353
29.67924623991366	6.8103204	2.609659
29.697378115800138	5.2830563	2.29849
29.71551075235387	4.262181	2.0645049
29.733644150124675	3.7523832	1.937107
29.751778309662576	3.5333798	1.8797287
29.769913231517766	3.4766552	1.8645791
29.78804891624066	3.489779	1.868095
29.806185364381818	3.445122	1.856104
29.82432257649206	3.3341992	1.825979
29.842460553122333	3.2530024	1.8036082
29.86059929482382	3.2802908	1.8111573
29.878738802147872	3.3103893	1.8194475
29.896879075646048	3.3130496	1.8201784
29.915020115870114	3.3013723	1.8169678
29.933161923371976	3.2501593	1.8028198
29.951304498703777	3.1824584	1.7839446
29.969447842417857	3.203122	1.7897267
29.987591955066733	3.2201583	1.79448
30.005736837203123	3.1687813	1.7801071
30.023882489379943	3.1125488	1.7642417
30.04202891215028	3.1491528	1.7745852
30.060176106067455	3.2177765	1.7938162
30.078324071684946	3.1563094	1.7766005
30.09647280955646	3.1210008	1.7666354
30.114622320235863	3.1177616	1.7657185
30.132772604277257	3.0918806	1.7583745
30.1509236622349	3.0160336	1.7366731
30.16907549466328	2.9798954	1.7262373
30.18722810211705	3.0279212	1.7400923
30.205381485151097	3.0285718	1.7402792
30.22353564432045	2.9991965	1.7318188
30.241690580180403	3.0268195	1.7397757
30.25984629328638	3.0721192	1.7527462
30.278002784194037	3.0544255	1.7476915
30.296160053459246	3.0563347	1.7482376
30.314318101638033	3.0743499	1.7533824
30.332476929286646	3.031993	1.7412618
30.35063653696153	2.9617195	1.7209647
30.368796925219307	2.974346	1.7246292
30.386958094616844	2.9491296	1.717303
30.40512004571115	2.9189265	1.7084866
30.423282779059463	2.922779	1.7096137
30.441446295219233	2.8702376	1.6941775
30.459610594748067	2.8205962	1.679463
30.47777567820382	2.8609736	1.6914413
30.495941546144504	2.8519611	1.6887751
30.51410819912835	2.844392	1.6865325
30.532275637713795	2.8720999	1.6947271
30.55044386245946	2.8785174	1.6966194
30.56861287392416	2.8819246	1.6976233
30.586782672666956	2.8953786	1.7015812
30.604953259247047	2.8796563	1.696955
30.623124634223885	2.8083515	1.6758137
30.641296798157075	2.7753954	1.6659518
30.659469751606462	2.7810688	1.6676537
30.677643495132074	2.7744842	1.6656783
30.695818029294152	2.7706115	1.6645154
30.713993354653116	2.7396564	1.6551907
30.73216947176962	2.6745205	1.6353961
30.75034638120448	2.610733	1.6157763
30.768524083518756	2.6210854	1.6189767
30.786702579273673	2.7011375	1.6435138
30.80488186903069	2.8415635	1.6856937
30.82306195335144	2.9814894	1.726699
30.841242832797782	3.1527143	1.7755884
30.85942450793176	3.4338608	1.853068
30.877606979315637	3.7854803	1.945631
30.895790247511883	4.1611805	2.0398972
30.913974313083134	4.6206765	2.149576
30.932159176592283	5.072873	2.2523038
30.95034483860237	5.142004	2.2675986
30.968531299676698	4.8144608	2.1941879
30.98671856037873	4.352685	2.086309
31.00490662127215	3.9946084	1.9986516
31.023095482920848	3.6680377	1.9152122
31.04128514588892	3.1975765	1.7881769
31.059475610740662	2.7607594	1.6615533
31.07766687804056	2.5959258	1.6111877
31.09585894835335	2.5324957	1.5913817
31.11405182224393	2.4680188	1.570993
31.132245500277417	2.4485285	1.5647775
31.15043998301914	2.4747345	1.5731289
31.168635271034628	2.4835942	1.5759423
31.18683136488964	2.4617827	1.5690069
31.20502826515008	2.468387	1.5711101
31.223225972382135	2.4477122	1.5645165
31.241424487152155	2.462877	1.5693556
31.259623810026692	2.4307036	1.5590714
31.27782394157253	2.4477267	1.5645212
31.296024882356644	2.4750543	1.5732305
31.314226632946237	2.4726706	1.5724728
31.332429193908684	2.5121682	1.584982
31.350632565811598	2.5054848	1.5828724
31.368836749222787	2.4605978	1.5686293
31.387041744710295	2.4997458	1.5810585
31.40524755284232	2.5904698	1.6094936
31.423454174187317	2.6383169	1.6242896
31.441661609313922	2.5888247	1.6089826
31.459869858791002	2.5267494	1.5895752
31.478078923187628	2.4799283	1.5747788
31.496288803073064	2.456813	1.5674224
31.514499499016807	2.4555297	1.567013
31.532711011588546	2.401431	1.5496552
31.550923341358178	2.3569882	1.5352485
31.56913648889584	2.3727427	1.540371
31.587350454771844	2.3532658	1.5340358
31.605565239556732	2.3145344	1.5213594
31.62378084382127	2.2673693	1.5057787
31.641997268136382	2.2519004	1.5006334
31.660214513073274	2.3035705	1.5177518
31.67843257920331	2.3647606	1.5377778
31.6966514670981	2.3854663	1.5444955
31.71487117732944	2.3938286	1.5472002
31.733091710469346	2.389127	1.5456802
31.751313067090052	2.3838766	1.5439807
31.769535247764008	2.4270482	1.5578986
31.787758253063878	2.4501467	1.5652944
31.805982083562526	2.3751192	1.5411422
31.824206739833024	2.2415338	1.4971752
31.84243222244869	2.277687	1.5092008
31.860658531983013	2.313241	1.5209342
31.878885669009737	2.3473175	1.5320958
31.897113634102784	2.3120544	1.520544
31.91534242783632	2.2975512	1.5157675
31.933572050784694	2.3306854	1.5266583
31.951802503522508	2.3424246	1.5304981
31.970033786624548	2.2173262	1.4890689
31.988265900665834	2.1643007	1.4711562
32.006498846221575	2.1522956	1.4670705
32.02473262386724	2.170087	1.4731215
32.04296723417845	2.217416	1.489099
32.0612026777311	2.209996	1.4866055
32.07943895510129	2.1576788	1.468904
32.097676066865304	2.1254025	1.457876
32.115914013599685	2.1928558	1.4808295
32.13415279588115	2.2001996	1.483307
32.152392414286666	2.208975	1.4862621
32.1706328693934	2.262584	1.5041888
32.18887416177875	2.2065573	1.4854485
32.20711629202032	2.0974486	1.4482571
32.225359260695924	2.0978029	1.4483794
32.243603068383614	2.1462276	1.4650009
32.26184771566166	2.1538167	1.4675888
32.28009320310852	2.154613	1.46786
32.2983395313029	2.1800845	1.4765109
32.31658670082372	2.22494	1.4916233
32.33483471225012	2.212236	1.4873587
32.35308356616143	2.2039037	1.484555
32.371333263137245	2.182561	1.4773493
32.38958380375734	2.0959024	1.4477232
32.407835188601744	2.0060773	1.4163606
32.42608741825067	2.0490222	1.4314406
32.444340493284585	2.0605636	1.4354663
32.46259441428416	2.0699565	1.4387344
32.48084918183028	2.0572124	1.4342985
32.49910479650405	1.9903253	1.4107889
32.51736125888683	2.0040405	1.4156413
32.53561856956014	2.0260465	1.4233927
32.5538767291058	2.136557	1.4616966
32.572135738105764	2.1754208	1.4749308
32.59039559714228	2.1555033	1.4681633
32.608656306797776	2.10211	1.4498655
32.62691786765491	2.060472	1.4354345
32.645180280296586	2.0305147	1.4249613
32.663443545305896	2.0242453	1.4227598
32.68170766326619	1.957331	1.3990464
32.69997263476099	2.0109096	1.4180654
32.7182384603741	2.0428357	1.429278
32.7365051406895	2.1063035	1.451311
32.75477267629144	2.1281512	1.4588184
32.77304106776434	2.0710127	1.4391013
32.79131031569289	2.0077834	1.4169627
32.809580420661966	1.8903133	1.3748866
32.827851383256714	1.9831122	1.4082302
32.84612320406245	2.0437028	1.4295814
32.86439588366476	2.0440326	1.4296967
32.88266942264945	2.0405006	1.428461
32.9009438216025	2.0013168	1.414679
32.9192190811102	1.911868	1.3827032
32.937495201758985	1.9427006	1.393808
32.95577218413556	1.9491476	1.3961188
32.974050028826866	1.9903358	1.4107926
32.992328736420035	2.0827725	1.4431814
33.010608307502444	2.1088784	1.4521978
33.02888874266169	2.0429063	1.4293027
33.047170042485604	2.0492883	1.4315336
33.06545220756225	2.0536532	1.4330573
33.083735238479896	2.033154	1.4258871
33.10201913582707	1.978596	1.4066257
33.12030390019248	1.9230632	1.3867456
33.138589532165135	1.9243371	1.3872048
33.15687603233419	1.9696653	1.4034476
33.17516340128909	2.0942323	1.4471463
33.19345163961947	2.0416744	1.4288718
33.211740747915215	2.0233066	1.4224298
33.23003072676643	1.9275786	1.3883727
33.248321576763466	1.9006779	1.3786508
33.266613298496885	1.8864456	1.3734794
33.28490589255747	1.9571902	1.3989961
33.30319935953626	1.9852018	1.4089719
33.32149370002451	1.9685018	1.403033
33.339788914613706	1.9677124	1.4027517
33.358085003895575	2.0042276	1.4157075
33.376381968462034	2.0138068	1.4190866
33.39467980890529	1.9533974	1.39764
33.41297852581774	1.8363199	1.3551089
33.43127811979204	1.8999038	1.3783699
33.44957859142105	2.0362594	1.4269756
33.467879941297866	2.0661142	1.4373984
33.486182170015844	1.9790137	1.4067742
33.50448527816853	2.0048378	1.4159229
33.522789266349754	2.0132022	1.4188735
33.541094135153514	2.0006201	1.4144328
33.55939988517411	1.9395428	1.3926747
33.57770651700602	1.9066452	1.3808132
33.59601403124398	1.8833474	1.372351
33.61432242848296	1.9949456	1.4124254
33.632631709318154	1.9902092	1.4107478
33.650941874344994	1.9028525	1.3794392
33.66925292415916	1.9142759	1.3835737
33.68756485935654	1.9789286	1.406744
33.70587768053328	2.0561013	1.4339112
33.724191388285746	2.045371	1.4301647
33.74250598321054	1.8986458	1.3779136
33.760821465904506	1.8502352	1.3602335
33.77913783696474	1.8872094	1.3737574
33.79745509698852	2.1185462	1.4555227
33.815773246573414	2.2089002	1.4862369
33.8340922863172	2.110379	1.4527143
33.852412216817896	1.88448	1.3727636
33.87073303867377	1.8400694	1.3564916
33.889054752483304	1.8668061	1.3663112
33.907377358845245	2.0107975	1.418026
33.92570085835853	2.0423663	1.4291137
33.94402525162239	1.9224381	1.3865201
33.96235053923627	1.8524985	1.3610653
33.980676721799824	1.9398841	1.3927972
33.999003799912984	1.950568	1.3966273
34.01733177417592	1.9288155	1.388818
34.03566064518901	1.8840646	1.3726124
34.0539904135529	1.9736642	1.4048716
34.07232107986846	2.072935	1.4397691
34.090652644736785	2.030143	1.4248309
34.108985108759235	1.893302	1.3759731
34.12731847253742	1.969009	1.4032139
34.14565273667313	1.9586334	1.3995118
34.16398790176847	1.8663514	1.3661447
34.18232396842574	1.8990512	1.3780607
34.20066093724749	2.009185	1.4174572
34.21899880883651	2.090935	1.4460065
34.23733758379583	1.969557	1.4034091
34.25567726272874	1.8761759	1.3697357
34.27401784623872	2.0059893	1.4163295
34.29235933492957	2.1771328	1.4755111
34.31070172940526	2.0811718	1.4426267
34.32904503027003	1.9142889	1.3835783
34.347389238128386	1.9431343	1.3939636
34.36573435358502	1.9621841	1.4007798
34.38408037724492	1.9768761	1.4060143
34.402427309713296	1.960795	1.4002839
34.42077515159559	2.003328	1.4153898
34.43912390349752	1.8650607	1.3656722
34.45747356602499	1.8683296	1.3668685
34.47582413978423	1.8200291	1.3490846
34.49417562538163	1.8157302	1.3474903
34.51252802342388	1.9475985	1.3955638
34.53088133451789	2.0284595	1.42424
34.54923555927084	1.9503413	1.3965462
34.567590698290104	1.9485989	1.3959222
34.58594675218336	1.9777222	1.4063151
34.6043037215585	1.8907924	1.3750609
34.62266160702365	1.8196793	1.3489549
34.641020409187234	1.9225297	1.3865532
34.65938012865785	2.01656	1.4200563
34.677740766044394	1.9492141	1.3961426
34.69610232195598	1.8549303	1.3619583
34.714464797002016	1.9331795	1.3903883
34.73282819179208	1.9833138	1.4083017
34.751192506936064	2.0341578	1.426239
34.76955774304408	1.971681	1.4041656
34.7879239007265	2.0491168	1.4314736
34.80629098059391	2.1331491	1.4605304
34.824658983257194	2.0045946	1.415837
34.843027909327446	2.1089668	1.4522282
34.86139775941603	2.1723468	1.4738883
34.879768534134534	2.1693938	1.4728862
34.89814023409483	1.9646149	1.4016472
34.91651285990901	1.7983208	1.3410149
34.93488641218944	1.8707771	1.3677635
34.95326089154871	2.1068597	1.4515026
34.97163629859967	2.1964386	1.4820386
34.99001263395542	2.059606	1.4351327
35.00838989822934	2.0612717	1.4357129
35.02676809203499	2.1206625	1.4562495
35.04514721598624	1.9868923	1.4095716
35.063527270697215	1.8250227	1.350934
35.081908256782256	1.7683638	1.3297985
35.10029017485597	1.7374495	1.3181235
35.11867302553321	1.9272441	1.3882521
35.137056809429104	2.1745741	1.4746437
35.155441527159006	2.1944277	1.4813601
35.173827179338524	1.8843802	1.3727273
35.19221376658354	1.9226314	1.3865899
35.21060128951017	2.1924527	1.4806933
35.2289897487348	2.265276	1.5050833
35.24737914487405	2.208971	1.4862608
35.26576947854479	2.4180388	1.5550045
35.28416075036418	2.3893294	1.5457456
35.30255296094958	1.9529061	1.3974642
35.32094611091867	1.892087	1.3755316
35.33934020088932	2.2838612	1.5112449
35.35773523147969	2.2138016	1.487885
35.3761312033082	2.013159	1.4188584
35.394528116993506	1.9730132	1.4046398
35.41292597315452	2.305761	1.5184733
35.431324772410434	2.187725	1.479096
35.449724515380666	1.9280462	1.388541
35.46812520268491	1.8855473	1.3731523
35.486526834943106	1.994199	1.4121611
35.504929412775454	2.3408554	1.5299854
35.52333293680242	2.389307	1.5457383
35.54173740764471	2.251885	1.5006282
35.560142825923286	1.7573534	1.3256521
35.5785491922594	1.0819902	1.0401876
35.59695650727454	1.1885917	1.0902256
35.61536477159042	1.9848942	1.4088627
