0.008763373481513119	0.0	0.0
0.026290120649546365	0.0	0.0
0.043816868432600686	0.13170215	0.36290792
0.06134361724069026	0.09919149	0.3149468
0.07887036748382949	0.07748628	0.27836356
0.0963971195720331	0.0036183195	0.060152467
0.11392387391531617	0.05476992	0.23402974
0.1314506309236943	0.13756758	0.37090105
0.1489773910071836	0.24384317	0.49380478
0.16650415457580078	0.22164284	0.47078958
0.18403092203956356	0.23784594	0.48769453
0.20155769380849	0.15015113	0.3874934
0.2190844702925996	0.15231739	0.3902786
0.2366112519019124	0.12431423	0.35258225
0.2541380390464497	0.15462439	0.39322308
0.27166483213623416	0.1205836	0.3472515
0.28919163158128947	0.110871606	0.33297387
0.3067184377916406	0.12994976	0.36048546
0.324245251177314	0.14512505	0.3809528
0.34177207214833777	0.13304046	0.3647471
0.3592989011147415	0.1458741	0.38193467
0.37682573848655654	0.20549186	0.4533121
0.39435258467381573	0.23540376	0.48518425
0.41187944008655414	0.22962938	0.4791966
0.42940630513480854	0.20439444	0.45210004
0.446933180228618	0.19910172	0.44620815
0.4644600657780234	0.18487506	0.42997098
0.48198696219306775	0.16992192	0.41221586
0.49951386988379676	0.14354889	0.37887847
0.5170407892602581	0.21159309	0.4599925
0.5345677207325025	0.21889275	0.46785975
0.5520946647105822	0.16831721	0.41026482
0.5696216216045534	0.12858367	0.35858566
0.5871485918244737	0.11727186	0.34244978
0.6046755757804043	0.15200986	0.3898844
0.6222025738824094	0.15512994	0.39386538
0.6397295865405557	0.18345633	0.42831802
0.6572566141649129	0.1875718	0.4330956
0.6747836571655547	0.23402983	0.4837663
0.6923107159525568	0.2328623	0.48255807
0.7098377909359992	0.22874424	0.47827214
0.7273648825259653	0.19058369	0.43655893
0.7448919911325411	0.18982898	0.43569368
0.762419117165817	0.2079538	0.45601952
0.7799462610358868	0.21017265	0.4584459
0.7974734231528482	0.21105637	0.4594087
0.8150006039268024	0.20193955	0.44937685
0.8325278037678551	0.18531108	0.43047774
0.8500550230861152	0.19712648	0.44398928
0.8675822622916969	0.16865677	0.41067842
0.8851095217947171	0.1787925	0.42283863
0.9026368020052984	0.198971	0.44606167
0.9201641033335665	0.20728974	0.45529082
0.9376914261896523	0.2293239	0.47887775
0.9552187709836915	0.26906028	0.5187102
0.9727461381258234	0.28757095	0.53625643
0.990273528026193	0.2589549	0.50887614
1.0078009410949496	0.22632879	0.47574025
1.0253283777422473	0.21322787	0.46176603
1.0428558383782454	0.23948888	0.489376
1.0603833234131086	0.28422678	0.5331292
1.0779108332570058	0.29748246	0.5454195
1.0954383683201119	0.27711305	0.5264153
1.112965929012607	0.35650885	0.5970836
1.1304935157446763	0.47776508	0.6912055
1.1480211289265108	0.5217737	0.72233903
1.1655487689683062	1.3466412	1.1604487
1.1830764362802655	1.695808	1.3022319
1.200604131272596	2.1710384	1.4734443
1.2181318543555117	2.4451344	1.5636926
1.235659605939232	2.4165895	1.5545384
1.253187386433982	3.865359	1.9660517
1.270715196249994	6.1564984	2.4812293
1.2882430357975057	11.437094	3.3818772
1.3057709054867608	16.277897	4.0345874
1.3232988057280106	22.15091	4.7064753
1.3408267369315112	26.903135	5.1868234
1.358354699507526	30.826456	5.552158
1.3758826938663256	34.99029	5.9152594
1.3934107204181858	36.959915	6.079467
1.410938779573391	37.179886	6.0975313
1.4284668717422309	37.68743	6.139009
1.4459949973350033	37.326073	6.1095066
1.4635231567620117	37.57556	6.129891
1.4810513504335687	36.641212	6.0531983
1.4985795787599925	35.903988	5.9919934
1.5161078421516088	35.30576	5.941865
1.5336361410187505	34.92535	5.909767
1.5511644757717598	35.051647	5.920443
1.5686928468209842	35.93894	5.9949093
1.58622125457678	36.817493	6.067742
1.6037496994495108	37.890617	6.1555357
1.621278181849548	37.584972	6.1306586
1.6388067021872719	38.038094	6.167503
1.6563352608730693	37.111458	6.0919175
1.673863858317336	36.206306	6.0171676
1.6913924949304753	35.783276	5.981912
1.7089211711228998	34.80866	5.899886
1.7264498873050296	34.308266	5.857326
1.7439786438872935	33.263264	5.7674313
1.7615074412801288	32.211582	5.6755247
1.779036279893981	31.64804	5.625659
1.796565160139305	30.597944	5.531541
1.814094082426564	30.105581	5.4868555
1.8316230471662298	28.995329	5.3847313
1.849152054768784	28.25216	5.315276
1.8666811056447168	27.57967	5.251635
1.8842102002045273	26.87275	5.183893
1.901739338858724	26.098598	5.108679
1.9192685220178245	25.539421	5.053654
1.9367977500923557	24.76765	4.976711
1.9543270234928547	24.391241	4.938749
1.971856342629867	23.752491	4.873653
1.9893857079139496	23.20557	4.817216
2.006915119755667	23.057018	4.8017726
2.0244445785655945	22.543312	4.7479796
2.0419740847543175	21.896889	4.679411
2.0595036387324317	21.080133	4.5913105
2.0770332409105414	20.443111	4.5214057
2.094562891699263	20.221085	4.496786
2.1120925915092217	19.845316	4.454808
2.129622340751053	19.761435	4.4453835
2.1471521398354043	187.96361	13.709982
2.1646819891729323	444.3473	21.079546
2.182211889174303	440.3263	20.983953
2.1997418402501974	452.70187	21.276793
2.2172718428113023	432.695	20.801323
2.234801897268317	320.66248	17.907051
2.2523320040319548	17.186207	4.145625
2.269862163512935	16.654917	4.0810437
2.287392376121992	16.383081	4.0476017
2.304922642269869	16.148956	4.0185766
2.322452962367322	15.91613	3.9895024
2.3399833368251164	15.65056	3.956079
2.357513766054032	15.444324	3.9299266
2.3750442504648586	15.12838	3.8895218
2.3925747904683963	14.883571	3.857923
2.410105386475459	14.42266	3.7977178
2.4276360388968707	14.044719	3.7476285
2.445166748143469	14.070791	3.7511053
2.4626975146261025	14.072634	3.7513509
2.4802283387556323	13.915877	3.7303991
2.4977592209429305	13.476889	3.6710882
2.5152901615988825	13.170736	3.6291509
2.5328211611343865	13.001631	3.6057775
2.5503522199603523	12.875539	3.5882502
2.5678833384877024	12.656218	3.5575578
2.5854145171273712	12.41697	3.5237722
2.6029457562903064	12.212897	3.4946957
2.620477056387469	11.99771	3.463771
2.6380084178298326	11.815923	3.4374297
2.655539841028383	11.578834	3.4027686
2.673071326394119	11.298231	3.3612843
2.6906028743380523	10.98435	3.3142648
2.708134485271211	10.7447605	3.2779202
2.7256661596046325	10.571227	3.2513423
2.743197897749369	10.453568	3.233198
2.760729700116486	10.451258	3.2328405
2.778261567117063	10.38105	3.2219636
2.795793499162193	10.35448	3.2178378
2.8133254966629817	10.144742	3.1850812
2.830857560030551	9.800803	3.1306233
2.8483896896760337	9.612685	3.100433
2.865921886010578	9.450208	3.074119
2.883454149445347	9.463074	3.076211
2.9009864803915177	9.397045	3.06546
2.91851887926028	9.215188	3.0356529
2.9360513464628384	9.048675	3.0081015
2.953583882410413	8.884474	2.9806833
2.9711164875142373	8.843722	2.9738398
2.9886491621855606	8.7195015	2.9528801
3.0061819068356455	8.663316	2.943351
3.023714721875769	8.632447	2.9381027
3.041247607717225	8.512753	2.9176621
3.0587805647713213	8.37654	2.8942254
3.0763135934493806	8.217124	2.8665526
3.0938466941627407	8.146587	2.8542228
3.1113798673227544	8.162431	2.8569968
3.1289131133407904	8.083352	2.8431237
3.1464464326282315	7.981323	2.8251235
3.1639798255964786	7.7613063	2.785912
3.1815132926569443	7.486827	2.7362068
3.1990468342210603	7.4355574	2.726822
3.216580450700272	7.456496	2.7306585
3.2341141425060416	7.520463	2.7423463
3.251647910049847	7.4275365	2.7253506
3.2691817537431813	7.3508825	2.711251
3.286715673997555	7.2469697	2.6920197
3.3042496712244938	7.1390686	2.6719036
3.32178374583554	7.0762186	2.6601162
3.339317898242251	6.9472036	2.6357548
3.3568521288562034	6.9547095	2.6371784
3.3743864380889876	6.8735986	2.621755
3.3919208263522127	6.73467	2.5951242
3.4094552940575023	6.589487	2.5669997
3.4269898416164972	6.538189	2.5569882
3.444524469440858	6.476911	2.5449777
3.4620591779422587	6.3990974	2.5296438
3.479593967532391	6.3472996	2.5193849
3.4971288386229658	6.3198733	2.5139358
3.5146637916257086	6.419534	2.53368
3.5321988269523628	6.3852572	2.5269067
3.5497339450146903	6.3748245	2.5248415
3.5672691462244708	6.2817864	2.5063493
3.5848044309934988	6.3116546	2.5123007
3.60233979973359	6.3372927	2.5173979
3.619875252856575	6.4288807	2.5355237
3.6374107907743034	6.4308925	2.5359204
3.6549464138986427	6.5147133	2.5523937
3.6724821226414788	6.461514	2.541951
3.690017917414714	6.348742	2.519671
3.7075537986302702	6.3541064	2.5207353
3.7250897667000857	6.3698077	2.5238478
3.7426258220361235	6.529376	2.5552645
3.7601619650503553	6.853661	2.6179497
3.777698196154779	7.2311125	2.6890728
3.7952345157614067	8.241775	2.8708491
3.8127709242822716	8.94734	2.9912105
3.830307422129425	11.239098	3.3524764
3.847844009714936	30.065203	5.4831743
3.8653806874508954	97.59656	9.879097
3.882917455749409	96.84492	9.8409815
3.900454315022606	96.58685	9.827861
3.917991265682631	41.217384	6.420077
3.9355283081416506	10.964791	3.3113127
3.9530654428118495	8.851283	2.9751105
3.970602670105433	7.6697855	2.7694378
3.9881399904346244	6.74079	2.5963032
4.005677404211669	6.6240077	2.5737147
4.023214911848827	6.54641	2.5585954
4.0407525137583855	6.448825	2.5394537
4.058290210352644	6.4072647	2.5312576
4.075828002043927	6.283577	2.5067065
4.0933658892445814	6.308883	2.511749
4.110903872366966	6.3253183	2.5150185
4.128441951823468	6.1977654	2.489531
4.145980128026488	6.039076	2.457453
4.163518401388452	5.918808	2.4328601
4.181056772321807	5.982917	2.446
4.1985952412390155	6.118926	2.4736464
4.216133808552567	6.180917	2.486145
4.233672474674966	6.2595053	2.5019004
4.251211240018741	6.506803	2.5508435
4.268750104996445	6.7596216	2.5999272
4.286289070020643	7.613077	2.7591805
4.303828135503928	9.166504	3.0276234
4.3213673018589125	29.419336	5.4239593
4.3389065694982305	90.70201	9.523761
4.356445938834537	166.144	12.889686
4.3739854102805085	171.7274	13.10448
4.391524984248844	172.53377	13.135211
4.409064661152262	136.4903	11.682906
4.426604441403504	96.90468	9.844017
4.444144325415337	75.875206	8.710637
4.461684313600543	21.931715	4.6831307
4.47922440637193	22.22742	4.7145967
4.496764604142329	20.559801	4.5342917
4.5143049073245916	18.631079	4.3163733
4.531845316331589	16.426355	4.052944
4.5493858315762195	13.440299	3.6661015
4.566926453471405	11.177177	3.3432286
4.584467182430081	9.267932	3.0443277
4.602008018865218	8.105747	2.8470595
4.619548963189798	7.423231	2.7245607
4.637090015816834	6.99543	2.6448874
4.654631177159353	6.7624364	2.6004684
4.672172447630417	6.5413823	2.5576127
4.689713827643102	6.279566	2.505906
4.7072553176105085	5.9779496	2.4449847
4.724796917945764	5.7400727	2.395845
4.742338629062015	5.6896644	2.3853018
4.759880451372434	5.683742	2.38406
4.777422385290215	5.7228203	2.3922417
4.794964431228581	5.8415866	2.4169374
4.812506589600768	5.819501	2.4123642
4.830048860820047	5.7382746	2.3954697
4.847591245299709	5.5691857	2.3599122
4.8651337434530655	5.519397	2.3493397
4.882676355693457	5.5684404	2.3597543
4.900219082434242	5.611612	2.368884
4.917761924088813	5.5750494	2.3611543
4.935304881070575	5.550563	2.3559632
4.952847953792969	5.573204	2.3607635
4.970391142669449	5.5927234	2.364894
4.9879344481135055	5.625609	2.3718367
5.005477870538642	5.524125	2.3503458
5.023021410358394	5.4469457	2.3338692
5.040565067986324	5.396143	2.32296
5.05810884383601	5.4487996	2.3342664
5.075652738321066	5.4723625	2.339308
5.09319675185512	5.4764366	2.3401787
5.110740884851836	5.406905	2.3252752
5.128285137724894	5.3840866	2.3203635
5.145829510888007	5.4007664	2.3239548
5.163374004754908	5.4598556	2.3366334
5.1809186197393595	5.4219856	2.3285158
5.198463356255145	5.4029417	2.3244228
5.216008214716077	5.3269806	2.3080254
5.233553195535998	5.333257	2.3093846
5.251098299128764	5.268091	2.2952323
5.268643525908272	5.2807593	2.2979903
5.286188876288432	5.326006	2.3078141
5.3037343506831895	5.4539957	2.3353791
5.32127994950651	5.3950796	2.322731
5.3388256731723915	5.291323	2.3002877
5.356371522094851	5.1208296	2.262925
5.373917496687938	5.103717	2.2591407
5.391463597365729	5.164527	2.2725596
5.40900982454232	5.168423	2.2734165
5.426556178631843	5.179165	2.2757778
5.444102660048449	5.16692	2.273086
5.4616492692063225	5.0966654	2.2575796
5.479196006519669	5.095697	2.257365
5.496742872402727	5.1879253	2.2777019
5.514289867269756	5.2383885	2.2887526
5.531836991535049	5.186058	2.2772918
5.549384245612924	5.101447	2.2586384
5.566931629917724	5.071199	2.2519324
5.584479144863822	5.0683284	2.2512949
5.6020267908656205	5.120984	2.2629592
5.619574568337545	5.0866237	2.2553544
5.637122477694054	5.0504484	2.2473202
5.654670519349629	5.0810556	2.2541196
5.672218693718784	5.1456647	2.2684057
5.689767001216059	5.1489234	2.269124
5.707315442256021	5.160082	2.2715814
5.724864017253266	5.096745	2.2575972
5.7424127266224225	5.0604315	2.2495403
5.75996157077814	5.013902	2.2391744
5.777510550135105	5.0755935	2.2529078
5.795059665108022	5.1866956	2.2774317
5.812608916111639	5.2074676	2.2819877
5.830158303560715	5.2835565	2.2985988
5.847707827870055	5.2793336	2.2976801
5.86525748945448	5.4437275	2.3331797
5.8828072887288485	5.6246967	2.3716443
5.900357226108044	5.696098	2.3866498
5.917907302006979	5.709424	2.38944
5.9354575168406	6.2458863	2.4991772
5.9530078710238765	6.811761	2.609935
5.970558364971812	7.3503494	2.7111528
5.988108999099438	7.63639	2.763402
6.005659773821818	8.180186	2.8601024
6.023210689554039	7.9420877	2.818171
6.040761746711227	8.395967	2.8975794
6.058312945708531	7.80801	2.7942817
6.075864286961132	7.3709307	2.7149458
6.093415770884244	6.717691	2.5918508
6.1109673978931065	6.202031	2.4903877
6.128519168402993	5.59601	2.3655887
6.146071082829204	5.427836	2.3297718
6.163623141587075	5.2761755	2.2969928
6.181175345091969	5.199295	2.2801962
6.198727693759281	5.0998416	2.258283
6.216280188004435	5.0661526	2.2508116
6.233832828242885	4.994826	2.2349107
6.251385614890126	5.0772886	2.253284
6.268938548361669	5.1641307	2.2724724
6.286491629073067	5.258675	2.2931802
6.304044857439898	5.2631397	2.2941535
6.321598233877777	5.18605	2.27729
6.339151758802344	5.1193557	2.2625992
6.356705432629277	4.9891157	2.2336328
6.37425925577428	4.886269	2.2104907
6.391813228653095	4.903264	2.2143316
6.409367351681486	4.9491243	2.2246628
6.426921625275259	4.9676895	2.2288315
6.44447604985025	4.984716	2.2326477
6.46203062582232	4.9886584	2.2335305
6.47958535360737	5.0114036	2.2386165
6.497140233621328	5.0909157	2.2563057
6.514695266280161	5.059512	2.249336
6.532250451999859	5.062231	2.2499402
6.549805791196454	4.9621186	2.2275813
6.567361284286002	4.960519	2.2272222
6.584916931684597	4.9081597	2.2154367
6.602472733808367	4.929796	2.2203145
6.6200286910734665	4.937997	2.2221603
6.637584803896092	4.962037	2.2275631
6.655141072692462	4.934628	2.2214022
6.672697497878842	4.905788	2.2149014
6.690254079871514	4.891125	2.2115889
6.707810819086808	4.9801702	2.2316296
6.725367715941078	5.0636187	2.2502487
6.742924770850719	5.0521083	2.2476895
6.760481984232151	5.026962	2.2420888
6.778039356501836	4.9670815	2.228695
6.795596888076266	4.9356756	2.221638
6.813154579371963	4.8949556	2.2124546
6.830712430805492	4.881198	2.2093434
6.84827044279344	4.9295597	2.220261
6.865828615752445	4.9951158	2.2349756
6.883386950099159	5.0234523	2.2413058
6.900945446250287	5.0192738	2.2403736
6.918504104622553	5.0498075	2.2471776
6.936062925632727	5.091359	2.256404
6.953621909697607	5.0860004	2.2552164
6.971181057234028	5.0699234	2.2516491
6.988740368658859	5.0588145	2.2491808
7.006299844389007	5.064576	2.2504613
7.023859484841407	5.160674	2.2717118
7.041419290433036	5.222751	2.2853339
7.058979261580902	5.3586273	2.3148708
7.0765393987020495	5.6504235	2.3770618
7.094099702213559	6.102306	2.4702845
7.111660172532549	6.492273	2.547994
7.129220810076164	6.802796	2.608217
7.146781615261595	7.356224	2.712236
7.16434258850606	7.5987196	2.7565775
7.181903730226821	8.038937	2.8353019
7.1994650408411704	8.084829	2.8433833
7.217026520766437	8.174938	2.859185
7.234588170419983	8.383675	2.8954575
7.252149990219215	8.381215	2.895033
7.269711980581568	8.330283	2.886223
7.2872741419245175	8.146012	2.854122
7.304836474665574	7.7575517	2.7852383
7.322398979222286	7.528598	2.743829
7.339961656012233	7.2908707	2.7001612
7.357524505453039	6.9918556	2.6442118
7.375087527962357	6.657271	2.5801687
7.392650723957886	6.306201	2.511215
7.410214093857353	5.9373565	2.436669
7.427777638078528	5.709824	2.3895237
7.445341357039213	5.5847654	2.363211
7.4629052511572525	5.452425	2.3350427
7.480469320850524	5.3378572	2.3103802
7.498033566536948	5.2212257	2.285
7.5155979886344735	5.1492333	2.2691922
7.5331625875610975	5.1444683	2.268142
7.550727363734844	5.154399	2.2703302
7.568292317573788	5.1851892	2.277101
7.585857449496025	5.185415	2.2771506
7.603422759919705	5.222394	2.2852557
7.620988249263007	5.2067	2.2818193
7.638553917944147	5.214858	2.2836063
7.656119766381391	5.294618	2.3010037
7.673685794993023	5.2541056	2.2921836
7.691252004197388	5.194075	2.2790513
7.70881839441285	5.1226325	2.2633233
7.726384966057826	5.170558	2.2738862
7.743951719550762	5.224735	2.2857678
7.761518655310149	5.265404	2.294647
7.779085773754511	5.2694545	2.2955291
7.796653075302419	5.2618294	2.2938678
7.814220560372475	5.2693477	2.295506
7.831788229383323	5.3277845	2.3081994
7.8493560827536495	5.323769	2.3073294
7.866924120902174	5.3254914	2.3077025
7.884492344247663	5.397432	2.3232374
7.9020607532089135	5.455166	2.3356297
7.919629348204771	5.477007	2.3403006
7.937198129654115	5.420969	2.3282974
7.954767097975865	5.3722034	2.3178015
7.972336253588986	5.306752	2.303639
7.989905596912472	5.328251	2.3083005
8.007475128365371	5.386198	2.3208184
8.025044848366756	5.506352	2.3465617
8.042614757335754	5.6359167	2.3740087
8.060184855691523	5.674042	2.3820248
8.07775514385327	5.74717	2.3973255
8.095325622240228	5.8286395	2.4142575
8.112896291271687	5.929778	2.4351137
8.130467151366968	5.9386406	2.4369326
8.148038202945436	5.965738	2.442486
8.165609446426497	5.913413	2.431751
8.183180882229594	5.963999	2.44213
8.200752510774217	5.9571056	2.4407182
8.218324332479893	5.908953	2.4308338
8.235896347766193	5.902598	2.4295263
8.253468557052724	5.9041724	2.4298503
8.27104096075914	5.969655	2.4432878
8.288613559305137	6.054572	2.460604
8.306186353110448	6.1723666	2.4844248
8.32375934259485	6.2123547	2.4924595
8.341332528178162	6.230579	2.4961128
8.358905910280246	6.2159023	2.4931712
8.376479489321003	6.200649	2.4901102
8.394053265720377	6.3163667	2.5132382
8.411627239898356	6.3319154	2.5163298
8.42920141227497	6.3387337	2.5176842
8.44677578327029	6.3245	2.5148559
8.464350353304427	6.3105125	2.5120733
8.48192512279754	6.286393	2.507268
8.499500092169827	6.2115846	2.492305
8.51707526184153	6.187153	2.4873989
8.534650632232934	6.2776804	2.5055299
8.552226203764365	6.25372	2.5007439
8.569801976856192	6.2471476	2.4994295
8.587377951928834	6.256837	2.501367
8.60495412940274	6.3152256	2.5130112
8.622530509698416	6.3870993	2.527271
8.6401070932364	6.485011	2.5465684
8.657683880437283	6.5526586	2.5598161
8.675260871721695	6.6726336	2.5831442
8.692838067510303	6.814536	2.6104667
8.710415468223834	6.983211	2.6425767
8.727993074283043	7.165145	2.6767788
8.745570886108737	7.2031364	2.683866
8.763148904121765	7.23842	2.690431
8.78072712874302	7.2456856	2.691781
8.798305560393441	7.4669833	2.732578
8.815884199494006	7.555479	2.7487233
8.833463046465745	7.7128205	2.7771964
8.851042101729728	7.8233337	2.7970223
8.86862136570707	8.127362	2.850853
8.886200838818924	8.28537	2.8784318
8.903780521486505	8.320083	2.8844554
8.921360414131055	8.459461	2.9085152
8.938940517173874	8.650917	2.9412441
8.956520831036297	8.7762575	2.9624748
8.97410135613971	8.975824	2.995968
8.99168209290554	9.0773735	3.012868
9.009263041755265	9.299845	3.0495646
9.026844203110405	9.571742	3.0938232
9.044425577392525	9.829236	3.1351612
9.062007165023239	9.9009905	3.146584
9.079588966424197	10.212268	3.195664
9.097170982017108	10.27685	3.2057526
9.11475321222372	11.270131	3.3571017
9.132335657465825	12.129974	3.4828112
9.149918318165264	12.209995	3.4942803
9.167501194743924	12.858206	3.585834
9.18508428762374	12.570335	3.545467
9.202667597226693	12.5780945	3.546561
9.220251123974803	12.264976	3.5021386
9.237834868290143	11.826924	3.4390295
9.255418830594836	11.665567	3.4154894
9.273003011311046	11.149985	3.3391595
9.290587410860985	11.055447	3.324973
9.308172029666911	10.359565	3.2186277
9.32575686815113	10.062796	3.172191
9.343341926735997	8.769738	2.9613743
9.360927205843916	8.563151	2.9262862
9.378512705897327	8.3788805	2.8946295
9.396098427318728	8.138939	2.8528826
9.413684370530664	7.9721174	2.8234937
9.431270535955722	7.8251777	2.7973518
9.448856924016539	7.780624	2.789377
9.466443535135806	7.736368	2.7814329
9.484030369736251	7.700049	2.7748961
9.501617428240658	7.753845	2.7845726
9.519204711071852	7.643318	2.764655
9.536792218652714	7.678206	2.7709577
9.55437995140617	7.697542	2.7744446
9.571967909755191	7.785142	2.7901866
9.589556094122802	7.8946385	2.8097398
9.60714450493207	7.9200106	2.8142514
9.624733142606116	7.8800764	2.8071473
9.642322007568108	7.8790894	2.8069715
9.659911100241267	7.8740883	2.8060806
9.677500421048851	7.993068	2.8272014
9.695089970414175	8.040311	2.835544
9.712679748760609	8.11645	2.8489385
9.730269756511557	8.136657	2.8524826
9.747859994090492	8.208811	2.8651023
9.765450461920915	8.339146	2.8877578
9.78304116042639	8.362798	2.8918502
9.800632090030527	8.306739	2.8821414
9.81822325115699	8.201274	2.8637867
9.835814644229481	8.147728	2.8544226
9.853406269671762	8.22547	2.868008
9.870998127907646	8.241469	2.870796
9.888590219360985	8.237704	2.87014
9.906182544455698	8.28077	2.8776329
9.923775103615734	8.344776	2.8887327
9.941367897265108	8.315466	2.883655
9.958960925827878	8.377572	2.8944035
9.97655418972816	8.34456	2.8886952
9.994147689390106	8.369938	2.8930845
10.011741425237934	8.215457	2.866262
10.029335397695904	8.175287	2.859246
10.04692960718833	8.1566	2.855976
10.06452405413958	8.232703	2.8692687
10.082118738974064	8.262768	2.8745031
10.099713662116246	8.299239	2.88084
10.117308823990651	8.280573	2.8775985
10.134904225021844	8.256968	2.873494
10.152499865634445	8.191476	2.8620753
10.170095746253125	8.228517	2.868539
10.18769186730261	8.212009	2.8656604
10.205288229207675	8.183643	2.8607068
10.222884832393145	8.102969	2.8465714
10.2404816772839	8.06934	2.8406584
10.258078764304868	8.056151	2.838336
10.275676093881035	8.078871	2.8423355
10.293273666437438	8.120779	2.849698
10.310871482399158	8.15006	2.854831
10.32846954219134	8.136643	2.8524802
10.346067846239173	8.117256	2.8490798
10.363666394967908	8.1734295	2.858921
10.38126518880283	8.226645	2.868213
10.398864228169298	8.251744	2.872585
10.416463513492713	8.3201475	2.8844666
10.434063045198531	8.252696	2.8727505
10.451662823712262	8.198192	2.8632483
10.469262849459467	8.154186	2.8555536
10.486863122865758	8.053856	2.8379316
10.504463644356806	8.018016	2.8316102
10.522064414358338	7.9164515	2.813619
10.539665433296118	7.9037805	2.8113663
10.557266701595987	7.818097	2.796086
10.574868219683818	7.770117	2.787493
10.592469987985552	7.6893015	2.772959
10.610072006927185	7.6136403	2.7592826
10.627674276934751	7.530833	2.7442362
10.64527679843435	7.3243356	2.706351
10.662879571852143	7.1800995	2.6795707
10.680482597614331	7.093065	2.6632807
10.698085876147173	7.0466413	2.654551
10.715689407876988	6.952654	2.6367886
10.733293193230146	6.8044415	2.6085324
10.750897232633072	6.681411	2.5848424
10.76850152651225	6.6029634	2.5696232
10.786106075294207	6.5773697	2.5646384
10.803710879405534	6.5363574	2.5566301
10.821315939272877	6.468507	2.543326
10.83892125532294	6.415317	2.5328476
10.856526827982472	6.2848787	2.506966
10.874132657678285	6.2504725	2.5000944
10.891738744837243	6.1552353	2.4809747
10.909345089886271	6.1183763	2.473535
10.926951693252343	6.0896945	2.4677305
10.944558555362494	6.024721	2.4545307
10.96216567664381	5.957173	2.440732
10.979773057523436	5.915547	2.4321897
10.997380698428573	5.83525	2.4156263
11.014988599786477	5.781448	2.4044642
11.032596762024461	5.666364	2.3804126
11.050205185569892	5.622154	2.3711083
11.067813870850198	5.558675	2.3576841
11.085422818292859	5.538621	2.3534274
11.10303202832541	5.4435487	2.3331413
11.120641501375454	5.3663635	2.3165412
11.138251237870636	5.18144	2.2762775
11.155861238238671	5.1744747	2.2747471
11.173471502907317	5.171928	2.2741873
11.191082032304402	5.135331	2.2661269
11.208692826857805	5.084431	2.2548683
11.226303886995465	5.0118637	2.2387192
11.243915213145371	5.014564	2.2393222
11.261526805735578	4.9926815	2.234431
11.279138665194196	4.918634	2.2177994
11.296750791949393	4.8536453	2.203099
11.314363186429393	4.8031454	2.191608
11.331975849062479	4.7506323	2.1795945
11.34958878027699	4.678417	2.1629648
11.36720198050133	4.613557	2.1479192
11.384815450163948	4.5666556	2.1369734
11.402429189693366	4.544655	2.1318197
11.420043199518153	4.476722	2.1158266
11.437657480066942	63.40667	7.9628305
11.455272031768422	85.18668	9.229663
11.472886855051353	107.625694	10.37428
11.490501950344528	99.22962	9.961407
11.508117318076819	84.49224	9.191966
11.52573295867715	45.80874	6.768215
11.543348872574514	4.1126537	2.027968
11.560965060197946	4.039294	2.0097995
11.57858152197655	4.05359	2.0133529
11.59619825833949	4.0265746	2.0066326
11.613815269715985	4.0368342	2.0091875
11.631432556535323	38.51715	6.2062187
11.649050119226837	83.02824	9.111983
11.666667958219929	93.42137	9.665473
11.68428607394406	107.72228	10.378935
11.701904466828756	82.58928	9.087864
11.719523137303586	65.405235	8.08735
11.737142085798196	4.563594	2.136257
11.754761312742286	3.666666	1.914854
11.772380818565619	3.6319294	1.9057622
11.790000603698015	3.6756854	1.9172077
11.80762066856935	3.7132564	1.9269812
11.825241013609572	3.6507082	1.9106827
11.842861639248683	3.5586784	1.886446
11.860482545916748	3.507567	1.87285
11.878103734043883	3.5330372	1.8796375
11.895725204060282	3.5148275	1.8747873
11.91334695639619	3.4579096	1.8595456
11.930968991481919	3.3987834	1.8435789
11.948591309747824	3.3550835	1.8316886
11.966213911624347	3.3268144	1.8239557
11.98383679754198	3.2901077	1.8138654
12.001459967931268	3.2781296	1.8105606
12.019083423222835	3.2571557	1.8047591
12.036707163847352	3.2281675	1.7967103
12.05433119023556	3.1941295	1.7872127
12.071955502818259	3.1911438	1.7863773
12.089580102026313	3.1888044	1.7857224
12.107204988290643	3.2141924	1.7928169
12.12483016204224	3.2093117	1.7914551
12.142455623712152	3.1657722	1.7792617
12.16008137373149	3.1726131	1.7811831
12.177707412531431	3.148885	1.7745098
12.19533374054321	3.1391351	1.7717605
12.212960358198126	3.1300795	1.7692031
12.230587265927545	3.08361	1.7560211
12.248214464162889	3.0592332	1.7490664
12.265841953335649	3.0104928	1.7350771
12.283469733877375	2.9898803	1.729127
12.301097806219685	2.945058	1.7161171
12.31872617079425	2.9116094	1.7063439
12.336354828032825	2.8957374	1.7016866
12.353983778367205	2.927163	1.7108953
12.371613022229262	2.9548843	1.7189777
12.389242560050928	2.9507306	1.717769
12.406872392264201	2.9167235	1.7078418
12.424502519301143	2.868311	1.6936089
12.442132941593874	2.8343651	1.6835573
12.459763659574586	2.8264332	1.6811999
12.477394673675532	2.843515	1.6862725
12.49502598432903	2.8495479	1.6880604
12.51265759196746	2.844943	1.6866959
12.530289497023267	2.82349	1.6803243
12.547921699928967	2.8311238	1.6825944
12.565554201117134	2.8556356	1.6898626
12.583187001020404	2.8371892	1.6843958
12.600820100071486	2.797177	1.6724763
12.618453498703152	2.7788968	1.6670023
12.636087197348235	2.777585	1.6666088
12.65372119643964	2.7718678	1.6648927
12.671355496410326	2.788292	1.6698179
12.68899009769333	2.8363726	1.6841534
12.706625000721749	2.8527741	1.6890157
12.724260205928752	2.8818965	1.6976149
12.741895713747551	2.8887498	1.6996323
12.759531524611454	2.9425855	1.7153966
12.777167638953818	2.945681	1.7162987
12.794804057208072	2.9706907	1.7235692
12.812440779807702	3.0276873	1.740025
12.830077807186271	3.193817	1.7871253
12.847715139777405	3.2413306	1.8003696
12.865352778014795	3.4847586	1.8667508
12.882990722332197	3.6343367	1.9063936
12.90062897316344	3.7342305	1.9324157
12.918267530942412	3.7588837	1.9387841
12.935906396103071	3.6464942	1.9095795
12.953545569079449	3.8079162	1.9513882
12.971185050305628	3.6655514	1.914563
12.988824840215775	3.6634128	1.9140044
13.006464939244115	3.6339562	1.9062939
13.024105347824943	3.4973955	1.8701324
13.041746066392617	3.5945208	1.8959222
13.05938709538157	3.4029949	1.8447208
13.077028435226296	3.3736873	1.83676
13.094670086361363	3.2357736	1.7988256
13.112312049221401	3.1419816	1.7725636
13.129954324241112	3.0814047	1.755393
13.147596911855258	2.91909	1.7085345
13.165239812498685	2.8868537	1.6990744
13.182883026606293	2.8071544	1.6754565
13.200526554613058	2.7159383	1.6480104
13.218170396954017	2.7086382	1.645794
13.235814554064284	2.714077	1.6474456
13.253459026379034	2.729226	1.6520369
13.271103814333523	2.668869	1.6336673
13.288748918363058	2.642392	1.6255436
13.306394338903031	2.6464171	1.6267812
13.32404007638889	2.6560445	1.6297375
13.341686131256164	2.6602216	1.6310185
13.359332503940449	2.6697068	1.6339238
13.376979194877402	2.6878724	1.6394732
13.394626204502751	2.7165828	1.6482059
13.412273533252307	2.723438	1.6502842
13.429921181561937	2.6741514	1.6352832
13.447569149867581	2.7109663	1.6465013
13.465217438605247	2.7407079	1.6555084
13.482866048211022	2.7171192	1.6483686
13.500514979121052	2.7230284	1.6501601
13.518164231771568	2.678505	1.6366138
13.535813806598844	2.6846917	1.6385028
13.553463704039254	2.6267116	1.6207134
13.571113924529229	2.6316128	1.6222247
13.588764468505275	2.671586	1.6344987
13.606415336403956	2.7159274	1.648007
13.624066528661917	2.7418036	1.6558392
13.641718045715882	2.797999	1.672722
13.659369888002635	2.848112	1.6876351
13.67702205595903	2.9154587	1.7074714
13.694674550021993	2.9545565	1.7188823
13.712327370628532	3.0363283	1.7425064
13.729980518215713	3.140919	1.7722638
13.747633993220681	3.2043836	1.7900792
13.765287796080647	3.2478938	1.8021914
13.7829419272329	3.2825358	1.811777
13.800596387114801	3.3446496	1.8288383
13.818251176163775	3.3704188	1.83587
13.835906294817324	3.415637	1.8481442
13.853561743513023	3.4263802	1.8510484
13.871217522688525	3.4681675	1.8623017
13.888873632781538	3.4727862	1.8635412
13.906530074229858	3.458577	1.859725
13.92418684747135	3.4595487	1.8599862
13.941843952943948	3.4570563	1.8593161
13.959501391085665	3.4447582	1.856006
13.977159162334578	3.40319	1.8447737
13.994817267128846	3.3519077	1.8308216
14.012475705906693	3.265808	1.8071547
14.030134479106424	3.2178624	1.7938402
14.047793587166414	3.159882	1.7776057
14.065453030525108	3.1387472	1.771651
14.083112809621026	3.0390656	1.7432916
14.100772924892766	2.942142	1.7152673
14.118433376778997	2.901127	1.7032695
14.136094165718458	2.8534818	1.6892252
14.153755292149969	2.7973573	1.6725302
14.171416756512416	2.7260256	1.651068
14.189078559244768	2.64618	1.6267083
14.20674070078606	2.573443	1.6041955
14.224403181575408	2.540672	1.5939486
14.242066002051999	2.5213728	1.5878831
14.259729162655093	2.4661775	1.5704068
14.277392663824022	2.4276006	1.5580759
14.295056505998208	2.4012663	1.549602
14.312720689617128	2.4197614	1.5555582
14.330385215120348	2.3993824	1.548994
14.348050082947497	2.4045322	1.5506554
14.3657152935383	2.4110677	1.5527613
14.383380847332528	2.401074	1.5495399
14.401046744770051	2.4118917	1.5530267
14.418712986290798	2.3739386	1.5407591
14.436379572334793	2.3418274	1.530303
14.454046503342123	2.3664207	1.5383176
14.471713779752946	2.3412807	1.5301244
14.489381402007504	2.3420355	1.5303711
14.507049370546113	2.3155565	1.5216953
14.524717685809168	2.3499956	1.5329696
14.542386348237134	2.407462	1.5515997
14.560055358270553	2.4405124	1.5622139
14.577724716350051	2.4730608	1.5725968
14.595394422916325	2.4448366	1.5635973
14.61306447841015	2.4615736	1.5689403
14.63073488327237	2.4394932	1.5618877
14.648405637943917	2.4930377	1.5789356
14.6660767428658	2.5034635	1.5822337
14.683748198479094	2.507276	1.583438
14.701420005224954	2.5483449	1.5963537
14.719092163544628	2.6214964	1.6191036
14.73676467387942	2.6648855	1.6324477
14.754437536670727	2.6573434	1.630136
14.772110752360014	2.6495192	1.6277344
14.78978432138882	2.624373	1.6199917
14.807458244198777	2.6591501	1.6306901
14.82513252123159	2.6393058	1.6245941
14.842807152929028	2.6824265	1.6378115
14.860482139732962	2.6698663	1.6339725
14.87815748208531	2.6753669	1.6356549
14.8958331804281	2.6821651	1.6377317
14.91350923520342	2.669867	1.6339728
14.931185646853438	2.6640122	1.6321802
14.948862415820408	2.6682475	1.6334771
14.966539542546656	2.681042	1.6373887
14.98421702747459	2.6332915	1.6227419
15.001894871046696	2.624942	1.6201673
15.019573073705542	2.6070611	1.6146396
15.037251635893766	2.628671	1.6213176
15.054930558054092	2.6826491	1.6378795
15.072609840629323	2.763542	1.6623905
15.090289484062351	2.89051	1.70015
15.107969488796124	3.1390421	1.7717342
15.125649855273691	3.5668952	1.8886225
15.14333058393817	4.081557	2.0202863
15.161011675232768	5.138038	2.266724
15.17869312960076	6.5298457	2.5553563
15.196374947485506	8.325851	2.8854551
15.214057129330447	11.247191	3.3536832
15.231739675579114	15.853198	3.9816074
15.249422586675102	21.032381	4.5861073
15.267105863062092	24.220266	4.921409
15.284789505183847	24.608942	4.96074
15.302473513484218	22.477245	4.7410173
15.320157888407127	18.903286	4.3477907
15.337842630396578	14.74974	3.840539
15.355527739896656	11.47547	3.3875463
15.37321321735153	8.887977	2.981271
15.39089906320545	6.472727	2.5441554
15.408585277902748	4.8556776	2.20356
15.42627186188783	3.7094262	1.925987
15.443958815605198	3.1758063	1.7820792
15.461646139499424	2.8768122	1.6961168
15.479333834015168	2.7412925	1.655685
15.497021899597165	2.7166586	1.6482289
15.514710336690234	2.6553028	1.6295099
15.53239914573928	2.576966	1.6052932
15.550088327189297	2.5188982	1.5871037
15.567777881485336	2.5107808	1.5845443
15.58546780907256	2.5243924	1.5888337
15.6031581103962	2.5036027	1.5822777
15.620848785901568	2.4563146	1.5672634
15.638539836034063	2.3938007	1.5471913
15.656231261239173	2.3525958	1.5338174
15.673923061962451	2.3802426	1.5428035
15.691615238649552	2.4458032	1.5639064
15.709307791746202	2.4566023	1.5673552
15.727000721698221	2.4483762	1.5647287
15.744694028951498	2.4087656	1.5520198
15.76238771395202	2.3989441	1.5488526
15.780081777145844	2.3924067	1.5467407
15.797776218979125	2.357029	1.5352619
15.815471039898094	2.3516064	1.5334948
15.833166240349064	2.3565521	1.5351065
15.850861820778437	2.385512	1.5445104
15.868557781632699	2.385234	1.5444204
15.886254123358412	2.3394117	1.5295136
15.903950846402232	2.3350708	1.5280938
15.921647951210897	2.3396158	1.5295802
15.939345438231225	2.3462179	1.5317369
15.957043307910133	2.3667295	1.5384178
15.974741560694602	2.3619413	1.5368608
15.992440197031714	2.3891983	1.5457032
16.01013921736862	2.4017835	1.5497688
16.02783862215259	2.4077322	1.5516869
16.045538411830933	2.4061952	1.5511916
16.06323858685107	2.3886857	1.5455374
16.080939147660512	2.39184	1.5465574
16.09864009470684	2.423945	1.5569024
16.11634142843774	2.4643579	1.5698273
16.134043149300954	2.4653754	1.5701514
16.15174525774433	2.4344194	1.5602626
16.169447754215817	2.4223843	1.556401
16.18715063916342	2.3756638	1.5413189
16.204853913035244	2.3760762	1.5414526
16.222557576279478	2.3925714	1.5467939
16.240261629344403	22.40475	4.7333655
16.257966072678386	42.964523	6.554733
16.275670906729868	38.053867	6.1687818
16.293376131947387	2.485982	1.5766997
16.31108174877957	2.486133	1.5767477
16.328787757675133	2.5088634	1.5839392
16.34649415908287	2.5355062	1.5923274
16.364200953451657	2.5850308	1.6078031
16.38190814123048	2.627447	1.6209401
16.39961572286839	2.6846232	1.638482
16.41732369881455	2.7082632	1.6456802
16.43503206951817	2.6867533	1.6391319
16.45274083542859	2.6802232	1.6371387
16.47044999699522	2.721842	1.6498007
16.488159554667558	2.8238468	1.6804305
16.505869508895184	2.8274662	1.6815071
16.523579860127786	2.8220553	1.6798974
16.541290608815117	2.8629932	1.6920382
16.559001755407035	2.9524329	1.7182645
16.57671330035348	3.0756254	1.7537462
16.59442524410448	3.1210723	1.7666557
16.61213758711015	3.1824465	1.7839413
16.629850329820705	3.175088	1.7818776
16.647563472686436	3.2164912	1.7934579
16.665277016157724	3.2586281	1.8051671
16.682990960685053	3.3459232	1.8291864
16.70070530671898	3.3834488	1.8394153
16.718420054710155	3.4295225	1.851897
16.736135205109335	3.4797177	1.8654002
16.753850758367335	3.559811	1.8867462
16.771566714935087	3.650494	1.9106266
16.789283075263597	3.710244	1.9261993
16.80699983980398	3.7677794	1.9410769
16.82471700900741	3.832775	1.9577475
16.84243458332518	3.8831527	1.9705716
16.860152563208665	3.9480965	1.9869817
16.87787094910932	4.031891	2.007957
16.89558974147871	4.0922503	2.022931
16.913308940768466	4.1648617	2.0407994
16.931028547430333	4.264454	2.0650554
16.94874856191613	4.32496	2.079654
16.966468984677785	4.3344545	2.0819352
16.98418981616729	4.3840575	2.0938141
17.00191105683676	4.415103	2.1012146
17.019632707138374	4.493714	2.1198382
17.03735476752442	4.5384088	2.1303542
17.05507723844728	4.554677	2.1341689
17.072800120359403	4.5675335	2.137179
17.090523413713353	4.5794015	2.1399536
17.108247118961785	4.619648	2.1493366
17.125971236557437	4.6412373	2.1543531
17.143695766953133	4.6568666	2.1579773
17.161420710601806	4.6400943	2.1540878
17.179146067956477	4.663082	2.1594172
17.19687183947025	4.6836596	2.1641765
17.21459802559634	4.7310987	2.175109
17.232324626788028	4.720501	2.1726713
17.25005164349871	4.6682644	2.1606166
17.267779076181863	4.582455	2.140667
17.285506925291074	4.5663595	2.1369042
17.30323519127999	4.5363917	2.1298807
17.320963874602384	4.5747313	2.1388621
17.33869297571211	4.601862	2.145195
17.356422495063114	4.5963106	2.1439009
17.37415243310944	4.593343	2.1432085
17.391882790305218	4.5365424	2.129916
17.40961356710468	4.4871707	2.1182942
17.42734476396215	4.438232	2.1067111
17.445076381332044	4.43947	2.107005
17.462808419668868	4.5152097	2.1249022
17.48054087942723	4.654613	2.1574552
17.498273761061835	4.973187	2.2300644
17.51600706502747	5.471272	2.339075
17.533740791779024	6.2174015	2.4934719
17.551474941771485	7.5919957	2.7553577
17.56920951545993	8.687033	2.9473772
17.586944513299528	11.016054	3.319044
17.60467993574556	12.710424	3.5651681
17.622415783253373	14.408615	3.7958682
17.64015205627843	15.693119	3.9614542
17.657888755276293	16.736492	4.091026
17.675625880702604	17.26593	4.155229
17.69336343301311	17.094105	4.134502
17.71110141266366	16.145792	4.0181828
17.728839820110178	15.120063	3.8884525
17.746578655808705	14.263689	3.7767298
17.764317920215372	12.965411	3.6007514
17.7820576137864	11.61501	3.40808
17.79979773697811	9.6383705	3.1045725
17.81753829024692	7.72187	2.7788253
17.835279274049356	5.990046	2.447457
17.85302068884201	4.887855	2.2108493
17.870762535081607	4.195423	2.0482733
17.888504813224934	3.8743985	1.9683492
17.90624752372891	3.6804473	1.9184492
17.923990667050536	3.5815473	1.8924977
17.941734243646895	3.4654155	1.8615626
17.959478253975185	3.4410276	1.8550007
17.9772226984927	3.373571	1.8367283
17.994967577656833	3.3545403	1.8315405
18.01271289192506	3.3251286	1.8234935
18.030458641754965	3.3440537	1.8286754
18.04820482760425	3.3507707	1.8305111
18.06595144993067	3.3297546	1.8247615
18.083698509192125	3.3221972	1.8226895
18.101446005846576	3.2873936	1.813117
18.119193940352105	3.2593675	1.8053719
18.136942313166887	3.223687	1.7954628
18.1546911247492	3.2068992	1.7907817
18.1724403755574	3.165582	1.7792082
18.19019006604997	3.1522517	1.7754582
18.207940196685467	3.109716	1.7634387
18.225690767922575	3.0698779	1.7521067
18.243441780220046	3.0596519	1.749186
18.261193234036764	3.094889	1.7592297
18.278945129831676	3.09597	1.7595369
18.29669746806386	3.0249932	1.7392508
18.314450249192483	3.005143	1.7335348
18.3322034736768	3.0439508	1.7446922
18.349957141976184	3.0740466	1.7532959
18.3677112545501	3.1096075	1.763408
18.385465811858108	3.11081	1.7637489
18.403220814359884	3.0899966	1.7578386
18.420976262515172	3.0523882	1.7471086
18.43873215678387	3.0687118	1.7517738
18.456488497625923	3.118416	1.7659037
18.474245285501407	3.2334764	1.798187
18.492002520870486	3.2802894	1.8111569
18.50976020419343	3.3645928	1.8342826
18.527518335930615	3.661006	1.9133755
18.545276916542516	4.2135615	2.0526962
18.563035946489688	4.381103	2.0931084
18.580795426232832	4.829746	2.1976683
18.598555356232698	4.6724777	2.1615915
18.616315736950185	4.9303875	2.2204475
18.63407656884626	4.615193	2.1483
18.65183785238201	4.8786354	2.2087634
18.669599588018617	4.7093697	2.1701083
18.68736177621737	4.6955843	2.1669297
18.705124417439652	4.652003	2.15685
18.72288751214696	4.465267	2.113118
18.740651060800886	4.624481	2.1504607
18.758415063863115	4.3379865	2.0827835
18.77617952179546	4.5085115	2.1233256
18.793944435059814	4.219975	2.0542579
18.811709804118184	4.1996007	2.0492928
18.829475629432675	4.105431	2.0261862
18.8472419114655	3.943922	1.985931
18.86500865067897	4.0263295	2.0065715
18.88277584753551	3.7163124	1.927774
18.90054350249763	3.6991587	1.9233197
18.918311616027957	3.403827	1.8449464
18.936080188589226	3.3105726	1.819498
18.953849220644265	3.0288258	1.7403522
18.971618712656007	2.9100506	1.7058871
18.9893886650875	2.864276	1.6924171
19.007159078401887	8.046266	2.836594
19.024929953062408	32.891537	5.7351146
19.042701289532435	32.817863	5.728688
19.060473088275405	25.350204	5.0348988
19.07824534975489	2.632549	1.6225132
19.096018074434568	2.623356	1.6196778
19.113791262778197	2.6088486	1.615193
19.13156491524966	2.6075203	1.6147819
19.149339032312945	2.624534	1.6200414
19.167113614432136	2.593651	1.6104816
19.184888662071433	2.5920503	1.6099845
19.202664175695123	2.5870721	1.6084378
19.220440155767623	2.5870032	1.6084163
19.238216602753447	2.5643682	1.6013645
19.2559935171172	2.510896	1.5845807
19.27377089932361	2.501812	1.5817118
19.291548749837514	2.4984455	1.5806472
19.309327069123835	2.472335	1.5723661
19.32710585764763	2.4673479	1.5707793
19.344885115874032	2.5014467	1.5815963
19.362664844268313	2.5236516	1.5886005
19.380445043295822	2.512923	1.5852202
19.39822571342203	2.5133708	1.5853614
19.41600685511252	2.5283654	1.5900835
19.43378846883297	2.4900193	1.5779796
19.451570555049173	2.498657	1.5807141
19.469353114227037	2.5115252	1.5847793
19.48713614683254	2.4948022	1.5794944
19.50491965333182	2.4641843	1.569772
19.52270363419109	2.4909253	1.5782665
19.540488089876686	2.4948418	1.5795069
19.55827302085503	2.5020216	1.5817779
19.576058427592674	2.4362211	1.5608399
19.593844310556282	2.4524817	1.5660402
19.611630670212598	2.440662	1.5622618
19.629417507028506	2.4906082	1.5781661
19.64720482147098	2.4676924	1.570889
19.6649926140071	2.455089	1.5668724
19.682780885104084	2.458286	1.5678922
19.70056963522921	2.4915526	1.5784652
19.718358864849908	2.5193572	1.5872483
19.7361485744337	2.5102117	1.5843648
19.753938764448215	2.4785726	1.5743483
19.771729435361202	2.439856	1.5620039
19.789520587640506	2.4474137	1.5644212
19.807312221754092	2.4866085	1.5768983
19.825104338170043	2.5202982	1.5875447
19.842896937356517	2.5513868	1.5973061
19.860690019781824	2.5184212	1.5869534
19.87848358591436	2.5302498	1.590676
19.896277636222635	2.5213146	1.5878648
19.914072171175278	2.518151	1.5868683
19.931867191241015	2.4771135	1.5738848
19.94966269688869	2.457171	1.5675366
19.967458688587264	2.4724178	1.5723923
19.985255166805807	2.4872985	1.5771171
20.00305213201348	2.5026364	1.5819724
20.020849584679578	2.4878826	1.5773023
20.038647525273507	2.4539816	1.5665189
20.05644595426477	2.431009	1.5591693
20.07424487212299	2.4297357	1.5587609
20.092044279317903	2.4645584	1.5698912
20.109844176319353	2.447095	1.5643194
20.127644563597304	2.40974	1.5523337
20.145445441621817	2.3835661	1.5438802
20.16324681086307	2.3804007	1.5428547
20.181048671791373	2.37291	1.5404253
20.198851024877122	2.403573	1.5503461
20.216653870590836	2.434657	1.5603387
20.234457209403146	2.4559999	1.567163
20.252261041784802	2.4122324	1.5531363
20.270065368206662	2.3866637	1.544883
20.287870189139685	2.3347683	1.5279949
20.305675505054968	2.3207679	1.5234066
20.323481316423702	2.348743	1.532561
20.341287623717207	2.3643522	1.537645
20.359094427406884	2.3462927	1.5317613
20.376901727964288	2.317559	1.5223532
20.39470952586107	2.3199449	1.5231365
20.41251782156899	2.3181107	1.5225343
20.430326615559935	2.3178537	1.5224499
20.448135908305886	2.3496754	1.532865
20.465945700278965	2.352686	1.5338467
20.483755991951384	2.3211708	1.523539
20.50156678379548	2.2872336	1.5123602
20.519378076283708	2.2926383	1.5141461
20.537189869888635	2.3157778	1.521768
20.55500216508294	2.3326695	1.5273079
20.572814962339415	2.3226123	1.5240119
20.59062826213098	2.323741	1.5243821
20.60844206493066	2.355133	1.5346442
20.626256371211593	2.3752608	1.5411881
20.644071181447032	2.3362033	1.5284643
20.66188649611036	2.2882285	1.5126891
20.67970231567506	2.2919457	1.5139173
20.697518640614742	2.3059258	1.5185275
20.715335471403122	2.3187742	1.5227522
20.73315280851404	2.3205686	1.5233413
20.750970652421447	2.3578904	1.5355424
20.768789003599412	2.322874	1.5240978
20.786607862522136	2.2703245	1.5067596
20.8044272296639	2.2278335	1.4925929
20.82224710549913	2.2453706	1.4984561
20.84006749050237	2.2434435	1.4978129
20.857888385148268	3.806118	1.9509275
20.8757097899116	45.93947	6.777866
20.893531705267254	64.82362	8.0513115
20.911354131690224	83.83509	9.156151
20.92917706965566	69.065506	8.310566
20.94700051963877	50.121624	7.079663
20.96482448211493	29.396738	5.421876
20.982648957559622	4.121876	2.0302403
21.00047394644843	2.2391024	1.496363
21.01829944925707	2.264465	1.504814
21.036125466461375	2.2771406	1.5090197
21.053951998537297	2.2486036	1.4995345
21.071779045960906	2.199704	1.4831399
21.089606609208378	2.1831527	1.4775496
21.10743468875603	2.2047968	1.4848558
21.12526328508028	2.2269206	1.492287
21.143092398657675	2.2215757	1.4904951
21.16092202996488	2.208466	1.4860909
21.17875217947867	2.1614578	1.4701897
21.19658284767596	2.1446977	1.4644786
21.21441403503377	2.0994196	1.4489374
21.232245742029225	2.0944154	1.4472095
21.2500779691396	2.1196694	1.4559084
21.26791071684227	2.1456187	1.4647931
21.28574398561475	2.1541536	1.4677035
21.30357777593465	2.172557	1.4739597
21.321412088279704	2.2023683	1.4840379
21.339246923127792	2.194327	1.4813261
21.357082280956888	2.1515794	1.4668263
21.3749181622451	2.122504	1.4568816
21.392754567470647	2.0990527	1.4488108
21.41059149711187	2.111653	1.4531528
21.42842895164726	2.10961	1.4524497
21.446266931555378	2.112906	1.4535838
21.464105437314945	2.1383224	1.4623004
21.481944469404798	2.1602747	1.4697874
21.49978402830388	2.1544135	1.467792
21.51762411449127	2.1314454	1.4599471
21.53546472844617	2.1249666	1.4577265
21.553305870647876	2.1367855	1.4617748
21.571147541575865	2.1031995	1.4502412
21.58898974170967	2.0729449	1.4397725
21.60683247152899	2.0749204	1.4404584
21.62467573151363	2.0598195	1.4352071
21.642519522143523	2.032989	1.4258293
21.660363843898722	2.0176637	1.4204448
21.6782086972594	2.0185854	1.4207693
21.696054082705864	2.0318391	1.425426
21.713900000718535	2.05604	1.4338899
21.73174645177795	2.0629609	1.4363011
21.749593436364794	2.0402446	1.4283713
21.767440954959845	2.0319588	1.425468
21.785289008044032	2.0521605	1.4325364
21.803137596098388	2.059325	1.4350349
21.820986719604086	2.0388455	1.4278815
21.838836379042412	1.9946334	1.4123149
21.85668657489478	1.9475023	1.3955294
21.87453730764273	1.9404845	1.3930128
21.892388577767914	1.9342539	1.3907746
21.91024038575213	1.9975015	1.41333
21.928092732077285	1.991308	1.4111371
21.945945617225426	2.0368147	1.4271702
21.963799041678694	2.0377712	1.4275053
21.981653005919398	31.381424	5.6019125
21.999507510429943	78.159706	8.840797
22.01736255569286	73.10548	8.550174
22.035218142190818	4.171084	2.042323
22.05307427040661	2.0122132	1.418525
22.07093094082315	2.015949	1.4198412
22.088788153923474	2.0200377	1.4212803
22.106645910190746	2.0297382	1.4246888
22.12450421010827	2.0191703	1.4209751
22.142363054159464	1.9942777	1.412189
22.16022244282787	1.9615546	1.4005551
22.178082376597164	1.9699111	1.4035352
22.195942855951145	1.9775006	1.4062363
22.213803881373742	1.9760075	1.4057053
22.231665453349002	1.9737977	1.4049191
22.24952757236111	1.9609505	1.4003394
22.26739023889438	1.9567038	1.3988223
22.28525345343323	1.9707055	1.4038181
22.30311721646225	1.9821784	1.4078985
22.320981528466113	1.9693222	1.4033254
22.33884638992964	1.9733913	1.4047744
22.356711801337788	1.9914613	1.4111915
22.37457776317561	1.9807899	1.4074054
22.392444275928337	1.9743611	1.4051195
22.410311340081282	1.9746678	1.4052287
22.428178956119904	1.9828987	1.4081544
22.446047124529805	1.9896979	1.4105666
22.46391584579669	1.9813957	1.4076205
22.481785120406414	1.9477154	1.3956058
22.49965494884496	1.9587744	1.3995622
22.51752533159841	1.9832656	1.4082847
22.53539626915302	1.9632752	1.4011692
22.553267761995137	1.950537	1.3966162
22.571139810611264	1.936343	1.3915254
22.589012415488025	1.9537609	1.3977699
22.60688557711216	1.9504853	1.3965977
22.624759295970566	1.9320921	1.3899971
22.642633572550263	1.8940743	1.3762537
22.660508407338362	1.8761681	1.3697329
22.67838380082217	1.880407	1.3712794
22.696259753489077	1.9278437	1.3884681
22.714136265826614	1.9628717	1.4010252
22.73201333832246	1.9677839	1.4027772
22.74989097146439	1.941174	1.3932602
22.76776916574035	1.9298185	1.3891791
22.785647921638393	1.9191738	1.3853425
22.803527239646712	1.9191725	1.385342
22.82140712025363	1.9285132	1.3887092
22.839287563947593	1.9247123	1.38734
22.85716857121719	1.9140774	1.3835019
22.875050142551135	1.8932393	1.3759503
22.892932278438277	1.8766731	1.3699172
22.910814979367604	1.8837155	1.3724852
22.928698245828222	1.8970749	1.3773434
22.946582078309387	1.9088945	1.3816274
22.96446647730047	1.9379629	1.3921074
22.98235144329098	1.9268177	1.3880986
23.000236976770562	1.8752459	1.3693962
23.018123078229	1.844035	1.3579525
23.03600974815619	1.844103	1.3579775
23.053896987042194	1.8781372	1.3704515
23.071784795377173	1.9156795	1.3840808
23.08967317365145	1.9075458	1.3811393
23.10756212235546	1.9294165	1.3890344
23.125451641979787	1.9510692	1.3968068
23.143341733015134	1.9823387	1.4079555
23.161232395952357	1.9956458	1.4126732
23.179123631282426	1.9550593	1.3982344
23.197015439496468	1.9043667	1.379988
23.214907821085717	1.9044974	1.3800353
23.23280077654157	1.9128073	1.3830428
23.250694306355538	1.9415735	1.3934035
23.268588411019277	1.9914364	1.4111826
23.28648309102458	2.0240176	1.4226797
23.304378346863356	1.9743568	1.4051181
23.322274179027676	1.8944098	1.3763756
23.340170588009723	1.8735818	1.3687885
23.358067574301852	1.9129561	1.3830966
23.37596513839651	1.9567025	1.3988218
23.39386328078629	1.9610853	1.4003875
23.411762001963947	1.9123472	1.3828764
23.429661302422353	1.8637552	1.3651942
23.4475611826545	1.8870783	1.3737097
23.46546164315356	1.9460828	1.3950207
23.48336268441279	1.9675328	1.4026877
23.501264306925638	1.9844127	1.4086919
23.51916651118564	1.964053	1.4014468
23.537069297686497	1.9432776	1.394015
23.554972666922037	1.9415507	1.3933954
23.57287661938623	1.9422511	1.3936467
23.59078115557318	1.9188025	1.3852085
23.608686275977128	1.9131063	1.3831508
23.62659198109246	1.9070977	1.380977
23.6444982714137	1.921998	1.3863615
23.66240514743549	1.9216478	1.3862351
23.68031260965263	1.9144433	1.3836341
23.698220658560068	1.8745055	1.3691258
23.716129294652845	1.8297086	1.3526672
23.7340385184262	1.8392518	1.3561902
23.75194833037546	1.8840489	1.3726066
23.769858730996123	1.866946	1.3663623
23.78776972078382	1.8449227	1.3582793
23.80568130023431	1.8334987	1.3540674
23.823593469843495	1.8321501	1.3535694
23.841506230107424	1.8597764	1.3637362
23.859419581522275	1.8941146	1.3762684
23.87733352458438	1.9495823	1.3962744
23.89524805979019	1.9863667	1.4093852
23.913163187636318	1.9306078	1.3894632
23.931078908619508	1.8848482	1.3728977
23.948995223236633	1.8787005	1.370657
23.966912131984735	1.9609895	1.4003533
23.98482963536096	2.013744	1.4190645
24.002747733862616	2.0027263	1.4151771
24.020666427987155	1.9853278	1.4090166
24.038585718232156	2.0043218	1.4157407
24.056505605095353	2.012555	1.4186454
24.074426089074617	2.0393045	1.4280422
24.092347170667946	2.0608242	1.4355571
24.110268850373515	2.0638618	1.4366148
24.128191128689586	2.0808542	1.4425166
24.146114006114626	2.1026802	1.4500622
24.164037483147187	2.0965774	1.4479563
24.181961560286005	2.0657318	1.4372654
24.199886238029926	2.03007	1.4248053
24.21781151687797	2.0053804	1.4161146
24.235737397329274	2.0445428	1.4298751
24.253663879883135	2.0976295	1.4483196
24.271590965038975	2.0901866	1.4457477
24.289518653296376	2.0438852	1.4296452
24.30744694515505	2.023352	1.4224458
24.32537584111486	2.0025704	1.415122
24.34330534167581	1.9883647	1.4100939
24.361235447338046	2.0033662	1.4154032
24.379166158601876	2.016959	1.4201968
24.39709747596772	2.0278199	1.4240154
24.41502939993615	2.0130155	1.4188077
24.432961931007917	1.9934897	1.4119099
24.450895069683856	1.975032	1.4053583
24.468828816465	1.927414	1.3883133
24.4867631718525	1.911325	1.3825067
24.504698136347656	1.9062877	1.3806838
24.52263371045192	1.929007	1.3888869
24.540569894666874	1.9512652	1.3968769
24.558506689494266	1.9412847	1.3932999
24.57644409543597	1.9695991	1.403424
24.594382112994012	1.9860094	1.4092585
24.61232074267057	1.9584484	1.3994458
24.630259984967953	1.9342381	1.3907689
24.64819984038863	1.9264872	1.3879795
24.66614030943522	1.9258238	1.3877405
24.684081392610462	1.9563243	1.3986866
24.702023090417274	1.9888918	1.4102808
24.7199654033587	2.0276878	1.423969
24.737908331937927	2.0334675	1.425997
24.755851876658305	2.006127	1.4163781
24.773796038023324	2.0333128	1.4259428
24.79174081653661	2.058781	1.4348452
24.809686212701962	2.0853481	1.4440734
24.827632227023294	2.1008158	1.4494191
24.8455788600047	2.0878444	1.4449375
24.8635261121504	2.0767734	1.4411014
24.88147398396475	2.0362382	1.4269682
24.899422475952303	2.0091403	1.4174415
24.917371588617698	2.014799	1.4194362
24.935321322465768	2.074594	1.440345
24.953271678001478	2.224592	1.4915066
24.97122265572994	2.4380667	1.5614309
24.989174256156414	2.7614787	1.6617697
25.00712647978632	3.1917748	1.7865539
25.02507932712521	3.7064402	1.9252118
25.043032798678798	4.245324	2.0604184
25.060986894952933	4.9182734	2.2177181
25.078941616453637	5.628452	2.3724358
25.096896963687055	6.525039	2.5544157
25.114852937159508	7.747591	2.7834494
25.132809537377444	8.247016	2.8717618
25.150766764847468	8.336283	2.887262
25.168724620076347	7.7349157	2.7811716
25.186683103570985	6.816059	2.6107583
25.204642215838426	5.6174207	2.3701098
25.222601957385894	4.209315	2.0516615
25.24056232872074	3.1689997	1.7801684
25.25852333035048	2.6395028	1.6246547
25.276484962782778	2.2966602	1.5154736
25.294447226525435	2.1156552	1.4545292
25.312410122086423	2.0387907	1.4278623
25.330373649973843	1.98057	1.4073273
25.348337810695988	1.9163938	1.3843387
25.366302604761245	1.8837961	1.3725145
25.384268032678207	1.8950037	1.3765913
25.40223409495558	1.8906792	1.3750197
25.420200792102257	1.861331	1.3643061
25.438168124627246	1.8768923	1.3699971
25.45613609303974	1.8735536	1.3687781
25.474104697849057	1.8345922	1.3544712
25.492073939564698	1.8443573	1.3580712
25.510043818696285	1.8660516	1.366035
25.528014335753614	1.893071	1.3758892
25.54598549124664	1.8822598	1.3719548
25.56395728568544	1.8266616	1.3515404
25.58192971958028	1.8323808	1.3536546
25.59990279344156	1.8604817	1.3639947
25.617876507779833	1.9078437	1.3812472
25.635850863105826	1.921025	1.3860105
25.653825859930386	1.8911871	1.3752043
25.671801498764548	1.8336506	1.3541236
25.68977778011949	1.8022234	1.3424692
25.707754704506524	1.8222523	1.3499082
25.725732272437153	1.8503269	1.3602672
25.743710484423012	1.8397714	1.3563818
25.761689340975888	1.8155391	1.3474194
25.77966884260774	1.8476233	1.3592731
25.797648989830662	1.8474611	1.3592135
25.815629783156922	1.8763926	1.3698148
25.83361122309895	1.8923157	1.3756146
25.85159331016929	1.9246875	1.3873311
25.869576044880695	1.869141	1.3671653
25.887559427746034	1.8091168	1.3450341
25.90554345927836	1.8035568	1.3429657
25.92352813999086	1.8377868	1.35565
25.94151347039689	1.8438126	1.3578706
25.959499451009965	1.862826	1.3648539
25.97748608234374	1.8545983	1.3618363
25.995473364912062	1.8341117	1.3542938
26.013461299228904	1.8252803	1.3510294
26.03144988580839	1.8178405	1.3482732
26.04943912516483	1.8527241	1.3611481
26.067429017812675	1.8490325	1.3597914
26.085419564266537	1.8501811	1.3602136
26.103410765041186	1.8705201	1.3676696
26.12140262065155	1.8440405	1.3579545
26.139395131612723	1.8058738	1.343828
26.157388298439948	1.8256336	1.3511602
26.17538212164861	1.8077244	1.3445164
26.193376601754295	1.7593793	1.3264159
26.211371739272714	1.7374984	1.318142
26.229367534719746	1.8159847	1.3475847
26.247363988611433	1.8441958	1.3580117
26.26536110146397	1.8476816	1.3592945
26.283358873793727	1.8295228	1.3525985
26.301357306117204	1.864703	1.3655413
26.319356398951104	1.8734087	1.3687252
26.33735615281224	1.8527354	1.3611523
26.35535656821762	1.8082443	1.3447098
26.373357645684404	1.8119684	1.3460938
26.39135938572991	1.7971089	1.3405629
26.409361788871614	1.7935592	1.3392383
26.427364855627165	1.8311155	1.3531872
26.445368586514352	1.8369714	1.3553492
26.46337298205115	1.7996562	1.3415127
26.48137804275568	1.7901974	1.3379825
26.499383769146217	1.8249737	1.3509159
26.517390161741215	1.7973843	1.3406656
26.53539722105928	1.7375059	1.3181449
26.553404947619182	1.7437539	1.3205128
26.571413341939856	1.8173152	1.3480784
26.589422404540397	1.853279	1.3613518
26.60743213594006	1.8389792	1.3560897
26.62544253665827	1.8543212	1.3617346
26.64345360721459	1.8761109	1.369712
26.66146534812879	1.8572849	1.3628224
26.679477759920758	1.8115236	1.3459285
26.69749084311057	1.7726884	1.3314234
26.71550459821847	1.7684613	1.329835
26.733519025764842	1.753142	1.3240627
26.751534126270258	1.7850924	1.3360735
26.769549900255434	1.8293252	1.3525255
26.787566348241267	1.794046	1.3394201
26.80558347074881	1.7759978	1.3326657
26.823601268299267	1.7770929	1.3330765
26.841619741414036	1.8234409	1.3503485
26.85963889061465	1.782528	1.3351135
26.877658716422832	1.7415925	1.3196942
26.89567921936045	1.7424226	1.3200085
26.913700399949544	1.7744343	1.3320789
26.93172225871233	1.8065774	1.3440899
26.949744796171174	1.8267214	1.3515626
26.967768012848605	1.8671777	1.3664471
26.98579190926733	1.8649279	1.3656236
27.003816485950225	1.8350829	1.3546523
27.021841743420318	1.8201679	1.349136
27.039867682200814	1.7911373	1.3383338
27.057894302815072	1.7425644	1.3200623
27.07592160578664	1.7313286	1.3157996
27.0939495916392	1.7755816	1.3325095
27.111978260896635	1.8238711	1.3505077
27.13000761408296	1.7662907	1.3290187
27.148037651722397	1.7263259	1.3138973
27.166068374339304	1.7350359	1.3172076
27.184099782458215	1.7843232	1.3357856
27.20213187660384	1.7731695	1.3316041
27.22016465730105	1.7590524	1.3262928
27.23819812507487	1.7896937	1.3377943
27.256232280450533	1.8519299	1.3608563
27.274267123953383	1.8726636	1.368453
27.292302656108987	1.8339318	1.3542274
27.31033887744306	1.7955042	1.3399643
27.32837578848146	1.7968136	1.3404528
27.34641338975026	1.8106648	1.3456094
27.364451681775673	1.7625439	1.3276083
27.382490665084074	1.7579712	1.325885
27.400530340202046	1.7745258	1.3321133
27.41857070765629	1.8162204	1.3476722
27.436611767973726	1.8425349	1.3574001
27.454653521681404	1.8616016	1.3644053
27.472695969306564	1.8195704	1.3489145
27.490739111376627	1.7715783	1.3310065
27.508782948419153	1.7669657	1.3292726
27.526827480961902	1.7709507	1.3307707
27.54487270953279	1.8186873	1.3485872
27.562918634659898	1.8835547	1.3724266
27.580965256871508	1.8687705	1.3670298
27.599012576696026	1.8136501	1.3467183
27.617060594662068	1.8181713	1.3483958
27.63510931129842	1.8806849	1.3713807
27.65315872713401	1.8129495	1.3464582
27.67120884269797	1.7813414	1.334669
27.68925965851958	1.7831165	1.3353338
27.707311175128307	1.8362151	1.3550701
27.725363393053787	1.8605465	1.3640186
27.74341631282583	1.864891	1.3656101
27.7614699349744	1.8856521	1.3731905
27.77952426002968	2.0885277	1.445174
27.797579288521973	2.123429	1.4571991
27.815635020981784	2.456986	1.5674776
27.83369145793979	2.5098236	1.5842422
27.85174859992682	2.4071999	1.5515153
27.869806447473923	2.2837763	1.5112169
27.887865001112267	2.035507	1.4267119
27.905924261373233	1.9519024	1.397105
27.92398422878836	1.8776658	1.3702794
27.94204490388936	1.8363354	1.3551146
27.96010628720813	1.8436487	1.3578103
27.978168379276728	1.8649447	1.3656298
27.9962311806274	1.8631835	1.3649848
28.014294691792568	1.8348907	1.3545814
28.0323589133048	1.8114237	1.3458914
28.050423845696887	1.8312819	1.3532486
28.068489489501758	1.8016477	1.3422546
28.086555845252523	1.8475417	1.359243
28.104622913482487	1.884373	1.3727247
28.122690694725115	1.890192	1.3748425
28.14075918951405	1.9066902	1.3808296
28.15882839838312	1.9102964	1.3821348
28.176898321866304	1.8937811	1.3761472
28.1949689604978	1.8620687	1.3645763
28.213040314811945	1.8714272	1.3680011
28.23111238534327	1.8904772	1.3749462
28.249185172626493	1.8978734	1.3776332
28.267258677196473	1.8770695	1.3700619
28.285332899588294	1.872585	1.3684243
28.303407840337172	1.9390017	1.3924804
28.321483499978545	1.9386646	1.3923594
28.33955987904799	1.8831894	1.3722935
28.357636978081285	1.8869222	1.3736529
28.37571479761439	1.9144906	1.3836511
28.393793338183425	1.929885	1.3892031
28.41187260032469	1.9518297	1.397079
28.429952584574686	1.9295753	1.3890915
28.448033291470065	1.9163454	1.3843212
28.46611472154769	1.9288366	1.3888257
28.484196875344566	1.9383938	1.3922621
28.502279753397914	1.9144169	1.3836246
28.52036335624511	1.9122205	1.3828306
28.538447684423716	1.9255638	1.3876469
28.556532738471482	1.959478	1.3998135
28.574618518926325	2.0044503	1.4157861
28.59270502632635	2.0758004	1.4407638
28.61079226120985	2.058262	1.4346645
28.628880224115274	2.024004	1.4226749
28.646968915581287	2.0005152	1.4143957
28.66505833614671	1.9967451	1.4130623
28.68314848635055	2.0010693	1.4145916
28.701239366732004	2.0236073	1.4225355
28.71933097783044	2.0562706	1.4339702
28.737423320185403	2.0763652	1.4409598
28.75551639433665	2.1464007	1.46506
28.773610200824074	2.1636338	1.4709296
28.791704740187793	2.149415	1.4660883
28.80980001296809	2.172344	1.4738873
28.827896019705413	2.1625412	1.4705582
28.845992760940433	2.1906216	1.4800749
28.86409023721397	2.228509	1.4928191
28.88218844906704	2.297203	1.5156527
28.900287397040845	2.264509	1.5048286
28.918387081676755	2.271855	1.5072675
28.936487503516343	2.2730799	1.5076736
28.954588663101365	2.2882328	1.5126905
28.97269056097374	2.3125725	1.5207145
28.990793197675597	2.3395002	1.5295424
29.00889657374923	2.3544028	1.5344063
29.027000689737125	2.3479853	1.5323137
29.04510554618196	2.3468049	1.5319284
29.06321114362659	2.3405824	1.5298961
29.08131748261405	2.3820596	1.5433922
29.099424563687567	2.3956845	1.5477998
29.11753238739057	2.44258	1.5628755
29.13564095426663	2.5293384	1.5903894
29.15375026485954	2.5486267	1.5964419
29.171860319713275	2.522151	1.5881281
29.18997111937199	2.6031673	1.6134334
29.20808266438002	2.6717312	1.6345432
29.226194955281898	2.7138765	1.6473848
29.244307992622335	2.742488	1.6560459
29.26242177694624	2.8318496	1.6828101
29.2805363087987	2.844993	1.6867107
29.29865158872498	2.856193	1.6900275
29.316767617270557	2.882107	1.6976769
29.334884394981064	2.877887	1.6964337
29.353001922402367	2.9045403	1.7042712
29.37112020008047	2.999489	1.7319033
29.389239228561596	3.1490571	1.7745583
29.407359008392152	3.3237453	1.8231142
29.42547954011872	3.6358013	1.9067777
29.44360082428809	4.2709684	2.066632
29.46172286144722	5.2734494	2.296399
29.479845652143283	6.887291	2.6243649
29.497969196923606	8.992823	2.9988036
29.516093496335728	11.501914	3.3914473
29.5342185509274	14.354282	3.7887046
29.55234436124651	16.795063	4.098178
29.570470927841175	18.374825	4.2865868
29.588598251259686	18.202574	4.2664475
29.60672633205055	16.916811	4.113005
29.624855170762405	14.747145	3.8402011
29.642984767944146	11.901293	3.449825
29.66111512414481	8.912066	2.9853084
29.67924623991366	6.5215316	2.553729
29.697378115800138	5.000433	2.2361648
29.71551075235387	4.202241	2.0499368
29.733644150124675	3.7574716	1.9384198
29.751778309662576	3.4917004	1.8686092
29.769913231517766	3.3327246	1.8255751
29.78804891624066	3.295936	1.8154713
29.806185364381818	3.2594557	1.8053963
29.82432257649206	3.295453	1.8153383
29.842460553122333	3.3097858	1.8192817
29.86059929482382	3.315392	1.8208218
29.878738802147872	3.28122	1.8114138
29.896879075646048	3.2387187	1.7996441
29.915020115870114	3.180343	1.7833515
29.933161923371976	3.226332	1.7961993
29.951304498703777	3.2676969	1.8076771
29.969447842417857	3.2517822	1.8032699
29.987591955066733	3.2094004	1.79148
30.005736837203123	3.2153637	1.7931435
30.023882489379943	3.244481	1.8012443
30.04202891215028	3.217236	1.7936655
30.060176106067455	3.1804814	1.7833904
30.078324071684946	3.1581326	1.7771136
30.09647280955646	3.1852696	1.7847323
30.114622320235863	3.153528	1.7758175
30.132772604277257	3.116575	1.7653824
30.1509236622349	3.1357872	1.7708154
30.16907549466328	3.151144	1.7751462
30.18722810211705	3.135511	1.7707374
30.205381485151097	3.0963113	1.7596339
30.22353564432045	3.0340152	1.7418425
30.241690580180403	2.9786198	1.7258679
30.25984629328638	2.962008	1.7210485
30.278002784194037	2.985947	1.7279893
30.296160053459246	2.982028	1.7268549
30.314318101638033	2.9555295	1.7191653
30.332476929286646	2.9290643	1.7114509
30.35063653696153	2.9426901	1.715427
30.368796925219307	2.9406943	1.7148453
30.386958094616844	2.8838787	1.6981987
30.40512004571115	2.824572	1.6806463
30.423282779059463	2.849637	1.6880867
30.441446295219233	2.835302	1.6838355
30.459610594748067	2.8131576	1.677247
30.47777567820382	2.8369317	1.6843194
30.495941546144504	2.8063407	1.6752136
30.51410819912835	2.8228648	1.6801383
30.532275637713795	2.8449452	1.6866965
30.55044386245946	2.7635098	1.6623807
30.56861287392416	2.7277455	1.6515888
30.586782672666956	2.697435	1.6423869
30.604953259247047	2.749469	1.6581523
30.623124634223885	2.792232	1.6709973
30.641296798157075	2.791387	1.6707444
30.659469751606462	2.7811916	1.6676905
30.677643495132074	2.7401216	1.6553313
30.695818029294152	2.665698	1.6326965
30.713993354653116	2.677025	1.6361617
30.73216947176962	2.6863275	1.639002
30.75034638120448	2.7004814	1.6433141
30.768524083518756	2.7038753	1.6443465
30.786702579273673	2.7153873	1.6478432
30.80488186903069	2.775782	1.6660678
30.82306195335144	2.8461127	1.6870426
30.841242832797782	3.0169694	1.7369425
30.85942450793176	3.313325	1.8202541
30.877606979315637	3.6893044	1.9207562
30.895790247511883	4.0678015	2.016879
30.913974313083134	4.511909	2.1241255
30.932159176592283	4.825393	2.1966777
30.95034483860237	4.8330703	2.1984246
30.968531299676698	4.551963	2.133533
30.98671856037873	4.261015	2.0642226
31.00490662127215	3.9354694	1.9838017
31.023095482920848	3.4840066	1.8665494
31.04128514588892	3.0912414	1.7581927
31.059475610740662	2.7852812	1.6689162
31.07766687804056	2.5910923	1.6096871
31.09585894835335	2.5337756	1.5917838
31.11405182224393	2.505235	1.5827934
31.132245500277417	2.5139196	1.5855345
31.15043998301914	2.5212479	1.5878438
31.168635271034628	2.4672534	1.5707493
31.18683136488964	2.4231923	1.5566607
31.20502826515008	2.4007995	1.5494514
31.223225972382135	2.420268	1.555721
31.241424487152155	2.4393392	1.5618384
31.259623810026692	2.4459639	1.5639578
31.27782394157253	2.4649475	1.5700151
31.296024882356644	2.481122	1.5751578
31.314226632946237	2.4529617	1.5661933
31.332429193908684	2.4121466	1.5531087
31.350632565811598	2.4155056	1.5541897
31.368836749222787	2.4728744	1.5725375
31.387041744710295	2.5286086	1.5901599
31.40524755284232	2.561844	1.6005762
31.423454174187317	2.5541618	1.5981746
31.441661609313922	2.5124896	1.5850835
31.459869858791002	2.4127245	1.5532948
31.478078923187628	2.3210814	1.5235096
31.496288803073064	2.2908702	1.5135621
31.514499499016807	2.3341649	1.5277973
31.532711011588546	2.301299	1.5170033
31.550923341358178	2.2600703	1.503353
31.56913648889584	2.2217247	1.4905452
31.587350454771844	2.2581775	1.5027233
31.605565239556732	2.3318846	1.527051
31.62378084382127	2.3491254	1.5326856
31.641997268136382	2.28558	1.5118134
31.660214513073274	2.2601976	1.5033953
31.67843257920331	2.361106	1.536589
31.6966514670981	2.4191165	1.5553509
31.71487117732944	2.4538684	1.5664828
31.733091710469346	2.3736773	1.5406743
31.751313067090052	2.2617154	1.5039
31.769535247764008	2.2270727	1.4923381
31.787758253063878	2.2398455	1.4966114
31.805982083562526	2.3130672	1.5208771
31.824206739833024	2.3433676	1.5308062
31.84243222244869	2.3190656	1.5228479
31.860658531983013	2.3134239	1.5209944
31.878885669009737	2.1943557	1.4813358
31.897113634102784	2.2009704	1.4835668
31.91534242783632	2.2698565	1.5066043
31.933572050784694	2.2760477	1.5086576
31.951802503522508	2.199734	1.48315
31.970033786624548	2.1017723	1.449749
31.988265900665834	2.080697	1.4424622
32.006498846221575	2.1630359	1.4707263
32.02473262386724	2.1976357	1.4824425
32.04296723417845	2.1564364	1.468481
32.0612026777311	2.198424	1.4827083
32.07943895510129	2.136161	1.4615612
32.097676066865304	2.103626	1.4503882
32.115914013599685	2.1722856	1.4738675
32.13415279588115	2.2288995	1.49295
32.152392414286666	2.1984415	1.4827143
32.1706328693934	2.1886277	1.4794011
32.18887416177875	2.127227	1.4585017
32.20711629202032	2.0336528	1.426062
32.225359260695924	2.0678327	1.437996
32.243603068383614	2.1309931	1.4597921
32.26184771566166	2.0817747	1.4428357
32.28009320310852	2.021192	1.4216863
32.2983395313029	2.1139798	1.4539531
32.31658670082372	2.1595051	1.4695255
32.33483471225012	2.1468027	1.4651971
32.35308356616143	2.123307	1.4571571
32.371333263137245	2.0353198	1.4266464
32.38958380375734	2.0074947	1.4168608
32.407835188601744	2.015603	1.4197193
32.42608741825067	2.0537443	1.4330891
32.444340493284585	2.0572803	1.4343222
32.46259441428416	2.0522618	1.4325718
32.48084918183028	2.0728018	1.4397228
32.49910479650405	2.1164405	1.4547992
32.51736125888683	2.062517	1.4361465
32.53561856956014	2.0905962	1.4458895
32.5538767291058	2.093226	1.4467986
32.572135738105764	2.0334415	1.425988
32.59039559714228	2.0066578	1.4165655
32.608656306797776	1.9901098	1.4107125
32.62691786765491	2.0508552	1.4320807
32.645180280296586	2.136396	1.4616416
32.663443545305896	2.1089323	1.4522163
32.68170766326619	1.9904021	1.4108161
32.69997263476099	1.9451759	1.3946956
32.7182384603741	1.9853598	1.4090279
32.7365051406895	2.0317154	1.4253825
32.75477267629144	2.035989	1.4268808
32.77304106776434	2.0379717	1.4275755
32.79131031569289	1.9800477	1.4071417
32.809580420661966	1.9688109	1.4031433
32.827851383256714	1.9300964	1.3892791
32.84612320406245	1.9091474	1.381719
32.86439588366476	2.001235	1.4146501
32.88266942264945	2.054237	1.4332609
32.9009438216025	2.0115063	1.4182758
32.9192190811102	2.0320196	1.4254893
32.937495201758985	1.9881576	1.4100205
32.95577218413556	1.8944533	1.3763914
32.974050028826866	1.9588922	1.3996043
32.992328736420035	2.062022	1.4359742
33.010608307502444	2.0003543	1.4143388
33.02888874266169	1.9418514	1.3935033
33.047170042485604	2.020894	1.4215815
33.06545220756225	2.090793	1.4459574
33.083735238479896	2.0355835	1.4267387
33.10201913582707	1.9737134	1.4048891
33.12030390019248	1.9411042	1.3932351
33.138589532165135	1.9026604	1.3793695
33.15687603233419	1.9059132	1.3805481
33.17516340128909	1.9877938	1.4098914
33.19345163961947	2.0195298	1.4211016
33.211740747915215	1.9357113	1.3912984
33.23003072676643	1.864059	1.3653054
33.248321576763466	1.803442	1.3429229
33.266613298496885	1.7928147	1.3389603
33.28490589255747	1.8351756	1.3546865
33.30319935953626	1.8168682	1.3479125
33.32149370002451	1.8107537	1.3456424
33.339788914613706	1.821265	1.3495425
33.358085003895575	1.8523116	1.3609966
33.376381968462034	1.8789804	1.370759
33.39467980890529	1.8653187	1.3657666
33.41297852581774	1.9027009	1.3793843
33.43127811979204	1.8868452	1.3736248
33.44957859142105	1.8911612	1.375195
33.467879941297866	1.9555236	1.3984004
33.486182170015844	2.0193846	1.4210505
33.50448527816853	1.9909936	1.4110258
33.522789266349754	1.8623681	1.3646861
33.541094135153514	1.8775487	1.3702368
33.55939988517411	1.8803835	1.3712708
33.57770651700602	1.9315299	1.389795
33.59601403124398	1.9058115	1.3805113
33.61432242848296	1.9107693	1.3823059
33.632631709318154	1.9771336	1.4061059
33.650941874344994	1.9537959	1.3977824
33.66925292415916	2.0546184	1.433394
33.68756485935654	2.1703928	1.4732252
33.70587768053328	2.1011767	1.4495436
33.724191388285746	2.0273802	1.423861
33.74250598321054	1.9878317	1.4099048
33.760821465904506	1.870172	1.3675424
33.77913783696474	1.794143	1.3394562
33.79745509698852	1.9387119	1.3923763
33.815773246573414	2.0686893	1.4382939
33.8340922863172	2.047707	1.4309812
33.852412216817896	2.0068078	1.4166185
33.87073303867377	2.0251403	1.4230742
33.889054752483304	1.9684912	1.4030293
33.907377358845245	1.9191642	1.385339
33.92570085835853	1.9423755	1.3936913
33.94402525162239	1.9294709	1.389054
33.96235053923627	1.8451201	1.358352
33.980676721799824	1.8447803	1.3582269
33.999003799912984	1.8385626	1.355936
34.01733177417592	1.8368095	1.3552895
34.03566064518901	1.8377829	1.3556485
34.0539904135529	1.8974235	1.37747
34.07232107986846	1.9079729	1.3812939
34.090652644736785	1.8991332	1.3780904
34.108985108759235	1.9224201	1.3865137
34.12731847253742	1.8535341	1.3614455
34.14565273667313	1.853904	1.3615814
34.16398790176847	1.9455943	1.3948456
34.18232396842574	2.027406	1.4238701
34.20066093724749	1.9502094	1.3964989
34.21899880883651	1.9130963	1.3831472
34.23733758379583	1.9678956	1.402817
34.25567726272874	2.0005782	1.414418
34.27401784623872	1.9691505	1.4032643
34.29235933492957	1.9321858	1.3900309
34.31070172940526	2.0216548	1.4218491
34.32904503027003	2.1375897	1.4620498
34.347389238128386	2.0791306	1.4419191
34.36573435358502	1.9104074	1.3821748
34.38408037724492	1.9127463	1.3830208
34.402427309713296	1.9199795	1.3856332
34.42077515159559	1.8828439	1.3721676
34.43912390349752	1.8396327	1.3563306
34.45747356602499	1.9522152	1.3972169
34.47582413978423	2.0834582	1.443419
34.49417562538163	1.9096763	1.3819104
34.51252802342388	1.7006602	1.3040936
34.53088133451789	1.6983293	1.3031996
34.54923555927084	1.8807162	1.371392
34.567590698290104	1.9633254	1.4011872
34.58594675218336	1.9961752	1.4128606
34.6043037215585	1.8521817	1.3609488
34.62266160702365	1.8499875	1.3601425
34.641020409187234	2.0025895	1.4151288
34.65938012865785	1.9695407	1.4034033
34.677740766044394	1.8791187	1.3708096
34.69610232195598	1.8968258	1.3772529
34.714464797002016	1.9440928	1.3943073
34.73282819179208	2.005853	1.4162813
34.751192506936064	1.9345316	1.3908744
34.76955774304408	1.8032914	1.3428669
34.7879239007265	1.7695965	1.3302618
34.80629098059391	1.8844087	1.3727376
34.824658983257194	2.0230374	1.4223351
34.843027909327446	2.028386	1.4242142
34.86139775941603	1.8455936	1.3585262
34.879768534134534	1.7357444	1.3174765
34.89814023409483	1.8837478	1.372497
34.91651285990901	2.1915193	1.480378
34.93488641218944	2.2487333	1.4995778
34.95326089154871	2.0605166	1.43545
34.97163629859967	1.8370249	1.355369
34.99001263395542	1.8141559	1.3469061
35.00838989822934	1.9963179	1.4129112
35.02676809203499	2.187753	1.4791055
35.04514721598624	2.0110855	1.4181274
35.063527270697215	1.9778875	1.4063739
35.081908256782256	1.9302486	1.3893338
35.10029017485597	1.7803361	1.3342924
35.11867302553321	1.7368796	1.3179073
35.137056809429104	1.851218	1.3605947
35.155441527159006	2.102702	1.4500697
35.173827179338524	2.1932194	1.4809521
35.19221376658354	2.20448	1.4847491
35.21060128951017	2.086956	1.44463
35.2289897487348	2.0263808	1.4235101
35.24737914487405	1.8770424	1.370052
35.26576947854479	1.8567948	1.3626426
35.28416075036418	2.052918	1.4328008
35.30255296094958	2.0942419	1.4471495
35.32094611091867	1.9157708	1.3841137
35.33934020088932	2.076638	1.4410545
35.35773523147969	2.2135396	1.4877969
35.3761312033082	2.1121862	1.4533362
35.394528116993506	2.1628587	1.470666
35.41292597315452	2.482578	1.5756199
35.431324772410434	2.3544424	1.5344192
35.449724515380666	1.8388518	1.3560427
35.46812520268491	1.7576561	1.3257662
35.486526834943106	2.1394749	1.4626944
35.504929412775454	2.2456264	1.4985415
35.52333293680242	2.182293	1.4772586
35.54173740764471	1.9888661	1.4102716
35.560142825923286	1.7105039	1.3078624
35.5785491922594	1.6879337	1.2992051
35.59695650727454	1.9205983	1.3858565
35.61536477159042	1.8569168	1.3626873
