0.008763373481513119	0.3822274	0.6182454
0.026290120649546365	0.3681276	0.6067352
0.043816868432600686	0.38351002	0.6192819
0.06134361724069026	0.24992889	0.4999289
0.07887036748382949	0.18904237	0.43479005
0.0963971195720331	0.09270015	0.304467
0.11392387391531617	0.12602901	0.35500565
0.1314506309236943	0.15950118	0.39937598
0.1489773910071836	0.24141419	0.49133918
0.16650415457580078	0.24981493	0.4998149
0.18403092203956356	0.25170663	0.50170374
0.20155769380849	0.24943578	0.49943545
0.2190844702925996	0.2711778	0.52074736
0.2366112519019124	0.25634357	0.50630385
0.2541380390464497	0.22475915	0.4740877
0.27166483213623416	0.1761461	0.41969764
0.28919163158128947	0.1341462	0.36625975
0.3067184377916406	0.07429612	0.27257314
0.324245251177314	0.052865766	0.22992557
0.34177207214833777	0.079563014	0.28206918
0.3592989011147415	0.10622503	0.3259218
0.37682573848655654	0.12098896	0.34783468
0.39435258467381573	0.14881305	0.38576296
0.41187944008655414	0.1795023	0.42367712
0.42940630513480854	0.17031074	0.4126872
0.446933180228618	0.1676718	0.40947747
0.4644600657780234	0.15532213	0.39410928
0.48198696219306775	0.17457104	0.417817
0.49951386988379676	0.16984801	0.4121262
0.5170407892602581	0.14422314	0.3797672
0.5345677207325025	0.13783015	0.37125483
0.5520946647105822	0.18906924	0.43482092
0.5696216216045534	0.19111434	0.43716624
0.5871485918244737	0.17423196	0.41741103
0.6046755757804043	0.12064311	0.34733716
0.6222025738824094	0.12922142	0.35947382
0.6397295865405557	0.1530695	0.39124098
0.6572566141649129	0.19488192	0.44145432
0.6747836571655547	0.187124	0.43257833
0.6923107159525568	0.23194191	0.48160347
0.7098377909359992	0.20261872	0.4501319
0.7273648825259653	0.20056619	0.44784617
0.7448919911325411	0.15273562	0.39081404
0.762419117165817	0.1438921	0.3793311
0.7799462610358868	0.14366716	0.37903452
0.7974734231528482	0.13892362	0.3727246
0.8150006039268024	0.18814155	0.43375286
0.8325278037678551	0.22248873	0.4716871
0.8500550230861152	0.23149261	0.4811368
0.8675822622916969	0.21830414	0.4672303
0.8851095217947171	0.19240034	0.43863463
0.9026368020052984	0.20876496	0.45690805
0.9201641033335665	0.20974217	0.45797616
0.9376914261896523	0.19026229	0.43619066
0.9552187709836915	0.20160495	0.44900438
0.9727461381258234	0.20903799	0.45720673
0.990273528026193	0.23622341	0.4860282
1.0078009410949496	0.23854838	0.48841414
1.0253283777422473	0.23449601	0.4842479
1.0428558383782454	0.24248828	0.49243098
1.0603833234131086	0.26925796	0.51890075
1.0779108332570058	0.3505148	0.5920429
1.0954383683201119	0.34635052	0.5885155
1.112965929012607	0.3574059	0.59783435
1.1304935157446763	0.39927182	0.63187957
1.1480211289265108	0.47453925	0.6888681
1.1655487689683062	1.3204889	1.1491253
1.1830764362802655	1.5822527	1.2578763
1.200604131272596	1.9033338	1.3796136
1.2181318543555117	2.1639595	1.4710402
1.235659605939232	2.193086	1.4809071
1.253187386433982	3.783745	1.9451851
1.270715196249994	5.9769816	2.4447865
1.2882430357975057	11.264274	3.356229
1.3057709054867608	15.894692	3.9868147
1.3232988057280106	21.542566	4.641397
1.3408267369315112	26.626743	5.160111
1.358354699507526	30.428612	5.5162134
1.3758826938663256	34.265205	5.8536487
1.3934107204181858	36.587273	6.0487413
1.410938779573391	36.911263	6.075464
1.4284668717422309	37.4909	6.122981
1.4459949973350033	37.071407	6.0886292
1.4635231567620117	36.600822	6.0498614
1.4810513504335687	35.91283	5.9927316
1.4985795787599925	34.86162	5.904373
1.5161078421516088	34.83416	5.902047
1.5336361410187505	34.20068	5.8481345
1.5511644757717598	34.353046	5.8611474
1.5686928468209842	34.968533	5.9134197
1.58622125457678	35.057518	5.920939
1.6037496994495108	36.245926	6.020459
1.621278181849548	36.00874	6.000728
1.6388067021872719	37.031635	6.0853624
1.6563352608730693	36.640957	6.0531774
1.673863858317336	35.75766	5.9797707
1.6913924949304753	35.185135	5.931706
1.7089211711228998	34.250244	5.8523707
1.7264498873050296	33.525845	5.7901506
1.7439786438872935	32.515736	5.702257
1.7615074412801288	31.535643	5.6156607
1.779036279893981	30.605083	5.532186
1.796565160139305	29.965029	5.4740324
1.814094082426564	29.145624	5.398669
1.8316230471662298	28.405056	5.3296394
1.849152054768784	27.467453	5.24094
1.8666811056447168	26.889618	5.18552
1.8842102002045273	26.064018	5.1052933
1.901739338858724	25.585457	5.058207
1.9192685220178245	25.274897	5.0274143
1.9367977500923557	24.69181	4.9690857
1.9543270234928547	24.581158	4.9579387
1.971856342629867	23.862654	4.8849416
1.9893857079139496	23.234028	4.820169
2.006915119755667	22.80646	4.775611
2.0244445785655945	22.27242	4.7193666
2.0419740847543175	21.989817	4.68933
2.0595036387324317	21.366293	4.622369
2.0770332409105414	20.597582	4.538456
2.094562891699263	20.199785	4.494417
2.1120925915092217	19.675844	4.435746
2.129622340751053	19.470867	4.4125805
2.1471521398354043	187.5192	13.693765
2.1646819891729323	443.77054	21.065863
2.182211889174303	440.12567	20.979172
2.1997418402501974	452.48737	21.27175
2.2172718428113023	432.36652	20.793425
2.234801897268317	320.22192	17.894745
2.2523320040319548	16.868998	4.1071887
2.269862163512935	16.704962	4.0871706
2.287392376121992	16.37764	4.04693
2.304922642269869	16.091282	4.011394
2.322452962367322	15.734832	3.9667156
2.3399833368251164	15.324292	3.9146254
2.357513766054032	15.111795	3.8873892
2.3750442504648586	14.74881	3.8404179
2.3925747904683963	14.417812	3.7970796
2.410105386475459	14.217132	3.7705612
2.4276360388968707	13.832387	3.7191918
2.445166748143469	13.6549	3.6952536
2.4626975146261025	13.459525	3.6687226
2.4802283387556323	13.399004	3.660465
2.4977592209429305	13.505193	3.6749413
2.5152901615988825	13.139895	3.6248994
2.5328211611343865	12.950488	3.5986786
2.5503522199603523	12.505506	3.5363123
2.5678833384877024	12.351362	3.5144506
2.5854145171273712	12.044868	3.4705718
2.6029457562903064	11.768877	3.4305797
2.620477056387469	11.614241	3.4079673
2.6380084178298326	11.355008	3.3697193
2.655539841028383	11.243779	3.3531744
2.673071326394119	11.117179	3.3342433
2.6906028743380523	10.995857	3.3160002
2.708134485271211	10.966965	3.3116407
2.7256661596046325	10.826618	3.2903826
2.743197897749369	10.669103	3.2663593
2.760729700116486	10.553952	3.2486846
2.778261567117063	10.304531	3.210067
2.795793499162193	10.138975	3.1841757
2.8133254966629817	9.955998	3.1553128
2.830857560030551	9.777692	3.12693
2.8483896896760337	9.834674	3.1360283
2.865921886010578	9.598087	3.098078
2.883454149445347	9.432872	3.0712981
2.9009864803915177	9.253178	3.0419037
2.91851887926028	9.069286	3.0115256
2.9360513464628384	8.90678	2.984423
2.953583882410413	8.843814	2.973855
2.9711164875142373	8.798035	2.9661481
2.9886491621855606	8.912227	2.9853354
3.0061819068356455	8.968627	2.9947667
3.023714721875769	8.751712	2.9583292
3.041247607717225	8.428323	2.9031575
3.0587805647713213	8.115719	2.84881
3.0763135934493806	7.9806895	2.8250115
3.0938466941627407	7.899717	2.8106434
3.1113798673227544	7.911669	2.812769
3.1289131133407904	7.9743023	2.8238807
3.1464464326282315	7.972737	2.8236036
3.1639798255964786	7.9138813	2.813162
3.1815132926569443	7.7342854	2.7810583
3.1990468342210603	7.5294437	2.7439833
3.216580450700272	7.4391346	2.7274778
3.2341141425060416	7.360554	2.7130342
3.251647910049847	7.348942	2.7108932
3.2691817537431813	7.217407	2.6865232
3.286715673997555	7.219226	2.6868618
3.3042496712244938	7.2484403	2.6922927
3.32178374583554	7.111899	2.6668143
3.339317898242251	6.9612746	2.6384227
3.3568521288562034	6.7825317	2.6043293
3.3743864380889876	6.7943683	2.606601
3.3919208263522127	6.803048	2.6082654
3.4094552940575023	6.731365	2.5944874
3.4269898416164972	6.6110263	2.5711915
3.444524469440858	6.473616	2.5443301
3.4620591779422587	6.4432006	2.538346
3.479593967532391	6.5072155	2.5509245
3.4971288386229658	6.480977	2.5457764
3.5146637916257086	6.3676343	2.5234172
3.5321988269523628	6.254009	2.5008016
3.5497339450146903	6.186937	2.4873555
3.5672691462244708	6.1612844	2.4821935
3.5848044309934988	6.108328	2.4715033
3.60233979973359	6.200968	2.4901743
3.619875252856575	6.207325	2.4914503
3.6374107907743034	6.213621	2.4927137
3.6549464138986427	6.19122	2.4882162
3.6724821226414788	6.171074	2.4841647
3.690017917414714	6.1252174	2.4749177
3.7075537986302702	6.132657	2.4764202
3.7250897667000857	6.2608585	2.5021708
3.7426258220361235	6.450436	2.5397708
3.7601619650503553	6.8674774	2.620587
3.777698196154779	7.3463416	2.7104135
3.7952345157614067	8.252117	2.87265
3.8127709242822716	9.021003	3.0034983
3.830307422129425	11.202884	3.347071
3.847844009714936	30.12111	5.4882703
3.8653806874508954	97.47432	9.872909
3.882917455749409	96.70324	9.83378
3.900454315022606	96.52862	9.824898
3.917991265682631	41.294388	6.426071
3.9355283081416506	10.956206	3.3100162
3.9530654428118495	8.7571535	2.9592488
3.970602670105433	7.415371	2.7231178
3.9881399904346244	6.4510083	2.5398836
4.005677404211669	6.2963595	2.5092547
4.023214911848827	6.150887	2.4800982
4.0407525137583855	6.222562	2.4945064
4.058290210352644	6.3167095	2.5133064
4.075828002043927	6.3466864	2.519263
4.0933658892445814	6.3204455	2.5140495
4.110903872366966	6.258704	2.5017402
4.128441951823468	6.16079	2.4820938
4.145980128026488	6.1281376	2.4755075
4.163518401388452	6.0955787	2.4689226
4.181056772321807	6.0987	2.4695547
4.1985952412390155	6.033114	2.4562397
4.216133808552567	5.9863653	2.446705
4.233672474674966	6.072357	2.4642153
4.251211240018741	6.216651	2.4933212
4.268750104996445	6.4434676	2.5383987
4.286289070020643	7.334915	2.708305
4.303828135503928	8.940057	2.9899929
4.3213673018589125	29.306477	5.4135456
4.3389065694982305	90.369965	9.506311
4.356445938834537	165.67198	12.871363
4.3739854102805085	170.86183	13.071413
4.391524984248844	171.79138	13.106921
4.409064661152262	135.774	11.65221
4.426604441403504	96.013306	9.798638
4.444144325415337	75.08621	8.66523
4.461684313600543	21.271835	4.61214
4.47922440637193	21.940699	4.68409
4.496764604142329	20.308514	4.506497
4.5143049073245916	18.312447	4.2793045
4.531845316331589	16.05359	4.0066934
4.5493858315762195	13.181153	3.630586
4.566926453471405	10.960184	3.310617
4.584467182430081	8.916538	2.9860573
4.602008018865218	7.835593	2.799213
4.619548963189798	7.27824	2.6978214
4.637090015816834	6.8465543	2.6165922
4.654631177159353	6.6183023	2.572606
4.672172447630417	6.3245797	2.5148716
4.689713827643102	6.1670446	2.4833536
4.7072553176105085	5.9438434	2.438
4.724796917945764	5.8860936	2.4261272
4.742338629062015	5.8660913	2.4220016
4.759880451372434	5.8544044	2.4195876
4.777422385290215	5.8417416	2.4169695
4.794964431228581	5.778941	2.4039428
4.812506589600768	5.6720986	2.3816168
4.830048860820047	5.6300406	2.3727708
4.847591245299709	5.5186415	2.3491788
4.8651337434530655	5.4495416	2.3344252
4.882676355693457	5.426072	2.3293931
4.900219082434242	5.4292836	2.3300824
4.917761924088813	5.416786	2.327399
4.935304881070575	5.4391437	2.3321972
4.952847953792969	5.4748263	2.3398347
4.970391142669449	5.3971972	2.3231869
4.9879344481135055	5.3647003	2.3161824
5.005477870538642	5.3139834	2.305208
5.023021410358394	5.393499	2.3223908
5.040565067986324	5.410332	2.3260121
5.05810884383601	5.340481	2.3109481
5.075652738321066	5.3132944	2.3050585
5.09319675185512	5.2509522	2.2914956
5.110740884851836	5.2569327	2.2928002
5.128285137724894	5.249845	2.291254
5.145829510888007	5.2237835	2.28556
5.163374004754908	5.2274284	2.286357
5.1809186197393595	5.1659865	2.2728806
5.198463356255145	5.213957	2.283409
5.216008214716077	5.2075334	2.282002
5.233553195535998	5.288189	2.2996063
5.251098299128764	5.2921195	2.3004608
5.268643525908272	5.294757	2.301034
5.286188876288432	5.2830973	2.2984989
5.3037343506831895	5.2882338	2.299616
5.32127994950651	5.30055	2.3022923
5.3388256731723915	5.272358	2.2961617
5.356371522094851	5.181103	2.2762036
5.373917496687938	5.164092	2.2724638
5.391463597365729	5.1412277	2.2674274
5.40900982454232	5.21184	2.2829454
5.426556178631843	5.1601977	2.271607
5.444102660048449	5.175855	2.2750506
5.4616492692063225	5.145109	2.2682834
5.479196006519669	5.215956	2.2838469
5.496742872402727	5.214047	2.2834287
5.514289867269756	5.2890983	2.299804
5.531836991535049	5.272308	2.2961507
5.549384245612924	5.183441	2.2767172
5.566931629917724	5.0652876	2.2506194
5.584479144863822	4.971963	2.22979
5.6020267908656205	5.002302	2.2365828
5.619574568337545	5.0146427	2.2393398
5.637122477694054	5.071013	2.251891
5.654670519349629	5.0624824	2.2499962
5.672218693718784	5.027759	2.2422664
5.689767001216059	4.9973516	2.2354758
5.707315442256021	4.9726653	2.2299473
5.724864017253266	4.9177437	2.2175987
5.7424127266224225	4.889554	2.2112336
5.75996157077814	4.934622	2.221401
5.777510550135105	5.039382	2.2448568
5.795059665108022	5.1522756	2.2698624
5.812608916111639	5.234201	2.2878375
5.830158303560715	5.298476	2.301842
5.847707827870055	5.2668605	2.294964
5.86525748945448	5.303956	2.303032
5.8828072887288485	5.421603	2.3284338
5.900357226108044	5.4289937	2.3300202
5.917907302006979	5.510871	2.3475244
5.9354575168406	6.13561	2.4770164
5.9530078710238765	6.8403378	2.615404
5.970558364971812	7.498458	2.7383313
5.988108999099438	7.84846	2.8015103
6.005659773821818	8.358384	2.891087
6.023210689554039	8.07502	2.8416579
6.040761746711227	8.527428	2.920176
6.058312945708531	7.8710093	2.805532
6.075864286961132	7.3562264	2.7122364
6.093415770884244	6.6089473	2.5707872
6.1109673978931065	6.0416965	2.4579864
6.128519168402993	5.4941373	2.3439577
6.146071082829204	5.3184886	2.3061848
6.163623141587075	5.1979175	2.279894
6.181175345091969	5.093207	2.2568135
6.198727693759281	5.0694957	2.251554
6.216280188004435	5.0657005	2.2507112
6.233832828242885	5.055663	2.24848
6.251385614890126	5.057555	2.248901
6.268938548361669	5.0308	2.2429445
6.286491629073067	4.93442	2.2213554
6.304044857439898	4.8760386	2.2081754
6.321598233877777	4.897548	2.2130406
6.339151758802344	4.915153	2.2170146
6.356705432629277	4.9893513	2.2336855
6.37425925577428	4.9417396	2.2230024
6.391813228653095	4.894716	2.2124004
6.409367351681486	4.8327975	2.1983624
6.426921625275259	4.774377	2.1850348
6.44447604985025	4.7893205	2.1884515
6.46203062582232	4.822597	2.196041
6.47958535360737	4.851142	2.2025309
6.497140233621328	4.8938556	2.2122061
6.514695266280161	4.91239	2.2163913
6.532250451999859	4.9178805	2.2176294
6.549805791196454	4.9423676	2.2231436
6.567361284286002	4.946058	2.2239735
6.584916931684597	4.944502	2.2236235
6.602472733808367	4.930874	2.2205572
6.6200286910734665	4.8934016	2.2121034
6.637584803896092	4.874455	2.2078168
6.655141072692462	4.871778	2.2072105
6.672697497878842	4.9259787	2.2194545
6.690254079871514	4.903656	2.21442
6.707810819086808	4.8844814	2.2100863
6.725367715941078	4.8545837	2.203312
6.742924770850719	4.8640537	2.20546
6.760481984232151	4.913422	2.216624
6.778039356501836	4.9235873	2.2189157
6.795596888076266	4.893666	2.2121632
6.813154579371963	4.8936763	2.2121656
6.830712430805492	4.8868213	2.2106156
6.84827044279344	4.929175	2.2201746
6.865828615752445	4.9527545	2.2254784
6.883386950099159	4.9361954	2.221755
6.900945446250287	4.881649	2.2094455
6.918504104622553	4.853402	2.203044
6.936062925632727	4.909479	2.2157345
6.953621909697607	4.9408407	2.2228003
6.971181057234028	5.000264	2.2361271
6.988740368658859	5.0345526	2.2437809
7.006299844389007	5.096711	2.2575896
7.023859484841407	5.1985383	2.2800303
7.041419290433036	5.2829247	2.2984614
7.058979261580902	5.444698	2.3333876
7.0765393987020495	5.611381	2.3688354
7.094099702213559	5.927699	2.4346867
7.111660172532549	6.1951447	2.4890049
7.129220810076164	6.54061	2.5574615
7.146781615261595	7.081495	2.6611078
7.16434258850606	7.396088	2.719575
7.181903730226821	7.832664	2.7986896
7.1994650408411704	8.045919	2.836533
7.217026520766437	8.166987	2.857794
7.234588170419983	8.307526	2.882278
7.252149990219215	8.278286	2.877201
7.269711980581568	8.1600275	2.8565762
7.2872741419245175	7.9977126	2.8280227
7.304836474665574	7.6630235	2.7682166
7.322398979222286	7.33475	2.7082744
7.339961656012233	7.0294986	2.6513202
7.357524505453039	6.6761427	2.5838232
7.375087527962357	6.4257884	2.5349138
7.392650723957886	6.235169	2.497032
7.410214093857353	5.90238	2.4294815
7.427777638078528	5.661792	2.379452
7.445341357039213	5.464434	2.3376129
7.4629052511572525	5.299569	2.3020792
7.480469320850524	5.209458	2.2824237
7.498033566536948	5.1513743	2.2696638
7.5155979886344735	5.1028643	2.2589521
7.5331625875610975	5.096827	2.2576153
7.550727363734844	5.1068563	2.2598355
7.568292317573788	5.1679363	2.2733095
7.585857449496025	5.20096	2.2805614
7.603422759919705	5.1740217	2.2746477
7.620988249263007	5.152275	2.2698624
7.638553917944147	5.092943	2.256755
7.656119766381391	5.0804834	2.2539928
7.673685794993023	5.0993934	2.2581837
7.691252004197388	5.128459	2.26461
7.70881839441285	5.1684747	2.273428
7.726384966057826	5.20767	2.282032
7.743951719550762	5.2095647	2.282447
7.761518655310149	5.1935406	2.278934
7.779085773754511	5.1987844	2.2800844
7.796653075302419	5.1790395	2.2757504
7.814220560372475	5.2045217	2.281342
7.831788229383323	5.1880817	2.2777362
7.8493560827536495	5.2592964	2.2933156
7.866924120902174	5.258048	2.2930434
7.884492344247663	5.260148	2.2935014
7.9020607532089135	5.231129	2.287166
7.919629348204771	5.2102337	2.2825937
7.937198129654115	5.222422	2.2852619
7.954767097975865	5.2305465	2.2870388
7.972336253588986	5.251687	2.291656
7.989905596912472	5.2906475	2.3001409
8.007475128365371	5.330835	2.30886
8.025044848366756	5.37371	2.3181264
8.042614757335754	5.4455123	2.3335621
8.060184855691523	5.4917645	2.3434515
8.07775514385327	5.598593	2.3661346
8.095325622240228	5.6172347	2.3700707
8.112896291271687	5.643631	2.3756328
8.130467151366968	5.6464434	2.3762245
8.148038202945436	5.666667	2.3804762
8.165609446426497	5.722758	2.3922286
8.183180882229594	5.8348365	2.4155407
8.200752510774217	5.8690305	2.4226081
8.218324332479893	5.9336686	2.4359124
8.235896347766193	5.87909	2.4246833
8.253468557052724	5.9063554	2.4302995
8.27104096075914	5.914568	2.4319885
8.288613559305137	5.941473	2.4375136
8.306186353110448	5.9681454	2.4429789
8.32375934259485	5.977426	2.4448776
8.341332528178162	6.029689	2.4555426
8.358905910280246	6.09453	2.4687102
8.376479489321003	6.195496	2.4890754
8.394053265720377	6.252941	2.5005882
8.411627239898356	6.169909	2.48393
8.42920141227497	6.130429	2.4759703
8.44677578327029	6.1377726	2.4774528
8.464350353304427	6.115364	2.4729261
8.48192512279754	6.1169205	2.4732409
8.499500092169827	6.077386	2.4652355
8.51707526184153	6.103075	2.4704401
8.534650632232934	6.1618414	2.4823058
8.552226203764365	6.1547065	2.480868
8.569801976856192	6.140127	2.477928
8.587377951928834	6.13717	2.4773312
8.60495412940274	6.13685	2.4772666
8.622530509698416	6.185228	2.487012
8.6401070932364	6.352985	2.5205128
8.657683880437283	6.4932117	2.5481782
8.675260871721695	6.610303	2.571051
8.692838067510303	6.703432	2.5890987
8.710415468223834	6.7617373	2.6003342
8.727993074283043	6.882667	2.6234837
8.745570886108737	6.9134827	2.6293502
8.763148904121765	7.0390663	2.6531239
8.78072712874302	7.087181	2.662176
8.798305560393441	7.304142	2.7026176
8.815884199494006	7.4200945	2.723985
8.833463046465745	7.533051	2.7446404
8.851042101729728	7.7032924	2.7754805
8.86862136570707	7.976797	2.8243225
8.886200838818924	8.117176	2.8490658
8.903780521486505	8.167927	2.8579586
8.921360414131055	8.222929	2.867565
8.938940517173874	8.375857	2.8941073
8.956520831036297	8.557742	2.9253619
8.97410135613971	8.873653	2.9788678
8.99168209290554	9.073827	3.0122793
9.009263041755265	9.352704	3.0582192
9.026844203110405	9.467908	3.0769966
9.044425577392525	9.652898	3.1069112
9.062007165023239	9.769036	3.1255457
9.079588966424197	10.031267	3.1672175
9.097170982017108	10.16494	3.1882503
9.11475321222372	11.290715	3.3601658
9.132335657465825	12.291818	3.5059688
9.149918318165264	12.451149	3.5286186
9.167501194743924	13.006659	3.6064746
9.18508428762374	12.703501	3.564197
9.202667597226693	12.771418	3.573712
9.220251123974803	12.413513	3.5232816
9.237834868290143	11.985006	3.4619367
9.255418830594836	11.753574	3.4283485
9.273003011311046	11.214024	3.3487346
9.290587410860985	11.007657	3.3177788
9.308172029666911	10.295435	3.20865
9.32575686815113	9.95204	3.1546853
9.343341926735997	8.660239	2.9428284
9.360927205843916	8.42818	2.9031327
9.378512705897327	8.246476	2.8716679
9.396098427318728	7.9960256	2.8277245
9.413684370530664	7.894151	2.8096533
9.431270535955722	7.861213	2.8037856
9.448856924016539	7.7382193	2.7817655
9.466443535135806	7.62186	2.7607718
9.484030369736251	7.6327333	2.7627401
9.501617428240658	7.678269	2.770969
9.519204711071852	7.7918577	2.79139
9.536792218652714	7.7428384	2.7825956
9.55437995140617	7.696928	2.7743337
9.571967909755191	7.6775746	2.7708437
9.589556094122802	7.6682796	2.769166
9.60714450493207	7.8007555	2.7929833
9.624733142606116	7.8841176	2.807867
9.642322007568108	7.9362755	2.8171396
9.659911100241267	7.8898954	2.8088958
9.677500421048851	7.825353	2.7973833
9.695089970414175	7.8554077	2.80275
9.712679748760609	7.9270024	2.8154933
9.730269756511557	8.012357	2.8306108
9.747859994090492	8.032648	2.8341928
9.765450461920915	8.042958	2.836011
9.78304116042639	8.05675	2.8384416
9.800632090030527	8.078194	2.8422163
9.81822325115699	8.087134	2.8437886
9.835814644229481	8.018439	2.8316848
9.853406269671762	8.016729	2.831383
9.870998127907646	8.000514	2.828518
9.888590219360985	8.132332	2.8517244
9.906182544455698	8.157042	2.8560536
9.923775103615734	8.182371	2.8604844
9.941367897265108	8.265542	2.8749855
9.958960925827878	8.278985	2.8773224
9.97655418972816	8.237237	2.8700588
9.994147689390106	8.202576	2.864014
10.011741425237934	8.194907	2.8626747
10.029335397695904	8.182881	2.8605735
10.04692960718833	8.138353	2.8527799
10.06452405413958	8.088902	2.8440995
10.082118738974064	8.101166	2.8462546
10.099713662116246	8.157029	2.8560512
10.117308823990651	8.190855	2.861967
10.134904225021844	8.178131	2.859743
10.152499865634445	8.043454	2.8360984
10.170095746253125	8.049429	2.8371515
10.18769186730261	8.061314	2.8392453
10.205288229207675	8.13632	2.8524237
10.222884832393145	8.179325	2.859952
10.2404816772839	8.073434	2.841379
10.258078764304868	8.023247	2.8325336
10.275676093881035	7.9410095	2.8179796
10.293273666437438	7.899233	2.8105574
10.310871482399158	7.9272404	2.8155355
10.32846954219134	7.9871693	2.826158
10.346067846239173	8.027829	2.8333423
10.363666394967908	8.055228	2.8381734
10.38126518880283	8.049238	2.837118
10.398864228169298	8.075644	2.8417678
10.416463513492713	8.062607	2.839473
10.434063045198531	8.02441	2.832739
10.451662823712262	8.071503	2.841039
10.469262849459467	8.038987	2.8353107
10.486863122865758	7.9890046	2.8264828
10.504463644356806	7.9375615	2.8173678
10.522064414358338	7.874202	2.8061008
10.539665433296118	7.8336473	2.7988653
10.557266701595987	7.817432	2.795967
10.574868219683818	7.7288322	2.7800777
10.592469987985552	7.6291375	2.7620893
10.610072006927185	7.479554	2.7348773
10.627674276934751	7.409724	2.722081
10.64527679843435	7.305636	2.702894
10.662879571852143	7.2803	2.698203
10.680482597614331	7.1845136	2.6803944
10.698085876147173	7.134449	2.6710389
10.715689407876988	6.953692	2.6369853
10.733293193230146	6.8411555	2.6155603
10.750897232633072	6.7366753	2.5955105
10.76850152651225	6.599226	2.5688958
10.786106075294207	6.4760113	2.5448008
10.803710879405534	6.3356075	2.5170634
10.821315939272877	6.2537513	2.50075
10.83892125532294	6.1828785	2.4865394
10.856526827982472	6.1699166	2.4839318
10.874132657678285	6.1111894	2.472082
10.891738744837243	6.06193	2.4620988
10.909345089886271	6.0146713	2.4524827
10.926951693252343	5.8743386	2.4237034
10.944558555362494	5.8409996	2.416816
10.96216567664381	5.797167	2.4077306
10.979773057523436	5.8067374	2.4097173
10.997380698428573	5.7686973	2.4018114
11.014988599786477	5.668624	2.3808873
11.032596762024461	5.573576	2.3608422
11.050205185569892	5.508345	2.3469863
11.067813870850198	5.487818	2.3426092
11.085422818292859	5.4234233	2.3288245
11.10303202832541	5.3717604	2.3177059
11.120641501375454	5.3073516	2.303769
11.138251237870636	5.225493	2.2859337
11.155861238238671	5.095676	2.2573605
11.173471502907317	5.049826	2.247182
11.191082032304402	5.013587	2.239104
11.208692826857805	5.043721	2.2458231
11.226303886995465	5.0167184	2.2398033
11.243915213145371	4.992437	2.2343762
11.261526805735578	4.9269834	2.219681
11.279138665194196	4.844656	2.201058
11.296750791949393	4.7487817	2.17917
11.314363186429393	4.69622	2.1670763
11.331975849062479	4.644589	2.1551309
11.34958878027699	4.6222873	2.1499505
11.36720198050133	4.6084924	2.14674
11.384815450163948	4.523429	2.1268353
11.402429189693366	4.4633083	2.1126544
11.420043199518153	4.3648567	2.0892239
11.437657480066942	63.26754	7.9540896
11.455272031768422	84.98723	9.218852
11.472886855051353	107.41603	10.36417
11.490501950344528	99.11433	9.955618
11.508117318076819	84.473816	9.190964
11.52573295867715	45.89792	6.7748003
11.543348872574514	4.194535	2.0480564
11.560965060197946	4.141905	2.035167
11.57858152197655	4.1053615	2.026169
11.59619825833949	4.0495834	2.0123577
11.613815269715985	3.9878273	1.9969546
11.631432556535323	38.47861	6.203113
11.649050119226837	82.973755	9.108994
11.666667958219929	93.379425	9.663303
11.68428607394406	107.62073	10.374041
11.701904466828756	82.435234	9.079385
11.719523137303586	65.28241	8.079753
11.737142085798196	4.544946	2.131888
11.754761312742286	3.685928	1.919877
11.772380818565619	3.6337743	1.9062461
11.790000603698015	3.5759592	1.8910207
11.80762066856935	3.5600321	1.8868047
11.825241013609572	3.5435429	1.8824301
11.842861639248683	3.5087893	1.8731762
11.860482545916748	3.4673057	1.8620702
11.878103734043883	3.4181166	1.848815
11.895725204060282	3.3963034	1.8429062
11.91334695639619	3.3663816	1.8347702
11.930968991481919	3.345433	1.8290524
11.948591309747824	3.3355536	1.8263499
11.966213911624347	3.314924	1.8206933
11.98383679754198	3.3161802	1.8210382
12.001459967931268	3.273773	1.809357
12.019083423222835	3.2202404	1.7945029
12.036707163847352	3.2017803	1.7893519
12.05433119023556	3.2323349	1.7978696
12.071955502818259	3.229917	1.797197
12.089580102026313	3.1719525	1.7809976
12.107204988290643	3.1012619	1.76104
12.12483016204224	3.1016448	1.7611487
12.142455623712152	3.0903625	1.7579427
12.16008137373149	3.0738208	1.7532315
12.177707412531431	3.0266733	1.7397337
12.19533374054321	2.983621	1.7273161
12.212960358198126	2.9990869	1.7317872
12.230587265927545	3.0008445	1.7322946
12.248214464162889	2.961394	1.7208701
12.265841953335649	2.9017475	1.7034516
12.283469733877375	2.9214637	1.709229
12.301097806219685	2.9406705	1.7148384
12.31872617079425	2.9469337	1.7166636
12.336354828032825	2.9547553	1.7189401
12.353983778367205	2.870496	1.6942538
12.371613022229262	2.8288946	1.6819319
12.389242560050928	2.8047802	1.6747478
12.406872392264201	2.8121576	1.6769489
12.424502519301143	2.7998922	1.6732879
12.442132941593874	2.8342848	1.6835334
12.459763659574586	2.859419	1.6909817
12.477394673675532	2.8681233	1.6935534
12.49502598432903	2.8521233	1.688823
12.51265759196746	2.8038251	1.6744627
12.530289497023267	2.769657	1.6642287
12.547921699928967	2.728081	1.6516904
12.565554201117134	2.737569	1.6545601
12.583187001020404	2.7583847	1.6608386
12.600820100071486	2.76771	1.6636436
12.618453498703152	2.7506986	1.658523
12.636087197348235	2.7433379	1.6563025
12.65372119643964	2.7457087	1.6570181
12.671355496410326	2.7623134	1.6620209
12.68899009769333	2.781204	1.6676942
12.706625000721749	2.805451	1.674948
12.724260205928752	2.879055	1.6967778
12.741895713747551	2.9292016	1.711491
12.759531524611454	2.9385002	1.7142054
12.777167638953818	2.868194	1.6935743
12.794804057208072	2.846664	1.6872059
12.812440779807702	2.9050722	1.7044272
12.830077807186271	3.141088	1.7723114
12.847715139777405	3.2270637	1.7964029
12.865352778014795	3.4744132	1.8639778
12.882990722332197	3.5772128	1.891352
12.90062897316344	3.682705	1.9190375
12.918267530942412	3.7548363	1.93774
12.935906396103071	3.6474295	1.9098245
12.953545569079449	3.799971	1.9493514
12.971185050305628	3.5424633	1.8821433
12.988824840215775	3.5488052	1.8838273
13.006464939244115	3.5747051	1.890689
13.024105347824943	3.4414306	1.8551093
13.041746066392617	3.5364192	1.8805369
13.05938709538157	3.3063958	1.8183497
13.077028435226296	3.3329787	1.8256447
13.094670086361363	3.2378266	1.7993962
13.112312049221401	3.1596737	1.7775471
13.129954324241112	3.0404947	1.7437015
13.147596911855258	2.8214457	1.679716
13.165239812498685	2.7767632	1.6663623
13.182883026606293	2.7237732	1.6503857
13.200526554613058	2.6919935	1.6407295
13.218170396954017	2.6570508	1.6300462
13.235814554064284	2.6256025	1.6203711
13.253459026379034	2.6321552	1.6223918
13.271103814333523	2.634146	1.6230053
13.288748918363058	2.628869	1.6213788
13.306394338903031	2.6091871	1.6152978
13.32404007638889	2.597426	1.6116532
13.341686131256164	2.6052241	1.6140707
13.359332503940449	2.5847554	1.6077175
13.376979194877402	2.5903096	1.6094439
13.394626204502751	2.609592	1.6154232
13.412273533252307	2.64922	1.6276425
13.429921181561937	2.6732404	1.6350048
13.447569149867581	2.690043	1.640135
13.465217438605247	2.6902044	1.6401843
13.482866048211022	2.6536186	1.6289932
13.500514979121052	2.667704	1.6333108
13.518164231771568	2.6635284	1.632032
13.535813806598844	2.6394403	1.6246355
13.553463704039254	2.6344697	1.6231049
13.571113924529229	2.6057556	1.6142353
13.588764468505275	2.5972342	1.6115937
13.606415336403956	2.6124904	1.61632
13.624066528661917	2.6767716	1.6360842
13.641718045715882	2.7505867	1.6584893
13.659369888002635	2.7841902	1.6685892
13.67702205595903	2.8413665	1.6856353
13.694674550021993	2.9308035	1.711959
13.712327370628532	3.0243046	1.7390528
13.729980518215713	3.1125715	1.7642481
13.747633993220681	3.160508	1.7777817
13.765287796080647	3.199103	1.7886037
13.7829419272329	3.2192144	1.794217
13.800596387114801	3.2440054	1.8011123
13.818251176163775	3.228678	1.7968522
13.835906294817324	3.2732124	1.8092022
13.853561743513023	3.3184583	1.8216636
13.871217522688525	3.404243	1.845059
13.888873632781538	3.4149485	1.847958
13.906530074229858	3.4626915	1.8608309
13.92418684747135	3.4569814	1.859296
13.941843952943948	3.489958	1.868143
13.959501391085665	3.4612675	1.8604482
13.977159162334578	3.434197	1.8531586
13.994817267128846	3.394442	1.8424011
14.012475705906693	3.3064141	1.8183548
14.030134479106424	3.1429725	1.772843
14.047793587166414	3.036774	1.7426342
14.065453030525108	3.0245233	1.7391156
14.083112809621026	3.0296352	1.7405847
14.100772924892766	3.0049536	1.7334802
14.118433376778997	2.9119723	1.7064502
14.136094165718458	2.8422813	1.6859066
14.153755292149969	2.782247	1.6680069
14.171416756512416	2.6791897	1.636823
14.189078559244768	2.615871	1.6173655
14.20674070078606	2.540595	1.5939244
14.224403181575408	2.4834247	1.5758885
14.242066002051999	2.4139502	1.5536892
14.259729162655093	2.3831282	1.5437384
14.277392663824022	2.3668256	1.538449
14.295056505998208	2.3334885	1.527576
14.312720689617128	2.3300197	1.5264403
14.330385215120348	2.3190842	1.522854
14.348050082947497	2.3454027	1.5314708
14.3657152935383	2.363028	1.5372144
14.383380847332528	2.3814528	1.5431956
14.401046744770051	2.403135	1.5502049
14.418712986290798	2.4087856	1.5520263
14.436379572334793	2.4077075	1.5516789
14.454046503342123	2.365656	1.5380689
14.471713779752946	2.3396204	1.5295818
14.489381402007504	2.3280861	1.5258067
14.507049370546113	2.3450518	1.5313562
14.524717685809168	2.3838413	1.5439693
14.542386348237134	2.3822763	1.5434624
14.560055358270553	2.3730583	1.5404735
14.577724716350051	2.4002366	1.5492697
14.595394422916325	2.3887787	1.5455674
14.61306447841015	2.4731712	1.572632
14.63073488327237	2.477815	1.5741076
14.648405637943917	2.4800076	1.574804
14.6660767428658	2.390313	1.5460637
14.683748198479094	2.4365864	1.5609568
14.701420005224954	2.5043879	1.5825257
14.719092163544628	2.6247945	1.6201217
14.73676467387942	2.6618571	1.6315199
14.754437536670727	2.6649375	1.6324636
14.772110752360014	2.6975613	1.6424254
14.78978432138882	2.6713831	1.6344366
14.807458244198777	2.6952727	1.6417285
14.82513252123159	2.6419058	1.625394
14.842807152929028	2.66667	1.6329942
14.860482139732962	2.6478574	1.6272238
14.87815748208531	2.6598969	1.630919
14.8958331804281	2.6340892	1.6229877
14.91350923520342	2.6288145	1.621362
14.931185646853438	2.6454043	1.6264699
14.948862415820408	2.6482918	1.6273574
14.966539542546656	2.6477053	1.6271771
14.98421702747459	2.5910203	1.6096647
15.001894871046696	2.598239	1.6119053
15.019573073705542	2.615676	1.6173052
15.037251635893766	2.641526	1.6252772
15.054930558054092	2.6226118	1.619448
15.072609840629323	2.6809175	1.6373508
15.090289484062351	2.8196683	1.6791868
15.107969488796124	3.0800853	1.7550172
15.125649855273691	3.4349194	1.8533535
15.14333058393817	3.921159	1.9801917
15.161011675232768	4.874173	2.207753
15.17869312960076	6.1464267	2.4791987
15.196374947485506	7.9267063	2.8154407
15.214057129330447	11.027858	3.3208218
15.231739675579114	15.776602	3.971977
15.249422586675102	20.98141	4.580547
15.267105863062092	24.329327	4.9324765
15.284789505183847	24.790308	4.9789867
15.302473513484218	22.881943	4.7835073
15.320157888407127	19.367195	4.4008174
15.337842630396578	15.162828	3.8939476
15.355527739896656	11.74799	3.427534
15.37321321735153	9.098621	3.016392
15.39089906320545	6.6529922	2.5793395
15.408585277902748	4.9324455	2.220911
15.42627186188783	3.7096834	1.9260539
15.443958815605198	3.096647	1.7597293
15.461646139499424	2.8538291	1.6893281
15.479333834015168	2.7484987	1.6578597
15.497021899597165	2.6744137	1.6353635
15.514710336690234	2.5924683	1.6101143
15.53239914573928	2.5528116	1.5977521
15.550088327189297	2.517791	1.5867549
15.567777881485336	2.4507616	1.5654908
15.58546780907256	2.4099498	1.5524013
15.6031581103962	2.401937	1.5498184
15.620848785901568	2.424435	1.5570596
15.638539836034063	2.4433491	1.5631216
15.656231261239173	2.421852	1.5562301
15.673923061962451	2.4208648	1.5559129
15.691615238649552	2.422703	1.5565034
15.709307791746202	2.3771982	1.5418165
15.727000721698221	2.3828113	1.5436357
15.744694028951498	2.3444355	1.531155
15.76238771395202	2.3268147	1.52539
15.780081777145844	2.3333986	1.5275466
15.797776218979125	2.3302813	1.5265259
15.815471039898094	2.3402617	1.5297914
15.833166240349064	2.3205762	1.5233438
15.850861820778437	2.3456316	1.5315455
15.868557781632699	2.343104	1.53072
15.886254123358412	2.331533	1.5269358
15.903950846402232	2.3404264	1.5298452
15.921647951210897	2.329881	1.5263947
15.939345438231225	2.3222642	1.5238976
15.957043307910133	2.3139117	1.5211548
15.974741560694602	2.3624456	1.537025
15.992440197031714	2.356221	1.5349987
16.01013921736862	2.334844	1.5280197
16.02783862215259	2.2796302	1.5098444
16.045538411830933	2.251645	1.5005482
16.06323858685107	2.256812	1.502269
16.080939147660512	2.2984834	1.516075
16.09864009470684	2.3224113	1.5239459
16.11634142843774	2.3457987	1.5316
16.134043149300954	2.355962	1.5349144
16.15174525774433	2.3749468	1.5410862
16.169447754215817	2.3890505	1.5456554
16.18715063916342	2.4059782	1.5511216
16.204853913035244	2.4331481	1.5598552
16.222557576279478	2.4335377	1.55998
16.240261629344403	22.450602	4.7382064
16.257966072678386	42.99498	6.557056
16.275670906729868	38.09521	6.172132
16.293376131947387	2.5276034	1.5898439
16.31108174877957	2.5293434	1.5903909
16.328787757675133	2.5538034	1.5980624
16.34649415908287	2.5609891	1.6003091
16.364200953451657	2.5569408	1.5990437
16.38190814123048	2.559382	1.5998069
16.39961572286839	2.6026123	1.6132613
16.41732369881455	2.7029915	1.6440777
16.43503206951817	2.7736442	1.6654261
16.45274083542859	2.8008795	1.6735828
16.47044999699522	2.7860644	1.6691508
16.488159554667558	2.788175	1.669783
16.505869508895184	2.8411653	1.6855756
16.523579860127786	2.891497	1.7004402
16.541290608815117	2.9464931	1.7165352
16.559001755407035	3.0024219	1.7327498
16.57671330035348	3.0408776	1.7438112
16.59442524410448	3.0970411	1.7598412
16.61213758711015	3.1816442	1.7837164
16.629850329820705	3.2485304	1.802368
16.647563472686436	3.3039126	1.8176668
16.665277016157724	3.3425457	1.828263
16.682990960685053	3.3699121	1.8357321
16.70070530671898	3.362512	1.8337154
16.718420054710155	3.3356006	1.8263627
16.736135205109335	3.3794115	1.8383175
16.753850758367335	3.4586596	1.8597472
16.771566714935087	3.5452251	1.8828769
16.789283075263597	3.6305845	1.9054092
16.80699983980398	3.689916	1.9209154
16.82471700900741	3.7718832	1.9421337
16.84243458332518	3.848015	1.9616358
16.860152563208665	3.9333193	1.9832598
16.87787094910932	4.048699	2.012138
16.89558974147871	4.1064725	2.0264432
16.913308940768466	4.143086	2.0354571
16.931028547430333	4.1725674	2.0426862
16.94874856191613	4.2263036	2.0557976
16.966468984677785	4.2645984	2.0650904
16.98418981616729	4.2811646	2.0690975
17.00191105683676	4.3054276	2.0749524
17.019632707138374	4.402016	2.0980983
17.03735476752442	4.5114527	2.124018
17.05507723844728	4.5769496	2.1393807
17.072800120359403	4.5643163	2.136426
17.090523413713353	4.5901833	2.1424713
17.108247118961785	4.603766	2.145639
17.125971236557437	4.594871	2.143565
17.143695766953133	4.545014	2.131904
17.161420710601806	4.553898	2.1339865
17.179146067956477	4.5878806	2.141934
17.19687183947025	4.6039453	2.1456807
17.21459802559634	4.654497	2.1574283
17.232324626788028	4.7201514	2.172591
17.25005164349871	4.705861	2.1692996
17.267779076181863	4.615602	2.1483953
17.285506925291074	4.519252	2.1258533
17.30323519127999	4.4818983	2.1170495
17.320963874602384	4.456879	2.1111321
17.33869297571211	4.4618487	2.112309
17.356422495063114	4.4594865	2.1117496
17.37415243310944	4.4918647	2.119402
17.391882790305218	4.4751873	2.1154637
17.40961356710468	4.4376364	2.1065698
17.42734476396215	4.405565	2.0989437
17.445076381332044	4.4247236	2.1035028
17.462808419668868	4.5340395	2.1293285
17.48054087942723	4.654744	2.1574857
17.498273761061835	4.908476	2.215508
17.51600706502747	5.329365	2.3085418
17.533740791779024	6.021606	2.453896
17.551474941771485	7.4026775	2.720786
17.56920951545993	8.488091	2.9134328
17.586944513299528	10.776271	3.2827232
17.60467993574556	12.615162	3.5517828
17.622415783253373	14.586458	3.8192222
17.64015205627843	16.045198	4.0056458
17.657888755276293	17.221092	4.1498303
17.675625880702604	17.809822	4.2201686
17.69336343301311	17.70617	4.20787
17.71110141266366	16.784107	4.0968413
17.728839820110178	15.676833	3.959398
17.746578655808705	14.558272	3.8155303
17.764317920215372	12.973024	3.6018085
17.7820576137864	11.349087	3.3688405
17.79979773697811	9.267692	3.0442884
17.81753829024692	7.3170505	2.7050047
17.835279274049356	5.6633883	2.3797874
17.85302068884201	4.670713	2.161183
17.870762535081607	4.0674	2.0167797
17.888504813224934	3.7675276	1.941012
17.90624752372891	3.6166322	1.9017445
17.923990667050536	3.525412	1.8776081
17.941734243646895	3.473209	1.8636547
17.959478253975185	3.4497633	1.8573538
17.9772226984927	3.4582145	1.8596275
17.994967577656833	3.4054244	1.8453792
18.01271289192506	3.3913891	1.8415724
18.030458641754965	3.3698578	1.8357172
18.04820482760425	3.352558	1.8309991
18.06595144993067	3.2980292	1.8160477
18.083698509192125	3.2305195	1.7973646
18.101446005846576	3.214773	1.7929788
18.119193940352105	3.2309246	1.7974772
18.136942313166887	3.248174	1.8022691
18.1546911247492	3.2076838	1.7910007
18.1724403755574	3.1454818	1.7735506
18.19019006604997	3.0735443	1.7531526
18.207940196685467	3.0574224	1.7485486
18.225690767922575	3.0700042	1.7521428
18.243441780220046	3.0612557	1.7496444
18.261193234036764	3.0538042	1.7475137
18.278945129831676	3.023275	1.7387567
18.29669746806386	3.0116377	1.7354071
18.314450249192483	2.9914887	1.7295921
18.3322034736768	2.9859831	1.7279998
18.349957141976184	2.9625118	1.7211949
18.3677112545501	3.0156295	1.7365568
18.385465811858108	3.0509553	1.7466984
18.403220814359884	3.089335	1.7576504
18.420976262515172	3.1139076	1.7646267
18.43873215678387	3.1582973	1.7771599
18.456488497625923	3.1620734	1.778222
18.474245285501407	3.177233	1.7824794
18.492002520870486	3.1861105	1.7849679
18.50976020419343	3.2490551	1.8025136
18.527518335930615	3.5425951	1.8821783
18.545276916542516	4.110461	2.0274272
18.563035946489688	4.277198	2.0681388
18.580795426232832	4.753574	2.1802692
18.598555356232698	4.6610904	2.1589558
18.616315736950185	4.924332	2.2190835
18.63407656884626	4.5643525	2.1364346
18.65183785238201	4.7207026	2.1727178
18.669599588018617	4.5014887	2.1216712
18.68736177621737	4.511145	2.1239457
18.705124417439652	4.5734816	2.13857
18.72288751214696	4.44037	2.1072185
18.740651060800886	4.539337	2.130572
18.758415063863115	4.2359366	2.058139
18.77617952179546	4.407654	2.0994413
18.793944435059814	4.1687417	2.0417497
18.811709804118184	4.172696	2.042718
18.829475629432675	4.0950913	2.0236332
18.8472419114655	3.8690915	1.9670006
18.86500865067897	3.9269319	1.9816488
18.88277584753551	3.665678	1.9145961
18.90054350249763	3.7309806	1.9315747
18.918311616027957	3.4386008	1.8543465
18.936080188589226	3.3222072	1.8226923
18.953849220644265	2.9970627	1.7312027
18.971618712656007	2.8250067	1.6807756
18.9893886650875	2.8110106	1.6766069
19.007159078401887	8.004184	2.8291667
19.024929953062408	32.89279	5.735224
19.042701289532435	32.80065	5.7271852
19.060473088275405	25.35973	5.0358443
19.07824534975489	2.6492538	1.6276529
19.096018074434568	2.6471436	1.6270045
19.113791262778197	2.626732	1.6207197
19.13156491524966	2.5890718	1.6090593
19.149339032312945	2.5769274	1.6052811
19.167113614432136	2.5692985	1.6029031
19.184888662071433	2.538326	1.5932125
19.202664175695123	2.521625	1.5879625
19.220440155767623	2.4909947	1.5782886
19.238216602753447	2.4706028	1.5718151
19.2559935171172	2.4625695	1.5692576
19.27377089932361	2.4743938	1.5730206
19.291548749837514	2.4891126	1.5776922
19.309327069123835	2.5092065	1.5840476
19.32710585764763	2.5080004	1.5836668
19.344885115874032	2.5092225	1.5840526
19.362664844268313	2.5310855	1.5909386
19.380445043295822	2.514969	1.5858654
19.39822571342203	2.4910228	1.5782975
19.41600685511252	2.449151	1.5649763
19.43378846883297	2.4245734	1.5571042
19.451570555049173	2.419712	1.5555423
19.469353114227037	2.4263802	1.5576842
19.48713614683254	2.4510787	1.565592
19.50491965333182	2.4484186	1.5647423
19.52270363419109	2.4606316	1.56864
19.540488089876686	2.4772785	1.5739373
19.55827302085503	2.49992	1.5811135
19.576058427592674	2.5022898	1.5818628
19.593844310556282	2.4998975	1.5811064
19.611630670212598	2.4900355	1.5779847
19.629417507028506	2.4786253	1.574365
19.64720482147098	2.4603634	1.5685545
19.6649926140071	2.4553564	1.5669577
19.682780885104084	2.4694765	1.5714568
19.70056963522921	2.4724236	1.5723943
19.718358864849908	2.488103	1.5773722
19.7361485744337	2.5139718	1.5855509
19.753938764448215	2.506585	1.5832198
19.771729435361202	2.4740138	1.5728998
19.789520587640506	2.4472647	1.5643736
19.807312221754092	2.4544473	1.5666676
19.825104338170043	2.4378521	1.5613623
19.842896937356517	2.4532487	1.566285
19.860690019781824	2.438864	1.5616863
19.87848358591436	2.4584997	1.5679604
19.896277636222635	2.4902203	1.5780432
19.914072171175278	2.5165684	1.5863695
19.931867191241015	2.5155208	1.5860393
19.94966269688869	2.4881616	1.5773908
19.967458688587264	2.4758463	1.5734823
19.985255166805807	2.4485106	1.5647718
20.00305213201348	2.4909859	1.5782857
20.020849584679578	2.4748962	1.5731803
20.038647525273507	2.4357214	1.5606798
20.05644595426477	2.4083803	1.5518957
20.07424487212299	2.390761	1.5462085
20.092044279317903	2.3722239	1.5402025
20.109844176319353	2.3623617	1.5369976
20.127644563597304	2.3836794	1.543917
20.145445441621817	2.392322	1.5467134
20.16324681086307	2.3658617	1.5381358
20.181048671791373	2.3777652	1.5420004
20.198851024877122	2.3940122	1.5472596
20.216653870590836	2.3618584	1.5368339
20.234457209403146	2.3418221	1.5303013
20.252261041784802	2.3825877	1.5435632
20.270065368206662	2.4082415	1.551851
20.287870189139685	2.376908	1.5417224
20.305675505054968	2.3471205	1.5320315
20.323481316423702	2.3551226	1.5346409
20.341287623717207	2.3859649	1.5446569
20.359094427406884	2.3860936	1.5446986
20.376901727964288	2.333469	1.5275697
20.39470952586107	2.2987626	1.516167
20.41251782156899	2.3132002	1.5209209
20.430326615559935	2.3197823	1.5230831
20.448135908305886	2.3184068	1.5226315
20.465945700278965	2.3072703	1.5189701
20.483755991951384	2.3122458	1.5206071
20.50156678379548	2.2918322	1.5138799
20.519378076283708	2.3028977	1.5175301
20.537189869888635	2.3253722	1.5249171
20.55500216508294	2.3342228	1.5278163
20.572814962339415	2.3257365	1.5250366
20.59062826213098	2.2899652	1.5132631
20.60844206493066	2.2529223	1.5009738
20.626256371211593	2.2744558	1.50813
20.644071181447032	2.2900505	1.5132912
20.66188649611036	2.2718267	1.507258
20.67970231567506	2.2965589	1.5154401
20.697518640614742	2.3227146	1.5240455
20.715335471403122	2.3330944	1.527447
20.73315280851404	2.2944071	1.5147301
20.750970652421447	2.2904747	1.5134314
20.768789003599412	2.2846742	1.5115138
20.786607862522136	2.2976112	1.5157874
20.8044272296639	2.2730622	1.5076678
20.82224710549913	2.2842572	1.5113759
20.84006749050237	2.2871993	1.5123489
20.857888385148268	3.8554356	1.9635264
20.8757097899116	45.94085	6.777968
20.893531705267254	64.77134	8.048064
20.911354131690224	83.792694	9.153835
20.92917706965566	69.04801	8.309513
20.94700051963877	50.116642	7.079311
20.96482448211493	29.380644	5.4203916
20.982648957559622	4.1414614	2.035058
21.00047394644843	2.2506711	1.5002238
21.01829944925707	2.2320862	1.4940168
21.036125466461375	2.2106185	1.4868149
21.053951998537297	2.138377	1.462319
21.071779045960906	2.1175206	1.4551703
21.089606609208378	2.1193347	1.4557935
21.10743468875603	2.1445725	1.4644359
21.12526328508028	2.162257	1.4704615
21.143092398657675	2.1829207	1.477471
21.16092202996488	2.1734622	1.4742666
21.17875217947867	2.191322	1.4803115
21.19658284767596	2.16584	1.4716793
21.21441403503377	2.1506896	1.4665229
21.232245742029225	2.132388	1.4602699
21.2500779691396	2.1265106	1.458256
21.26791071684227	2.1101575	1.4526381
21.28574398561475	2.1209967	1.4563642
21.30357777593465	2.1018836	1.4497875
21.321412088279704	2.0891154	1.4453772
21.339246923127792	2.1083791	1.4520259
21.357082280956888	2.0984266	1.4485947
21.3749181622451	2.0836842	1.4434972
21.392754567470647	2.0842624	1.4436975
21.41059149711187	2.1106105	1.4527941
21.42842895164726	2.1183634	1.4554598
21.446266931555378	2.115936	1.4546257
21.464105437314945	2.1174018	1.4551295
21.481944469404798	2.1308947	1.4597584
21.49978402830388	2.132961	1.460466
21.51762411449127	2.1126525	1.4534967
21.53546472844617	2.0934455	1.4468744
21.553305870647876	2.0515778	1.432333
21.571147541575865	2.0336807	1.4260718
21.58898974170967	2.0733414	1.4399102
21.60683247152899	2.0969775	1.4480945
21.62467573151363	2.0807686	1.442487
21.642519522143523	2.0611913	1.4356849
21.660363843898722	2.0463886	1.4305204
21.6782086972594	2.0484548	1.4312423
21.696054082705864	2.0181077	1.4206011
21.713900000718535	2.0021853	1.414986
21.73174645177795	1.9863081	1.4093645
21.749593436364794	1.9884585	1.4101272
21.767440954959845	2.0063272	1.4164488
21.785289008044032	2.0016797	1.4148073
21.803137596098388	1.9846419	1.4087732
21.820986719604086	1.9868724	1.4095646
21.838836379042412	1.9505298	1.3966137
21.85668657489478	1.93541	1.3911902
21.87453730764273	1.9171622	1.3846163
21.892388577767914	1.9309174	1.3895745
21.91024038575213	1.9723366	1.404399
21.928092732077285	1.9695154	1.4033942
21.945945617225426	1.9559418	1.3985499
21.963799041678694	1.9412329	1.3932813
21.981653005919398	31.289478	5.5937
21.999507510429943	78.0986	8.837341
22.01736255569286	73.06115	8.547582
22.035218142190818	4.1404414	2.0348074
22.05307427040661	1.9798414	1.4070684
22.07093094082315	1.9759331	1.4056789
22.088788153923474	1.9580426	1.3993008
22.106645910190746	1.965139	1.4018341
22.12450421010827	1.9728934	1.4045972
22.142363054159464	1.9744622	1.4051555
22.16022244282787	1.9435409	1.3941094
22.178082376597164	1.9170879	1.3845894
22.195942855951145	1.9108768	1.3823446
22.213803881373742	1.9641013	1.401464
22.231665453349002	2.001478	1.414736
22.24952757236111	2.0097184	1.4176453
22.26739023889438	1.9766932	1.4059492
22.28525345343323	1.9408808	1.393155
22.30311721646225	1.906768	1.3808577
22.320981528466113	1.9034388	1.3796517
22.33884638992964	1.9190369	1.385293
22.356711801337788	1.9503746	1.3965582
22.37457776317561	1.9274312	1.3883196
22.392444275928337	1.9109771	1.382381
22.410311340081282	1.9293404	1.389007
22.428178956119904	1.9290718	1.3889103
22.446047124529805	1.9155314	1.3840272
22.46391584579669	1.8988106	1.3779733
22.481785120406414	1.8864788	1.3734914
22.49965494884496	1.8776722	1.3702818
22.51752533159841	1.8890985	1.3744448
22.53539626915302	1.9028821	1.37945
22.553267761995137	1.9055842	1.380429
22.571139810611264	1.9146049	1.3836925
22.589012415488025	1.9207206	1.3859006
22.60688557711216	1.9263809	1.3879412
22.624759295970566	1.9554375	1.3983696
22.642633572550263	1.9598722	1.3999543
22.660508407338362	1.9805526	1.4073211
22.67838380082217	1.9734886	1.4048091
22.696259753489077	1.9506831	1.3966686
22.714136265826614	1.9324408	1.3901225
22.73201333832246	1.9465234	1.3951787
22.74989097146439	1.9378592	1.39207
22.76776916574035	1.9374475	1.3919222
22.785647921638393	1.9409889	1.3931937
22.803527239646712	1.9527438	1.3974061
22.82140712025363	1.9377542	1.3920324
22.839287563947593	1.9087603	1.3815789
22.85716857121719	1.8935336	1.3760573
22.875050142551135	1.8881617	1.3741039
22.892932278438277	1.9033444	1.3796175
22.910814979367604	1.9324341	1.3901201
22.928698245828222	1.9323474	1.390089
22.946582078309387	1.9588863	1.3996022
22.96446647730047	1.9161524	1.3842516
22.98235144329098	1.9085971	1.3815199
23.000236976770562	1.8862414	1.3734051
23.018123078229	1.8814205	1.3716488
23.03600974815619	1.8462086	1.3587526
23.053896987042194	1.832265	1.3536118
23.071784795377173	1.8424313	1.3573619
23.08967317365145	1.8382583	1.3558239
23.10756212235546	1.8481226	1.3594568
23.125451641979787	1.8930365	1.3758767
23.143341733015134	1.9033189	1.3796083
23.161232395952357	1.8906975	1.3750263
23.179123631282426	1.8396444	1.3563349
23.197015439496468	1.8510634	1.3605379
23.214907821085717	1.8715906	1.368061
23.23280077654157	1.8884071	1.3741933
23.250694306355538	1.9023056	1.379241
23.268588411019277	1.9513534	1.3969085
23.28648309102458	1.9614897	1.4005319
23.304378346863356	1.9417411	1.3934637
23.322274179027676	1.8918911	1.3754604
23.340170588009723	1.8974527	1.3774806
23.358067574301852	1.9175333	1.3847502
23.37596513839651	1.9166541	1.3844328
23.39386328078629	1.9054532	1.3803816
23.411762001963947	1.8526413	1.3611177
23.429661302422353	1.837309	1.3554738
23.4475611826545	1.8634006	1.3650643
23.46546164315356	1.921949	1.3863437
23.48336268441279	1.9474822	1.3955222
23.501264306925638	1.9295405	1.389079
23.51916651118564	1.9172713	1.3846556
23.537069297686497	1.9082865	1.3814074
23.554972666922037	1.9165912	1.38441
23.57287661938623	1.9212526	1.3860925
23.59078115557318	1.9163027	1.3843058
23.608686275977128	1.8934219	1.3760166
23.62659198109246	1.8882642	1.3741412
23.6444982714137	1.8881279	1.3740916
23.66240514743549	1.8984399	1.3778389
23.68031260965263	1.9224739	1.386533
23.698220658560068	1.9687403	1.4031181
23.716129294652845	1.9491013	1.3961022
23.7340385184262	1.9265777	1.3880122
23.75194833037546	1.8658335	1.3659551
23.769858730996123	1.8491281	1.3598266
23.78776972078382	1.8478487	1.3593559
23.80568130023431	1.8530184	1.3612562
23.823593469843495	1.8542788	1.361719
23.841506230107424	1.8397889	1.3563882
23.859419581522275	1.8651583	1.365708
23.87733352458438	1.8839444	1.3725685
23.89524805979019	1.8906354	1.3750038
23.913163187636318	1.8659407	1.3659945
23.931078908619508	1.8551328	1.3620327
23.948995223236633	1.8905569	1.3749752
23.966912131984735	1.9166739	1.38444
23.98482963536096	1.9822557	1.4079261
24.002747733862616	1.9940253	1.4120996
24.020666427987155	2.0228107	1.4222555
24.038585718232156	2.000922	1.4145395
24.056505605095353	2.016388	1.4199958
24.074426089074617	2.0365217	1.4270675
24.092347170667946	2.0579643	1.4345607
24.110268850373515	2.0611527	1.4356716
24.128191128689586	2.0259295	1.4233515
24.146114006114626	2.0015254	1.4147527
24.164037483147187	2.0157495	1.419771
24.181961560286005	2.029038	1.424443
24.199886238029926	2.0208995	1.4215834
24.21781151687797	2.0137074	1.4190515
24.235737397329274	2.0427055	1.4292325
24.253663879883135	2.0428188	1.4292722
24.271590965038975	2.0405328	1.4284722
24.289518653296376	2.032894	1.4257959
24.30744694515505	2.0438955	1.4296488
24.32537584111486	2.0243158	1.4227846
24.34330534167581	2.0053344	1.4160982
24.361235447338046	2.0146492	1.4193834
24.379166158601876	2.0242462	1.4227601
24.39709747596772	2.0249965	1.4230237
24.41502939993615	1.9952942	1.4125488
24.432961931007917	2.0323935	1.4256203
24.450895069683856	2.028586	1.4242843
24.468828816465	2.0130177	1.4188086
24.4867631718525	1.9534167	1.3976469
24.504698136347656	1.9583842	1.3994228
24.52263371045192	1.9801449	1.4071763
24.540569894666874	1.9958353	1.4127403
24.558506689494266	1.9505706	1.3966283
24.57644409543597	1.9428089	1.3938468
24.594382112994012	1.9187211	1.385179
24.61232074267057	1.9462287	1.395073
24.630259984967953	1.9553293	1.3983309
24.64819984038863	1.950892	1.3967433
24.66614030943522	1.9389769	1.3924716
24.684081392610462	1.9468042	1.3952793
24.702023090417274	1.9655192	1.4019698
24.7199654033587	1.947342	1.3954719
24.737908331937927	1.9534789	1.3976691
24.755851876658305	1.9398459	1.3927835
24.773796038023324	1.9446958	1.3945235
24.79174081653661	1.9894464	1.4104774
24.809686212701962	2.0303645	1.4249086
24.827632227023294	2.0728111	1.4397261
24.8455788600047	2.057911	1.4345421
24.8635261121504	2.063172	1.4363747
24.88147398396475	2.0651941	1.4370784
24.899422475952303	2.11219	1.4533376
24.917371588617698	2.1306088	1.4596605
24.935321322465768	2.1322606	1.4602262
24.953271678001478	2.1674342	1.4722209
24.97122265572994	2.360073	1.536253
24.989174256156414	2.7294433	1.6521027
25.00712647978632	3.213038	1.7924949
25.02507932712521	3.8047113	1.9505669
25.043032798678798	4.4155746	2.101327
25.060986894952933	5.172006	2.2742045
25.078941616453637	5.920843	2.4332783
25.096896963687055	6.88562	2.6240466
25.114852937159508	8.083166	2.843091
25.132809537377444	8.588377	2.9305933
25.150766764847468	8.532215	2.9209955
25.168724620076347	7.857944	2.8032024
25.186683103570985	6.8938847	2.6256208
25.204642215838426	5.7246466	2.3926234
25.222601957385894	4.284296	2.069854
25.24056232872074	3.1700966	1.7804766
25.25852333035048	2.5458302	1.5955658
25.276484962782778	2.1790006	1.4761438
25.294447226525435	2.0127025	1.4186975
25.312410122086423	1.933869	1.3906362
25.330373649973843	1.9017416	1.3790364
25.348337810695988	1.9099784	1.3820196
25.366302604761245	1.9345759	1.3908904
25.384268032678207	1.9077139	1.3812002
25.40223409495558	1.8679248	1.3667204
25.420200792102257	1.8463808	1.3588159
25.438168124627246	1.8954585	1.3767565
25.45613609303974	1.8832359	1.3723104
25.474104697849057	1.8654077	1.3657993
25.492073939564698	1.8296413	1.3526423
25.510043818696285	1.846795	1.3589684
25.528014335753614	1.868249	1.366839
25.54598549124664	1.8594182	1.3636048
25.56395728568544	1.8447131	1.3582021
25.58192971958028	1.8450495	1.358326
25.59990279344156	1.8619653	1.3645386
25.617876507779833	1.8619907	1.3645478
25.635850863105826	1.8245995	1.3507774
25.653825859930386	1.8020401	1.3424009
25.671801498764548	1.8113447	1.345862
25.68977778011949	1.8710102	1.3678488
25.707754704506524	1.8395445	1.3562981
25.725732272437153	1.7992225	1.341351
25.743710484423012	1.7659646	1.328896
25.761689340975888	1.7882023	1.3372368
25.77966884260774	1.7808552	1.3344868
25.797648989830662	1.806276	1.3439777
25.815629783156922	1.8344319	1.354412
25.83361122309895	1.8361224	1.3550359
25.85159331016929	1.7836888	1.3355482
25.869576044880695	1.7840692	1.3356905
25.887559427746034	1.7881688	1.3372242
25.90554345927836	1.8071783	1.3443133
25.92352813999086	1.8194648	1.3488754
25.94151347039689	1.8417821	1.3571228
25.959499451009965	1.8214318	1.3496042
25.97748608234374	1.7661877	1.32898
25.995473364912062	1.7313799	1.3158191
26.013461299228904	1.7354575	1.3173677
26.03144988580839	1.7590969	1.3263094
26.04943912516483	1.8056189	1.3437332
26.067429017812675	1.8258373	1.3512355
26.085419564266537	1.8499014	1.3601108
26.103410765041186	1.8642344	1.3653697
26.12140262065155	1.8810955	1.3715304
26.139395131612723	1.8555865	1.3621992
26.157388298439948	1.7782049	1.3334935
26.17538212164861	1.755322	1.3248856
26.193376601754295	1.7976298	1.3407571
26.211371739272714	1.8133162	1.3465943
26.229367534719746	1.8440523	1.3579589
26.247363988611433	1.8335085	1.354071
26.26536110146397	1.8066586	1.34412
26.283358873793727	1.7906606	1.3381556
26.301357306117204	1.8220599	1.349837
26.319356398951104	1.8466015	1.3588972
26.33735615281224	1.8068827	1.3442034
26.35535656821762	1.7651721	1.3285978
26.373357645684404	1.7749882	1.3322868
26.39135938572991	1.7963992	1.3402982
26.409361788871614	1.7814425	1.3347069
26.427364855627165	1.7924676	1.3388307
26.445368586514352	1.8366901	1.3552454
26.46337298205115	1.8640158	1.3652897
26.48137804275568	1.8190439	1.3487194
26.499383769146217	1.753527	1.3242081
26.517390161741215	1.7501272	1.3229238
26.53539722105928	1.7691613	1.3300983
26.553404947619182	1.7646619	1.3284057
26.571413341939856	1.769059	1.3300598
26.589422404540397	1.78949	1.3377182
26.60743213594006	1.8237814	1.3504745
26.62544253665827	1.826043	1.3513116
26.64345360721459	1.8015928	1.3422343
26.66146534812879	1.7931613	1.3390898
26.679477759920758	1.7771138	1.3330843
26.69749084311057	1.7562332	1.3252295
26.71550459821847	1.7797745	1.3340819
26.733519025764842	1.7682834	1.3297682
26.751534126270258	1.7471769	1.3218082
26.769549900255434	1.7605658	1.3268632
26.787566348241267	1.7406878	1.3193513
26.80558347074881	1.7314845	1.3158588
26.823601268299267	1.7432551	1.3203238
26.841619741414036	1.7682625	1.3297603
26.85963889061465	1.7898079	1.337837
26.877658716422832	1.7829697	1.3352789
26.89567921936045	1.783512	1.3354819
26.913700399949544	1.7786434	1.3336579
26.93172225871233	1.7669269	1.329258
26.949744796171174	1.7481604	1.3221802
26.967768012848605	1.7824386	1.33508
26.98579190926733	1.8201798	1.3491404
27.003816485950225	1.8683512	1.3668765
27.021841743420318	1.8276657	1.3519119
27.039867682200814	1.8511037	1.3605527
27.057894302815072	1.7938821	1.3393588
27.07592160578664	1.7808622	1.3344895
27.0939495916392	1.7891102	1.3375763
27.111978260896635	1.8131611	1.3465368
27.13000761408296	1.771244	1.3308809
27.148037651722397	1.7579858	1.3258905
27.166068374339304	1.7605407	1.3268538
27.184099782458215	1.756752	1.3254253
27.20213187660384	1.8028692	1.3427097
27.22016465730105	1.8819985	1.3718596
27.23819812507487	1.8576821	1.3629681
27.256232280450533	1.8110826	1.3457646
27.274267123953383	1.7681582	1.3297211
27.292302656108987	1.7683342	1.3297873
27.31033887744306	1.7749786	1.3322833
27.32837578848146	1.7621237	1.32745
27.34641338975026	1.790128	1.3379567
27.364451681775673	1.7666386	1.3291496
27.382490665084074	1.7310877	1.315708
27.400530340202046	1.74559	1.3212078
27.41857070765629	1.76957	1.3302518
27.436611767973726	1.7858351	1.3363514
27.454653521681404	1.8152564	1.3473145
27.472695969306564	1.8579156	1.3630538
27.490739111376627	1.8203821	1.3492154
27.508782948419153	1.7548019	1.3246894
27.526827480961902	1.7374346	1.3181179
27.54487270953279	1.7495459	1.3227041
27.562918634659898	1.8004885	1.3418229
27.580965256871508	1.7993227	1.3413883
27.599012576696026	1.7840506	1.3356836
27.617060594662068	1.7852226	1.3361223
27.63510931129842	1.7676138	1.3295164
27.65315872713401	1.7965283	1.3403463
27.67120884269797	1.7720611	1.3311878
27.68925965851958	1.7204053	1.3116423
27.707311175128307	1.763295	1.3278912
27.725363393053787	1.8190714	1.3487296
27.74341631282583	1.8854597	1.3731204
27.7614699349744	1.9165157	1.3843828
27.77952426002968	2.0259116	1.4233452
27.797579288521973	2.103163	1.4502286
27.815635020981784	2.436756	1.5610112
27.83369145793979	2.4754543	1.5733577
27.85174859992682	2.3357172	1.5283053
27.869806447473923	2.1945114	1.4813883
27.887865001112267	1.9519958	1.3971385
27.905924261373233	1.8821648	1.3719201
27.92398422878836	1.9021817	1.379196
27.94204490388936	1.8707662	1.3677596
27.96010628720813	1.8725308	1.3684045
27.978168379276728	1.8637216	1.3651819
27.9962311806274	1.8658291	1.3659536
28.014294691792568	1.8211226	1.3494898
28.0323589133048	1.7803087	1.3342822
28.050423845696887	1.8105679	1.3455734
28.068489489501758	1.8570924	1.3627517
28.086555845252523	1.8354803	1.354799
28.104622913482487	1.8273698	1.3518025
28.122690694725115	1.8581004	1.3631216
28.14075918951405	1.8936005	1.3760816
28.15882839838312	1.9095148	1.3818519
28.176898321866304	1.9063177	1.3806946
28.1949689604978	1.9002022	1.3784782
28.213040314811945	1.8425078	1.35739
28.23111238534327	1.8493423	1.3599052
28.249185172626493	1.881482	1.3716712
28.267258677196473	1.8875651	1.3738868
28.285332899588294	1.874934	1.3692822
28.303407840337172	1.8733522	1.3687046
28.321483499978545	1.8792424	1.3708546
28.33955987904799	1.9292644	1.3889797
28.357636978081285	1.9134666	1.3832811
28.37571479761439	1.8794199	1.3709193
28.393793338183425	1.9017239	1.37903
28.41187260032469	1.9294735	1.3890549
28.429952584574686	1.965204	1.4018574
28.448033291470065	1.998559	1.413704
28.46611472154769	1.9885097	1.4101453
28.484196875344566	1.973206	1.4047085
28.502279753397914	1.962867	1.4010235
28.52036335624511	1.9612153	1.4004339
28.538447684423716	1.97435	1.4051156
28.556532738471482	2.0088024	1.4173223
28.574618518926325	2.069023	1.4384098
28.59270502632635	2.0374568	1.4273951
28.61079226120985	2.030824	1.4250698
28.628880224115274	2.0453901	1.4301714
28.646968915581287	2.035211	1.4266082
28.66505833614671	1.9619783	1.4007064
28.68314848635055	1.941753	1.393468
28.701239366732004	1.9943717	1.4122223
28.71933097783044	2.0575957	1.4344321
28.737423320185403	2.096609	1.4479673
28.75551639433665	2.1051989	1.4509304
28.773610200824074	2.097763	1.4483657
28.791704740187793	2.1540005	1.4676514
28.80980001296809	2.1468809	1.4652238
28.827896019705413	2.1064274	1.4513537
28.845992760940433	2.132954	1.4604636
28.86409023721397	2.1869826	1.478845
28.88218844906704	2.2132955	1.4877149
28.900287397040845	2.2722065	1.5073841
28.918387081676755	2.264452	1.5048096
28.936487503516343	2.2788084	1.5095723
28.954588663101365	2.2494092	1.4998031
28.97269056097374	2.2305768	1.4935116
28.990793197675597	2.2578204	1.5026045
29.00889657374923	2.3010647	1.516926
29.027000689737125	2.330629	1.5266398
29.04510554618196	2.3662279	1.5382549
29.06321114362659	2.3672543	1.5385884
29.08131748261405	2.3655825	1.538045
29.099424563687567	2.4420922	1.5627195
29.11753238739057	2.4552827	1.5669342
29.13564095426663	2.431587	1.5593547
29.15375026485954	2.523027	1.5884039
29.171860319713275	2.633596	1.6228358
29.18997111937199	2.7238207	1.6504002
29.20808266438002	2.7710266	1.6646401
29.226194955281898	2.798355	1.6728284
29.244307992622335	2.8148377	1.6777478
29.26242177694624	2.781419	1.6677587
29.2805363087987	2.808972	1.6759988
29.29865158872498	2.8793106	1.6968532
29.316767617270557	2.9103966	1.7059884
29.334884394981064	2.9412355	1.7150031
29.353001922402367	2.9611447	1.7207977
29.37112020008047	3.0096164	1.7348245
29.389239228561596	3.135089	1.7706182
29.407359008392152	3.318484	1.8216707
29.42547954011872	3.6423037	1.9084821
29.44360082428809	4.315839	2.0774598
29.46172286144722	5.375692	2.318554
29.479845652143283	6.9404593	2.6344752
29.497969196923606	9.105519	3.0175352
29.516093496335728	11.766085	3.4301727
29.5342185509274	14.787536	3.8454566
29.55234436124651	17.394089	4.170622
29.570470927841175	18.841883	4.340724
29.588598251259686	18.596771	4.3123975
29.60672633205055	17.129353	4.138762
29.624855170762405	14.857058	3.8544853
29.642984767944146	12.018355	3.46675
29.66111512414481	9.126342	3.0209837
29.67924623991366	6.7093816	2.5902474
29.697378115800138	5.0562205	2.248604
29.71551075235387	4.1002307	2.0249026
29.733644150124675	3.7190998	1.9284967
29.751778309662576	3.6337998	1.9062529
29.769913231517766	3.5684361	1.8890305
29.78804891624066	3.4147763	1.8479114
29.806185364381818	3.2911437	1.8141509
29.82432257649206	3.25512	1.8041952
29.842460553122333	3.2662857	1.8072869
29.86059929482382	3.2541494	1.8039261
29.878738802147872	3.2235136	1.7954146
29.896879075646048	3.2549279	1.8041419
29.915020115870114	3.243962	1.8011003
29.933161923371976	3.201997	1.7894125
29.951304498703777	3.2400296	1.8000082
29.969447842417857	3.2630897	1.8064024
29.987591955066733	3.2675903	1.8076477
30.005736837203123	3.2128737	1.7924491
30.023882489379943	3.1821256	1.7838514
30.04202891215028	3.1503563	1.7749243
30.060176106067455	3.1402955	1.7720879
30.078324071684946	3.1439838	1.7731283
30.09647280955646	3.1205165	1.7664983
30.114622320235863	3.0631943	1.7501984
30.132772604277257	3.0286	1.7402873
30.1509236622349	3.0934167	1.7588111
30.16907549466328	3.0786896	1.7546195
30.18722810211705	3.0519903	1.7469946
30.205381485151097	3.019178	1.7375782
30.22353564432045	3.0099733	1.7349274
30.241690580180403	2.9836528	1.7273253
30.25984629328638	3.0372925	1.742783
30.278002784194037	2.9954612	1.7307401
30.296160053459246	3.0114229	1.7353451
30.314318101638033	3.0532672	1.7473601
30.332476929286646	3.017131	1.7369891
30.35063653696153	2.9312189	1.7120802
30.368796925219307	2.858849	1.6908132
30.386958094616844	2.8408518	1.6854826
30.40512004571115	2.8775716	1.6963407
30.423282779059463	2.9153225	1.7074316
30.441446295219233	2.9681044	1.7228187
30.459610594748067	2.9535217	1.7185813
30.47777567820382	2.9202025	1.70886
30.495941546144504	2.809083	1.676032
30.51410819912835	2.738272	1.6547725
30.532275637713795	2.6953804	1.6417614
30.55044386245946	2.7407506	1.6555213
30.56861287392416	2.806927	1.6753886
30.586782672666956	2.8192523	1.679063
30.604953259247047	2.7916117	1.6708117
30.623124634223885	2.7436094	1.6563845
30.641296798157075	2.7348258	1.6537309
30.659469751606462	2.7487485	1.657935
30.677643495132074	2.766328	1.6632283
30.695818029294152	2.7372367	1.6544596
30.713993354653116	2.6822054	1.637744
30.73216947176962	2.614198	1.6168481
30.75034638120448	2.619332	1.618435
30.768524083518756	2.6533282	1.628904
30.786702579273673	2.6797743	1.6370016
30.80488186903069	2.7102475	1.6462829
30.82306195335144	2.789657	1.6702267
30.841242832797782	3.0101292	1.7349724
30.85942450793176	3.3288016	1.8245003
30.877606979315637	3.7077026	1.9255396
30.895790247511883	4.0118065	2.0029495
30.913974313083134	4.4235783	2.1032305
30.932159176592283	4.8030252	2.1915805
30.95034483860237	5.0005126	2.2361827
30.968531299676698	4.78734	2.187999
30.98671856037873	4.322594	2.0790849
31.00490662127215	3.8664052	1.9663177
31.023095482920848	3.5420473	1.8820328
31.04128514588892	3.0995867	1.7605643
31.059475610740662	2.7374349	1.6545196
31.07766687804056	2.5776186	1.6054964
31.09585894835335	2.4927392	1.5788411
31.11405182224393	2.474927	1.5731901
31.132245500277417	2.4139314	1.5536832
31.15043998301914	2.3493142	1.5327473
31.168635271034628	2.3507593	1.5332186
31.18683136488964	2.3940692	1.547278
31.20502826515008	2.4172986	1.5547664
31.223225972382135	2.3816986	1.5432752
31.241424487152155	2.4143927	1.5538316
31.259623810026692	2.4252336	1.5573162
31.27782394157253	2.423465	1.5567483
31.296024882356644	2.3769777	1.5417451
31.314226632946237	2.3821852	1.543433
31.332429193908684	2.4233894	1.556724
31.350632565811598	2.4005983	1.5493864
31.368836749222787	2.3852851	1.5444368
31.387041744710295	2.4459252	1.5639454
31.40524755284232	2.537614	1.5929891
31.423454174187317	2.5366666	1.5926917
31.441661609313922	2.5502882	1.5969622
31.459869858791002	2.4639158	1.5696865
31.478078923187628	2.3508484	1.5332477
31.496288803073064	2.3241794	1.524526
31.514499499016807	2.3786168	1.5422765
31.532711011588546	2.3415427	1.53021
31.550923341358178	2.304588	1.518087
31.56913648889584	2.32186	1.5237651
31.587350454771844	2.2931159	1.5143038
31.605565239556732	2.2863955	1.5120832
31.62378084382127	2.2975748	1.5157753
31.641997268136382	2.2977154	1.5158217
31.660214513073274	2.3163152	1.5219445
31.67843257920331	2.26915	1.5063698
31.6966514670981	2.1972382	1.4823084
31.71487117732944	2.18186	1.477112
31.733091710469346	2.26059	1.5035259
31.751313067090052	2.265359	1.505111
31.769535247764008	2.202537	1.4840947
31.787758253063878	2.1852224	1.4782498
31.805982083562526	2.250229	1.5000763
31.824206739833024	2.331353	1.5268768
31.84243222244869	2.2910128	1.5136092
31.860658531983013	2.2196875	1.4898616
31.878885669009737	2.2427058	1.4975666
31.897113634102784	2.2341805	1.4947175
31.91534242783632	2.2675471	1.5058377
31.933572050784694	2.262186	1.5040566
31.951802503522508	2.2143414	1.4880663
31.970033786624548	2.0796916	1.4421136
31.988265900665834	1.9627004	1.4009641
32.006498846221575	2.003237	1.4153576
32.02473262386724	2.1300786	1.4594789
32.04296723417845	2.1869202	1.4788239
32.0612026777311	2.1303837	1.4595834
32.07943895510129	2.1394863	1.4626983
32.097676066865304	2.141895	1.4635215
32.115914013599685	2.0912535	1.4461167
32.13415279588115	2.0570474	1.434241
32.152392414286666	2.0523386	1.4325986
32.1706328693934	2.056431	1.4340261
32.18887416177875	2.0558705	1.4338307
32.20711629202032	2.0563924	1.4340127
32.225359260695924	2.130127	1.4594954
32.243603068383614	2.1653152	1.471501
32.26184771566166	2.0988872	1.4487537
32.28009320310852	2.042558	1.4291809
32.2983395313029	2.1073732	1.4516795
32.31658670082372	2.1943562	1.481336
32.33483471225012	2.218789	1.48956
32.35308356616143	2.1912706	1.4802941
32.371333263137245	2.100251	1.4492242
32.38958380375734	2.0967045	1.4480002
32.407835188601744	2.0652015	1.4370809
32.42608741825067	2.0788438	1.4418197
32.444340493284585	2.0578957	1.4345367
32.46259441428416	2.104324	1.4506289
32.48084918183028	2.0965254	1.4479383
32.49910479650405	2.0250304	1.4230356
32.51736125888683	2.0352876	1.426635
32.53561856956014	2.073606	1.4400021
32.5538767291058	2.1837785	1.4777613
32.572135738105764	2.118958	1.4556642
32.59039559714228	2.0217586	1.4218856
32.608656306797776	2.0482025	1.4311543
32.62691786765491	2.1116161	1.4531401
32.645180280296586	2.0905082	1.445859
32.663443545305896	2.0558553	1.4338254
32.68170766326619	1.9721744	1.4043412
32.69997263476099	1.9683771	1.4029887
32.7182384603741	2.0516033	1.4323419
32.7365051406895	2.1021378	1.4498751
32.75477267629144	2.0260081	1.4233792
32.77304106776434	1.9917678	1.4113001
32.79131031569289	1.965227	1.4018656
32.809580420661966	1.9569082	1.3988954
32.827851383256714	1.9646102	1.4016455
32.84612320406245	1.9458073	1.394922
32.86439588366476	2.0092661	1.4174858
32.88266942264945	2.0768957	1.4411439
32.9009438216025	2.1279533	1.4587506
32.9192190811102	2.1409342	1.4631932
32.937495201758985	2.0724993	1.4396178
32.95577218413556	1.9839662	1.4085333
32.974050028826866	2.0010264	1.4145764
32.992328736420035	1.957411	1.399075
33.010608307502444	1.859024	1.3634603
33.02888874266169	1.8980405	1.3776939
33.047170042485604	1.8429528	1.357554
33.06545220756225	1.8163781	1.3477308
33.083735238479896	1.9187552	1.3851914
33.10201913582707	2.0753262	1.4405992
33.12030390019248	2.057843	1.4345183
33.138589532165135	2.0652652	1.437103
33.15687603233419	2.0208588	1.4215691
33.17516340128909	1.9194921	1.3854574
33.19345163961947	1.875281	1.369409
33.211740747915215	1.8920784	1.3755285
33.23003072676643	1.869998	1.3674787
33.248321576763466	1.8825985	1.3720782
33.266613298496885	1.8762695	1.3697698
33.28490589255747	1.7846329	1.3359015
33.30319935953626	1.7682874	1.3297697
33.32149370002451	1.9951992	1.4125152
33.339788914613706	2.086515	1.4444774
33.358085003895575	2.029617	1.4246463
33.376381968462034	2.0504365	1.4319345
33.39467980890529	2.0469053	1.430701
33.41297852581774	1.9971663	1.4132113
33.43127811979204	1.9201481	1.3856941
33.44957859142105	1.923279	1.3868234
33.467879941297866	1.9348413	1.3909857
33.486182170015844	1.9295899	1.3890967
33.50448527816853	1.9469254	1.3953227
33.522789266349754	1.8767326	1.3699389
33.541094135153514	1.933462	1.3904898
33.55939988517411	1.9695874	1.4034199
33.57770651700602	1.9810679	1.4075041
33.59601403124398	1.9043118	1.379968
33.61432242848296	1.8617177	1.3644477
33.632631709318154	1.8845663	1.3727951
33.650941874344994	1.950652	1.3966575
33.66925292415916	1.9624757	1.4008839
33.68756485935654	1.9510173	1.3967882
33.70587768053328	2.0058312	1.4162737
33.724191388285746	1.9582238	1.3993655
33.74250598321054	1.8896624	1.3746499
33.760821465904506	1.8427712	1.3574871
33.77913783696474	1.7959934	1.3401468
33.79745509698852	1.9771495	1.4061115
33.815773246573414	2.0343802	1.426317
33.8340922863172	2.0007179	1.4144673
33.852412216817896	1.92266	1.3866001
33.87073303867377	1.9672464	1.4025856
33.889054752483304	1.9898627	1.410625
33.907377358845245	1.9179873	1.3849142
33.92570085835853	1.8803185	1.371247
33.94402525162239	2.003858	1.4155769
33.96235053923627	2.0199444	1.4212475
33.980676721799824	1.97483	1.4052864
33.999003799912984	1.8847806	1.3728732
34.01733177417592	1.8668061	1.3663112
34.03566064518901	1.804722	1.3433994
34.0539904135529	1.8295441	1.3526064
34.07232107986846	1.9259771	1.3877958
34.090652644736785	1.9371473	1.3918144
34.108985108759235	1.9284364	1.3886815
34.12731847253742	1.8777931	1.3703259
34.14565273667313	1.7684921	1.3298466
34.16398790176847	1.8046291	1.3433648
34.18232396842574	1.9092577	1.3817589
34.20066093724749	1.9217057	1.386256
34.21899880883651	1.9416362	1.3934261
34.23733758379583	1.9480318	1.395719
34.25567726272874	1.9359392	1.3913803
34.27401784623872	1.8703752	1.3676167
34.29235933492957	1.8866429	1.3735512
34.31070172940526	1.8397231	1.3563639
34.32904503027003	1.823127	1.3502322
34.347389238128386	1.835019	1.3546287
34.36573435358502	1.8967905	1.3772402
34.38408037724492	1.9507514	1.396693
34.402427309713296	1.9800144	1.4071299
34.42077515159559	1.9856583	1.4091339
34.43912390349752	1.92499	1.3874401
34.45747356602499	1.9871734	1.4096714
34.47582413978423	2.0829818	1.4432539
34.49417562538163	1.9960421	1.4128135
34.51252802342388	1.8048681	1.3434538
34.53088133451789	1.7009355	1.3041992
34.54923555927084	1.7436283	1.3204652
34.567590698290104	1.8003368	1.3417664
34.58594675218336	1.8433386	1.357696
34.6043037215585	1.8343015	1.3543639
34.62266160702365	1.8956792	1.3768367
34.641020409187234	1.9962753	1.412896
34.65938012865785	2.1425283	1.4637377
34.677740766044394	2.2252212	1.4917176
34.69610232195598	2.2109282	1.486919
34.714464797002016	2.0625658	1.4361635
34.73282819179208	1.8160043	1.347592
34.751192506936064	1.7169268	1.3103155
34.76955774304408	1.7954094	1.3399289
34.7879239007265	1.7841904	1.3357359
34.80629098059391	1.7543889	1.3245335
34.824658983257194	1.8530061	1.3612517
34.843027909327446	1.9464799	1.395163
34.86139775941603	2.0192144	1.4209906
34.879768534134534	2.0116153	1.4183142
34.89814023409483	1.9490228	1.396074
34.91651285990901	1.861438	1.3643453
34.93488641218944	1.7864275	1.336573
34.95326089154871	1.9198232	1.3855768
34.97163629859967	2.0477448	1.4309943
34.99001263395542	2.1025026	1.4500009
35.00838989822934	2.0441916	1.4297522
35.02676809203499	2.121578	1.4565637
35.04514721598624	2.0300634	1.4248029
35.063527270697215	1.8992003	1.3781148
35.081908256782256	1.712559	1.3086478
35.10029017485597	1.882	1.37186
35.11867302553321	2.043071	1.4293604
35.137056809429104	1.868576	1.3669587
35.155441527159006	1.9997332	1.4141192
35.173827179338524	2.0150123	1.4195113
35.19221376658354	1.787813	1.3370912
35.21060128951017	1.597219	1.2638113
35.2289897487348	1.6451633	1.2826391
35.24737914487405	1.7381545	1.3183908
35.26576947854479	1.7040279	1.3053842
35.28416075036418	1.7538238	1.3243201
35.30255296094958	1.9369682	1.3917501
35.32094611091867	2.12576	1.4579986
35.33934020088932	2.063684	1.4365528
35.35773523147969	1.990039	1.4106874
35.3761312033082	2.2228577	1.4909251
35.394528116993506	2.3328269	1.5273595
35.41292597315452	2.1176445	1.4552128
35.431324772410434	2.0473874	1.4308695
35.449724515380666	2.1605456	1.4698794
35.46812520268491	2.1730356	1.4741219
35.486526834943106	2.0269973	1.4237266
35.504929412775454	1.8773621	1.3701687
35.52333293680242	1.8507293	1.3604151
35.54173740764471	1.7375419	1.3181585
35.560142825923286	1.8661731	1.3660794
35.5785491922594	1.4950937	1.2227403
35.59695650727454	0.95075685	0.9750676
35.61536477159042	0.07488645	0.2736539
