0.008763373481513119	0.051685803	0.22734512
0.026290120649546365	0.40915042	0.6396487
0.043816868432600686	0.36634898	0.6052677
0.06134361724069026	0.25287685	0.5028686
0.07887036748382949	0.13764052	0.37099937
0.0963971195720331	0.03539418	0.18813342
0.11392387391531617	0.10358123	0.32184038
0.1314506309236943	0.13182338	0.3630749
0.1489773910071836	0.123393044	0.35127345
0.16650415457580078	0.068407364	0.261548
0.18403092203956356	0.10647027	0.32629782
0.20155769380849	0.1679048	0.40976188
0.2190844702925996	0.25590917	0.50587463
0.2366112519019124	0.26591304	0.51566756
0.2541380390464497	0.19038324	0.43632928
0.27166483213623416	0.1777283	0.42157835
0.28919163158128947	0.09017234	0.3002871
0.3067184377916406	0.09541431	0.30889207
0.324245251177314	0.09208452	0.3034543
0.34177207214833777	0.13692574	0.37003478
0.3592989011147415	0.18369494	0.42859647
0.37682573848655654	0.192194	0.43839937
0.39435258467381573	0.18027756	0.42459103
0.41187944008655414	0.17470355	0.41797554
0.42940630513480854	0.1430886	0.37827054
0.446933180228618	0.13240965	0.36388135
0.4644600657780234	0.11425928	0.3380226
0.48198696219306775	0.18255274	0.42726192
0.49951386988379676	0.19490609	0.44148168
0.5170407892602581	0.1791617	0.42327496
0.5345677207325025	0.12678847	0.35607368
0.5520946647105822	0.11643539	0.3412263
0.5696216216045534	0.10424783	0.32287434
0.5871485918244737	0.13535401	0.3679049
0.6046755757804043	0.16426833	0.4053003
0.6222025738824094	0.19174391	0.43788573
0.6397295865405557	0.1943123	0.44080868
0.6572566141649129	0.22789091	0.4773792
0.6747836571655547	0.28680134	0.5355384
0.6923107159525568	0.28257355	0.53157645
0.7098377909359992	0.24294141	0.49289086
0.7273648825259653	0.20290194	0.4504464
0.7448919911325411	0.1703044	0.41267955
0.762419117165817	0.16436075	0.40541428
0.7799462610358868	0.14763497	0.38423297
0.7974734231528482	0.17779031	0.4216519
0.8150006039268024	0.18149655	0.4260241
0.8325278037678551	0.1994677	0.44661808
0.8500550230861152	0.21217741	0.4606272
0.8675822622916969	0.2590598	0.50897914
0.8851095217947171	0.25258693	0.5025803
0.9026368020052984	0.22108243	0.47019404
0.9201641033335665	0.20485257	0.4526064
0.9376914261896523	0.17804597	0.42195493
0.9552187709836915	0.1970749	0.4439312
0.9727461381258234	0.21986929	0.4689022
0.990273528026193	0.22778535	0.47726864
1.0078009410949496	0.21779603	0.46668622
1.0253283777422473	0.2240461	0.4733351
1.0428558383782454	0.2380758	0.48793012
1.0603833234131086	0.27459052	0.5240139
1.0779108332570058	0.31576568	0.5619303
1.0954383683201119	0.35052997	0.59205574
1.112965929012607	0.40845126	0.6391019
1.1304935157446763	0.5454714	0.7385603
1.1480211289265108	0.5510433	0.74232286
1.1655487689683062	1.2920316	1.1366757
1.1830764362802655	1.484781	1.2185159
1.200604131272596	1.9002233	1.3784858
1.2181318543555117	2.3452268	1.5314133
1.235659605939232	2.3924704	1.5467613
1.253187386433982	3.9424727	1.9855661
1.270715196249994	6.181519	2.4862661
1.2882430357975057	11.656974	3.414231
1.3057709054867608	16.540083	4.06695
1.3232988057280106	22.174835	4.7090163
1.3408267369315112	26.94339	5.1907024
1.358354699507526	30.821095	5.551675
1.3758826938663256	34.970272	5.9135666
1.3934107204181858	36.877697	6.072701
1.410938779573391	37.04396	6.0863748
1.4284668717422309	37.34995	6.1114607
1.4459949973350033	37.008038	6.083423
1.4635231567620117	37.11223	6.0919805
1.4810513504335687	36.38175	6.0317283
1.4985795787599925	35.862022	5.988491
1.5161078421516088	35.901726	5.991805
1.5336361410187505	35.394054	5.9492903
1.5511644757717598	35.182487	5.931483
1.5686928468209842	35.4859	5.9570045
1.58622125457678	35.99088	5.99924
1.6037496994495108	37.045307	6.0864854
1.621278181849548	36.523693	6.0434837
1.6388067021872719	37.181984	6.097703
1.6563352608730693	36.53927	6.044772
1.673863858317336	36.007893	6.0006576
1.6913924949304753	35.28515	5.94013
1.7089211711228998	34.093628	5.838975
1.7264498873050296	33.377483	5.777325
1.7439786438872935	32.51851	5.7025003
1.7615074412801288	31.675232	5.628075
1.779036279893981	30.906965	5.5594034
1.796565160139305	30.082745	5.484774
1.814094082426564	29.359915	5.418479
1.8316230471662298	28.926502	5.3783364
1.849152054768784	28.077915	5.2988596
1.8666811056447168	27.352442	5.229956
1.8842102002045273	26.3122	5.129542
1.901739338858724	25.718414	5.0713325
1.9192685220178245	25.109951	5.010983
1.9367977500923557	24.230906	4.9224896
1.9543270234928547	23.773884	4.875847
1.971856342629867	23.114454	4.8077493
1.9893857079139496	22.975641	4.793291
2.006915119755667	22.712267	4.765739
2.0244445785655945	22.494244	4.74281
2.0419740847543175	22.11543	4.7027044
2.0595036387324317	21.45914	4.632401
2.0770332409105414	20.75811	4.556107
2.094562891699263	20.0581	4.478627
2.1120925915092217	19.449818	4.410195
2.129622340751053	19.410715	4.4057593
2.1471521398354043	187.4983	13.693002
2.1646819891729323	444.07672	21.073128
2.182211889174303	440.41763	20.98613
2.1997418402501974	453.05234	21.285027
2.2172718428113023	432.92358	20.806816
2.234801897268317	320.79535	17.91076
2.2523320040319548	17.085535	4.1334653
2.269862163512935	16.858622	4.105925
2.287392376121992	16.43691	4.054246
2.304922642269869	16.09901	4.012357
2.322452962367322	15.702245	3.9626057
2.3399833368251164	15.223177	3.901689
2.357513766054032	15.0907755	3.8846848
2.3750442504648586	15.066551	3.8815656
2.3925747904683963	14.904797	3.8606732
2.410105386475459	14.700563	3.8341315
2.4276360388968707	14.171488	3.7645037
2.445166748143469	13.926998	3.7318892
2.4626975146261025	13.6013975	3.6880074
2.4802283387556323	13.53039	3.6783679
2.4977592209429305	13.328215	3.6507828
2.5152901615988825	13.161081	3.6278205
2.5328211611343865	12.929752	3.5957966
2.5503522199603523	12.71242	3.565448
2.5678833384877024	12.4902935	3.5341609
2.5854145171273712	12.240681	3.4986684
2.6029457562903064	11.926359	3.4534562
2.620477056387469	11.644357	3.4123828
2.6380084178298326	11.475249	3.3875136
2.655539841028383	11.567037	3.4010346
2.673071326394119	11.455998	3.3846712
2.6906028743380523	11.120443	3.3347328
2.708134485271211	10.747857	3.2783926
2.7256661596046325	10.518721	3.2432578
2.743197897749369	10.445327	3.231923
2.760729700116486	10.343763	3.2161722
2.778261567117063	10.242591	3.200405
2.795793499162193	10.175787	3.189951
2.8133254966629817	10.081976	3.1752126
2.830857560030551	9.857966	3.1397398
2.8483896896760337	9.6360235	3.1041944
2.865921886010578	9.505232	3.0830555
2.883454149445347	9.40559	3.0668535
2.9009864803915177	9.354459	3.058506
2.91851887926028	9.249189	3.041248
2.9360513464628384	9.050367	3.0083828
2.953583882410413	8.838251	2.9729197
2.9711164875142373	8.764677	2.9605198
2.9886491621855606	8.866947	2.977742
3.0061819068356455	8.835512	2.9724588
3.023714721875769	8.727313	2.9542027
3.041247607717225	8.606221	2.9336362
3.0587805647713213	8.46818	2.9100137
3.0763135934493806	8.40976	2.8999586
3.0938466941627407	8.167709	2.8579204
3.1113798673227544	7.99421	2.8274033
3.1289131133407904	7.7221785	2.7788808
3.1464464326282315	7.5907707	2.7551353
3.1639798255964786	7.5268703	2.7435143
3.1815132926569443	7.5711856	2.7515788
3.1990468342210603	7.521909	2.74261
3.216580450700272	7.4595566	2.7312188
3.2341141425060416	7.455987	2.7305653
3.251647910049847	7.409601	2.7220583
3.2691817537431813	7.260019	2.6944423
3.286715673997555	7.15183	2.6742907
3.3042496712244938	7.158751	2.6755843
3.32178374583554	7.1942787	2.6822152
3.339317898242251	7.039059	2.6531224
3.3568521288562034	6.9208565	2.630752
3.3743864380889876	6.733486	2.594896
3.3919208263522127	6.6820126	2.5849588
3.4094552940575023	6.5883713	2.5667822
3.4269898416164972	6.614383	2.5718443
3.444524469440858	6.5218387	2.5537891
3.4620591779422587	6.4741693	2.5444388
3.479593967532391	6.513801	2.5522149
3.4971288386229658	6.4482946	2.5393493
3.5146637916257086	6.4186144	2.5334985
3.5321988269523628	6.2872624	2.5074415
3.5497339450146903	6.1445723	2.4788249
3.5672691462244708	6.066652	2.4630575
3.5848044309934988	6.091653	2.4681275
3.60233979973359	6.159945	2.4819236
3.619875252856575	6.0940156	2.468606
3.6374107907743034	6.0311103	2.455832
3.6549464138986427	6.03209	2.4560313
3.6724821226414788	6.100506	2.4699202
3.690017917414714	6.202409	2.4904635
3.7075537986302702	6.296066	2.5091963
3.7250897667000857	6.370644	2.5240135
3.7426258220361235	6.5320797	2.5557933
3.7601619650503553	6.7230244	2.5928795
3.777698196154779	7.2376456	2.6902874
3.7952345157614067	8.186095	2.8611352
3.8127709242822716	8.993126	2.9988542
3.830307422129425	11.205005	3.3473878
3.847844009714936	30.029266	5.4798965
3.8653806874508954	97.65915	9.882264
3.882917455749409	96.915184	9.844551
3.900454315022606	96.699	9.833565
3.917991265682631	41.212822	6.419721
3.9355283081416506	10.917437	3.3041544
3.9530654428118495	8.762821	2.9602063
3.970602670105433	7.583405	2.7537982
3.9881399904346244	6.6640444	2.581481
4.005677404211669	6.5867424	2.566465
4.023214911848827	6.481655	2.5459094
4.0407525137583855	6.407455	2.531295
4.058290210352644	6.371002	2.5240843
4.075828002043927	6.240807	2.4981608
4.0933658892445814	6.2460866	2.4992173
4.110903872366966	6.1582727	2.4815867
4.128441951823468	6.0836678	2.4665093
4.145980128026488	6.047863	2.4592404
4.163518401388452	5.9906087	2.447572
4.181056772321807	6.061787	2.4620697
4.1985952412390155	6.1318254	2.4762523
4.216133808552567	6.1352315	2.47694
4.233672474674966	6.1543922	2.4808047
4.251211240018741	6.372055	2.524293
4.268750104996445	6.6498938	2.5787387
4.286289070020643	7.640974	2.7642312
4.303828135503928	9.310576	3.0513237
4.3213673018589125	29.614933	5.4419603
4.3389065694982305	90.72059	9.524735
4.356445938834537	165.79237	12.876039
4.3739854102805085	171.45953	13.094255
4.391524984248844	172.24336	13.124152
4.409064661152262	136.30627	11.675028
4.426604441403504	96.668495	9.832014
4.444144325415337	75.5606	8.69256
4.461684313600543	21.572523	4.644623
4.47922440637193	21.750278	4.663719
4.496764604142329	20.0125	4.473533
4.5143049073245916	18.335926	4.282047
4.531845316331589	16.252382	4.0314245
4.5493858315762195	13.53565	3.6790829
4.566926453471405	11.275797	3.3579454
4.584467182430081	9.349519	3.0576982
4.602008018865218	8.254078	2.872991
4.619548963189798	7.4502807	2.7295203
4.637090015816834	7.018949	2.64933
4.654631177159353	6.904891	2.6277158
4.672172447630417	6.6301746	2.5749125
4.689713827643102	6.335909	2.5171232
4.7072553176105085	5.9663496	2.4426112
4.724796917945764	5.8385534	2.4163098
4.742338629062015	5.7030773	2.3881116
4.759880451372434	5.7046614	2.3884432
4.777422385290215	5.717567	2.3911436
4.794964431228581	5.669407	2.3810515
4.812506589600768	5.6021395	2.366884
4.830048860820047	5.5347724	2.3526096
4.847591245299709	5.595263	2.3654308
4.8651337434530655	5.575997	2.3613548
4.882676355693457	5.5722237	2.360556
4.900219082434242	5.49022	2.3431218
4.917761924088813	5.508096	2.3469334
4.935304881070575	5.462456	2.33719
4.952847953792969	5.4243507	2.3290236
4.970391142669449	5.366304	2.3165283
4.9879344481135055	5.431295	2.330514
5.005477870538642	5.3757	2.3185556
5.023021410358394	5.358545	2.3148532
5.040565067986324	5.3765893	2.3187473
5.05810884383601	5.371978	2.3177528
5.075652738321066	5.3556604	2.31423
5.09319675185512	5.2539525	2.2921503
5.110740884851836	5.2251916	2.2858677
5.128285137724894	5.245747	2.2903595
5.145829510888007	5.2847886	2.2988667
5.163374004754908	5.3532023	2.3136988
5.1809186197393595	5.344158	2.3117435
5.198463356255145	5.327316	2.3080978
5.216008214716077	5.2876096	2.2994802
5.233553195535998	5.2940264	2.3008752
5.251098299128764	5.24056	2.289227
5.268643525908272	5.1670623	2.2731173
5.286188876288432	5.119306	2.2625883
5.3037343506831895	5.1000333	2.2583253
5.32127994950651	5.099257	2.2581534
5.3388256731723915	5.180369	2.2760425
5.356371522094851	5.2540064	2.292162
5.373917496687938	5.2620425	2.2939143
5.391463597365729	5.1682973	2.2733889
5.40900982454232	5.144254	2.2680948
5.426556178631843	5.1433554	2.2678967
5.444102660048449	5.1690435	2.2735531
5.4616492692063225	5.1574073	2.2709925
5.479196006519669	5.178613	2.2756567
5.496742872402727	5.1604223	2.2716563
5.514289867269756	5.1863403	2.2773538
5.531836991535049	5.2349668	2.2880049
5.549384245612924	5.224927	2.28581
5.566931629917724	5.2020936	2.2808099
5.584479144863822	5.175017	2.2748663
5.6020267908656205	5.078068	2.2534568
5.619574568337545	5.0110416	2.2385356
5.637122477694054	4.8879747	2.2108765
5.654670519349629	4.9259863	2.2194562
5.672218693718784	4.956272	2.2262688
5.689767001216059	5.035557	2.2440047
5.707315442256021	5.0366178	2.244241
5.724864017253266	5.0677943	2.251176
5.7424127266224225	5.0190973	2.2403343
5.75996157077814	5.019347	2.24039
5.777510550135105	5.057974	2.2489939
5.795059665108022	5.1096296	2.260449
5.812608916111639	5.118636	2.2624402
5.830158303560715	5.243781	2.2899303
5.847707827870055	5.2487283	2.2910104
5.86525748945448	5.2829447	2.2984657
5.8828072887288485	5.4070206	2.3253002
5.900357226108044	5.4761224	2.3401117
5.917907302006979	5.5419188	2.3541281
5.9354575168406	6.145116	2.4789345
5.9530078710238765	6.662001	2.5810852
5.970558364971812	7.1697307	2.6776352
5.988108999099438	7.447729	2.7290528
6.005659773821818	7.9538584	2.8202586
6.023210689554039	7.780143	2.7892907
6.040761746711227	8.042453	2.8359218
6.058312945708531	7.4467335	2.7288704
6.075864286961132	6.995107	2.6448264
6.093415770884244	6.4785366	2.545297
6.1109673978931065	6.0412908	2.4579036
6.128519168402993	5.5257215	2.3506854
6.146071082829204	5.348926	2.3127744
6.163623141587075	5.239115	2.2889113
6.181175345091969	5.1554317	2.2705576
6.198727693759281	5.1490617	2.2691543
6.216280188004435	5.1495924	2.2692714
6.233832828242885	5.1528525	2.2699895
6.251385614890126	5.151962	2.2697933
6.268938548361669	5.1204486	2.2628407
6.286491629073067	5.024312	2.2414978
6.304044857439898	5.0111938	2.2385695
6.321598233877777	5.0437994	2.2458405
6.339151758802344	5.0290475	2.2425537
6.356705432629277	5.016975	2.2398605
6.37425925577428	4.9309125	2.2205658
6.391813228653095	4.8729796	2.2074826
6.409367351681486	4.83825	2.1996024
6.426921625275259	4.8125615	2.1937551
6.44447604985025	4.821532	2.1957986
6.46203062582232	4.848501	2.2019312
6.47958535360737	4.9474063	2.2242765
6.497140233621328	4.9856653	2.2328603
6.514695266280161	4.9566536	2.2263544
6.532250451999859	4.955371	2.2260664
6.549805791196454	4.967428	2.2287729
6.567361284286002	4.966571	2.2285805
6.584916931684597	4.9711742	2.229613
6.602472733808367	4.917873	2.2176278
6.6200286910734665	4.957462	2.2265358
6.637584803896092	4.9049	2.214701
6.655141072692462	4.9252276	2.2192855
6.672697497878842	4.9524274	2.225405
6.690254079871514	4.993654	2.2346485
6.707810819086808	4.9976735	2.2355478
6.725367715941078	4.9676185	2.2288156
6.742924770850719	4.9498224	2.2248197
6.760481984232151	4.9363394	2.2217875
6.778039356501836	4.919819	2.2180665
6.795596888076266	5.0160317	2.23965
6.813154579371963	5.04713	2.2465818
6.830712430805492	5.0103717	2.238386
6.84827044279344	4.9533005	2.2256012
6.865828615752445	4.9085984	2.2155356
6.883386950099159	4.9329214	2.221018
6.900945446250287	4.9461637	2.223997
6.918504104622553	4.952617	2.2254477
6.936062925632727	5.0103416	2.2383792
6.953621909697607	5.0093837	2.2381651
6.971181057234028	5.07877	2.2536128
6.988740368658859	5.043078	2.2456799
7.006299844389007	5.109945	2.2605188
7.023859484841407	5.192303	2.2786627
7.041419290433036	5.2568316	2.2927783
7.058979261580902	5.3936634	2.322426
7.0765393987020495	5.6553183	2.3780913
7.094099702213559	6.106922	2.4712188
7.111660172532549	6.4401097	2.5377371
7.129220810076164	6.776894	2.603247
7.146781615261595	7.387441	2.7179847
7.16434258850606	7.6697564	2.7694325
7.181903730226821	8.1329155	2.8518267
7.1994650408411704	8.225776	2.8680613
7.217026520766437	8.234525	2.8695862
7.234588170419983	8.470384	2.9103923
7.252149990219215	8.44561	2.9061332
7.269711980581568	8.283278	2.8780684
7.2872741419245175	7.970401	2.8231897
7.304836474665574	7.566614	2.750748
7.322398979222286	7.3853393	2.717598
7.339961656012233	7.1540813	2.6747115
7.357524505453039	6.7979984	2.6072972
7.375087527962357	6.4650035	2.542637
7.392650723957886	6.204191	2.4908214
7.410214093857353	5.914812	2.4320388
7.427777638078528	5.7137537	2.390346
7.445341357039213	5.4221263	2.328546
7.4629052511572525	5.2249017	2.2858043
7.480469320850524	5.1533756	2.2701046
7.498033566536948	5.2345505	2.287914
7.5155979886344735	5.226499	2.2861538
7.5331625875610975	5.1556625	2.2706084
7.550727363734844	5.0681133	2.2512472
7.568292317573788	5.039504	2.244884
7.585857449496025	5.106808	2.2598248
7.603422759919705	5.1828203	2.2765808
7.620988249263007	5.1990457	2.2801416
7.638553917944147	5.1993766	2.280214
7.656119766381391	5.1769886	2.2752998
7.673685794993023	5.1254454	2.2639446
7.691252004197388	5.101771	2.25871
7.70881839441285	5.093124	2.2567952
7.726384966057826	5.1011343	2.258569
7.743951719550762	5.1399455	2.2671447
7.761518655310149	5.1414957	2.2674866
7.779085773754511	5.165444	2.2727613
7.796653075302419	5.1629934	2.272222
7.814220560372475	5.1827106	2.2765567
7.831788229383323	5.1885085	2.27783
7.8493560827536495	5.2543883	2.2922451
7.866924120902174	5.2915587	2.3003387
7.884492344247663	5.3665824	2.3165886
7.9020607532089135	5.376416	2.31871
7.919629348204771	5.284684	2.298844
7.937198129654115	5.2901864	2.3000405
7.954767097975865	5.2977076	2.3016748
7.972336253588986	5.3221116	2.3069701
7.989905596912472	5.4000006	2.32379
8.007475128365371	5.4378023	2.3319097
8.025044848366756	5.472827	2.3394074
8.042614757335754	5.5621414	2.3584192
8.060184855691523	5.5806284	2.3623354
8.07775514385327	5.733026	2.394374
8.095325622240228	5.7971134	2.4077196
8.112896291271687	5.8910756	2.4271538
8.130467151366968	6.0090604	2.4513385
8.148038202945436	6.0367703	2.456984
8.165609446426497	6.0386863	2.4573739
8.183180882229594	6.0227475	2.4541287
8.200752510774217	5.9744964	2.4442782
8.218324332479893	5.862638	2.4212885
8.235896347766193	5.866339	2.4220526
8.253468557052724	5.8585134	2.4204366
8.27104096075914	5.953948	2.4400713
8.288613559305137	6.039015	2.4574406
8.306186353110448	6.1146913	2.4727902
8.32375934259485	6.1955457	2.4890852
8.341332528178162	6.1900144	2.487974
8.358905910280246	6.2213016	2.4942536
8.376479489321003	6.130311	2.4759464
8.394053265720377	6.1937413	2.4887228
8.411627239898356	6.236202	2.4972389
8.42920141227497	6.2893076	2.5078492
8.44677578327029	6.2437634	2.4987524
8.464350353304427	6.138264	2.477552
8.48192512279754	6.0857043	2.466922
8.499500092169827	6.074018	2.4645524
8.51707526184153	6.100417	2.4699023
8.534650632232934	6.170281	2.484005
8.552226203764365	6.1240664	2.4746852
8.569801976856192	6.1207824	2.4740214
8.587377951928834	6.1063395	2.4711008
8.60495412940274	6.114437	2.4727387
8.622530509698416	6.1354113	2.4769762
8.6401070932364	6.2977858	2.509539
8.657683880437283	6.427595	2.5352702
8.675260871721695	6.6058917	2.5701928
8.692838067510303	6.747956	2.5976827
8.710415468223834	6.8101344	2.6096234
8.727993074283043	6.9909377	2.6440382
8.745570886108737	6.9805818	2.642079
8.763148904121765	7.157561	2.6753619
8.78072712874302	7.2383223	2.690413
8.798305560393441	7.50952	2.7403502
8.815884199494006	7.590339	2.755057
8.833463046465745	7.7537436	2.7845545
8.851042101729728	7.88068	2.8072548
8.86862136570707	8.134596	2.8521214
8.886200838818924	8.283038	2.8780267
8.903780521486505	8.347021	2.889121
8.921360414131055	8.378008	2.8944788
8.938940517173874	8.460073	2.9086206
8.956520831036297	8.534278	2.9213486
8.97410135613971	8.747507	2.9576185
8.99168209290554	8.941284	2.9901981
9.009263041755265	9.2129	3.035276
9.026844203110405	9.598582	3.098158
9.044425577392525	9.855762	3.1393888
9.062007165023239	9.995799	3.1616135
9.079588966424197	10.20931	3.195201
9.097170982017108	10.2302265	3.1984725
9.11475321222372	11.131591	3.3364038
9.132335657465825	11.968477	3.4595487
9.149918318165264	12.096976	3.4780707
9.167501194743924	12.575823	3.5462406
9.18508428762374	12.281072	3.504436
9.202667597226693	12.178634	3.48979
9.220251123974803	11.845655	3.4417517
9.237834868290143	11.534907	3.396308
9.255418830594836	11.375407	3.3727448
9.273003011311046	10.884212	3.2991228
9.290587410860985	10.727767	3.275327
9.308172029666911	10.183278	3.191125
9.32575686815113	9.910968	3.148169
9.343341926735997	8.747691	2.9576497
9.360927205843916	8.488954	2.913581
9.378512705897327	8.290807	2.8793762
9.396098427318728	8.100842	2.8461978
9.413684370530664	8.007011	2.8296664
9.431270535955722	7.9223027	2.8146586
9.448856924016539	7.780441	2.789344
9.466443535135806	7.574569	2.7521935
9.484030369736251	7.5131454	2.7410119
9.501617428240658	7.458325	2.7309935
9.519204711071852	7.544792	2.7467785
9.536792218652714	7.591822	2.755326
9.55437995140617	7.687819	2.7726917
9.571967909755191	7.754906	2.7847633
9.589556094122802	7.895618	2.809914
9.60714450493207	8.031317	2.8339577
9.624733142606116	7.9638295	2.8220258
9.642322007568108	7.8875256	2.8084738
9.659911100241267	7.891836	2.8092413
9.677500421048851	8.040305	2.8355432
9.695089970414175	8.0239935	2.8326654
9.712679748760609	8.014682	2.8310213
9.730269756511557	7.927203	2.8155289
9.747859994090492	7.919407	2.8141441
9.765450461920915	7.992992	2.827188
9.78304116042639	8.096402	2.8454177
9.800632090030527	8.162611	2.8570282
9.81822325115699	8.175688	2.8593159
9.835814644229481	8.180628	2.8601797
9.853406269671762	8.205368	2.8645015
9.870998127907646	8.26133	2.8742528
9.888590219360985	8.314169	2.88343
9.906182544455698	8.267788	2.8753762
9.923775103615734	8.244002	2.871237
9.941367897265108	8.26508	2.8749053
9.958960925827878	8.274379	2.876522
9.97655418972816	8.263084	2.8745582
9.994147689390106	8.240254	2.8705842
10.011741425237934	8.292634	2.8796933
10.029335397695904	8.321926	2.884775
10.04692960718833	8.281476	2.8777554
10.06452405413958	8.245043	2.8714182
10.082118738974064	8.160528	2.8566637
10.099713662116246	8.104941	2.8469179
10.117308823990651	8.084387	2.8433056
10.134904225021844	8.130715	2.851441
10.152499865634445	8.204543	2.8643575
10.170095746253125	8.185273	2.8609917
10.18769186730261	8.138795	2.8528574
10.205288229207675	8.099655	2.8459892
10.222884832393145	8.062515	2.8394568
10.2404816772839	8.051084	2.837443
10.258078764304868	8.085043	2.843421
10.275676093881035	8.110818	2.8479497
10.293273666437438	8.201208	2.8637753
10.310871482399158	8.2040205	2.8642662
10.32846954219134	8.095018	2.8451746
10.346067846239173	8.10837	2.8475199
10.363666394967908	8.089969	2.844287
10.38126518880283	8.0709505	2.840942
10.398864228169298	7.9979367	2.8280623
10.416463513492713	7.975308	2.8240588
10.434063045198531	8.033735	2.8343844
10.451662823712262	8.075572	2.8417552
10.469262849459467	8.080991	2.8427083
10.486863122865758	7.9964957	2.8278077
10.504463644356806	8.044872	2.8363483
10.522064414358338	8.020047	2.8319688
10.539665433296118	7.9859576	2.8259437
10.557266701595987	7.8879476	2.808549
10.574868219683818	7.769601	2.7874005
10.592469987985552	7.7146573	2.777527
10.610072006927185	7.5250096	2.743175
10.627674276934751	7.4112315	2.7223577
10.64527679843435	7.333257	2.7079988
10.662879571852143	7.2696667	2.6962318
10.680482597614331	7.199093	2.6831126
10.698085876147173	7.061491	2.6573467
10.715689407876988	6.9192405	2.630445
10.733293193230146	6.8359537	2.6145656
10.750897232633072	6.7218843	2.5926597
10.76850152651225	6.660008	2.5806992
10.786106075294207	6.537809	2.5569139
10.803710879405534	6.3625326	2.522406
10.821315939272877	6.225286	2.4950523
10.83892125532294	6.177284	2.4854143
10.856526827982472	6.1573286	2.4813964
10.874132657678285	6.1961217	2.489201
10.891738744837243	6.1305785	2.4760005
10.909345089886271	6.067222	2.4631732
10.926951693252343	6.013992	2.4523442
10.944558555362494	5.934328	2.4360476
10.96216567664381	5.866267	2.4220378
10.979773057523436	5.78163	2.4045022
10.997380698428573	5.7393603	2.3956962
11.014988599786477	5.7869105	2.4055998
11.032596762024461	5.7793756	2.4040332
11.050205185569892	5.7414227	2.3961265
11.067813870850198	5.6420703	2.3753042
11.085422818292859	5.5548577	2.3568745
11.10303202832541	5.485928	2.3422058
11.120641501375454	5.3965397	2.3230453
11.138251237870636	5.3039303	2.3030264
11.155861238238671	5.261293	2.2937508
11.173471502907317	5.168171	2.2733612
11.191082032304402	5.161294	2.2718482
11.208692826857805	5.114711	2.2615726
11.226303886995465	5.083716	2.2547097
11.243915213145371	5.007084	2.2376513
11.261526805735578	4.8919435	2.2117739
11.279138665194196	4.7597947	2.1816955
11.296750791949393	4.7388406	2.1768878
11.314363186429393	4.719896	2.172532
11.331975849062479	4.7567253	2.180992
11.34958878027699	4.7358794	2.1762075
11.36720198050133	4.6742005	2.16199
11.384815450163948	4.5983815	2.1443837
11.402429189693366	4.48041	2.116698
11.420043199518153	4.440183	2.1071742
11.437657480066942	63.40443	7.96269
11.455272031768422	85.134056	9.226811
11.472886855051353	107.52009	10.369189
11.490501950344528	99.10597	9.955198
11.508117318076819	84.46034	9.19023
11.52573295867715	45.84874	6.7711697
11.543348872574514	4.1259913	2.0312536
11.560965060197946	4.0818396	2.0203562
11.57858152197655	4.057202	2.0142498
11.59619825833949	4.0134077	2.003349
11.613815269715985	3.985432	1.9963547
11.631432556535323	38.473976	6.2027392
11.649050119226837	83.03154	9.1121645
11.666667958219929	93.42439	9.665629
11.68428607394406	107.68982	10.377371
11.701904466828756	82.52019	9.084063
11.719523137303586	65.38501	8.0861
11.737142085798196	4.585163	2.1412995
11.754761312742286	3.7406907	1.9340866
11.772380818565619	3.680836	1.9185505
11.790000603698015	3.639551	1.9077607
11.80762066856935	3.5478084	1.8835627
11.825241013609572	3.521937	1.8766824
11.842861639248683	3.495177	1.8695393
11.860482545916748	3.4446726	1.8559829
11.878103734043883	3.3604395	1.8331501
11.895725204060282	3.3522265	1.8309087
11.91334695639619	3.3761494	1.8374301
11.930968991481919	3.4228122	1.8500844
11.948591309747824	3.374281	1.8369216
11.966213911624347	3.3472638	1.8295529
11.98383679754198	3.3266976	1.8239237
12.001459967931268	3.2958522	1.8154482
12.019083423222835	3.2422276	1.8006186
12.036707163847352	3.2422578	1.8006271
12.05433119023556	3.2360344	1.7988981
12.071955502818259	3.2089276	1.791348
12.089580102026313	3.150015	1.7748282
12.107204988290643	3.1037195	1.7617376
12.12483016204224	3.0923154	1.7584981
12.142455623712152	3.1130106	1.7643726
12.16008137373149	3.070375	1.7522485
12.177707412531431	3.0319984	1.7412634
12.19533374054321	3.0114498	1.735353
12.212960358198126	3.018244	1.7373095
12.230587265927545	3.0059576	1.7337698
12.248214464162889	2.9918606	1.7296996
12.265841953335649	2.9958453	1.730851
12.283469733877375	2.9702919	1.7234535
12.301097806219685	2.9791193	1.7260126
12.31872617079425	2.9604828	1.7206054
12.336354828032825	2.9296024	1.7116082
12.353983778367205	2.8627083	1.691954
12.371613022229262	2.842842	1.686073
12.389242560050928	2.8437834	1.6863521
12.406872392264201	2.856296	1.690058
12.424502519301143	2.838797	1.684873
12.442132941593874	2.79832	1.672818
12.459763659574586	2.792323	1.6710246
12.477394673675532	2.8030586	1.6742338
12.49502598432903	2.8201535	1.6793313
12.51265759196746	2.8418941	1.6857919
12.530289497023267	2.820808	1.6795261
12.547921699928967	2.7934318	1.6713563
12.565554201117134	2.755513	1.6599737
12.583187001020404	2.7256782	1.6509628
12.600820100071486	2.7239976	1.6504538
12.618453498703152	2.72306	1.6501696
12.636087197348235	2.7025166	1.6439333
12.65372119643964	2.6968737	1.6422161
12.671355496410326	2.7821932	1.6679908
12.68899009769333	2.8292887	1.6820489
12.706625000721749	2.862419	1.6918684
12.724260205928752	2.888514	1.6995629
12.741895713747551	2.8913388	1.7003937
12.759531524611454	2.9264467	1.710686
12.777167638953818	2.89351	1.701032
12.794804057208072	2.9167564	1.7078514
12.812440779807702	2.9894965	1.7290161
12.830077807186271	3.1650999	1.7790728
12.847715139777405	3.2220845	1.7950165
12.865352778014795	3.384549	1.8397144
12.882990722332197	3.502336	1.8714529
12.90062897316344	3.584632	1.8933125
12.918267530942412	3.6855526	1.9197793
12.935906396103071	3.5769374	1.8912793
12.953545569079449	3.7383354	1.9334775
12.971185050305628	3.5627196	1.8875167
12.988824840215775	3.5803964	1.8921936
13.006464939244115	3.5725474	1.8901184
13.024105347824943	3.4456713	1.856252
13.041746066392617	3.5065615	1.8725815
13.05938709538157	3.2945175	1.8150805
13.077028435226296	3.2844427	1.8123032
13.094670086361363	3.1704323	1.7805707
13.112312049221401	3.1137013	1.7645683
13.129954324241112	3.0334024	1.7416666
13.147596911855258	2.864834	1.6925821
13.165239812498685	2.8619287	1.6917236
13.182883026606293	2.7865431	1.6692942
13.200526554613058	2.7377608	1.654618
13.218170396954017	2.7036638	1.6442821
13.235814554064284	2.7099428	1.6461904
13.253459026379034	2.6950953	1.6416745
13.271103814333523	2.6618962	1.6315318
13.288748918363058	2.6742802	1.6353227
13.306394338903031	2.6859953	1.6389006
13.32404007638889	2.677037	1.6361654
13.341686131256164	2.700683	1.6433755
13.359332503940449	2.6789346	1.6367451
13.376979194877402	2.6798425	1.6370225
13.394626204502751	2.6977417	1.6424804
13.412273533252307	2.7040584	1.6444021
13.429921181561937	2.7101746	1.6462607
13.447569149867581	2.6951246	1.6416835
13.465217438605247	2.7052794	1.6447734
13.482866048211022	2.6698534	1.6339686
13.500514979121052	2.6935847	1.6412144
13.518164231771568	2.6726232	1.6348159
13.535813806598844	2.6783056	1.6365529
13.553463704039254	2.6889534	1.6398028
13.571113924529229	2.696752	1.642179
13.588764468505275	2.7179794	1.6486295
13.606415336403956	2.707774	1.6455315
13.624066528661917	2.693441	1.6411706
13.641718045715882	2.7297647	1.6522
13.659369888002635	2.7708833	1.664597
13.67702205595903	2.8532712	1.6891629
13.694674550021993	2.9440007	1.7158091
13.712327370628532	3.0197456	1.7377415
13.729980518215713	3.0916226	1.758301
13.747633993220681	3.1515832	1.7752699
13.765287796080647	3.2042005	1.7900281
13.7829419272329	3.2908783	1.8140779
13.800596387114801	3.3054008	1.8180761
13.818251176163775	3.3123724	1.8199924
13.835906294817324	3.3684454	1.8353325
13.853561743513023	3.407298	1.8458868
13.871217522688525	3.469073	1.8625448
13.888873632781538	3.4727397	1.8635288
13.906530074229858	3.507945	1.8729509
13.92418684747135	3.5170987	1.8753929
13.941843952943948	3.4875379	1.8674951
13.959501391085665	3.4309096	1.8522714
13.977159162334578	3.361175	1.8333508
13.994817267128846	3.3114233	1.8197317
14.012475705906693	3.2561219	1.8044727
14.030134479106424	3.176342	1.7822295
14.047793587166414	3.1056004	1.7622714
14.065453030525108	3.0280232	1.7401216
14.083112809621026	2.960717	1.7206734
14.100772924892766	2.8974133	1.702179
14.118433376778997	2.8781893	1.6965227
14.136094165718458	2.792459	1.6710652
14.153755292149969	2.7513254	1.6587119
14.171416756512416	2.6814272	1.6375064
14.189078559244768	2.6570752	1.6300538
14.20674070078606	2.5777278	1.6055304
14.224403181575408	2.540469	1.5938848
14.242066002051999	2.5254796	1.5891757
14.259729162655093	2.5136971	1.5854644
14.277392663824022	2.4666433	1.5705551
14.295056505998208	2.4349315	1.5604267
14.312720689617128	2.3913665	1.5464044
14.330385215120348	2.3841155	1.5440581
14.348050082947497	2.3738394	1.5407269
14.3657152935383	2.317659	1.522386
14.383380847332528	2.2893972	1.5130755
14.401046744770051	2.2895353	1.513121
14.418712986290798	2.3213499	1.5235977
14.436379572334793	2.3703012	1.5395783
14.454046503342123	2.3865159	1.5448352
14.471713779752946	2.4277384	1.5581201
14.489381402007504	2.4077003	1.5516766
14.507049370546113	2.3884797	1.5454707
14.524717685809168	2.3682528	1.5389129
14.542386348237134	2.352683	1.5338459
14.560055358270553	2.371368	1.5399246
14.577724716350051	2.3940504	1.547272
14.595394422916325	2.3888185	1.5455803
14.61306447841015	2.408895	1.5520616
14.63073488327237	2.3986533	1.5487586
14.648405637943917	2.4480555	1.5646263
14.6660767428658	2.4684415	1.5711274
14.683748198479094	2.4950793	1.579582
14.701420005224954	2.5019794	1.5817646
14.719092163544628	2.6019113	1.6130441
14.73676467387942	2.682039	1.6376932
14.754437536670727	2.7434547	1.6563377
14.772110752360014	2.7232134	1.6502162
14.78978432138882	2.661011	1.6312605
14.807458244198777	2.6508107	1.628131
14.82513252123159	2.6462038	1.6267157
14.842807152929028	2.669669	1.6339122
14.860482139732962	2.6498163	1.6278256
14.87815748208531	2.6122007	1.6162304
14.8958331804281	2.6388884	1.6244656
14.91350923520342	2.6122139	1.6162344
14.931185646853438	2.645397	1.6264676
14.948862415820408	2.6267745	1.6207327
14.966539542546656	2.62882	1.6213636
14.98421702747459	2.6109693	1.6158494
15.001894871046696	2.609557	1.6154124
15.019573073705542	2.6046364	1.6138886
15.037251635893766	2.6114607	1.6160015
15.054930558054092	2.6313155	1.622133
15.072609840629323	2.7001426	1.6432111
15.090289484062351	2.8838882	1.6982014
15.107969488796124	3.22743	1.796505
15.125649855273691	3.6820626	1.9188701
15.14333058393817	4.1599493	2.0395954
15.161011675232768	5.092567	2.2566717
15.17869312960076	6.4697757	2.5435753
15.196374947485506	8.334064	2.8868778
15.214057129330447	11.329607	3.3659482
15.231739675579114	15.776037	3.971906
15.249422586675102	20.5929	4.53794
15.267105863062092	23.437683	4.841248
15.284789505183847	23.581553	4.856084
15.302473513484218	21.386593	4.624564
15.320157888407127	17.920546	4.2332664
15.337842630396578	13.940504	3.7336984
15.355527739896656	10.93394	3.3066509
15.37321321735153	8.584299	2.9298975
15.39089906320545	6.339316	2.5177999
15.408585277902748	4.7957554	2.1899214
15.42627186188783	3.7085936	1.9257709
15.443958815605198	3.2511315	1.8030895
15.461646139499424	2.9647427	1.7218428
15.479333834015168	2.835329	1.6838435
15.497021899597165	2.7481055	1.6577411
15.514710336690234	2.6746562	1.6354376
15.53239914573928	2.5887542	1.6089606
15.550088327189297	2.527833	1.589916
15.567777881485336	2.498485	1.5806597
15.58546780907256	2.4801939	1.5748631
15.6031581103962	2.4537435	1.566443
15.620848785901568	2.4181042	1.5550255
15.638539836034063	2.4068222	1.5513936
15.656231261239173	2.398709	1.5487766
15.673923061962451	2.4043686	1.5506027
15.691615238649552	2.4183774	1.5551133
15.709307791746202	2.395594	1.5477706
15.727000721698221	2.3969316	1.5482028
15.744694028951498	2.386557	1.5448486
15.76238771395202	2.3665924	1.5383734
15.780081777145844	2.3604224	1.5363666
15.797776218979125	2.371213	1.5398743
15.815471039898094	2.3685129	1.5389974
15.833166240349064	2.3769667	1.5417415
15.850861820778437	2.3695543	1.5393356
15.868557781632699	2.349693	1.5328709
15.886254123358412	2.3298116	1.5263721
15.903950846402232	2.3177903	1.5224291
15.921647951210897	2.3041177	1.517932
15.939345438231225	2.3240044	1.5244685
15.957043307910133	2.3766012	1.5416229
15.974741560694602	2.4020162	1.5498439
15.992440197031714	2.3861916	1.5447303
16.01013921736862	2.3696105	1.539354
16.02783862215259	2.3683026	1.538929
16.045538411830933	2.4107172	1.5526484
16.06323858685107	2.3863404	1.5447785
16.080939147660512	2.3619246	1.5368555
16.09864009470684	2.3581216	1.5356177
16.11634142843774	2.3702145	1.5395501
16.134043149300954	2.3934402	1.5470748
16.15174525774433	2.4079225	1.5517482
16.169447754215817	2.4090478	1.5521108
16.18715063916342	2.4040244	1.5504917
16.204853913035244	2.4113321	1.5528464
16.222557576279478	2.4186177	1.5551906
16.240261629344403	22.407341	4.7336392
16.257966072678386	42.949093	6.553556
16.275670906729868	38.048134	6.168317
16.293376131947387	2.454324	1.5666282
16.31108174877957	2.4889853	1.5776519
16.328787757675133	2.5185509	1.5869943
16.34649415908287	2.520808	1.5877053
16.364200953451657	2.517292	1.5865977
16.38190814123048	2.535259	1.5922496
16.39961572286839	2.6016765	1.6129713
16.41732369881455	2.6290982	1.6214494
16.43503206951817	2.6416857	1.6253264
16.45274083542859	2.6795409	1.6369303
16.47044999699522	2.7153666	1.6478369
16.488159554667558	2.7733743	1.6653451
16.505869508895184	2.846929	1.6872845
16.523579860127786	2.9293149	1.7115241
16.541290608815117	2.9524095	1.7182577
16.559001755407035	3.000294	1.7321357
16.57671330035348	3.0450811	1.7450161
16.59442524410448	3.0628097	1.7500885
16.61213758711015	3.0977185	1.7600336
16.629850329820705	3.1466737	1.7738866
16.647563472686436	3.2234697	1.7954024
16.665277016157724	3.3037107	1.8176112
16.682990960685053	3.3506699	1.8304836
16.70070530671898	3.3776476	1.8378378
16.718420054710155	3.4219894	1.849862
16.736135205109335	3.4765606	1.8645537
16.753850758367335	3.5406897	1.881672
16.771566714935087	3.5971777	1.8966228
16.789283075263597	3.6501899	1.910547
16.80699983980398	3.7102687	1.9262058
16.82471700900741	3.8043525	1.950475
16.84243458332518	3.887096	1.9715719
16.860152563208665	3.967251	1.9917959
16.87787094910932	4.007782	2.0019445
16.89558974147871	4.0930896	2.0231385
16.913308940768466	4.1397815	2.0346453
16.931028547430333	4.192968	2.0476737
16.94874856191613	4.2187104	2.05395
16.966468984677785	4.30537	2.0749385
16.98418981616729	4.3574595	2.087453
17.00191105683676	4.3952394	2.0964825
17.019632707138374	4.4271193	2.104072
17.03735476752442	4.460087	2.1118917
17.05507723844728	4.4973426	2.120694
17.072800120359403	4.490158	2.1189992
17.090523413713353	4.5504136	2.13317
17.108247118961785	4.5598006	2.135369
17.125971236557437	4.5839934	2.1410263
17.143695766953133	4.5773754	2.13948
17.161420710601806	4.591978	2.1428902
17.179146067956477	4.6086335	2.1467729
17.19687183947025	4.645933	2.1554427
17.21459802559634	4.621815	2.1498408
17.232324626788028	4.647072	2.155707
17.25005164349871	4.5505505	2.1332018
17.267779076181863	4.4970055	2.1206143
17.285506925291074	4.4469914	2.1087892
17.30323519127999	4.499103	2.121109
17.320963874602384	4.520529	2.1261535
17.33869297571211	4.5131593	2.1244197
17.356422495063114	4.469059	2.1140149
17.37415243310944	4.4575057	2.1112807
17.391882790305218	4.4547844	2.110636
17.40961356710468	4.460804	2.1120615
17.42734476396215	4.4548554	2.110653
17.445076381332044	4.443677	2.1080031
17.462808419668868	4.505218	2.1225498
17.48054087942723	4.6381598	2.1536388
17.498273761061835	4.9211874	2.218375
17.51600706502747	5.4521403	2.334982
17.533740791779024	6.2248683	2.4949687
17.551474941771485	7.6376224	2.763625
17.56920951545993	8.676249	2.9455473
17.586944513299528	10.758422	3.2800033
17.60467993574556	12.327304	3.5110261
17.622415783253373	13.891602	3.727144
17.64015205627843	15.111191	3.8873115
17.657888755276293	16.078083	4.0097485
17.675625880702604	16.38337	4.0476375
17.69336343301311	16.177393	4.022113
17.71110141266366	15.452698	3.930992
17.728839820110178	14.711641	3.8355758
17.746578655808705	13.959489	3.73624
17.764317920215372	12.66629	3.5589733
17.7820576137864	11.308151	3.3627594
17.79979773697811	9.446118	3.073454
17.81753829024692	7.589521	2.7549086
17.835279274049356	5.9108152	2.4312167
17.85302068884201	4.8572264	2.2039115
17.870762535081607	4.16873	2.0417469
17.888504813224934	3.8057563	1.9508348
17.90624752372891	3.630342	1.9053457
17.923990667050536	3.5341394	1.8799307
17.941734243646895	3.4554915	1.8588953
17.959478253975185	3.4148884	1.8479416
17.9772226984927	3.3805966	1.8386399
17.994967577656833	3.326701	1.8239245
18.01271289192506	3.3010356	1.8168752
18.030458641754965	3.2770708	1.8102682
18.04820482760425	3.2827227	1.8118286
18.06595144993067	3.2833328	1.8119969
18.083698509192125	3.2706773	1.8085014
18.101446005846576	3.208898	1.7913398
18.119193940352105	3.1571286	1.776831
18.136942313166887	3.1879961	1.785496
18.1546911247492	3.1874692	1.7853485
18.1724403755574	3.1704764	1.7805831
18.19019006604997	3.1584902	1.7772142
18.207940196685467	3.1434817	1.7729867
18.225690767922575	3.100424	1.7608021
18.243441780220046	3.0675488	1.751442
18.261193234036764	3.0995774	1.7605617
18.278945129831676	3.0935206	1.7588407
18.29669746806386	3.0792103	1.7547679
18.314450249192483	3.0109835	1.7352185
18.3322034736768	3.0142014	1.7361456
18.349957141976184	3.02305	1.738692
18.3677112545501	3.0401146	1.7435925
18.385465811858108	3.02925	1.7404741
18.403220814359884	3.0222328	1.738457
18.420976262515172	3.0152197	1.7364388
18.43873215678387	3.0274925	1.7399691
18.456488497625923	3.069694	1.7520542
18.474245285501407	3.174511	1.7817158
18.492002520870486	3.2273393	1.7964797
18.50976020419343	3.292074	1.8144073
18.527518335930615	3.5891333	1.8945009
18.545276916542516	4.181179	2.0447931
18.563035946489688	4.377849	2.092331
18.580795426232832	4.8393188	2.199845
18.598555356232698	4.7224097	2.1731107
18.616315736950185	5.0115304	2.2386448
18.63407656884626	4.628174	2.151319
18.65183785238201	4.8038316	2.1917646
18.669599588018617	4.5569453	2.1347003
18.68736177621737	4.593306	2.1432
18.705124417439652	4.5542097	2.1340594
18.72288751214696	4.385841	2.09424
18.740651060800886	4.5324764	2.1289613
18.758415063863115	4.275555	2.0677416
18.77617952179546	4.410794	2.100189
18.793944435059814	4.1514583	2.0375128
18.811709804118184	4.1510744	2.0374186
18.829475629432675	4.1188564	2.0294967
18.8472419114655	3.9647355	1.9911643
18.86500865067897	4.0745163	2.018543
18.88277584753551	3.7875392	1.9461601
18.90054350249763	3.7803516	1.9443127
18.918311616027957	3.4430919	1.855557
18.936080188589226	3.3333151	1.8257369
18.953849220644265	3.0321593	1.7413096
18.971618712656007	2.833464	1.6832896
18.9893886650875	2.7972333	1.6724931
19.007159078401887	7.978715	2.824662
19.024929953062408	32.903126	5.7361245
19.042701289532435	32.834522	5.7301416
19.060473088275405	25.374298	5.0372906
19.07824534975489	2.6156049	1.6172832
19.096018074434568	2.5923524	1.6100783
19.113791262778197	2.5887191	1.6089497
19.13156491524966	2.5986469	1.6120319
19.149339032312945	2.598254	1.61191
19.167113614432136	2.5777047	1.6055232
19.184888662071433	2.5741768	1.6044241
19.202664175695123	2.5939217	1.6105657
19.220440155767623	2.566495	1.6020284
19.238216602753447	2.5178437	1.5867715
19.2559935171172	2.5323105	1.5913235
19.27377089932361	2.5248127	1.5889659
19.291548749837514	2.5290923	1.590312
19.309327069123835	2.4846282	1.5762703
19.32710585764763	2.4856699	1.5766007
19.344885115874032	2.480524	1.574968
19.362664844268313	2.4734197	1.5727109
19.380445043295822	2.4303513	1.5589584
19.39822571342203	2.398941	1.5488515
19.41600685511252	2.413873	1.5536643
19.43378846883297	2.458675	1.5680163
19.451570555049173	2.5007205	1.5813667
19.469353114227037	2.4659667	1.5703397
19.48713614683254	2.4069443	1.551433
19.50491965333182	2.4039102	1.5504549
19.52270363419109	2.4494631	1.5650761
19.540488089876686	2.4888027	1.5775939
19.55827302085503	2.4922938	1.5787001
19.576058427592674	2.490119	1.578011
19.593844310556282	2.507399	1.5834769
19.611630670212598	2.5035455	1.5822597
19.629417507028506	2.4601579	1.5684891
19.64720482147098	2.4184582	1.5551393
19.6649926140071	2.377827	1.5420204
19.682780885104084	2.40793	1.5517505
19.70056963522921	2.4376502	1.5612977
19.718358864849908	2.485622	1.5765855
19.7361485744337	2.5157547	1.5861131
19.753938764448215	2.5591567	1.5997365
19.771729435361202	2.551484	1.5973365
19.789520587640506	2.5137634	1.5854852
19.807312221754092	2.4993908	1.5809462
19.825104338170043	2.5063918	1.5831589
19.842896937356517	2.4964454	1.5800143
19.860690019781824	2.5171456	1.5865515
19.87848358591436	2.5312076	1.590977
19.896277636222635	2.5254345	1.5891615
19.914072171175278	2.5026596	1.5819796
19.931867191241015	2.4759054	1.573501
19.94966269688869	2.4791644	1.5745362
19.967458688587264	2.4653897	1.570156
19.985255166805807	2.4329877	1.5598037
20.00305213201348	2.424804	1.5571783
20.020849584679578	2.4374454	1.561232
20.038647525273507	2.4765663	1.573711
20.05644595426477	2.4831886	1.5758137
20.07424487212299	2.4621012	1.5691084
20.092044279317903	2.4129648	1.553372
20.109844176319353	2.4241574	1.5569706
20.127644563597304	2.413603	1.5535775
20.145445441621817	2.4269924	1.5578808
20.16324681086307	2.403756	1.550405
20.181048671791373	2.3844972	1.5441817
20.198851024877122	2.370749	1.5397236
20.216653870590836	2.3724918	1.5402895
20.234457209403146	2.3815646	1.5432318
20.252261041784802	2.3600516	1.536246
20.270065368206662	2.3759503	1.5414118
20.287870189139685	2.386604	1.5448638
20.305675505054968	2.3765001	1.5415901
20.323481316423702	2.3664005	1.5383109
20.341287623717207	2.376036	1.5414395
20.359094427406884	2.3649511	1.5378398
20.376901727964288	2.3672822	1.5385975
20.39470952586107	2.3378558	1.5290048
20.41251782156899	2.320561	1.5233388
20.430326615559935	2.2983992	1.5160472
20.448135908305886	2.2354155	1.4951305
20.465945700278965	2.2049747	1.4849157
20.483755991951384	2.2232554	1.4910585
20.50156678379548	2.2751904	1.5083734
20.519378076283708	2.2764814	1.5088013
20.537189869888635	2.3031583	1.517616
20.55500216508294	2.3083305	1.519319
20.572814962339415	2.3071637	1.5189351
20.59062826213098	2.2778342	1.5092496
20.60844206493066	2.2917566	1.5138549
20.626256371211593	2.3038101	1.5178307
20.644071181447032	2.3315353	1.5269365
20.66188649611036	2.3113625	1.5203166
20.67970231567506	2.2796988	1.5098672
20.697518640614742	2.2777905	1.5092351
20.715335471403122	2.283899	1.5112574
20.73315280851404	2.3011878	1.5169666
20.750970652421447	2.2728655	1.5076026
20.768789003599412	2.2370903	1.4956906
20.786607862522136	2.2309198	1.4936264
20.8044272296639	2.2287834	1.492911
20.82224710549913	2.217104	1.4889942
20.84006749050237	2.215852	1.4885738
20.857888385148268	3.8025606	1.9500155
20.8757097899116	45.899845	6.7749424
20.893531705267254	64.76165	8.047462
20.911354131690224	83.77382	9.152803
20.92917706965566	69.04297	8.30921
20.94700051963877	50.0925	7.0776052
20.96482448211493	29.333643	5.4160542
20.982648957559622	4.095118	2.02364
21.00047394644843	2.199962	1.4832269
21.01829944925707	2.2118444	1.4872271
21.036125466461375	2.1941993	1.481283
21.053951998537297	2.224948	1.4916259
21.071779045960906	2.242202	1.4973984
21.089606609208378	2.2528152	1.5009382
21.10743468875603	2.2187028	1.489531
21.12526328508028	2.2189713	1.4896212
21.143092398657675	2.213488	1.4877796
21.16092202996488	2.1912966	1.4803028
21.17875217947867	2.1801627	1.4765373
21.19658284767596	2.1706219	1.4733031
21.21441403503377	2.1334484	1.4606329
21.232245742029225	2.1051686	1.4509199
21.2500779691396	2.125736	1.4579904
21.26791071684227	2.1358936	1.4614697
21.28574398561475	2.1672807	1.4721687
21.30357777593465	2.2113721	1.4870683
21.321412088279704	2.2370074	1.4956628
21.339246923127792	2.1922956	1.4806403
21.357082280956888	2.1312277	1.4598725
21.3749181622451	2.106598	1.4514124
21.392754567470647	2.129808	1.4593861
21.41059149711187	2.1551733	1.4680508
21.42842895164726	2.139013	1.4625365
21.446266931555378	2.0952463	1.4474965
21.464105437314945	2.078056	1.4415464
21.481944469404798	2.0645962	1.4368702
21.49978402830388	2.055778	1.4337984
21.51762411449127	2.0386639	1.4278178
21.53546472844617	2.0564666	1.4340385
21.553305870647876	2.0614007	1.4357579
21.571147541575865	2.0722082	1.4395167
21.58898974170967	2.065492	1.437182
21.60683247152899	2.0670338	1.4377183
21.62467573151363	2.0703042	1.4388552
21.642519522143523	2.070577	1.43895
21.660363843898722	2.0750325	1.4404973
21.6782086972594	2.080895	1.4425308
21.696054082705864	2.0530741	1.4328552
21.713900000718535	2.0099726	1.417735
21.73174645177795	2.0000927	1.4142463
21.749593436364794	1.9989743	1.4138509
21.767440954959845	2.0196807	1.4211547
21.785289008044032	2.012481	1.4186194
21.803137596098388	2.0288389	1.4243731
21.820986719604086	2.0046222	1.4158468
21.838836379042412	1.9882056	1.4100374
21.85668657489478	1.9653761	1.4019188
21.87453730764273	1.9896849	1.4105619
21.892388577767914	1.9593544	1.3997694
21.91024038575213	1.9290626	1.388907
21.928092732077285	1.939174	1.3925422
21.945945617225426	1.9677162	1.4027531
21.963799041678694	1.9822048	1.407908
21.981653005919398	31.279135	5.5927753
21.999507510429943	78.0503	8.834608
22.01736255569286	72.98959	8.543395
22.035218142190818	4.0751686	2.0187047
22.05307427040661	1.9572622	1.3990219
22.07093094082315	1.9998053	1.4141448
22.088788153923474	2.0009055	1.4145336
22.106645910190746	1.966153	1.4021958
22.12450421010827	1.9715848	1.4041313
22.142363054159464	1.9716859	1.4041673
22.16022244282787	1.9973828	1.4132879
22.178082376597164	2.0120478	1.4184667
22.195942855951145	2.0187135	1.4208144
22.213803881373742	1.9708639	1.4038746
22.231665453349002	1.9435233	1.394103
22.24952757236111	1.9098729	1.3819815
22.26739023889438	1.9065893	1.380793
22.28525345343323	1.9153776	1.3839717
22.30311721646225	1.947516	1.3955343
22.320981528466113	1.9456259	1.3948569
22.33884638992964	1.9409195	1.3931689
22.356711801337788	1.961712	1.4006113
22.37457776317561	1.9679432	1.4028339
22.392444275928337	1.9593387	1.3997638
22.410311340081282	1.9260384	1.3878179
22.428178956119904	1.8948807	1.3765466
22.446047124529805	1.915221	1.3839151
22.46391584579669	1.9388446	1.392424
22.481785120406414	1.945917	1.3949612
22.49965494884496	1.9277742	1.3884431
22.51752533159841	1.9292223	1.3889645
22.53539626915302	1.9045475	1.3800534
22.553267761995137	1.8906643	1.3750143
22.571139810611264	1.903375	1.3796285
22.589012415488025	1.9286685	1.3887651
22.60688557711216	1.9226589	1.3865998
22.624759295970566	1.9314911	1.389781
22.642633572550263	1.9425008	1.3937362
22.660508407338362	1.945688	1.3948792
22.67838380082217	1.9165407	1.3843918
22.696259753489077	1.9306496	1.3894782
22.714136265826614	1.9536501	1.3977304
22.73201333832246	1.9321601	1.3900217
22.74989097146439	1.91573	1.384099
22.76776916574035	1.9316783	1.3898484
22.785647921638393	1.9437743	1.394193
22.803527239646712	1.9226052	1.3865803
22.82140712025363	1.8768626	1.3699864
22.839287563947593	1.8839415	1.3725675
22.85716857121719	1.8792975	1.3708748
22.875050142551135	1.8816855	1.3717455
22.892932278438277	1.8418458	1.3571461
22.910814979367604	1.8500175	1.3601536
22.928698245828222	1.8883352	1.3741671
22.946582078309387	1.8752263	1.369389
22.96446647730047	1.9012663	1.3788642
22.98235144329098	1.8948267	1.3765271
23.000236976770562	1.9146538	1.3837101
23.018123078229	1.8989024	1.3780067
23.03600974815619	1.8911792	1.3752015
23.053896987042194	1.8718997	1.3681738
23.071784795377173	1.8734353	1.368735
23.08967317365145	1.8599013	1.3637819
23.10756212235546	1.8747704	1.3692225
23.125451641979787	1.9006518	1.3786412
23.143341733015134	1.9125501	1.3829498
23.161232395952357	1.8932054	1.375938
23.179123631282426	1.884587	1.3728026
23.197015439496468	1.8984338	1.3778366
23.214907821085717	1.9392713	1.3925772
23.23280077654157	1.9331421	1.3903748
23.250694306355538	1.912715	1.3830094
23.268588411019277	1.9420794	1.3935851
23.28648309102458	1.9503908	1.3965639
23.304378346863356	1.9258918	1.387765
23.322274179027676	1.8553232	1.3621025
23.340170588009723	1.8744688	1.3691124
23.358067574301852	1.8971405	1.3773673
23.37596513839651	1.9570211	1.3989357
23.39386328078629	1.926615	1.3880255
23.411762001963947	1.9094192	1.3818173
23.429661302422353	1.8966628	1.3771938
23.4475611826545	1.8996599	1.3782815
23.46546164315356	1.858948	1.3634324
23.48336268441279	1.8484803	1.3595883
23.501264306925638	1.8677493	1.3666563
23.51916651118564	1.8852426	1.3730414
23.537069297686497	1.9240766	1.3871108
23.554972666922037	1.9128128	1.3830447
23.57287661938623	1.9000535	1.3784243
23.59078115557318	1.8791525	1.3708218
23.608686275977128	1.8709714	1.3678346
23.62659198109246	1.8256029	1.3511487
23.6444982714137	1.7779415	1.3333948
23.66240514743549	1.7846967	1.3359255
23.68031260965263	1.8004764	1.3418183
23.698220658560068	1.8408246	1.3567699
23.716129294652845	1.8700737	1.3675064
23.7340385184262	1.8903743	1.3749088
23.75194833037546	1.8891877	1.3744773
23.769858730996123	1.8657103	1.36591
23.78776972078382	1.871392	1.3679883
23.80568130023431	1.8906382	1.3750048
23.823593469843495	1.8719631	1.3681971
23.841506230107424	1.8463999	1.358823
23.859419581522275	1.8584859	1.363263
23.87733352458438	1.8940451	1.3762431
23.89524805979019	1.8906084	1.3749939
23.913163187636318	1.8949349	1.3765663
23.931078908619508	1.9183958	1.3850616
23.948995223236633	1.9295005	1.3890646
23.966912131984735	1.9595338	1.3998334
23.98482963536096	2.0165937	1.4200681
24.002747733862616	2.0331073	1.4258707
24.020666427987155	2.0149896	1.4195033
24.038585718232156	1.9622651	1.4008087
24.056505605095353	1.9762735	1.4058
24.074426089074617	2.0144632	1.4193178
24.092347170667946	2.016299	1.4199644
24.110268850373515	2.016478	1.4200275
24.128191128689586	2.045153	1.4300884
24.146114006114626	2.053888	1.4331392
24.164037483147187	2.0337071	1.4260811
24.181961560286005	2.0139387	1.4191331
24.199886238029926	2.013917	1.4191254
24.21781151687797	2.0459108	1.4303534
24.235737397329274	2.0258372	1.4233191
24.253663879883135	1.9994562	1.4140213
24.271590965038975	2.0018759	1.4148766
24.289518653296376	2.0173774	1.4203441
24.30744694515505	2.01738	1.4203451
24.32537584111486	2.0347626	1.4264511
24.34330534167581	2.0564256	1.4340242
24.361235447338046	2.033268	1.425927
24.379166158601876	1.9832302	1.408272
24.39709747596772	1.9707676	1.4038403
24.41502939993615	1.9632516	1.4011608
24.432961931007917	1.9938658	1.4120431
24.450895069683856	1.9781021	1.4064502
24.468828816465	1.9619544	1.4006978
24.4867631718525	1.9500166	1.3964299
24.504698136347656	1.9572108	1.3990035
24.52263371045192	1.9193094	1.3853915
24.540569894666874	1.9052868	1.3803213
24.558506689494266	1.9021969	1.3792015
24.57644409543597	1.9288915	1.3888454
24.594382112994012	1.9448771	1.3945885
24.61232074267057	1.9592478	1.3997314
24.630259984967953	1.9699785	1.4035592
24.64819984038863	1.9861735	1.4093167
24.66614030943522	2.0040696	1.4156517
24.684081392610462	1.9867535	1.4095224
24.702023090417274	1.9851172	1.4089419
24.7199654033587	1.9380128	1.3921252
24.737908331937927	1.9277598	1.3884379
24.755851876658305	1.9406238	1.3930627
24.773796038023324	1.9889596	1.4103048
24.79174081653661	2.0183477	1.4206856
24.809686212701962	2.0617404	1.4358761
24.827632227023294	2.0665784	1.4375598
24.8455788600047	2.0693855	1.4385359
24.8635261121504	2.0808117	1.4425019
24.88147398396475	2.0859408	1.4442786
24.899422475952303	2.0548935	1.4334899
24.917371588617698	2.004726	1.4158834
24.935321322465768	2.0773776	1.441311
24.953271678001478	2.2098906	1.4865701
24.97122265572994	2.39223	1.5466835
24.989174256156414	2.6638231	1.6321223
25.00712647978632	3.0893943	1.7576673
25.02507932712521	3.6552303	1.9118657
25.043032798678798	4.16769	2.041492
25.060986894952933	4.8024626	2.1914523
25.078941616453637	5.50857	2.3470345
25.096896963687055	6.448835	2.5394557
25.114852937159508	7.5853214	2.7541463
25.132809537377444	8.101625	2.8463354
25.150766764847468	8.133743	2.8519719
25.168724620076347	7.572447	2.751808
25.186683103570985	6.7155128	2.5914307
25.204642215838426	5.604812	2.3674483
25.222601957385894	4.3068137	2.0752864
25.24056232872074	3.2711046	1.8086195
25.25852333035048	2.6845143	1.6384487
25.276484962782778	2.2962844	1.5153496
25.294447226525435	2.0502882	1.4318827
25.312410122086423	1.9014596	1.3789343
25.330373649973843	1.8501177	1.3601903
25.348337810695988	1.8581039	1.3631228
25.366302604761245	1.878847	1.3707104
25.384268032678207	1.8991982	1.378114
25.40223409495558	1.9502511	1.3965139
25.420200792102257	1.8941854	1.3762941
25.438168124627246	1.8442742	1.3580406
25.45613609303974	1.8360214	1.3549987
25.474104697849057	1.8688153	1.3670462
25.492073939564698	1.8809956	1.3714939
25.510043818696285	1.9352576	1.3911353
25.528014335753614	1.9478145	1.3956412
25.54598549124664	1.88456	1.3727927
25.56395728568544	1.8323735	1.3536519
25.58192971958028	1.8231521	1.3502415
25.59990279344156	1.8120087	1.3461088
25.617876507779833	1.8075294	1.3444439
25.635850863105826	1.820383	1.3492156
25.653825859930386	1.8221998	1.3498888
25.671801498764548	1.8576872	1.36297
25.68977778011949	1.8788869	1.3707249
25.707754704506524	1.8641381	1.3653344
25.725732272437153	1.843697	1.357828
25.743710484423012	1.8469845	1.3590381
25.761689340975888	1.8487195	1.3596762
25.77966884260774	1.8733389	1.3686997
25.797648989830662	1.8455291	1.3585025
25.815629783156922	1.815048	1.3472371
25.83361122309895	1.789276	1.3376383
25.85159331016929	1.7816405	1.334781
25.869576044880695	1.7670391	1.3293002
25.887559427746034	1.7933365	1.3391552
25.90554345927836	1.7915258	1.3384789
25.92352813999086	1.7926598	1.3389025
25.94151347039689	1.7866743	1.3366654
25.959499451009965	1.8074023	1.3443966
25.97748608234374	1.8393899	1.3562411
25.995473364912062	1.8560805	1.3623805
26.013461299228904	1.8518324	1.3608205
26.03144988580839	1.8350562	1.3546425
26.04943912516483	1.8014965	1.3421984
26.067429017812675	1.8107059	1.3456247
26.085419564266537	1.8248882	1.3508842
26.103410765041186	1.8710934	1.3678792
26.12140262065155	1.9159377	1.384174
26.139395131612723	1.8976758	1.3775616
26.157388298439948	1.8880318	1.3740567
26.17538212164861	1.8682733	1.3668479
26.193376601754295	1.8681139	1.3667896
26.211371739272714	1.8079404	1.3445967
26.229367534719746	1.8124744	1.3462816
26.247363988611433	1.839973	1.356456
26.26536110146397	1.8174138	1.348115
26.283358873793727	1.7809435	1.33452
26.301357306117204	1.743792	1.3205272
26.319356398951104	1.7421641	1.3199106
26.33735615281224	1.7475151	1.3219361
26.35535656821762	1.7873356	1.3369128
26.373357645684404	1.8215435	1.3496457
26.39135938572991	1.8146396	1.3470856
26.409361788871614	1.7824807	1.3350958
26.427364855627165	1.7565652	1.3253547
26.445368586514352	1.800218	1.341722
26.46337298205115	1.8373951	1.3555055
26.48137804275568	1.8932091	1.3759394
26.499383769146217	1.8810396	1.37151
26.517390161741215	1.7699074	1.3303787
26.53539722105928	1.7497243	1.3227714
26.553404947619182	1.7300032	1.3152958
26.571413341939856	1.764853	1.3284777
26.589422404540397	1.8231983	1.3502586
26.60743213594006	1.8505546	1.3603508
26.62544253665827	1.7988869	1.3412259
26.64345360721459	1.7517458	1.3235353
26.66146534812879	1.7409508	1.319451
26.679477759920758	1.751627	1.3234905
26.69749084311057	1.7815822	1.3347592
26.71550459821847	1.8116337	1.3459694
26.733519025764842	1.8268384	1.3516059
26.751534126270258	1.8252019	1.3510003
26.769549900255434	1.8072212	1.3443292
26.787566348241267	1.756546	1.3253475
26.80558347074881	1.7178253	1.3106583
26.823601268299267	1.7406737	1.319346
26.841619741414036	1.7596363	1.3265128
26.85963889061465	1.7359631	1.3175595
26.877658716422832	1.7777609	1.3333269
26.89567921936045	1.8182005	1.3484067
26.913700399949544	1.8715752	1.3680552
26.93172225871233	1.8747036	1.3691982
26.949744796171174	1.8718814	1.3681672
26.967768012848605	1.8651993	1.365723
26.98579190926733	1.830826	1.3530802
27.003816485950225	1.7626085	1.3276327
27.021841743420318	1.7206005	1.3117167
27.039867682200814	1.7435024	1.3204175
27.057894302815072	1.7702217	1.3304968
27.07592160578664	1.7672265	1.3293707
27.0939495916392	1.8074752	1.3444238
27.111978260896635	1.8165592	1.3477979
27.13000761408296	1.8382647	1.3558263
27.148037651722397	1.8307925	1.3530679
27.166068374339304	1.8420607	1.3572254
27.184099782458215	1.82955	1.3526086
27.20213187660384	1.8008789	1.3419683
27.22016465730105	1.8184915	1.3485146
27.23819812507487	1.8683416	1.3668729
27.256232280450533	1.8782525	1.3704935
27.274267123953383	1.8478236	1.3593467
27.292302656108987	1.8279918	1.3520325
27.31033887744306	1.7794205	1.3339492
27.32837578848146	1.7410892	1.3195034
27.34641338975026	1.7643714	1.3282964
27.364451681775673	1.8370731	1.3553867
27.382490665084074	1.8573273	1.362838
27.400530340202046	1.8043036	1.3432437
27.41857070765629	1.7490479	1.3225157
27.436611767973726	1.7421752	1.3199148
27.454653521681404	1.8231001	1.3502222
27.472695969306564	1.8058017	1.3438013
27.490739111376627	1.7421206	1.3198942
27.508782948419153	1.7125673	1.308651
27.526827480961902	1.730938	1.3156512
27.54487270953279	1.7760472	1.3326843
27.562918634659898	1.7556238	1.3249996
27.580965256871508	1.7629143	1.3277478
27.599012576696026	1.7555997	1.3249905
27.617060594662068	1.7594812	1.3264544
27.63510931129842	1.7301904	1.315367
27.65315872713401	1.700779	1.3041391
27.67120884269797	1.7374651	1.3181294
27.68925965851958	1.8062251	1.3439587
27.707311175128307	1.855764	1.3622643
27.725363393053787	1.8603054	1.3639301
27.74341631282583	1.8990867	1.3780736
27.7614699349744	1.9038038	1.379784
27.77952426002968	2.0901155	1.4457232
27.797579288521973	2.1336384	1.4606979
27.815635020981784	2.634852	1.6232227
27.83369145793979	2.718414	1.6487614
27.85174859992682	2.4974227	1.5803236
27.869806447473923	2.2579267	1.5026399
27.887865001112267	1.9538288	1.3977942
27.905924261373233	1.9049942	1.3802153
27.92398422878836	1.9024308	1.3792863
27.94204490388936	1.8374422	1.3555229
27.96010628720813	1.7978449	1.3408374
27.978168379276728	1.766264	1.3290086
27.9962311806274	1.7972548	1.3406173
28.014294691792568	1.7929336	1.3390048
28.0323589133048	1.7951548	1.3398339
28.050423845696887	1.8051722	1.343567
28.068489489501758	1.8598243	1.3637538
28.086555845252523	1.8310797	1.353174
28.104622913482487	1.7712058	1.3308666
28.122690694725115	1.7996724	1.3415186
28.14075918951405	1.8558866	1.3623093
28.15882839838312	1.8672643	1.3664788
28.176898321866304	1.8866644	1.373559
28.1949689604978	1.9029212	1.3794641
28.213040314811945	1.9037011	1.3797468
28.23111238534327	1.8291026	1.3524432
28.249185172626493	1.781538	1.3347427
28.267258677196473	1.8730419	1.3685912
28.285332899588294	1.962716	1.4009696
28.303407840337172	1.9516332	1.3970087
28.321483499978545	1.8935381	1.3760589
28.33955987904799	1.9169922	1.3845549
28.357636978081285	1.8994166	1.3781933
28.37571479761439	1.8810364	1.3715088
28.393793338183425	1.8986346	1.3779095
28.41187260032469	1.9253982	1.3875872
28.429952584574686	1.9747709	1.4052655
28.448033291470065	1.9426807	1.3938009
28.46611472154769	1.939837	1.3927803
28.484196875344566	1.9836853	1.4084337
28.502279753397914	1.9538615	1.3978059
28.52036335624511	1.9306806	1.3894893
28.538447684423716	1.9466081	1.395209
28.556532738471482	1.9831157	1.4082314
28.574618518926325	1.9605489	1.400196
28.59270502632635	1.9523072	1.3972499
28.61079226120985	1.9442656	1.3943692
28.628880224115274	1.9628394	1.4010137
28.646968915581287	1.9522446	1.3972275
28.66505833614671	1.9489561	1.3960502
28.68314848635055	1.9701952	1.4036365
28.701239366732004	1.994166	1.4121494
28.71933097783044	2.0238254	1.4226122
28.737423320185403	2.0549726	1.4335176
28.75551639433665	1.983315	1.4083022
28.773610200824074	1.9877243	1.4098668
28.791704740187793	2.0372415	1.4273196
28.80980001296809	2.115158	1.4543583
28.827896019705413	2.152046	1.4669853
28.845992760940433	2.1384895	1.4623575
28.86409023721397	2.1700587	1.4731119
28.88218844906704	2.2130258	1.4876242
28.900287397040845	2.1913018	1.4803046
28.918387081676755	2.1771872	1.4755294
28.936487503516343	2.2286768	1.4928753
28.954588663101365	2.2576418	1.5025451
28.97269056097374	2.242792	1.4975953
28.990793197675597	2.244411	1.4981358
29.00889657374923	2.3298793	1.5263942
29.027000689737125	2.3569205	1.5352266
29.04510554618196	2.3442569	1.5310966
29.06321114362659	2.3493686	1.532765
29.08131748261405	2.3663473	1.5382936
29.099424563687567	2.4012806	1.5496066
29.11753238739057	2.4550185	1.5668498
29.13564095426663	2.529662	1.590491
29.15375026485954	2.5750759	1.6047043
29.171860319713275	2.6019714	1.6130627
29.18997111937199	2.6185277	1.6181865
29.20808266438002	2.6429696	1.6257212
29.226194955281898	2.7285547	1.6518338
29.244307992622335	2.7901855	1.6703848
29.26242177694624	2.8247344	1.6806946
29.2805363087987	2.820414	1.6794088
29.29865158872498	2.83295	1.6831369
29.316767617270557	2.8438098	1.6863599
29.334884394981064	2.8638625	1.6922951
29.353001922402367	2.9291997	1.7114905
29.37112020008047	3.037893	1.7429552
29.389239228561596	3.1512234	1.7751685
29.407359008392152	3.3162084	1.821046
29.42547954011872	3.6769671	1.917542
29.44360082428809	4.2921486	2.0717502
29.46172286144722	5.2638454	2.2943072
29.479845652143283	6.7355947	2.5953023
29.497969196923606	8.668613	2.9442508
29.516093496335728	11.020308	3.3196847
29.5342185509274	13.687396	3.6996481
29.55234436124651	15.979309	3.9974127
29.570470927841175	17.13835	4.139849
29.588598251259686	16.870054	4.107317
29.60672633205055	15.710631	3.9636638
29.624855170762405	13.801593	3.7150495
29.642984767944146	11.199794	3.3466094
29.66111512414481	8.54005	2.9223363
29.67924623991366	6.421653	2.534098
29.697378115800138	5.0841284	2.2548013
29.71551075235387	4.1947646	2.0481124
29.733644150124675	3.6677582	1.9151392
29.751778309662576	3.413703	1.8476208
29.769913231517766	3.3552353	1.8317301
29.78804891624066	3.3146975	1.820631
29.806185364381818	3.3145535	1.8205916
29.82432257649206	3.2569213	1.8046943
29.842460553122333	3.2269459	1.7963701
29.86059929482382	3.2192867	1.794237
29.878738802147872	3.2519336	1.8033118
29.896879075646048	3.3058379	1.8181963
29.915020115870114	3.312896	1.8201363
29.933161923371976	3.2571008	1.804744
29.951304498703777	3.1860435	1.7849492
29.969447842417857	3.1273909	1.7684431
29.987591955066733	3.1578286	1.777028
30.005736837203123	3.1857052	1.7848544
30.023882489379943	3.1094437	1.7633615
30.04202891215028	3.0289638	1.7403919
30.060176106067455	3.0483856	1.7459626
30.078324071684946	3.1016216	1.7611421
30.09647280955646	3.1170282	1.7655108
30.114622320235863	3.0831249	1.755883
30.132772604277257	3.049284	1.7462199
30.1509236622349	3.0749245	1.7535462
30.16907549466328	3.0654678	1.7508477
30.18722810211705	3.0312526	1.7410493
30.205381485151097	3.064314	1.7505182
30.22353564432045	3.036463	1.742545
30.241690580180403	2.9603927	1.7205791
30.25984629328638	2.9408295	1.7148846
30.278002784194037	2.9548097	1.718956
30.296160053459246	2.9445326	1.7159641
30.314318101638033	2.9076765	1.705191
30.332476929286646	2.9016297	1.7034171
30.35063653696153	2.930716	1.7119334
30.368796925219307	2.978368	1.7257949
30.386958094616844	2.9030511	1.7038343
30.40512004571115	2.825669	1.6809727
30.423282779059463	2.8526857	1.6889895
30.441446295219233	2.879803	1.6969982
30.459610594748067	2.8720045	1.6946989
30.47777567820382	2.7841017	1.6685628
30.495941546144504	2.727062	1.6513819
30.51410819912835	2.7022974	1.6438667
30.532275637713795	2.7342286	1.6535503
30.55044386245946	2.7989144	1.6729957
30.56861287392416	2.8306997	1.6824683
30.586782672666956	2.8436453	1.6863111
30.604953259247047	2.8016844	1.6738232
30.623124634223885	2.7269578	1.6513503
30.641296798157075	2.667395	1.6332161
30.659469751606462	2.6955311	1.6418073
30.677643495132074	2.696354	1.6420578
30.695818029294152	2.6729367	1.6349118
30.713993354653116	2.7052147	1.6447537
30.73216947176962	2.6805522	1.6372392
30.75034638120448	2.6744363	1.6353704
30.768524083518756	2.721587	1.6497233
30.786702579273673	2.7825787	1.6681063
30.80488186903069	2.777504	1.6665845
30.82306195335144	2.8838573	1.6981924
30.841242832797782	3.1156998	1.7651345
30.85942450793176	3.4163802	1.8483453
30.877606979315637	3.679595	1.9182271
30.895790247511883	3.9470546	1.9867196
30.913974313083134	4.239216	2.0589356
30.932159176592283	4.5406055	2.1308696
30.95034483860237	4.679608	2.1632402
30.968531299676698	4.4360356	2.1061897
30.98671856037873	4.057629	2.0143557
31.00490662127215	3.8019826	1.9498674
31.023095482920848	3.4463089	1.8564236
31.04128514588892	3.044156	1.744751
31.059475610740662	2.717008	1.648335
31.07766687804056	2.5510902	1.5972133
31.09585894835335	2.47628	1.5736201
31.11405182224393	2.4626286	1.5692765
31.132245500277417	2.4094377	1.5522363
31.15043998301914	2.4436834	1.5632285
31.168635271034628	2.3808591	1.5430033
31.18683136488964	2.300075	1.5165998
31.20502826515008	2.319845	1.5231037
31.223225972382135	2.3764923	1.5415876
31.241424487152155	2.3429089	1.5306563
31.259623810026692	2.374366	1.5408978
31.27782394157253	2.3836455	1.543906
31.296024882356644	2.3824923	1.5435324
31.314226632946237	2.3709226	1.53978
31.332429193908684	2.4479473	1.5645918
31.350632565811598	2.5129986	1.585244
31.368836749222787	2.464386	1.5698363
31.387041744710295	2.4150782	1.5540522
31.40524755284232	2.4425828	1.5628765
31.423454174187317	2.5182571	1.5869018
31.441661609313922	2.4732757	1.5726651
31.459869858791002	2.3851178	1.5443827
31.478078923187628	2.329833	1.5263791
31.496288803073064	2.2910914	1.5136352
31.514499499016807	2.2904856	1.513435
31.532711011588546	2.335323	1.5281764
31.550923341358178	2.316217	1.5219122
31.56913648889584	2.2306318	1.49353
31.587350454771844	2.212556	1.4874662
31.605565239556732	2.1907775	1.4801276
31.62378084382127	2.1350641	1.4611858
31.641997268136382	2.1904895	1.4800303
31.660214513073274	2.2718031	1.5072502
31.67843257920331	2.3067827	1.5188097
31.6966514670981	2.2662337	1.5054015
31.71487117732944	2.225549	1.4918274
31.733091710469346	2.218019	1.4893016
31.751313067090052	2.1984513	1.4827175
31.769535247764008	2.3058064	1.5184882
31.787758253063878	2.338386	1.5291783
31.805982083562526	2.30123	1.5169805
31.824206739833024	2.2815423	1.5104775
31.84243222244869	2.2255607	1.4918313
31.860658531983013	2.1862016	1.478581
31.878885669009737	2.2015088	1.4837482
31.897113634102784	2.2029903	1.4842473
31.91534242783632	2.2149243	1.4882622
31.933572050784694	2.1656651	1.47162
31.951802503522508	2.1417372	1.4634675
31.970033786624548	2.1380665	1.4622129
31.988265900665834	2.1164868	1.454815
32.006498846221575	2.104036	1.4505296
32.02473262386724	2.088141	1.4450401
32.04296723417845	2.1773455	1.4755831
32.0612026777311	2.23671	1.4955635
32.07943895510129	2.2402165	1.4967353
32.097676066865304	2.2398326	1.4966071
32.115914013599685	2.2205048	1.4901358
32.13415279588115	2.182316	1.4772664
32.152392414286666	2.2083576	1.4860544
32.1706328693934	2.1533577	1.4674324
32.18887416177875	2.0390844	1.4279652
32.20711629202032	2.0796292	1.442092
32.225359260695924	2.0650685	1.4370346
32.243603068383614	1.9988843	1.4138191
32.26184771566166	2.0328312	1.4257739
32.28009320310852	2.0466835	1.4306235
32.2983395313029	2.0567071	1.4341224
32.31658670082372	2.0702794	1.4388466
32.33483471225012	2.057627	1.4344431
32.35308356616143	2.0504978	1.4319559
32.371333263137245	2.0926747	1.4466081
32.38958380375734	2.1809866	1.4768164
32.407835188601744	2.2188783	1.4895899
32.42608741825067	2.1232872	1.4571503
32.444340493284585	2.043401	1.4294758
32.46259441428416	1.9867625	1.4095256
32.48084918183028	2.059634	1.4351425
32.49910479650405	2.0549045	1.4334939
32.51736125888683	2.051837	1.4324235
32.53561856956014	2.0278373	1.4240215
32.5538767291058	1.9685824	1.4030617
32.572135738105764	1.9312868	1.3897074
32.59039559714228	1.9838278	1.4084842
32.608656306797776	2.0240138	1.4226784
32.62691786765491	2.0370474	1.4272517
32.645180280296586	2.011117	1.4181385
32.663443545305896	1.961291	1.400461
32.68170766326619	1.9721869	1.4043458
32.69997263476099	1.975993	1.4057002
32.7182384603741	1.9653251	1.4019005
32.7365051406895	1.9018168	1.3790637
32.75477267629144	1.9971639	1.4132105
32.77304106776434	1.9920678	1.4114063
32.79131031569289	2.0088818	1.4173503
32.809580420661966	1.9629973	1.4010701
32.827851383256714	1.9238386	1.3870251
32.84612320406245	1.8621067	1.3645903
32.86439588366476	1.9286498	1.3887583
32.88266942264945	1.9760579	1.4057232
32.9009438216025	1.9747217	1.4052479
32.9192190811102	2.0005064	1.4143926
32.937495201758985	2.023312	1.4224317
32.95577218413556	1.9595125	1.3998259
32.974050028826866	1.8997989	1.3783319
32.992328736420035	1.8972847	1.3774196
33.010608307502444	1.9123907	1.3828921
33.02888874266169	1.9531955	1.3975677
33.047170042485604	1.9357922	1.3913275
33.06545220756225	1.8687755	1.3670316
33.083735238479896	1.8565444	1.3625507
33.10201913582707	1.9262809	1.3879052
33.12030390019248	2.0172274	1.4202913
33.138589532165135	2.0219746	1.4219615
33.15687603233419	1.987744	1.4098737
33.17516340128909	1.9588771	1.399599
33.19345163961947	1.9480244	1.3957164
33.211740747915215	1.998903	1.4138256
33.23003072676643	1.9171402	1.3846084
33.248321576763466	1.8610973	1.3642204
33.266613298496885	1.9274449	1.3883245
33.28490589255747	1.9822539	1.4079254
33.30319935953626	1.9838883	1.4085057
33.32149370002451	1.9337466	1.3905922
33.339788914613706	1.8002638	1.341739
33.358085003895575	1.8141128	1.3468901
33.376381968462034	1.8937466	1.3761346
33.39467980890529	1.8535974	1.3614688
33.41297852581774	1.767179	1.3293529
33.43127811979204	1.7974694	1.3406973
33.44957859142105	1.819272	1.3488039
33.467879941297866	1.8645147	1.3654723
33.486182170015844	1.9227867	1.3866458
33.50448527816853	1.9654245	1.401936
33.522789266349754	1.9501082	1.3964627
33.541094135153514	1.9001132	1.378446
33.55939988517411	1.9190813	1.3853091
33.57770651700602	1.9414839	1.3933713
33.59601403124398	1.915933	1.3841723
33.61432242848296	1.8842831	1.3726919
33.632631709318154	1.8936561	1.3761017
33.650941874344994	1.9393609	1.3926094
33.66925292415916	2.0425496	1.429178
33.68756485935654	2.0645566	1.4368565
33.70587768053328	2.0041873	1.4156933
33.724191388285746	1.9594654	1.399809
33.74250598321054	1.8974081	1.3774644
33.760821465904506	1.8476923	1.3592985
33.77913783696474	1.8455069	1.3584944
33.79745509698852	1.9054857	1.3803934
33.815773246573414	1.9003369	1.378527
33.8340922863172	1.8950497	1.376608
33.852412216817896	1.9177663	1.3848344
33.87073303867377	1.9297848	1.389167
33.889054752483304	1.9183674	1.3850514
33.907377358845245	1.8704171	1.3676319
33.92570085835853	1.901446	1.3789293
33.94402525162239	1.9414952	1.3933755
33.96235053923627	1.986989	1.409606
33.980676721799824	1.8639884	1.3652796
33.999003799912984	1.8412033	1.3569095
34.01733177417592	1.9118391	1.3826927
34.03566064518901	1.8929203	1.3758343
34.0539904135529	1.8296248	1.3526362
34.07232107986846	1.8333228	1.3540025
34.090652644736785	1.9410038	1.3931991
34.108985108759235	1.9687318	1.403115
34.12731847253742	1.942359	1.3936853
34.14565273667313	1.9795761	1.4069741
34.16398790176847	2.0098977	1.4177086
34.18232396842574	1.955479	1.3983845
34.20066093724749	1.9339919	1.3906804
34.21899880883651	1.9809291	1.4074548
34.23733758379583	2.063042	1.4363294
34.25567726272874	2.0867662	1.4445643
34.27401784623872	2.0272303	1.4238083
34.29235933492957	1.9314237	1.3897567
34.31070172940526	1.9673272	1.4026145
34.32904503027003	1.9389336	1.3924559
34.347389238128386	1.9383796	1.392257
34.36573435358502	1.9764665	1.4058686
34.38408037724492	2.0325673	1.4256814
34.402427309713296	1.836096	1.3550262
34.42077515159559	1.8181978	1.3484057
34.43912390349752	1.9826827	1.4080777
34.45747356602499	2.0462286	1.4304645
34.47582413978423	1.9493382	1.3961871
34.49417562538163	1.882317	1.3719755
34.51252802342388	1.8921936	1.3755703
34.53088133451789	1.9088768	1.3816211
34.54923555927084	1.8902338	1.3748577
34.567590698290104	1.9230828	1.3867526
34.58594675218336	1.9887009	1.4102131
34.6043037215585	1.9289587	1.3888695
34.62266160702365	1.8248734	1.3508787
34.641020409187234	1.7954357	1.3399386
34.65938012865785	1.8895648	1.3746144
34.677740766044394	2.1227624	1.4569703
34.69610232195598	2.243288	1.497761
34.714464797002016	2.1206007	1.4562283
34.73282819179208	1.8298411	1.3527162
34.751192506936064	1.6829346	1.2972797
34.76955774304408	1.7157794	1.3098776
34.7879239007265	1.7444241	1.3207664
34.80629098059391	1.7575555	1.3257283
34.824658983257194	1.7713525	1.3309216
34.843027909327446	1.9025763	1.3793391
34.86139775941603	1.9277793	1.3884449
34.879768534134534	1.9939549	1.4120747
34.89814023409483	2.0312614	1.4252234
34.91651285990901	2.0384374	1.4277385
34.93488641218944	1.9093515	1.3817929
34.95326089154871	1.8228246	1.3501202
34.97163629859967	1.7904533	1.3380783
34.99001263395542	1.7377976	1.3182555
35.00838989822934	1.7481132	1.3221623
35.02676809203499	1.8770926	1.3700703
35.04514721598624	2.0689437	1.4383824
35.063527270697215	2.107176	1.4516115
35.081908256782256	2.1078784	1.4518534
35.10029017485597	2.1517034	1.4668685
35.11867302553321	2.0065694	1.4165343
35.137056809429104	2.0856316	1.4441715
35.155441527159006	2.0219605	1.4219565
35.173827179338524	1.7569731	1.3255086
35.19221376658354	1.8078814	1.3445748
35.21060128951017	2.0750732	1.4405115
35.2289897487348	2.0723608	1.4395696
35.24737914487405	1.9578013	1.3992145
35.26576947854479	2.10992	1.4525564
35.28416075036418	2.1385527	1.4623791
35.30255296094958	1.9907441	1.4109373
35.32094611091867	1.7161623	1.3100238
35.33934020088932	1.6502626	1.2846254
35.35773523147969	1.9683307	1.4029721
35.3761312033082	2.3135405	1.5210327
35.394528116993506	2.4600325	1.568449
35.41292597315452	2.4777997	1.5741028
35.431324772410434	2.7365353	1.6542476
35.449724515380666	2.516793	1.5864403
35.46812520268491	2.0752082	1.4405583
35.486526834943106	1.80338	1.3428998
35.504929412775454	1.7506129	1.3231072
35.52333293680242	2.009635	1.4176159
35.54173740764471	2.3316925	1.526988
35.560142825923286	2.0065088	1.416513
35.5785491922594	1.2956686	1.1382744
35.59695650727454	1.0324895	1.016115
35.61536477159042	0.6898081	0.83054686
