0.008763373481513119	0.0	0.0
0.026290120649546365	0.0	0.0
0.043816868432600686	0.0	0.0
0.06134361724069026	0.0	0.0
0.07887036748382949	0.00063309097	0.0251613
0.0963971195720331	0.055701267	0.23601116
0.11392387391531617	0.09423761	0.30698144
0.1314506309236943	0.12628101	0.3553604
0.1489773910071836	0.14275865	0.37783417
0.16650415457580078	0.20752805	0.45555246
0.18403092203956356	0.21973042	0.4687541
0.20155769380849	0.23976426	0.48965728
0.2190844702925996	0.20130561	0.44867095
0.2366112519019124	0.14915167	0.3862016
0.2541380390464497	0.09574663	0.30942953
0.27166483213623416	0.10647743	0.3263088
0.28919163158128947	0.14003675	0.37421483
0.3067184377916406	0.20516342	0.45294967
0.324245251177314	0.2408176	0.49073172
0.34177207214833777	0.29840568	0.5462652
0.3592989011147415	0.3206298	0.5662418
0.37682573848655654	0.28881907	0.5374189
0.39435258467381573	0.24836232	0.49835962
0.41187944008655414	0.19058578	0.43656132
0.42940630513480854	0.1753066	0.4186963
0.446933180228618	0.13962501	0.37366432
0.4644600657780234	0.16441184	0.40547732
0.48198696219306775	0.13993344	0.37407678
0.49951386988379676	0.15230548	0.39026335
0.5170407892602581	0.12258019	0.35011455
0.5345677207325025	0.11685308	0.3418378
0.5520946647105822	0.13547188	0.36806506
0.5696216216045534	0.113609545	0.33706015
0.5871485918244737	0.13169008	0.3628913
0.6046755757804043	0.13922186	0.37312445
0.6222025738824094	0.14331484	0.37856945
0.6397295865405557	0.1700102	0.41232294
0.6572566141649129	0.13101959	0.36196628
0.6747836571655547	0.13162257	0.36279824
0.6923107159525568	0.13608931	0.36890283
0.7098377909359992	0.187839	0.43340397
0.7273648825259653	0.23207775	0.4817445
0.7448919911325411	0.20922844	0.45741495
0.762419117165817	0.17419441	0.41736603
0.7799462610358868	0.1419241	0.37672815
0.7974734231528482	0.1797845	0.42401004
0.8150006039268024	0.17638779	0.41998547
0.8325278037678551	0.17380872	0.41690373
0.8500550230861152	0.18100204	0.42544335
0.8675822622916969	0.1850835	0.4302133
0.8851095217947171	0.17522933	0.41860402
0.9026368020052984	0.17112432	0.41367176
0.9201641033335665	0.2018332	0.4492585
0.9376914261896523	0.2387152	0.4885849
0.9552187709836915	0.2708402	0.5204231
0.9727461381258234	0.25980484	0.50971055
0.990273528026193	0.2506742	0.5006737
1.0078009410949496	0.21988402	0.46891794
1.0253283777422473	0.20972735	0.45795998
1.0428558383782454	0.21334393	0.46189168
1.0603833234131086	0.2198339	0.46886447
1.0779108332570058	0.24188668	0.49181977
1.0954383683201119	0.2804538	0.52957886
1.112965929012607	0.3287624	0.5733781
1.1304935157446763	0.5424518	0.73651326
1.1480211289265108	0.56215817	0.7497721
1.1655487689683062	1.4559093	1.2066107
1.1830764362802655	1.7558193	1.3250734
1.200604131272596	2.1950045	1.4815547
1.2181318543555117	2.4637234	1.5696253
1.235659605939232	2.5326457	1.5914289
1.253187386433982	4.0799456	2.0198874
1.270715196249994	6.4000244	2.5298269
1.2882430357975057	11.930435	3.4540462
1.3057709054867608	16.903069	4.1113343
1.3232988057280106	22.93035	4.788564
1.3408267369315112	27.915966	5.283556
1.358354699507526	31.466185	5.6094728
1.3758826938663256	35.795776	5.9829574
1.3934107204181858	38.193996	6.180129
1.410938779573391	38.348824	6.1926427
1.4284668717422309	38.78797	6.227999
1.4459949973350033	37.744904	6.143688
1.4635231567620117	38.11148	6.1734495
1.4810513504335687	37.547535	6.1276045
1.4985795787599925	36.910233	6.0753794
1.5161078421516088	36.20156	6.016773
1.5336361410187505	35.19305	5.932373
1.5511644757717598	34.839622	5.9025097
1.5686928468209842	35.209946	5.933797
1.58622125457678	36.331135	6.0275316
1.6037496994495108	37.895824	6.1559587
1.621278181849548	37.76092	6.1449914
1.6388067021872719	38.272278	6.186459
1.6563352608730693	37.690166	6.1392317
1.673863858317336	36.777115	6.064414
1.6913924949304753	35.90735	5.9922743
1.7089211711228998	34.765026	5.8961873
1.7264498873050296	33.71419	5.806392
1.7439786438872935	32.895416	5.7354527
1.7615074412801288	32.171394	5.6719832
1.779036279893981	31.84092	5.642776
1.796565160139305	30.813904	5.5510273
1.814094082426564	30.072958	5.4838815
1.8316230471662298	29.181465	5.401987
1.849152054768784	28.426846	5.331683
1.8666811056447168	27.864145	5.27865
1.8842102002045273	26.879278	5.184523
1.901739338858724	26.225918	5.1211247
1.9192685220178245	25.567131	5.056395
1.9367977500923557	24.752174	4.975156
1.9543270234928547	24.33546	4.9330983
1.971856342629867	23.905693	4.8893447
1.9893857079139496	23.43328	4.8407936
2.006915119755667	22.919422	4.787423
2.0244445785655945	22.334896	4.7259808
2.0419740847543175	22.03924	4.694597
2.0595036387324317	21.909893	4.6808004
2.0770332409105414	21.3842	4.6243052
2.094562891699263	20.931551	4.5751014
2.1120925915092217	20.243896	4.499322
2.129622340751053	20.175728	4.4917397
2.1471521398354043	188.29788	13.722168
2.1646819891729323	444.5221	21.083693
2.182211889174303	440.49408	20.987951
2.1997418402501974	452.84122	21.280066
2.2172718428113023	432.6576	20.800423
2.234801897268317	320.5047	17.902645
2.2523320040319548	16.793133	4.0979424
2.269862163512935	16.753994	4.0931644
2.287392376121992	16.593327	4.0734906
2.304922642269869	16.219194	4.027306
2.322452962367322	15.970333	3.99629
2.3399833368251164	15.76858	3.9709673
2.357513766054032	15.588067	3.9481726
2.3750442504648586	15.334598	3.9159415
2.3925747904683963	15.154814	3.8929183
2.410105386475459	14.935582	3.864658
2.4276360388968707	14.551077	3.8145874
2.445166748143469	14.122821	3.7580342
2.4626975146261025	13.722419	3.7043784
2.4802283387556323	13.593171	3.6868918
2.4977592209429305	13.38634	3.6587348
2.5152901615988825	13.208508	3.634351
2.5328211611343865	13.028015	3.6094341
2.5503522199603523	12.735801	3.5687253
2.5678833384877024	12.572966	3.5458379
2.5854145171273712	12.384845	3.5192108
2.6029457562903064	12.273389	3.5033398
2.620477056387469	12.116433	3.4808667
2.6380084178298326	11.751578	3.4280574
2.655539841028383	11.28813	3.3597813
2.673071326394119	10.956734	3.3100958
2.6906028743380523	10.638515	3.2616737
2.708134485271211	10.6331215	3.2608469
2.7256661596046325	10.668434	3.2662568
2.743197897749369	10.58116	3.2528694
2.760729700116486	10.406365	3.22589
2.778261567117063	10.172244	3.1893957
2.795793499162193	10.14601	3.1852803
2.8133254966629817	10.10081	3.178177
2.830857560030551	9.9531765	3.1548655
2.8483896896760337	9.816926	3.1331973
2.865921886010578	9.617396	3.1011927
2.883454149445347	9.474265	3.0780294
2.9009864803915177	9.31592	3.0521991
2.91851887926028	9.16026	3.0265923
2.9360513464628384	8.98402	2.9973354
2.953583882410413	8.999747	2.9999578
2.9711164875142373	8.990947	2.9984908
2.9886491621855606	9.016627	3.00277
3.0061819068356455	8.952842	2.99213
3.023714721875769	8.873775	2.978888
3.041247607717225	8.77913	2.9629598
3.0587805647713213	8.614385	2.9350271
3.0763135934493806	8.481622	2.9123223
3.0938466941627407	8.401166	2.8984766
3.1113798673227544	8.25532	2.873207
3.1289131133407904	8.11497	2.8486786
3.1464464326282315	7.929136	2.8158722
3.1639798255964786	7.7557316	2.7849114
3.1815132926569443	7.5931954	2.7555754
3.1990468342210603	7.4943604	2.737583
3.216580450700272	7.4807787	2.7351012
3.2341141425060416	7.49288	2.7373126
3.251647910049847	7.4428215	2.7281535
3.2691817537431813	7.318388	2.705252
3.286715673997555	7.205978	2.6843953
3.3042496712244938	7.161207	2.6760433
3.32178374583554	7.0493107	2.6550539
3.339317898242251	6.92153	2.63088
3.3568521288562034	6.8616333	2.619472
3.3743864380889876	6.7758865	2.6030533
3.3919208263522127	6.7570586	2.5994344
3.4094552940575023	6.7010074	2.5886304
3.4269898416164972	6.7157593	2.591478
3.444524469440858	6.625301	2.573966
3.4620591779422587	6.502034	2.5499086
3.479593967532391	6.4015665	2.5301318
3.4971288386229658	6.404809	2.5307724
3.5146637916257086	6.4081764	2.5314376
3.5321988269523628	6.438125	2.5373461
3.5497339450146903	6.4957695	2.54868
3.5672691462244708	6.4183517	2.5334466
3.5848044309934988	6.376365	2.5251465
3.60233979973359	6.2257333	2.495142
3.619875252856575	6.2604747	2.502094
3.6374107907743034	6.310298	2.5120306
3.6549464138986427	6.403494	2.5305126
3.6724821226414788	6.352105	2.5203383
3.690017917414714	6.385886	2.5270312
3.7075537986302702	6.3741517	2.5247083
3.7250897667000857	6.4636216	2.5423653
3.7426258220361235	6.5884757	2.5668027
3.7601619650503553	6.8445625	2.6162114
3.777698196154779	7.3537555	2.7117808
3.7952345157614067	8.335207	2.887076
3.8127709242822716	9.139544	3.0231678
3.830307422129425	11.158418	3.3404217
3.847844009714936	12.468582	3.5310879
3.8653806874508954	15.741555	3.967563
3.882917455749409	15.354459	3.9184766
3.900454315022606	15.445491	3.9300752
3.917991265682631	12.616068	3.5519104
3.9355283081416506	10.921305	3.3047397
3.9530654428118495	8.82887	2.9713414
3.970602670105433	7.562375	2.7499774
3.9881399904346244	6.591301	2.567353
4.005677404211669	6.492978	2.5481322
4.023214911848827	6.443368	2.538379
4.0407525137583855	6.465066	2.5426495
4.058290210352644	6.4089637	2.531593
4.075828002043927	6.299497	2.5098798
4.0933658892445814	6.1839404	2.486753
4.110903872366966	6.2582345	2.5016463
4.128441951823468	6.2279205	2.4955802
4.145980128026488	6.2030416	2.4905906
4.163518401388452	6.097372	2.4692857
4.181056772321807	6.0602045	2.4617484
4.1985952412390155	6.014815	2.452512
4.216133808552567	6.11858	2.4735763
4.233672474674966	6.235709	2.4971402
4.251211240018741	6.5129113	2.5520406
4.268750104996445	6.7058835	2.589572
4.286289070020643	7.7023435	2.7753096
4.303828135503928	9.355792	3.058724
4.3213673018589125	29.686743	5.448554
4.3389065694982305	90.84895	9.531471
4.356445938834537	166.07904	12.887166
4.3739854102805085	171.913	13.11156
4.391524984248844	172.72984	13.142673
4.409064661152262	136.71738	11.69262
4.426604441403504	96.97216	9.847445
4.444144325415337	75.57805	8.693563
4.461684313600543	21.516405	4.638578
4.47922440637193	21.987215	4.6890526
4.496764604142329	20.383606	4.5148206
4.5143049073245916	18.822287	4.3384657
4.531845316331589	16.638721	4.079059
4.5493858315762195	13.799279	3.7147381
4.566926453471405	11.450085	3.3837974
4.584467182430081	9.491226	3.0807834
4.602008018865218	8.352744	2.8901114
4.619548963189798	7.5884724	2.7547183
4.637090015816834	7.0251074	2.650492
4.654631177159353	6.736128	2.595405
4.672172447630417	6.467913	2.5432093
4.689713827643102	6.336947	2.5173292
4.7072553176105085	6.0789595	2.4655547
4.724796917945764	6.00712	2.4509428
4.742338629062015	5.9062977	2.4302876
4.759880451372434	5.8530517	2.4193082
4.777422385290215	5.7929974	2.4068646
4.794964431228581	5.670289	2.3812368
4.812506589600768	5.613315	2.3692436
4.830048860820047	5.593106	2.3649747
4.847591245299709	5.628682	2.3724844
4.8651337434530655	5.618654	2.37037
4.882676355693457	5.641977	2.3752847
4.900219082434242	5.609287	2.3683932
4.917761924088813	5.594793	2.3653314
4.935304881070575	5.587328	2.3637528
4.952847953792969	5.4889574	2.3428524
4.970391142669449	5.432064	2.330679
4.9879344481135055	5.4139094	2.326781
5.005477870538642	5.4716167	2.3391488
5.023021410358394	5.4160395	2.3272386
5.040565067986324	5.3659945	2.3164616
5.05810884383601	5.255035	2.2923863
5.075652738321066	5.305581	2.3033848
5.09319675185512	5.351533	2.313338
5.110740884851836	5.3265805	2.3079386
5.128285137724894	5.2414956	2.2894313
5.145829510888007	5.214788	2.283591
5.163374004754908	5.2004304	2.2804453
5.1809186197393595	5.33084	2.3088613
5.198463356255145	5.2617455	2.2938495
5.216008214716077	5.3273644	2.3081083
5.233553195535998	5.3567166	2.3144581
5.251098299128764	5.402239	2.3242717
5.268643525908272	5.36524	2.3162987
5.286188876288432	5.3131757	2.3050327
5.3037343506831895	5.3150926	2.3054485
5.32127994950651	5.2948933	2.3010635
5.3388256731723915	5.313037	2.3050027
5.356371522094851	5.36265	2.3157396
5.373917496687938	5.2941775	2.300908
5.391463597365729	5.2989187	2.301938
5.40900982454232	5.2484245	2.290944
5.426556178631843	5.2761145	2.2969794
5.444102660048449	5.1908636	2.2783468
5.4616492692063225	5.1523323	2.269875
5.479196006519669	5.149574	2.2692673
5.496742872402727	5.1868887	2.2774742
5.514289867269756	5.2752643	2.2967944
5.531836991535049	5.299455	2.3020546
5.549384245612924	5.2644815	2.2944458
5.566931629917724	5.1697383	2.273706
5.584479144863822	5.1128078	2.2611518
5.6020267908656205	5.140295	2.267222
5.619574568337545	5.248024	2.2908566
5.637122477694054	5.3161945	2.3056874
5.654670519349629	5.318644	2.3062186
5.672218693718784	5.237853	2.2886357
5.689767001216059	5.2040315	2.2812347
5.707315442256021	5.208576	2.2822306
5.724864017253266	5.22965	2.2868428
5.7424127266224225	5.241614	2.289457
5.75996157077814	5.209294	2.2823877
5.777510550135105	5.2938433	2.3008354
5.795059665108022	5.3234196	2.3072536
5.812608916111639	5.3711505	2.3175743
5.830158303560715	5.4616885	2.3370256
5.847707827870055	5.376858	2.3188055
5.86525748945448	5.361879	2.3155732
5.8828072887288485	5.466602	2.3380766
5.900357226108044	5.577814	2.3617396
5.917907302006979	5.7218165	2.392032
5.9354575168406	6.307707	2.511515
5.9530078710238765	6.793339	2.6064034
5.970558364971812	7.303839	2.7025616
5.988108999099438	7.603665	2.7574744
6.005659773821818	8.090128	2.844315
6.023210689554039	7.90063	2.810806
6.040761746711227	8.287597	2.8788185
6.058312945708531	7.7132697	2.7772775
6.075864286961132	7.2002077	2.6833203
6.093415770884244	6.5142765	2.552308
6.1109673978931065	5.9488096	2.4390182
6.128519168402993	5.4450803	2.3334696
6.146071082829204	5.318383	2.306162
6.163623141587075	5.207478	2.2819898
6.181175345091969	5.174201	2.274687
6.198727693759281	5.150161	2.2693965
6.216280188004435	5.227684	2.286413
6.233832828242885	5.233626	2.2877119
6.251385614890126	5.1954217	2.2793467
6.268938548361669	5.153826	2.270204
6.286491629073067	5.049017	2.247002
6.304044857439898	5.0858717	2.2551877
6.321598233877777	5.035113	2.2439058
6.339151758802344	5.060252	2.2495005
6.356705432629277	4.9771595	2.230955
6.37425925577428	4.9375772	2.222066
6.391813228653095	4.94377	2.223459
6.409367351681486	4.9643245	2.2280765
6.426921625275259	4.9754934	2.2305815
6.44447604985025	5.017428	2.2399616
6.46203062582232	5.0145893	2.239328
6.47958535360737	5.057154	2.2488117
6.497140233621328	5.1200914	2.2627618
6.514695266280161	5.113249	2.2612493
6.532250451999859	5.098574	2.2580023
6.549805791196454	5.0374823	2.2444336
6.567361284286002	4.9972415	2.235451
6.584916931684597	5.0324273	2.243307
6.602472733808367	5.0513525	2.2475214
6.6200286910734665	5.0769267	2.2532036
6.637584803896092	5.0453057	2.2461758
6.655141072692462	5.078045	2.2534518
6.672697497878842	5.0394983	2.2448826
6.690254079871514	5.031415	2.2430816
6.707810819086808	5.0281687	2.2423577
6.725367715941078	5.0031466	2.2367716
6.742924770850719	4.9898753	2.2338028
6.760481984232151	4.9885864	2.2335143
6.778039356501836	4.9973593	2.2354774
6.795596888076266	4.9765716	2.230823
6.813154579371963	4.9982715	2.2356815
6.830712430805492	5.021002	2.2407591
6.84827044279344	5.026963	2.242089
6.865828615752445	4.963363	2.2278607
6.883386950099159	4.9506383	2.225003
6.900945446250287	4.8830743	2.2097678
6.918504104622553	4.9320498	2.2208219
6.936062925632727	5.0120544	2.238762
6.953621909697607	5.1055765	2.2595522
6.971181057234028	5.1810646	2.2761953
6.988740368658859	5.2865105	2.2992413
7.006299844389007	5.3221736	2.3069837
7.023859484841407	5.264298	2.2944057
7.041419290433036	5.2969027	2.3015
7.058979261580902	5.421605	2.328434
7.0765393987020495	5.632767	2.3733451
7.094099702213559	6.032465	2.4561076
7.111660172532549	6.3745184	2.5247808
7.129220810076164	6.861394	2.6194263
7.146781615261595	7.548466	2.7474473
7.16434258850606	7.732619	2.7807586
7.181903730226821	8.166808	2.8577628
7.1994650408411704	8.184403	2.8608396
7.217026520766437	8.34335	2.888486
7.234588170419983	8.4629135	2.9091086
7.252149990219215	8.381443	2.8950722
7.269711980581568	8.2473755	2.8718245
7.2872741419245175	8.032711	2.8342037
7.304836474665574	7.7042017	2.7756443
7.322398979222286	7.419659	2.723905
7.339961656012233	7.2369184	2.6901522
7.357524505453039	6.967251	2.639555
7.375087527962357	6.6258235	2.5740676
7.392650723957886	6.259131	2.5018256
7.410214093857353	5.880294	2.4249318
7.427777638078528	5.6120405	2.3689747
7.445341357039213	5.5156994	2.3485527
7.4629052511572525	5.408354	2.3255868
7.480469320850524	5.419817	2.3280501
7.498033566536948	5.3386617	2.3105545
7.5155979886344735	5.27197	2.296077
7.5331625875610975	5.182741	2.2765634
7.550727363734844	5.162145	2.2720354
7.568292317573788	5.136158	2.2663093
7.585857449496025	5.1993585	2.2802103
7.603422759919705	5.2102656	2.2826006
7.620988249263007	5.229855	2.2868876
7.638553917944147	5.1751285	2.274891
7.656119766381391	5.136992	2.2664933
7.673685794993023	5.1551027	2.2704852
7.691252004197388	5.17165	2.2741263
7.70881839441285	5.1155605	2.2617605
7.726384966057826	5.0855193	2.2551095
7.743951719550762	5.1051946	2.2594678
7.761518655310149	5.191134	2.278406
7.779085773754511	5.256395	2.292683
7.796653075302419	5.294259	2.3009257
7.814220560372475	5.3182273	2.3061283
7.831788229383323	5.3624167	2.3156893
7.8493560827536495	5.292802	2.300609
7.866924120902174	5.259566	2.2933743
7.884492344247663	5.26981	2.2956066
7.9020607532089135	5.2882214	2.2996132
7.919629348204771	5.338454	2.3105094
7.937198129654115	5.3640795	2.3160481
7.954767097975865	5.4286	2.3299356
7.972336253588986	5.4590282	2.3364563
7.989905596912472	5.450883	2.3347125
8.007475128365371	5.388785	2.3213756
8.025044848366756	5.3640695	2.316046
8.042614757335754	5.445398	2.3335376
8.060184855691523	5.6052103	2.3675325
8.07775514385327	5.7649374	2.4010284
8.095325622240228	5.8679647	2.4223883
8.112896291271687	5.9342394	2.4360294
8.130467151366968	5.976011	2.444588
8.148038202945436	5.992505	2.4479594
8.165609446426497	5.9963317	2.4487407
8.183180882229594	6.0252438	2.4546373
8.200752510774217	6.034428	2.4565072
8.218324332479893	5.9734817	2.4440708
8.235896347766193	5.964719	2.4422774
8.253468557052724	6.0467286	2.4590096
8.27104096075914	6.078898	2.465542
8.288613559305137	6.131383	2.476163
8.306186353110448	6.1680336	2.4835527
8.32375934259485	6.2168984	2.493371
8.341332528178162	6.1959524	2.489167
8.358905910280246	6.2224636	2.4944866
8.376479489321003	6.1844096	2.4868474
8.394053265720377	6.2326317	2.4965239
8.411627239898356	6.2562833	2.5012562
8.42920141227497	6.226684	2.4953325
8.44677578327029	6.2621603	2.502431
8.464350353304427	6.2335415	2.496706
8.48192512279754	6.30828	2.5116289
8.499500092169827	6.3584375	2.5215943
8.51707526184153	6.3564215	2.5211945
8.534650632232934	6.3294377	2.5158374
8.552226203764365	6.338911	2.5177195
8.569801976856192	6.3547187	2.5208566
8.587377951928834	6.432585	2.5362542
8.60495412940274	6.4082346	2.531449
8.622530509698416	6.4246736	2.534694
8.6401070932364	6.475719	2.5447433
8.657683880437283	6.512063	2.5518744
8.675260871721695	6.6577444	2.5802605
8.692838067510303	6.793007	2.6063397
8.710415468223834	6.980631	2.6420884
8.727993074283043	7.194907	2.6823325
8.745570886108737	7.2331367	2.689449
8.763148904121765	7.2609463	2.6946144
8.78072712874302	7.1958556	2.6825092
8.798305560393441	7.4310822	2.7260013
8.815884199494006	7.5901904	2.75503
8.833463046465745	7.848386	2.801497
8.851042101729728	7.9761667	2.824211
8.86862136570707	8.299648	2.880911
8.886200838818924	8.385924	2.8958461
8.903780521486505	8.424023	2.9024167
8.921360414131055	8.487668	2.9133604
8.938940517173874	8.669091	2.9443321
8.956520831036297	8.866121	2.9776032
8.97410135613971	9.150424	3.0249667
8.99168209290554	9.328498	3.054259
9.009263041755265	9.590656	3.0968785
9.026844203110405	9.798668	3.1302824
9.044425577392525	9.848814	3.138282
9.062007165023239	9.87315	3.1421568
9.079588966424197	10.092496	3.176869
9.097170982017108	10.30302	3.2098317
9.11475321222372	11.242418	3.3529716
9.132335657465825	12.142277	3.484577
9.149918318165264	12.210318	3.4943266
9.167501194743924	12.6732	3.5599437
9.18508428762374	12.341306	3.5130196
9.202667597226693	12.344546	3.5134807
9.220251123974803	12.079513	3.4755592
9.237834868290143	11.819313	3.4379227
9.255418830594836	11.4774275	3.3878353
9.273003011311046	10.980534	3.3136888
9.290587410860985	10.74366	3.2777522
9.308172029666911	10.1845	3.1913164
9.32575686815113	9.924881	3.150378
9.343341926735997	8.774164	2.9621215
9.360927205843916	8.548202	2.9237309
9.378512705897327	8.373772	2.893747
9.396098427318728	8.166697	2.8577433
9.413684370530664	8.046551	2.8366442
9.431270535955722	7.9434986	2.8184214
9.448856924016539	7.8821917	2.8075242
9.466443535135806	7.7555375	2.7848766
9.484030369736251	7.743015	2.7826273
9.501617428240658	7.7179184	2.778114
9.519204711071852	7.781202	2.7894807
9.536792218652714	7.8254776	2.7974055
9.55437995140617	7.885923	2.8081884
9.571967909755191	7.8928404	2.8094199
9.589556094122802	7.9686327	2.8228767
9.60714450493207	8.010647	2.8303087
9.624733142606116	8.02391	2.8326507
9.642322007568108	7.99769	2.8280187
9.659911100241267	7.9461246	2.818887
9.677500421048851	7.9903326	2.8267176
9.695089970414175	8.054251	2.8380013
9.712679748760609	8.133114	2.8518615
9.730269756511557	8.253401	2.8728733
9.747859994090492	8.292918	2.8797426
9.765450461920915	8.294388	2.879998
9.78304116042639	8.242776	2.8710234
9.800632090030527	8.210225	2.865349
9.81822325115699	8.271114	2.8759546
9.835814644229481	8.304317	2.8817213
9.853406269671762	8.3640375	2.8920646
9.870998127907646	8.392813	2.8970351
9.888590219360985	8.3876505	2.8961442
9.906182544455698	8.354508	2.8904166
9.923775103615734	8.353671	2.890272
9.941367897265108	8.311189	2.882913
9.958960925827878	8.345007	2.8887725
9.97655418972816	8.342187	2.8882844
9.994147689390106	8.28531	2.8784213
10.011741425237934	8.347054	2.8891268
10.029335397695904	8.388436	2.8962798
10.04692960718833	8.354541	2.8904223
10.06452405413958	8.245948	2.8715758
10.082118738974064	8.240304	2.870593
10.099713662116246	8.285006	2.8783686
10.117308823990651	8.33524	2.8870816
10.134904225021844	8.279471	2.877407
10.152499865634445	8.210256	2.8653543
10.170095746253125	8.252264	2.8726754
10.18769186730261	8.215349	2.8662431
10.205288229207675	8.271777	2.8760698
10.222884832393145	8.212149	2.8656847
10.2404816772839	8.191389	2.8620603
10.258078764304868	8.150573	2.8549209
10.275676093881035	8.16515	2.8574727
10.293273666437438	8.16912	2.8581672
10.310871482399158	8.203081	2.8641021
10.32846954219134	8.094933	2.8451595
10.346067846239173	8.049402	2.8371468
10.363666394967908	8.042856	2.835993
10.38126518880283	8.081481	2.8427947
10.398864228169298	8.189383	2.8617098
10.416463513492713	8.2300415	2.868805
10.434063045198531	8.175093	2.859212
10.451662823712262	8.151481	2.85508
10.469262849459467	8.076814	2.8419735
10.486863122865758	7.9652376	2.8222752
10.504463644356806	7.999557	2.8283489
10.522064414358338	7.9619603	2.8216946
10.539665433296118	7.9547396	2.8204148
10.557266701595987	7.8761463	2.8064473
10.574868219683818	7.830972	2.7983875
10.592469987985552	7.7956777	2.792074
10.610072006927185	7.680944	2.7714517
10.627674276934751	7.5511446	2.7479346
10.64527679843435	7.3279157	2.7070124
10.662879571852143	7.1877127	2.680991
10.680482597614331	7.1024003	2.6650329
10.698085876147173	6.9438868	2.6351256
10.715689407876988	6.888292	2.6245556
10.733293193230146	6.829674	2.6133645
10.750897232633072	6.77132	2.602176
10.76850152651225	6.7172303	2.591762
10.786106075294207	6.6804004	2.584647
10.803710879405534	6.585116	2.566148
10.821315939272877	6.507788	2.5510366
10.83892125532294	6.4353876	2.5368066
10.856526827982472	6.4282017	2.53539
10.874132657678285	6.397507	2.5293293
10.891738744837243	6.3457456	2.5190763
10.909345089886271	6.241367	2.4982727
10.926951693252343	6.149919	2.479903
10.944558555362494	6.0760117	2.4649568
10.96216567664381	5.959112	2.4411292
10.979773057523436	5.8926806	2.4274845
10.997380698428573	5.847074	2.4180725
11.014988599786477	5.832333	2.4150224
11.032596762024461	5.7712674	2.4023461
11.050205185569892	5.705055	2.3885257
11.067813870850198	5.6809726	2.383479
11.085422818292859	5.6249156	2.3716905
11.10303202832541	5.5394	2.353593
11.120641501375454	5.444266	2.333295
11.138251237870636	5.3232603	2.3072193
11.155861238238671	5.2142777	2.2834792
11.173471502907317	5.1770573	2.2753148
11.191082032304402	5.1420226	2.267603
11.208692826857805	5.1116614	2.2608984
11.226303886995465	5.041896	2.2454166
11.243915213145371	5.011951	2.2387388
11.261526805735578	5.0020733	2.2365315
11.279138665194196	4.9275856	2.2198167
11.296750791949393	4.832749	2.1983514
11.314363186429393	4.749026	2.179226
11.331975849062479	4.686583	2.1648517
11.34958878027699	4.6429048	2.15474
11.36720198050133	4.596826	2.144021
11.384815450163948	4.599324	2.1446035
11.402429189693366	4.5710397	2.137999
11.420043199518153	4.5628448	2.1360817
11.437657480066942	63.52487	7.970249
11.455272031768422	85.25998	9.233633
11.472886855051353	107.621475	10.374077
11.490501950344528	99.19826	9.959832
11.508117318076819	84.51936	9.193441
11.52573295867715	45.826332	6.769515
11.543348872574514	4.1516285	2.0375545
11.560965060197946	4.1174207	2.0291429
11.57858152197655	4.0905213	2.0225036
11.59619825833949	4.0688577	2.0171409
11.613815269715985	4.058304	2.0145233
11.631432556535323	38.574734	6.210856
11.649050119226837	83.096436	9.115725
11.666667958219929	93.485695	9.6688
11.68428607394406	107.73276	10.379439
11.701904466828756	82.52949	9.084574
11.719523137303586	65.35434	8.084203
11.737142085798196	4.5751615	2.1389627
11.754761312742286	3.7737758	1.9426209
11.772380818565619	3.780803	1.9444287
11.790000603698015	3.7310047	1.9315809
11.80762066856935	3.6059635	1.8989375
11.825241013609572	3.5513122	1.8844925
11.842861639248683	3.5436904	1.8824693
11.860482545916748	3.5429537	1.8822736
11.878103734043883	3.516937	1.8753499
11.895725204060282	3.472487	1.863461
11.91334695639619	3.3897312	1.8411223
11.930968991481919	3.339282	1.8273703
11.948591309747824	3.3108838	1.8195834
11.966213911624347	3.3183396	1.8216311
11.98383679754198	3.3054633	1.8180933
12.001459967931268	3.2727394	1.8090714
12.019083423222835	3.2429807	1.8008277
12.036707163847352	3.2031937	1.7897468
12.05433119023556	3.1569257	1.7767739
12.071955502818259	3.1749165	1.7818296
12.089580102026313	3.2099257	1.7916266
12.107204988290643	3.2919729	1.8143795
12.12483016204224	3.3062975	1.8183228
12.142455623712152	3.2846577	1.8123624
12.16008137373149	3.2161956	1.7933755
12.177707412531431	3.1584556	1.7772044
12.19533374054321	3.0917318	1.7583321
12.212960358198126	3.0507839	1.7466494
12.230587265927545	3.0507867	1.7466501
12.248214464162889	3.0384393	1.743112
12.265841953335649	3.0380263	1.7429935
12.283469733877375	3.036098	1.7424402
12.301097806219685	3.0368786	1.7426642
12.31872617079425	3.0282407	1.7401841
12.336354828032825	2.9958975	1.7308661
12.353983778367205	2.9582274	1.7199498
12.371613022229262	2.9236615	1.7098718
12.389242560050928	2.8960197	1.7017696
12.406872392264201	2.917075	1.7079446
12.424502519301143	2.9226937	1.7095888
12.442132941593874	2.9202764	1.7088816
12.459763659574586	2.896955	1.7020444
12.477394673675532	2.8655543	1.6927948
12.49502598432903	2.8580747	1.6905841
12.51265759196746	2.852811	1.6890267
12.530289497023267	2.853417	1.689206
12.547921699928967	2.848572	1.6877713
12.565554201117134	2.806293	1.6751994
12.583187001020404	2.7947738	1.6717577
12.600820100071486	2.7958682	1.6720849
12.618453498703152	2.7996395	1.6732123
12.636087197348235	2.7870266	1.6694391
12.65372119643964	2.7494564	1.6581485
12.671355496410326	2.7380824	1.6547152
12.68899009769333	2.8031547	1.6742624
12.706625000721749	2.8900092	1.7000027
12.724260205928752	2.9536617	1.7186221
12.741895713747551	3.0032425	1.7329866
12.759531524611454	3.0377097	1.7429026
12.777167638953818	3.0082455	1.7344295
12.794804057208072	3.0048242	1.7334429
12.812440779807702	3.028205	1.7401738
12.830077807186271	3.18601	1.7849398
12.847715139777405	3.2508998	1.8030251
12.865352778014795	3.4514673	1.8578125
12.882990722332197	3.5767734	1.891236
12.90062897316344	3.679277	1.9181441
12.918267530942412	3.7741444	1.9427158
12.935906396103071	3.625198	1.9039953
12.953545569079449	3.722536	1.9293875
12.971185050305628	3.5605216	1.8869344
12.988824840215775	3.5968046	1.8965243
13.006464939244115	3.650106	1.9105251
13.024105347824943	3.4941318	1.8692597
13.041746066392617	3.5459752	1.883076
13.05938709538157	3.3518965	1.8308185
13.077028435226296	3.3710124	1.8360317
13.094670086361363	3.3067508	1.8184474
13.112312049221401	3.2301774	1.7972695
13.129954324241112	3.116776	1.7654393
13.147596911855258	2.912541	1.7066168
13.165239812498685	2.8578334	1.6905128
13.182883026606293	2.8235836	1.6803522
13.200526554613058	2.8049877	1.6748097
13.218170396954017	2.7650993	1.6628587
13.235814554064284	2.7445695	1.6566743
13.253459026379034	2.7561402	1.6601627
13.271103814333523	2.7424407	1.6560316
13.288748918363058	2.756261	1.6601992
13.306394338903031	2.712006	1.646817
13.32404007638889	2.6941533	1.6413876
13.341686131256164	2.7247767	1.6506897
13.359332503940449	2.7151232	1.6477631
13.376979194877402	2.7001066	1.6432002
13.394626204502751	2.734613	1.6536665
13.412273533252307	2.7731855	1.6652884
13.429921181561937	2.7431912	1.6562582
13.447569149867581	2.7285748	1.6518399
13.465217438605247	2.7459207	1.657082
13.482866048211022	2.723353	1.6502584
13.500514979121052	2.697951	1.642544
13.518164231771568	2.6569967	1.6300297
13.535813806598844	2.658319	1.6304352
13.553463704039254	2.68814	1.6395547
13.571113924529229	2.694536	1.6415042
13.588764468505275	2.7420123	1.6559023
13.606415336403956	2.7579672	1.6607128
13.624066528661917	2.7372048	1.6544499
13.641718045715882	2.7690299	1.6640402
13.659369888002635	2.8161619	1.6781424
13.67702205595903	2.8881495	1.6994556
13.694674550021993	2.9731188	1.7242734
13.712327370628532	3.0380344	1.7429959
13.729980518215713	3.0979722	1.7601057
13.747633993220681	3.1358786	1.7708412
13.765287796080647	3.183798	1.7843201
13.7829419272329	3.2266343	1.7962835
13.800596387114801	3.2324946	1.7979139
13.818251176163775	3.2884905	1.8134196
13.835906294817324	3.3702126	1.8358139
13.853561743513023	3.4419558	1.8552508
13.871217522688525	3.4636862	1.8610982
13.888873632781538	3.428808	1.8517041
13.906530074229858	3.4430747	1.8555524
13.92418684747135	3.4571152	1.859332
13.941843952943948	3.4724772	1.8634584
13.959501391085665	3.4547904	1.8587066
13.977159162334578	3.3821263	1.8390558
13.994817267128846	3.335107	1.8262275
14.012475705906693	3.2329338	1.7980361
14.030134479106424	3.172085	1.7810348
14.047793587166414	3.1101131	1.7635512
14.065453030525108	3.0352662	1.7422016
14.083112809621026	2.9552743	1.7190912
14.100772924892766	2.8889272	1.6996845
14.118433376778997	2.8648527	1.6925876
14.136094165718458	2.8183155	1.6787839
14.153755292149969	2.7498214	1.6582586
14.171416756512416	2.693851	1.6412956
14.189078559244768	2.6429017	1.6257004
14.20674070078606	2.5885763	1.6089053
14.224403181575408	2.5383403	1.593217
14.242066002051999	2.501643	1.5816582
14.259729162655093	2.4351912	1.5605099
14.277392663824022	2.3756435	1.5413122
14.295056505998208	2.3756382	1.5413105
14.312720689617128	2.4076433	1.5516583
14.330385215120348	2.447749	1.5645283
14.348050082947497	2.4405065	1.562212
14.3657152935383	2.4185016	1.5551533
14.383380847332528	2.4075325	1.5516225
14.401046744770051	2.3966846	1.548123
14.418712986290798	2.3940008	1.5472559
14.436379572334793	2.38762	1.5451925
14.454046503342123	2.3892622	1.5457238
14.471713779752946	2.39175	1.5465285
14.489381402007504	2.4024303	1.5499775
14.507049370546113	2.3986464	1.5487564
14.524717685809168	2.3966465	1.5481106
14.542386348237134	2.4204872	1.5557915
14.560055358270553	2.415628	1.554229
14.577724716350051	2.447022	1.564296
14.595394422916325	2.4616334	1.5689594
14.61306447841015	2.493302	1.5790193
14.63073488327237	2.4824004	1.5755635
14.648405637943917	2.4712636	1.5720253
14.6660767428658	2.492544	1.5787792
14.683748198479094	2.5160835	1.5862167
14.701420005224954	2.5704358	1.6032579
14.719092163544628	2.6056376	1.6141987
14.73676467387942	2.6577666	1.6302658
14.754437536670727	2.6340048	1.6229618
14.772110752360014	2.6309836	1.6220307
14.78978432138882	2.6461203	1.62669
14.807458244198777	2.7085836	1.6457775
14.82513252123159	2.7241743	1.6505073
14.842807152929028	2.7249885	1.6507539
14.860482139732962	2.716598	1.6482105
14.87815748208531	2.7061462	1.6450368
14.8958331804281	2.6887488	1.6397405
14.91350923520342	2.6501527	1.627929
14.931185646853438	2.6730173	1.6349365
14.948862415820408	2.6563334	1.6298262
14.966539542546656	2.6631672	1.6319213
14.98421702747459	2.668495	1.6335529
15.001894871046696	2.67027	1.634096
15.019573073705542	2.67369	1.6351422
15.037251635893766	2.6439579	1.6260252
15.054930558054092	2.682807	1.6379277
15.072609840629323	2.7453718	1.6569164
15.090289484062351	2.8859951	1.6988217
15.107969488796124	3.189378	1.785883
15.125649855273691	3.640177	1.9079248
15.14333058393817	4.1672425	2.0413826
15.161011675232768	5.0495486	2.2471201
15.17869312960076	6.435872	2.536902
15.196374947485506	8.241956	2.8708806
15.214057129330447	11.333614	3.3665433
15.231739675579114	15.944691	3.9930804
15.249422586675102	20.708656	4.5506763
15.267105863062092	23.554373	4.853285
15.284789505183847	23.580294	4.8559546
15.302473513484218	21.3682	4.6225753
15.320157888407127	17.926302	4.2339463
15.337842630396578	14.001309	3.7418323
15.355527739896656	11.010855	3.318261
15.37321321735153	8.606761	2.9337282
15.39089906320545	6.4164104	2.5330634
15.408585277902748	4.886044	2.2104397
15.42627186188783	3.8275373	1.9564093
15.443958815605198	3.3113525	1.8197122
15.461646139499424	2.995287	1.7306898
15.479333834015168	2.825143	1.6808162
15.497021899597165	2.7394934	1.6551415
15.514710336690234	2.6898677	1.6400816
15.53239914573928	2.6248438	1.620137
15.550088327189297	2.564511	1.6014091
15.567777881485336	2.5012257	1.5815264
15.58546780907256	2.519373	1.5872532
15.6031581103962	2.5273166	1.5897536
15.620848785901568	2.5519576	1.5974848
15.638539836034063	2.526695	1.5895581
15.656231261239173	2.481433	1.5752565
15.673923061962451	2.4510198	1.5655733
15.691615238649552	2.4412196	1.5624403
15.709307791746202	2.4063764	1.55125
15.727000721698221	2.3833983	1.5438259
15.744694028951498	2.3372982	1.5288224
15.76238771395202	2.3619778	1.5368727
15.780081777145844	2.394913	1.5475507
15.797776218979125	2.4063587	1.5512443
15.815471039898094	2.3648343	1.5378017
15.833166240349064	2.3115876	1.5203906
15.850861820778437	2.3027437	1.5174794
15.868557781632699	2.3092303	1.5196152
15.886254123358412	2.3231058	1.5241739
15.903950846402232	2.34827	1.5324066
15.921647951210897	2.363358	1.5373217
15.939345438231225	2.37233	1.540237
15.957043307910133	2.3628807	1.5371665
15.974741560694602	2.3373737	1.5288472
15.992440197031714	2.3705077	1.5396453
16.01013921736862	2.3778305	1.5420215
16.02783862215259	2.370774	1.5397319
16.045538411830933	2.3537076	1.5341798
16.06323858685107	2.3529332	1.5339273
16.080939147660512	2.3690689	1.539178
16.09864009470684	2.3578858	1.5355409
16.11634142843774	2.3626816	1.5371017
16.134043149300954	2.3892298	1.5457133
16.15174525774433	2.4018047	1.5497757
16.169447754215817	2.4443493	1.5634415
16.18715063916342	2.427608	1.5580783
16.204853913035244	2.432736	1.559723
16.222557576279478	2.4075065	1.5516142
16.240261629344403	22.398146	4.732668
16.257966072678386	42.931347	6.5522017
16.275670906729868	38.066257	6.169786
16.293376131947387	2.4958506	1.5798261
16.31108174877957	2.5295632	1.5904601
16.328787757675133	2.5700693	1.6031436
16.34649415908287	2.5688407	1.6027603
16.364200953451657	2.607147	1.6146662
16.38190814123048	2.616037	1.6174167
16.39961572286839	2.6145368	1.6169529
16.41732369881455	2.6418102	1.6253647
16.43503206951817	2.693889	1.6413071
16.45274083542859	2.7491195	1.6580468
16.47044999699522	2.7768238	1.6663804
16.488159554667558	2.8284404	1.6817968
16.505869508895184	2.8813245	1.6974465
16.523579860127786	2.9486673	1.7171685
16.541290608815117	2.9454868	1.7162421
16.559001755407035	2.9811294	1.7265947
16.57671330035348	2.9791331	1.7260165
16.59442524410448	3.067881	1.7515367
16.61213758711015	3.0953977	1.7593743
16.629850329820705	3.1801221	1.7832897
16.647563472686436	3.2669008	1.807457
16.665277016157724	3.3609262	1.833283
16.682990960685053	3.3991475	1.8436778
16.70070530671898	3.4173589	1.84861
16.718420054710155	3.447843	1.8568368
16.736135205109335	3.5119107	1.8740093
16.753850758367335	3.568015	1.888919
16.771566714935087	3.6580412	1.9126006
16.789283075263597	3.736679	1.9330492
16.80699983980398	3.7993672	1.9491966
16.82471700900741	3.8600047	1.9646895
16.84243458332518	3.8639483	1.9656929
16.860152563208665	3.9576557	1.9893857
16.87787094910932	4.040167	2.0100167
16.89558974147871	4.163505	2.0404668
16.913308940768466	4.242171	2.059653
16.931028547430333	4.3091044	2.0758383
16.94874856191613	4.350407	2.085763
16.966468984677785	4.356658	2.087261
16.98418981616729	4.384893	2.0940137
17.00191105683676	4.44134	2.1074486
17.019632707138374	4.514202	2.1246653
17.03735476752442	4.61366	2.1479433
17.05507723844728	4.672876	2.1616836
17.072800120359403	4.6510963	2.15664
17.090523413713353	4.610498	2.147207
17.108247118961785	4.657651	2.1581593
17.125971236557437	4.7069097	2.1695414
17.143695766953133	4.7057166	2.1692665
17.161420710601806	4.692365	2.1661868
17.179146067956477	4.663666	2.159552
17.19687183947025	4.612448	2.1476612
17.21459802559634	4.579665	2.1400151
17.232324626788028	4.6217422	2.1498237
17.25005164349871	4.668135	2.1605868
17.267779076181863	4.677226	2.1626894
17.285506925291074	4.6095424	2.1469846
17.30323519127999	4.56835	2.1373699
17.320963874602384	4.5468216	2.1323278
17.33869297571211	4.548827	2.132798
17.356422495063114	4.5506973	2.1332364
17.37415243310944	4.551952	2.1335304
17.391882790305218	4.535327	2.1296308
17.40961356710468	4.539958	2.1307178
17.42734476396215	4.550791	2.1332583
17.445076381332044	4.53477	2.1295
17.462808419668868	4.5770926	2.139414
17.48054087942723	4.6646266	2.1597748
17.498273761061835	4.9610124	2.227333
17.51600706502747	5.4443316	2.3333092
17.533740791779024	6.243689	2.4987376
17.551474941771485	7.7338037	2.7809718
17.56920951545993	8.8085	2.9679117
17.586944513299528	10.814105	3.2884808
17.60467993574556	12.238278	3.498325
17.622415783253373	13.613957	3.6897097
17.64015205627843	14.778915	3.8443356
17.657888755276293	15.79969	3.9748824
17.675625880702604	16.295261	4.036739
17.69336343301311	16.12243	4.0152745
17.71110141266366	15.394654	3.923602
17.728839820110178	14.538961	3.812999
17.746578655808705	13.816953	3.717116
17.764317920215372	12.539418	3.541104
17.7820576137864	11.169107	3.3420215
17.79979773697811	9.263292	3.0435658
17.81753829024692	7.481472	2.735228
17.835279274049356	5.8808966	2.425056
17.85302068884201	4.9031568	2.2143073
17.870762535081607	4.249957	2.0615425
17.888504813224934	3.9097204	1.9773012
17.90624752372891	3.705268	1.9249072
17.923990667050536	3.5768647	1.8912601
17.941734243646895	3.5208104	1.8763822
17.959478253975185	3.5214872	1.8765626
17.9772226984927	3.5145764	1.8747203
17.994967577656833	3.4609737	1.8603692
18.01271289192506	3.396109	1.8428535
18.030458641754965	3.3753088	1.8372014
18.04820482760425	3.3281622	1.8243251
18.06595144993067	3.2870812	1.813031
18.083698509192125	3.2072878	1.7908902
18.101446005846576	3.1891692	1.7858245
18.119193940352105	3.200424	1.7889729
18.136942313166887	3.2215674	1.7948725
18.1546911247492	3.1806142	1.7834277
18.1724403755574	3.145172	1.7734634
18.19019006604997	3.1470914	1.7740043
18.207940196685467	3.1170557	1.7655185
18.225690767922575	3.0902147	1.7579007
18.243441780220046	3.0490656	1.7461574
18.261193234036764	3.0621424	1.7498978
18.278945129831676	3.0821257	1.7555984
18.29669746806386	3.116851	1.7654606
18.314450249192483	3.1116865	1.7639973
18.3322034736768	3.0873268	1.757079
18.349957141976184	3.0877066	1.7571871
18.3677112545501	3.1088076	1.7631811
18.385465811858108	3.0877028	1.757186
18.403220814359884	3.067875	1.751535
18.420976262515172	3.049202	1.7461964
18.43873215678387	3.0973678	1.7599341
18.456488497625923	3.155113	1.7762637
18.474245285501407	3.2838936	1.8121517
18.492002520870486	3.3792114	1.8382632
18.50976020419343	3.428645	1.85166
18.527518335930615	3.7314427	1.9316943
18.545276916542516	4.3460255	2.0847123
18.563035946489688	4.5861707	2.1415346
18.580795426232832	5.0606427	2.2495873
18.598555356232698	4.928639	2.220054
18.616315736950185	5.2773523	2.2972488
18.63407656884626	4.937012	2.2219388
18.65183785238201	5.1671977	2.273147
18.669599588018617	4.8163314	2.1946142
18.68736177621737	4.7852645	2.1875248
18.705124417439652	4.746028	2.178538
18.72288751214696	4.5577087	2.134879
18.740651060800886	4.7164736	2.1717443
18.758415063863115	4.4090815	2.0997813
18.77617952179546	4.5959554	2.143818
18.793944435059814	4.3461404	2.08474
18.811709804118184	4.3167505	2.0776792
18.829475629432675	4.271865	2.066849
18.8472419114655	4.047846	2.011926
18.86500865067897	4.1253257	2.0310898
18.88277584753551	3.7688847	1.9413615
18.90054350249763	3.842454	1.9602178
18.918311616027957	3.5318315	1.8793168
18.936080188589226	3.4368374	1.853871
18.953849220644265	3.1094475	1.7633625
18.971618712656007	2.9047098	1.7043209
18.9893886650875	2.8096712	1.6762074
19.007159078401887	7.9675035	2.8226767
19.024929953062408	32.881313	5.734223
19.042701289532435	32.82946	5.7296996
19.060473088275405	25.37638	5.0374975
19.07824534975489	2.6248913	1.6201516
19.096018074434568	2.585889	1.60807
19.113791262778197	2.5845582	1.6076561
19.13156491524966	2.5951314	1.6109412
19.149339032312945	2.587854	1.6086808
19.167113614432136	2.5501912	1.5969318
19.184888662071433	2.498613	1.5807002
19.202664175695123	2.4989398	1.5808035
19.220440155767623	2.5253644	1.5891395
19.238216602753447	2.5395555	1.5935982
19.2559935171172	2.5269513	1.5896387
19.27377089932361	2.5283604	1.5900819
19.291548749837514	2.5584917	1.5995286
19.309327069123835	2.5649703	1.6015525
19.32710585764763	2.5227854	1.5883279
19.344885115874032	2.4940164	1.5792456
19.362664844268313	2.4914298	1.5784264
19.380445043295822	2.4978142	1.5804474
19.39822571342203	2.50275	1.5820082
19.41600685511252	2.5197716	1.5873789
19.43378846883297	2.5252483	1.589103
19.451570555049173	2.5526237	1.5976932
19.469353114227037	2.5226593	1.5882882
19.48713614683254	2.4800272	1.5748103
19.50491965333182	2.4504154	1.5653802
19.52270363419109	2.4388022	1.5616665
19.540488089876686	2.4625356	1.5692469
19.55827302085503	2.4904864	1.5781275
19.576058427592674	2.5159838	1.5861853
19.593844310556282	2.4885209	1.5775046
19.611630670212598	2.5189974	1.587135
19.629417507028506	2.5027907	1.5820211
19.64720482147098	2.5189888	1.5871322
19.6649926140071	2.4833858	1.5758762
19.682780885104084	2.4839807	1.576065
19.70056963522921	2.4516947	1.5657889
19.718358864849908	2.468172	1.5710417
19.7361485744337	2.5006166	1.5813338
19.753938764448215	2.5277464	1.5898888
19.771729435361202	2.5250406	1.5890377
19.789520587640506	2.4849699	1.5763787
19.807312221754092	2.4876502	1.5772287
19.825104338170043	2.5111415	1.5846581
19.842896937356517	2.5072923	1.5834432
19.860690019781824	2.4915624	1.5784683
19.87848358591436	2.4632134	1.5694628
19.896277636222635	2.470825	1.5718858
19.914072171175278	2.4596224	1.5683184
19.931867191241015	2.48494	1.5763693
19.94966269688869	2.516909	1.5864769
19.967458688587264	2.5309334	1.5908908
19.985255166805807	2.496816	1.5801316
20.00305213201348	2.490153	1.5780219
20.020849584679578	2.4727695	1.5725042
20.038647525273507	2.4700925	1.5716528
20.05644595426477	2.474218	1.5729647
20.07424487212299	2.469146	1.5713516
20.092044279317903	2.4559078	1.5671337
20.109844176319353	2.4284194	1.5583386
20.127644563597304	2.4141903	1.5537665
20.145445441621817	2.4432359	1.5630853
20.16324681086307	2.4721801	1.5723168
20.181048671791373	2.4303825	1.5589684
20.198851024877122	2.3883643	1.5454334
20.216653870590836	2.3714345	1.5399462
20.234457209403146	2.3506916	1.5331966
20.252261041784802	2.3391051	1.5294133
20.270065368206662	2.3298233	1.5263759
20.287870189139685	2.3427227	1.5305955
20.305675505054968	2.3639166	1.5375034
20.323481316423702	2.3932548	1.5470148
20.341287623717207	2.3650618	1.5378758
20.359094427406884	2.3574963	1.535414
20.376901727964288	2.3590298	1.5359133
20.39470952586107	2.3874378	1.5451336
20.41251782156899	2.3485947	1.5325125
20.430326615559935	2.3423502	1.5304738
20.448135908305886	2.3335533	1.5275972
20.465945700278965	2.3380346	1.5290633
20.483755991951384	2.3162808	1.5219333
20.50156678379548	2.2813768	1.5104227
20.519378076283708	2.2724946	1.5074795
20.537189869888635	2.312308	1.5206275
20.55500216508294	2.3415132	1.5302004
20.572814962339415	2.3533528	1.5340642
20.59062826213098	2.3151789	1.5215712
20.60844206493066	2.3049562	1.5182083
20.626256371211593	2.2815406	1.510477
20.644071181447032	2.3011718	1.5169613
20.66188649611036	2.327341	1.5255625
20.67970231567506	2.351904	1.5335919
20.697518640614742	2.3540442	1.5342895
20.715335471403122	2.3329175	1.527389
20.73315280851404	2.3227751	1.5240654
20.750970652421447	2.3072538	1.5189648
20.768789003599412	2.3176475	1.5223821
20.786607862522136	2.3355913	1.5282642
20.8044272296639	2.3318264	1.5270319
20.82224710549913	2.330484	1.5265923
20.84006749050237	2.2934787	1.5144236
20.857888385148268	3.8021824	1.9499186
20.8757097899116	45.917492	6.7762446
20.893531705267254	64.787895	8.049093
20.911354131690224	83.81204	9.154892
20.92917706965566	69.02662	8.308226
20.94700051963877	50.050793	7.0746584
20.96482448211493	29.332743	5.4159713
20.982648957559622	4.124595	2.03091
21.00047394644843	2.2716374	1.5071952
21.01829944925707	2.2693796	1.506446
21.036125466461375	2.2046554	1.4848082
21.053951998537297	2.1608143	1.4699708
21.071779045960906	2.1689029	1.4727196
21.089606609208378	2.1987514	1.4828187
21.10743468875603	2.214747	1.4882026
21.12526328508028	2.2220333	1.4906486
21.143092398657675	2.1850312	1.478185
21.16092202996488	2.1881523	1.4792404
21.17875217947867	2.2122047	1.4873482
21.19658284767596	2.2090454	1.4862858
21.21441403503377	2.1896932	1.4797612
21.232245742029225	2.1685312	1.4725933
21.2500779691396	2.194157	1.4812686
21.26791071684227	2.192071	1.4805644
21.28574398561475	2.1387527	1.4624475
21.30357777593465	2.1297054	1.4593511
21.321412088279704	2.1388872	1.4624934
21.339246923127792	2.1640615	1.4710749
21.357082280956888	2.157409	1.4688121
21.3749181622451	2.165776	1.4716575
21.392754567470647	2.15637	1.4684583
21.41059149711187	2.1506798	1.4665196
21.42842895164726	2.1362321	1.4615855
21.446266931555378	2.1124036	1.453411
21.464105437314945	2.1167266	1.4548975
21.481944469404798	2.1208918	1.4563282
21.49978402830388	2.1160858	1.4546772
21.51762411449127	2.1204884	1.4561896
21.53546472844617	2.1422606	1.4636463
21.553305870647876	2.1238525	1.4573443
21.571147541575865	2.0856218	1.4441682
21.58898974170967	2.0577903	1.4345
21.60683247152899	2.0547664	1.4334457
21.62467573151363	2.06824	1.4381377
21.642519522143523	2.0534465	1.4329852
21.660363843898722	2.0411506	1.4286884
21.6782086972594	2.0265594	1.4235728
21.696054082705864	2.0617702	1.4358865
21.713900000718535	2.0913146	1.4461378
21.73174645177795	2.0773017	1.4412848
21.749593436364794	2.0579998	1.434573
21.767440954959845	2.0327282	1.4257377
21.785289008044032	2.0231042	1.4223586
21.803137596098388	2.0085542	1.4172347
21.820986719604086	2.0088193	1.4173282
21.838836379042412	1.9929186	1.4117076
21.85668657489478	1.9945914	1.4123
21.87453730764273	2.0442216	1.4297628
21.892388577767914	2.0630362	1.4363273
21.91024038575213	2.0288746	1.4243857
21.928092732077285	1.9733908	1.4047743
21.945945617225426	1.9706417	1.4037955
21.963799041678694	1.9725583	1.404478
21.981653005919398	31.308018	5.595357
21.999507510429943	78.10656	8.837791
22.01736255569286	73.0775	8.548538
22.035218142190818	4.1728024	2.042744
22.05307427040661	2.0182624	1.4206556
22.07093094082315	2.0123868	1.4185863
22.088788153923474	1.9798328	1.4070653
22.106645910190746	1.966806	1.4024286
22.12450421010827	1.9684998	1.4030323
22.142363054159464	2.0130415	1.4188169
22.16022244282787	2.0439198	1.4296572
22.178082376597164	2.042581	1.429189
22.195942855951145	2.0315166	1.4253128
22.213803881373742	2.0065777	1.4165373
22.231665453349002	1.9817315	1.4077399
22.24952757236111	1.99019	1.410741
22.26739023889438	2.001266	1.414661
22.28525345343323	2.012776	1.4187233
22.30311721646225	1.966603	1.4023563
22.320981528466113	1.946603	1.3952072
22.33884638992964	1.9322011	1.3900363
22.356711801337788	1.9112431	1.3824772
22.37457776317561	1.9289355	1.3888612
22.392444275928337	1.965938	1.4021192
22.410311340081282	1.9624362	1.4008698
22.428178956119904	1.9619102	1.4006821
22.446047124529805	1.9328822	1.3902813
22.46391584579669	1.9560311	1.3985819
22.481785120406414	1.9493508	1.3961916
22.49965494884496	1.9592003	1.3997144
22.51752533159841	1.9379137	1.3920897
22.53539626915302	1.9456664	1.3948715
22.553267761995137	1.9412396	1.3932837
22.571139810611264	1.92198	1.3863549
22.589012415488025	1.8872516	1.3737727
22.60688557711216	1.9140813	1.3835033
22.624759295970566	1.902533	1.3793234
22.642633572550263	1.916129	1.3842431
22.660508407338362	1.9039124	1.3798233
22.67838380082217	1.9427947	1.3938417
22.696259753489077	1.9585028	1.3994652
22.714136265826614	1.9051934	1.3802874
22.73201333832246	1.8748296	1.3692442
22.74989097146439	1.8981403	1.3777301
22.76776916574035	1.9000543	1.3784245
22.785647921638393	1.8752619	1.369402
22.803527239646712	1.8333409	1.3540092
22.82140712025363	1.8588686	1.3634033
22.839287563947593	1.890246	1.3748622
22.85716857121719	1.8611616	1.364244
22.875050142551135	1.8734561	1.3687426
22.892932278438277	1.8828756	1.3721792
22.910814979367604	1.8853655	1.3730861
22.928698245828222	1.843224	1.3576539
22.946582078309387	1.8563441	1.3624772
22.96446647730047	1.8958064	1.3768829
22.98235144329098	1.9309816	1.3895977
23.000236976770562	1.932559	1.3901651
23.018123078229	1.9119006	1.382715
23.03600974815619	1.8999404	1.3783833
23.053896987042194	1.906935	1.3809181
23.071784795377173	1.8855841	1.3731657
23.08967317365145	1.9036489	1.3797278
23.10756212235546	1.9373217	1.391877
23.125451641979787	1.9257613	1.3877181
23.143341733015134	1.8883563	1.3741748
23.161232395952357	1.8931409	1.3759146
23.179123631282426	1.9297559	1.3891566
23.197015439496468	1.9361485	1.3914555
23.214907821085717	1.9452822	1.3947338
23.23280077654157	1.9743772	1.4051253
23.250694306355538	1.9780333	1.4064257
23.268588411019277	1.9616777	1.400599
23.28648309102458	1.974922	1.4053192
23.304378346863356	2.005082	1.4160092
23.322274179027676	1.9951942	1.4125134
23.340170588009723	1.9642602	1.4015207
23.358067574301852	1.9452593	1.3947256
23.37596513839651	1.9456339	1.3948598
23.39386328078629	1.9371454	1.3918136
23.411762001963947	1.952045	1.397156
23.429661302422353	1.9468576	1.3952984
23.4475611826545	1.9463017	1.3950992
23.46546164315356	1.9315926	1.3898175
23.48336268441279	1.9381638	1.3921795
23.501264306925638	1.964002	1.4014286
23.51916651118564	1.9526649	1.3973778
23.537069297686497	1.9201115	1.3856809
23.554972666922037	1.9372247	1.3918422
23.57287661938623	1.916021	1.3842041
23.59078115557318	1.9187628	1.3851942
23.608686275977128	1.9573525	1.3990542
23.62659198109246	1.9765863	1.4059112
23.6444982714137	1.9520112	1.397144
23.66240514743549	1.9192115	1.3853561
23.68031260965263	1.8967564	1.3772278
23.698220658560068	1.8855873	1.3731669
23.716129294652845	1.9009953	1.3787658
23.7340385184262	1.9392927	1.3925849
23.75194833037546	1.9126477	1.3829851
23.769858730996123	1.863647	1.3651545
23.78776972078382	1.8364681	1.3551635
23.80568130023431	1.8365704	1.3552012
23.823593469843495	1.8229334	1.3501605
23.841506230107424	1.8806355	1.3713627
23.859419581522275	1.9229884	1.3867186
23.87733352458438	1.9332141	1.3904006
23.89524805979019	1.865899	1.3659791
23.913163187636318	1.8961475	1.3770068
23.931078908619508	1.9504311	1.3965783
23.948995223236633	1.9844874	1.4087183
23.966912131984735	2.008358	1.4171655
23.98482963536096	2.0303464	1.4249022
24.002747733862616	2.0164423	1.4200149
24.020666427987155	2.0131145	1.4188427
24.038585718232156	2.0161018	1.419895
24.056505605095353	2.0077927	1.4169661
24.074426089074617	2.010113	1.4177846
24.092347170667946	1.9840397	1.4085594
24.110268850373515	1.9852841	1.4090011
24.128191128689586	2.0004034	1.4143562
24.146114006114626	2.000917	1.4145377
24.164037483147187	2.0167508	1.4201236
24.181961560286005	2.0322597	1.4255735
24.199886238029926	2.0211833	1.4216832
24.21781151687797	2.0349474	1.4265158
24.235737397329274	2.0289297	1.424405
24.253663879883135	2.0597622	1.4351872
24.271590965038975	2.031504	1.4253083
24.289518653296376	2.046802	1.4306649
24.30744694515505	2.0576513	1.4344516
24.32537584111486	2.1005845	1.4493394
24.34330534167581	2.0909007	1.4459947
24.361235447338046	2.0699651	1.4387374
24.379166158601876	2.0103526	1.4178691
24.39709747596772	2.001967	1.4149088
24.41502939993615	2.0026948	1.415166
24.432961931007917	1.9996487	1.4140893
24.450895069683856	1.9770821	1.4060875
24.468828816465	1.9429892	1.3939115
24.4867631718525	1.9288162	1.3888183
24.504698136347656	1.953955	1.3978394
24.52263371045192	1.95311	1.3975371
24.540569894666874	1.9799526	1.4071078
24.558506689494266	1.9757218	1.4056038
24.57644409543597	1.9688935	1.4031726
24.594382112994012	1.9393674	1.3926117
24.61232074267057	1.9193556	1.3854082
24.630259984967953	1.9040434	1.3798708
24.64819984038863	1.8948491	1.3765352
24.66614030943522	1.9392072	1.3925542
24.684081392610462	1.9619462	1.400695
24.702023090417274	1.9411012	1.3932341
24.7199654033587	1.9165255	1.3843863
24.737908331937927	1.9079692	1.3812926
24.755851876658305	1.9442791	1.3943741
24.773796038023324	1.9542441	1.3979428
24.79174081653661	2.0181239	1.4206069
24.809686212701962	2.0069637	1.4166734
24.827632227023294	2.0683649	1.438181
24.8455788600047	2.096234	1.4478377
24.8635261121504	2.1524482	1.4671224
24.88147398396475	2.103508	1.4503475
24.899422475952303	2.0873682	1.4447727
24.917371588617698	2.099213	1.448866
24.935321322465768	2.1236098	1.4572611
24.953271678001478	2.1836855	1.4777299
24.97122265572994	2.3026514	1.517449
24.989174256156414	2.570308	1.603218
25.00712647978632	2.9981651	1.731521
25.02507932712521	3.5474787	1.8834752
25.043032798678798	4.105341	2.026164
25.060986894952933	4.740147	2.177188
25.078941616453637	5.383123	2.3201559
25.096896963687055	6.253566	2.500713
25.114852937159508	7.384307	2.7174082
25.132809537377444	7.8990154	2.8105187
25.150766764847468	7.9390764	2.8176367
25.168724620076347	7.49831	2.7383041
25.186683103570985	6.5202637	2.5534806
25.204642215838426	5.4188204	2.327836
25.222601957385894	4.07418	2.0184598
25.24056232872074	3.1835763	1.7842579
25.25852333035048	2.6492891	1.6276637
25.276484962782778	2.275742	1.5085562
25.294447226525435	2.1126742	1.4535041
25.312410122086423	2.0146127	1.4193705
25.330373649973843	1.9567226	1.398829
25.348337810695988	1.9790019	1.40677
25.366302604761245	1.9910654	1.4110512
25.384268032678207	1.9696153	1.4034299
25.40223409495558	1.8950046	1.3765917
25.420200792102257	1.879753	1.3710408
25.438168124627246	1.9193001	1.385388
25.45613609303974	1.9198875	1.3856001
25.474104697849057	1.9221145	1.3864034
25.492073939564698	1.9224635	1.3865293
25.510043818696285	1.9268742	1.388119
25.528014335753614	1.8914547	1.3753017
25.54598549124664	1.893802	1.3761548
25.56395728568544	1.8623201	1.3646685
25.58192971958028	1.8806372	1.3713633
25.59990279344156	1.9037875	1.379778
25.617876507779833	1.9078001	1.3812313
25.635850863105826	1.8902737	1.3748722
25.653825859930386	1.8616191	1.3644116
25.671801498764548	1.8440076	1.3579425
25.68977778011949	1.8648484	1.3655945
25.707754704506524	1.8786286	1.3706307
25.725732272437153	1.8563166	1.362467
25.743710484423012	1.8704405	1.3676405
25.761689340975888	1.8921006	1.3755364
25.77966884260774	1.8909334	1.3751122
25.797648989830662	1.8468028	1.3589712
25.815629783156922	1.8141534	1.3469051
25.83361122309895	1.7942377	1.3394916
25.85159331016929	1.8167199	1.3478575
25.869576044880695	1.8744113	1.3690914
25.887559427746034	1.9027579	1.3794049
25.90554345927836	1.8633219	1.3650355
25.92352813999086	1.8690537	1.3671334
25.94151347039689	1.8915666	1.3753424
25.959499451009965	1.9229252	1.3866957
25.97748608234374	1.8673269	1.3665017
25.995473364912062	1.8467569	1.3589543
26.013461299228904	1.8725563	1.3684138
26.03144988580839	1.8810226	1.3715037
26.04943912516483	1.8905122	1.374959
26.067429017812675	1.8767403	1.3699417
26.085419564266537	1.8388779	1.3560523
26.103410765041186	1.8091446	1.3450445
26.12140262065155	1.8011508	1.3420696
26.139395131612723	1.8181009	1.3483697
26.157388298439948	1.825216	1.3510056
26.17538212164861	1.8273929	1.3518109
26.193376601754295	1.819227	1.3487872
26.211371739272714	1.8029078	1.3427241
26.229367534719746	1.8533553	1.3613799
26.247363988611433	1.8732243	1.3686578
26.26536110146397	1.88058	1.3713424
26.283358873793727	1.8449042	1.3582726
26.301357306117204	1.7881038	1.3372
26.319356398951104	1.782728	1.3351884
26.33735615281224	1.7736909	1.3317999
26.35535656821762	1.7775528	1.333249
26.373357645684404	1.7941211	1.3394481
26.39135938572991	1.8275855	1.3518822
26.409361788871614	1.8789978	1.3707654
26.427364855627165	1.9074934	1.3811203
26.445368586514352	1.8949043	1.3765552
26.46337298205115	1.9236983	1.3869746
26.48137804275568	1.8717296	1.3681117
26.499383769146217	1.825188	1.3509952
26.517390161741215	1.7697997	1.3303382
26.53539722105928	1.7939005	1.3393657
26.553404947619182	1.8101186	1.3454064
26.571413341939856	1.8154414	1.3473831
26.589422404540397	1.7738746	1.3318689
26.60743213594006	1.7405742	1.3193083
26.62544253665827	1.7257876	1.3136923
26.64345360721459	1.7522802	1.3237373
26.66146534812879	1.7896187	1.3377663
26.679477759920758	1.7667907	1.3292068
26.69749084311057	1.7787054	1.3336811
26.71550459821847	1.806862	1.3441957
26.733519025764842	1.8387582	1.3560082
26.751534126270258	1.8473711	1.3591803
26.769549900255434	1.850801	1.3604414
26.787566348241267	1.8004714	1.3418164
26.80558347074881	1.7875979	1.3370109
26.823601268299267	1.8189819	1.3486964
26.841619741414036	1.87537	1.3694415
26.85963889061465	1.8761033	1.3697093
26.877658716422832	1.8485657	1.3596197
26.89567921936045	1.8191149	1.3487457
26.913700399949544	1.7980969	1.3409313
26.93172225871233	1.7524811	1.3238131
26.949744796171174	1.7159896	1.3099579
26.967768012848605	1.6795322	1.2959677
26.98579190926733	1.7640404	1.3281718
27.003816485950225	1.8803385	1.3712543
27.021841743420318	1.8762397	1.369759
27.039867682200814	1.81364	1.3467145
27.057894302815072	1.7720449	1.3311818
27.07592160578664	1.7785825	1.3336351
27.0939495916392	1.8304586	1.3529445
27.111978260896635	1.8843887	1.3727304
27.13000761408296	1.8652407	1.3657382
27.148037651722397	1.8295994	1.3526268
27.166068374339304	1.8285003	1.3522205
27.184099782458215	1.8360454	1.3550075
27.20213187660384	1.7840459	1.3356818
27.22016465730105	1.7465514	1.3215716
27.23819812507487	1.7400835	1.3191222
27.256232280450533	1.8156209	1.3474498
27.274267123953383	1.8364787	1.3551674
27.292302656108987	1.8292458	1.3524961
27.31033887744306	1.7974703	1.3406976
27.32837578848146	1.7880497	1.3371798
27.34641338975026	1.7755656	1.3325036
27.364451681775673	1.7903187	1.338028
27.382490665084074	1.7890209	1.3375429
27.400530340202046	1.8017612	1.342297
27.41857070765629	1.8188407	1.348644
27.436611767973726	1.8049228	1.3434741
27.454653521681404	1.7988505	1.3412124
27.472695969306564	1.8065875	1.3440936
27.490739111376627	1.8039901	1.343127
27.508782948419153	1.8317045	1.3534048
27.526827480961902	1.8304206	1.3529304
27.54487270953279	1.8268998	1.3516285
27.562918634659898	1.8156587	1.3474638
27.580965256871508	1.7688253	1.3299719
27.599012576696026	1.7920735	1.3386835
27.617060594662068	1.8046397	1.3433688
27.63510931129842	1.7806256	1.3344008
27.65315872713401	1.7925267	1.3388528
27.67120884269797	1.8108348	1.3456726
27.68925965851958	1.7994353	1.3414303
27.707311175128307	1.8119113	1.3460726
27.725363393053787	1.8247719	1.3508412
27.74341631282583	1.8131721	1.3465408
27.7614699349744	1.7989221	1.341239
27.77952426002968	1.9991869	1.413926
27.797579288521973	2.091926	1.4463493
27.815635020981784	2.6532545	1.6288813
27.83369145793979	2.7754033	1.6659541
27.85174859992682	2.5496016	1.5967472
27.869806447473923	2.3550572	1.5346196
27.887865001112267	2.0203335	1.4213843
27.905924261373233	1.9019116	1.379098
27.92398422878836	1.865637	1.3658832
27.94204490388936	1.8085656	1.3448292
27.96010628720813	1.8164948	1.347774
27.978168379276728	1.855504	1.3621689
27.9962311806274	1.855557	1.3621883
28.014294691792568	1.8332882	1.3539897
28.0323589133048	1.829206	1.3524814
28.050423845696887	1.8347045	1.3545127
28.068489489501758	1.8421651	1.3572638
28.086555845252523	1.8343716	1.3543898
28.104622913482487	1.8298286	1.3527116
28.122690694725115	1.8148634	1.3471687
28.14075918951405	1.8951902	1.376659
28.15882839838312	1.8913631	1.3752683
28.176898321866304	1.9074892	1.3811188
28.1949689604978	1.8939826	1.3762205
28.213040314811945	1.9003929	1.3785474
28.23111238534327	1.8915211	1.3753258
28.249185172626493	1.9517473	1.3970495
28.267258677196473	1.9471844	1.3954155
28.285332899588294	1.881084	1.3715261
28.303407840337172	1.8519015	1.3608459
28.321483499978545	1.8779128	1.3703696
28.33955987904799	1.8885739	1.374254
28.357636978081285	1.9353336	1.3911626
28.37571479761439	1.8898365	1.3747133
28.393793338183425	1.8347495	1.3545293
28.41187260032469	1.8989313	1.3780172
28.429952584574686	1.9576678	1.3991668
28.448033291470065	1.9480258	1.3957169
28.46611472154769	1.9617947	1.4006408
28.484196875344566	1.9668514	1.4024447
28.502279753397914	1.9439168	1.3942442
28.52036335624511	1.9207077	1.385896
28.538447684423716	1.8896956	1.374662
28.556532738471482	1.8759167	1.3696411
28.574618518926325	1.8600707	1.363844
28.59270502632635	1.9164579	1.3843619
28.61079226120985	1.9763205	1.4058167
28.628880224115274	2.0013497	1.4146906
28.646968915581287	1.992888	1.4116968
28.66505833614671	2.0040073	1.4156296
28.68314848635055	2.0206356	1.4214907
28.701239366732004	2.0465033	1.4305605
28.71933097783044	2.0453918	1.430172
28.737423320185403	2.05661	1.4340886
28.75551639433665	2.0598176	1.4352064
28.773610200824074	2.076209	1.4409057
28.791704740187793	2.0483239	1.4311967
28.80980001296809	2.0442154	1.4297606
28.827896019705413	2.0878184	1.4449285
28.845992760940433	2.1490645	1.4659688
28.86409023721397	2.121117	1.4564055
28.88218844906704	2.0822415	1.4429975
28.900287397040845	2.091731	1.4462818
28.918387081676755	2.2081847	1.4859962
28.936487503516343	2.3156939	1.5217404
28.954588663101365	2.3019671	1.5172235
28.97269056097374	2.2610443	1.5036769
28.990793197675597	2.235071	1.4950154
29.00889657374923	2.290349	1.51339
29.027000689737125	2.348943	1.5326262
29.04510554618196	2.367298	1.5386026
29.06321114362659	2.3589704	1.535894
29.08131748261405	2.364685	1.5377532
29.099424563687567	2.430453	1.5589911
29.11753238739057	2.5130007	1.5852447
29.13564095426663	2.5777874	1.605549
29.15375026485954	2.5742888	1.604459
29.171860319713275	2.5750442	1.6046944
29.18997111937199	2.6219392	1.6192403
29.20808266438002	2.7557895	1.6600571
29.226194955281898	2.82979	1.682198
29.244307992622335	2.7852678	1.6689122
29.26242177694624	2.7941048	1.6715575
29.2805363087987	2.8645427	1.6924961
29.29865158872498	2.9137733	1.7069778
29.316767617270557	2.9605455	1.7206236
29.334884394981064	2.9286115	1.7113186
29.353001922402367	2.952986	1.7184254
29.37112020008047	3.0459907	1.7452767
29.389239228561596	3.1812096	1.7835946
29.407359008392152	3.3811269	1.8387841
29.42547954011872	3.6577647	1.9125284
29.44360082428809	4.25629	2.0630777
29.46172286144722	5.268277	2.2952728
29.479845652143283	6.6287684	2.5746396
29.497969196923606	8.4120035	2.9003453
29.516093496335728	10.60492	3.2565196
29.5342185509274	13.153616	3.6267915
29.55234436124651	15.228374	3.902355
29.570470927841175	16.575758	4.071334
29.588598251259686	16.5151	4.0638776
29.60672633205055	15.355412	3.9185982
29.624855170762405	13.431451	3.6648943
29.642984767944146	10.968708	3.311904
29.66111512414481	8.509561	2.9171152
29.67924623991366	6.5204496	2.553517
29.697378115800138	5.069816	2.2516253
29.71551075235387	4.1387243	2.0343854
29.733644150124675	3.6909401	1.9211819
29.751778309662576	3.4909327	1.8684038
29.769913231517766	3.4569654	1.8592917
29.78804891624066	3.392348	1.8418328
29.806185364381818	3.3067396	1.8184443
29.82432257649206	3.2245605	1.7957062
29.842460553122333	3.225579	1.7959898
29.86059929482382	3.2356403	1.7987885
29.878738802147872	3.22512	1.795862
29.896879075646048	3.2363563	1.7989875
29.915020115870114	3.2244902	1.7956866
29.933161923371976	3.2491884	1.8025506
29.951304498703777	3.2450833	1.8014115
29.969447842417857	3.1830435	1.7841086
29.987591955066733	3.153516	1.7758142
30.005736837203123	3.0747898	1.7535079
30.023882489379943	3.162955	1.7784699
30.04202891215028	3.1953058	1.7875419
30.060176106067455	3.185411	1.7847719
30.078324071684946	3.1504364	1.7749469
30.09647280955646	3.1739693	1.7815638
30.114622320235863	3.1806636	1.7834415
30.132772604277257	3.1218061	1.7668633
30.1509236622349	3.088748	1.7574834
30.16907549466328	3.0624928	1.749998
30.18722810211705	3.0403278	1.7436535
30.205381485151097	3.0468798	1.7455313
30.22353564432045	3.0397604	1.7434908
30.241690580180403	3.0450158	1.7449974
30.25984629328638	3.0508256	1.7466613
30.278002784194037	3.071903	1.7526845
30.296160053459246	3.0258644	1.7395012
30.314318101638033	2.9717329	1.7238715
30.332476929286646	2.9052415	1.704477
30.35063653696153	2.9345293	1.7130468
30.368796925219307	2.9442308	1.7158761
30.386958094616844	2.8868113	1.6990619
30.40512004571115	2.8559523	1.6899563
30.423282779059463	2.8378367	1.684588
30.441446295219233	2.8580003	1.6905621
30.459610594748067	2.833151	1.6831967
30.47777567820382	2.8322413	1.6829264
30.495941546144504	2.8355505	1.6839093
30.51410819912835	2.8457892	1.6869467
30.532275637713795	2.816093	1.6781218
30.55044386245946	2.8065615	1.6752795
30.56861287392416	2.8434448	1.6862518
30.586782672666956	2.782127	1.6679709
30.604953259247047	2.7555664	1.6599898
30.623124634223885	2.7711704	1.6646832
30.641296798157075	2.7355754	1.6539575
30.659469751606462	2.7825038	1.6680839
30.677643495132074	2.7968233	1.6723706
30.695818029294152	2.7566323	1.6603109
30.713993354653116	2.65682	1.6299754
30.73216947176962	2.6482131	1.6273332
30.75034638120448	2.6502242	1.6279509
30.768524083518756	2.6692557	1.6337857
30.786702579273673	2.7146664	1.6476245
30.80488186903069	2.8054166	1.6749378
30.82306195335144	2.8973484	1.7021599
30.841242832797782	3.067314	1.7513748
30.85942450793176	3.3062494	1.8183094
30.877606979315637	3.649934	1.91048
30.895790247511883	3.962277	1.990547
30.913974313083134	4.2524223	2.0621402
30.932159176592283	4.545006	2.131902
30.95034483860237	4.6398993	2.1540425
30.968531299676698	4.5502477	2.133131
30.98671856037873	4.324473	2.0795367
31.00490662127215	3.95809	1.9894949
31.023095482920848	3.4983277	1.8703817
31.04128514588892	2.976897	1.7253686
31.059475610740662	2.6282969	1.6212022
31.07766687804056	2.5429175	1.5946528
31.09585894835335	2.4861915	1.5767661
31.11405182224393	2.3760862	1.5414559
31.132245500277417	2.3361447	1.5284452
31.15043998301914	2.3325198	1.5272589
31.168635271034628	2.4010699	1.5495386
31.18683136488964	2.4828207	1.575697
31.20502826515008	2.4584165	1.5679338
31.223225972382135	2.440561	1.5622295
31.241424487152155	2.4413018	1.5624666
31.259623810026692	2.373794	1.5407122
31.27782394157253	2.3690352	1.539167
31.296024882356644	2.3688	1.5390906
31.314226632946237	2.40304	1.5501741
31.332429193908684	2.4544117	1.5666562
31.350632565811598	2.4710264	1.5719498
31.368836749222787	2.4135807	1.5535703
31.387041744710295	2.4388027	1.5616666
31.40524755284232	2.4980438	1.5805202
31.423454174187317	2.5789156	1.6059003
31.441661609313922	2.6154501	1.6172353
31.459869858791002	2.490943	1.5782721
31.478078923187628	2.3751104	1.5411394
31.496288803073064	2.3338885	1.527707
31.514499499016807	2.3796575	1.5426139
31.532711011588546	2.3493114	1.5327463
31.550923341358178	2.358942	1.5358847
31.56913648889584	2.3419228	1.5303342
31.587350454771844	2.3435242	1.5308573
31.605565239556732	2.3091905	1.5196021
31.62378084382127	2.301395	1.5170349
31.641997268136382	2.336779	1.5286527
31.660214513073274	2.281616	1.5105019
31.67843257920331	2.284422	1.5114304
31.6966514670981	2.312094	1.5205572
31.71487117732944	2.414164	1.553758
31.733091710469346	2.4259536	1.5575473
31.751313067090052	2.3292532	1.5261891
31.769535247764008	2.2619455	1.5039766
31.787758253063878	2.2856925	1.5118507
31.805982083562526	2.265469	1.5051476
31.824206739833024	2.2813084	1.5104
31.84243222244869	2.259787	1.5032588
31.860658531983013	2.18947	1.4796858
31.878885669009737	2.189173	1.4795854
31.897113634102784	2.2580125	1.5026685
31.91534242783632	2.2500458	1.5000153
31.933572050784694	2.2371283	1.4957032
31.951802503522508	2.262532	1.5041715
31.970033786624548	2.2456014	1.4985331
31.988265900665834	2.1455946	1.4647849
32.006498846221575	2.0888188	1.4452746
32.02473262386724	2.1496208	1.4661585
32.04296723417845	2.1961863	1.4819535
32.0612026777311	2.223733	1.4912186
32.07943895510129	2.2021873	1.4839768
32.097676066865304	2.137701	1.4620879
32.115914013599685	2.1686103	1.4726202
32.13415279588115	2.189651	1.4797469
32.152392414286666	2.1237528	1.4573101
32.1706328693934	2.1121533	1.4533249
32.18887416177875	2.1690135	1.4727571
32.20711629202032	2.1814067	1.4769586
32.225359260695924	2.1491492	1.4659977
32.243603068383614	2.1468284	1.4652059
32.26184771566166	2.1602032	1.4697629
32.28009320310852	2.1923203	1.4806486
32.2983395313029	2.2238977	1.4912739
32.31658670082372	2.2112842	1.4870387
32.33483471225012	2.1744149	1.4745897
32.35308356616143	2.1176863	1.4552273
32.371333263137245	2.0779607	1.4415133
32.38958380375734	2.0035036	1.4154518
32.407835188601744	2.0620227	1.4359745
32.42608741825067	2.081495	1.4427388
32.444340493284585	2.1152928	1.4544046
32.46259441428416	2.0607786	1.4355413
32.48084918183028	2.0172455	1.4202977
32.49910479650405	2.0851755	1.4440137
32.51736125888683	2.168141	1.4724609
32.53561856956014	2.154751	1.4679071
32.5538767291058	2.0601003	1.435305
32.572135738105764	1.9771754	1.4061207
32.59039559714228	1.9404459	1.3929989
32.608656306797776	1.971826	1.4042172
32.62691786765491	2.0224507	1.4221289
32.645180280296586	1.9332284	1.3904058
32.663443545305896	1.8708055	1.3677739
32.68170766326619	1.855145	1.3620371
32.69997263476099	1.896565	1.3771583
32.7182384603741	1.9160019	1.3841972
32.7365051406895	1.9844793	1.4087155
32.75477267629144	1.9727141	1.4045334
32.77304106776434	1.906518	1.3807672
32.79131031569289	1.9240636	1.3871062
32.809580420661966	1.9983728	1.4136381
32.827851383256714	2.0181856	1.4206285
32.84612320406245	2.0336607	1.4260647
32.86439588366476	2.0647674	1.4369298
32.88266942264945	2.0153027	1.4196136
32.9009438216025	1.9587679	1.3995599
32.9192190811102	1.9224031	1.3865075
32.937495201758985	1.9018142	1.3790628
32.95577218413556	1.9522454	1.3972278
32.974050028826866	2.0696206	1.4386176
32.992328736420035	2.0549393	1.4335059
33.010608307502444	1.9192019	1.3853526
33.02888874266169	1.8232019	1.3502599
33.047170042485604	1.9155971	1.384051
33.06545220756225	1.9754044	1.4054908
33.083735238479896	2.0431874	1.429401
33.10201913582707	1.9932783	1.4118351
33.12030390019248	1.8894367	1.3745679
33.138589532165135	1.9041406	1.379906
33.15687603233419	2.0464354	1.4305367
33.17516340128909	1.991183	1.4110929
33.19345163961947	1.8543987	1.3617631
33.211740747915215	1.8550135	1.3619888
33.23003072676643	1.9172106	1.3846338
33.248321576763466	1.9951212	1.4124876
33.266613298496885	1.9694015	1.4033537
33.28490589255747	1.9634113	1.4012178
33.30319935953626	1.9875463	1.4098036
33.32149370002451	1.9906408	1.4109007
33.339788914613706	1.9584614	1.3994504
33.358085003895575	1.8841423	1.3726406
33.376381968462034	1.8255494	1.3511289
33.39467980890529	1.8447257	1.3582067
33.41297852581774	1.9033275	1.3796114
33.43127811979204	1.9906999	1.4109217
33.44957859142105	1.9752216	1.4054258
33.467879941297866	1.9284242	1.3886771
33.486182170015844	1.8724376	1.3683704
33.50448527816853	1.8461809	1.3587424
33.522789266349754	1.8766171	1.3698968
33.541094135153514	1.8364599	1.3551605
33.55939988517411	1.759473	1.3264513
33.57770651700602	1.8600265	1.3638278
33.59601403124398	1.8911557	1.375193
33.61432242848296	1.8103856	1.3455057
33.632631709318154	1.8734777	1.3687505
33.650941874344994	1.9509069	1.3967487
33.66925292415916	1.9239862	1.3870783
33.68756485935654	2.0131752	1.418864
33.70587768053328	2.032985	1.4258279
33.724191388285746	1.9925599	1.4115807
33.74250598321054	1.9543985	1.3979981
33.760821465904506	1.9994293	1.4140118
33.77913783696474	1.9563602	1.3986995
33.79745509698852	1.9525284	1.397329
33.815773246573414	1.9446306	1.3945001
33.8340922863172	2.0156975	1.4197526
33.852412216817896	2.0844543	1.443764
33.87073303867377	2.0247045	1.4229211
33.889054752483304	2.0223846	1.4221057
33.907377358845245	2.129216	1.4591833
33.92570085835853	2.0738168	1.4400753
33.94402525162239	2.0078158	1.4169742
33.96235053923627	1.905424	1.380371
33.980676721799824	1.8719336	1.3681862
33.999003799912984	1.9154458	1.3839964
34.01733177417592	1.9261832	1.3878701
34.03566064518901	1.8934369	1.3760221
34.0539904135529	1.8179519	1.3483145
34.07232107986846	1.7981251	1.3409419
34.090652644736785	1.8039294	1.3431044
34.108985108759235	1.7998322	1.3415782
34.12731847253742	1.9196094	1.3854997
34.14565273667313	1.9366004	1.3916179
34.16398790176847	1.9457142	1.3948886
34.18232396842574	1.9453456	1.3947564
34.20066093724749	1.8286673	1.3522823
34.21899880883651	1.7992443	1.3413591
34.23733758379583	1.9441735	1.3943362
34.25567726272874	2.0450463	1.4300512
34.27401784623872	2.077198	1.4412488
34.29235933492957	2.0600464	1.4352862
34.31070172940526	1.9957368	1.4127055
34.32904503027003	1.9476634	1.3955871
34.347389238128386	1.9323456	1.3900883
34.36573435358502	1.9824463	1.4079937
34.38408037724492	1.9958645	1.4127507
34.402427309713296	2.0674107	1.4378493
34.42077515159559	1.9076891	1.3811911
34.43912390349752	1.7629461	1.3277599
34.45747356602499	1.8291625	1.3524654
34.47582413978423	1.9826074	1.4080509
34.49417562538163	1.9078737	1.381258
34.51252802342388	1.8662217	1.3660972
34.53088133451789	1.8411733	1.3568984
34.54923555927084	1.7909799	1.338275
34.567590698290104	1.8012935	1.3421228
34.58594675218336	1.8684366	1.3669077
34.6043037215585	1.9877112	1.4098622
34.62266160702365	2.0574253	1.4343728
34.641020409187234	2.0736713	1.4400247
34.65938012865785	2.04622	1.4304615
34.677740766044394	2.1060095	1.4512097
34.69610232195598	2.0824854	1.443082
34.714464797002016	1.972012	1.4042834
34.73282819179208	1.839914	1.3564342
34.751192506936064	1.7448161	1.3209149
34.76955774304408	1.7976824	1.3407768
34.7879239007265	1.7159398	1.3099388
34.80629098059391	1.7606597	1.3268986
34.824658983257194	1.9150563	1.3838556
34.843027909327446	2.012197	1.4185193
34.86139775941603	2.0068471	1.4166323
34.879768534134534	1.9094127	1.3818151
34.89814023409483	1.7570294	1.3255298
34.91651285990901	1.9433465	1.3940396
34.93488641218944	2.0529885	1.4328253
34.95326089154871	2.0735435	1.4399804
34.97163629859967	2.1906383	1.4800805
34.99001263395542	2.1097572	1.4525003
35.00838989822934	2.0125797	1.4186542
35.02676809203499	1.9732455	1.4047226
35.04514721598624	1.8639024	1.3652481
35.063527270697215	1.9153825	1.3839735
35.081908256782256	1.9672264	1.4025785
35.10029017485597	1.9275893	1.3883765
35.11867302553321	1.9823706	1.4079669
35.137056809429104	2.027631	1.4239491
35.155441527159006	2.0265155	1.4235573
35.173827179338524	2.1684484	1.4725653
35.19221376658354	2.29625	1.5153383
35.21060128951017	2.2519622	1.5006539
35.2289897487348	2.3027873	1.5174937
35.24737914487405	2.227545	1.4924963
35.26576947854479	2.1985118	1.4827379
35.28416075036418	2.1061256	1.4512497
35.30255296094958	1.9028292	1.3794308
35.32094611091867	1.8260635	1.3513192
35.33934020088932	1.9569697	1.3989173
35.35773523147969	2.0112321	1.4181792
35.3761312033082	2.0053248	1.4160949
35.394528116993506	2.203317	1.4843574
35.41292597315452	2.2731645	1.5077018
35.431324772410434	2.109757	1.4525002
35.449724515380666	1.6591427	1.2880771
35.46812520268491	1.6469046	1.2833178
35.486526834943106	2.2401028	1.4966973
35.504929412775454	2.2052443	1.4850065
35.52333293680242	1.8871886	1.3737499
35.54173740764471	1.7120022	1.308435
35.560142825923286	2.0130498	1.4188199
35.5785491922594	2.1266127	1.458291
35.59695650727454	1.9218805	1.386319
35.61536477159042	1.9848942	1.4088627
