0.008763373481513119	0.051685803	0.22734512
0.026290120649546365	0.18429624	0.4292974
0.043816868432600686	0.12367553	0.35167533
0.06134361724069026	0.08536854	0.29217896
0.07887036748382949	0.07258779	0.26942122
0.0963971195720331	0.24958055	0.49958038
0.11392387391531617	0.25563788	0.5056065
0.1314506309236943	0.255295	0.50526726
0.1489773910071836	0.12900445	0.3591719
0.16650415457580078	0.06526678	0.25547364
0.18403092203956356	0.07696083	0.27741817
0.20155769380849	0.052524555	0.22918236
0.2190844702925996	0.06565062	0.25622377
0.2366112519019124	0.11176675	0.33431533
0.2541380390464497	0.10595104	0.3255012
0.27166483213623416	0.13193563	0.36322945
0.28919163158128947	0.15222992	0.39016652
0.3067184377916406	0.2316327	0.48128235
0.324245251177314	0.22081743	0.46991214
0.34177207214833777	0.15771487	0.39713332
0.3592989011147415	0.13171892	0.362931
0.37682573848655654	0.09434629	0.3071584
0.39435258467381573	0.12312461	0.35089117
0.41187944008655414	0.12250345	0.35000494
0.42940630513480854	0.09175222	0.3029063
0.446933180228618	0.08339606	0.28878376
0.4644600657780234	0.108048625	0.32870752
0.48198696219306775	0.11948169	0.34566122
0.49951386988379676	0.14000979	0.37417883
0.5170407892602581	0.13317332	0.3649292
0.5345677207325025	0.11457954	0.338496
0.5520946647105822	0.12036397	0.34693512
0.5696216216045534	0.1206465	0.34734204
0.5871485918244737	0.12781666	0.35751456
0.6046755757804043	0.14034085	0.37462094
0.6222025738824094	0.13757819	0.37091535
0.6397295865405557	0.13499618	0.36741826
0.6572566141649129	0.115736134	0.34020013
0.6747836571655547	0.1026755	0.3204302
0.6923107159525568	0.10548363	0.32478243
0.7098377909359992	0.12586969	0.35478118
0.7273648825259653	0.15695517	0.39617568
0.7448919911325411	0.14094056	0.3754205
0.762419117165817	0.13319561	0.36495975
0.7799462610358868	0.117019	0.34208038
0.7974734231528482	0.13830377	0.37189215
0.8150006039268024	0.19051799	0.43648368
0.8325278037678551	0.19760284	0.44452542
0.8500550230861152	0.21355334	0.46211833
0.8675822622916969	0.18883905	0.43455616
0.8851095217947171	0.17338713	0.4163978
0.9026368020052984	0.18174976	0.4263212
0.9201641033335665	0.17528291	0.41866803
0.9376914261896523	0.17912087	0.42322674
0.9552187709836915	0.15778528	0.39722195
0.9727461381258234	0.18282221	0.42757714
0.990273528026193	0.20669684	0.45463923
1.0078009410949496	0.2515061	0.5015038
1.0253283777422473	0.27576953	0.5251376
1.0428558383782454	0.27705526	0.5263604
1.0603833234131086	0.25048125	0.500481
1.0779108332570058	0.30347562	0.5508862
1.0954383683201119	0.30926937	0.5561199
1.112965929012607	0.35883594	0.5990292
1.1304935157446763	0.5036477	0.7096814
1.1480211289265108	0.5378707	0.7333967
1.1655487689683062	1.4640292	1.2099707
1.1830764362802655	1.7516614	1.3235035
1.200604131272596	2.152353	1.46709
1.2181318543555117	2.4457016	1.5638739
1.235659605939232	2.489981	1.5779673
1.253187386433982	3.964904	1.9912066
1.270715196249994	6.158491	2.4816308
1.2882430357975057	11.42261	3.3797352
1.3057709054867608	16.16125	4.020106
1.3232988057280106	21.971172	4.6873417
1.3408267369315112	27.11832	5.2075253
1.358354699507526	30.801384	5.5498996
1.3758826938663256	35.040276	5.9194827
1.3934107204181858	36.77399	6.064156
1.410938779573391	37.192223	6.0985427
1.4284668717422309	38.036797	6.167398
1.4459949973350033	37.706707	6.1405787
1.4635231567620117	37.6957	6.139683
1.4810513504335687	36.82551	6.0684023
1.4985795787599925	36.02131	6.0017753
1.5161078421516088	35.495075	5.957774
1.5336361410187505	34.742058	5.8942394
1.5511644757717598	34.992203	5.9154205
1.5686928468209842	35.97712	5.998093
1.58622125457678	36.80325	6.0665684
1.6037496994495108	37.72641	6.142183
1.621278181849548	37.41497	6.116778
1.6388067021872719	38.02388	6.166351
1.6563352608730693	37.12883	6.0933433
1.673863858317336	36.0563	6.0046897
1.6913924949304753	35.47472	5.9560657
1.7089211711228998	35.057068	5.920901
1.7264498873050296	34.308067	5.857309
1.7439786438872935	33.574715	5.794369
1.7615074412801288	32.51746	5.7024083
1.779036279893981	31.628492	5.6239214
1.796565160139305	30.427748	5.516135
1.814094082426564	29.770937	5.456275
1.8316230471662298	29.224087	5.4059305
1.849152054768784	28.402815	5.329429
1.8666811056447168	27.999466	5.291452
1.8842102002045273	26.788637	5.175774
1.901739338858724	26.076832	5.106548
1.9192685220178245	25.472076	5.046987
1.9367977500923557	25.064514	5.0064473
1.9543270234928547	24.590591	4.95889
1.971856342629867	23.965355	4.8954425
1.9893857079139496	23.332117	4.830333
2.006915119755667	23.015701	4.797468
2.0244445785655945	22.631344	4.7572412
2.0419740847543175	22.28937	4.721162
2.0595036387324317	21.67707	4.6558642
2.0770332409105414	21.099943	4.593467
2.094562891699263	20.667404	4.5461416
2.1120925915092217	19.95259	4.466832
2.129622340751053	19.368282	4.400941
2.1471521398354043	187.36952	13.688299
2.1646819891729323	443.87164	21.068262
2.182211889174303	440.227	20.981586
2.1997418402501974	452.77283	21.27846
2.2172718428113023	432.76855	20.80309
2.234801897268317	320.85876	17.91253
2.2523320040319548	17.381092	4.1690636
2.269862163512935	17.088282	4.1337976
2.287392376121992	16.61052	4.0756006
2.304922642269869	16.134338	4.016757
2.322452962367322	15.765402	3.970567
2.3399833368251164	15.450151	3.930668
2.357513766054032	15.225094	3.9019346
2.3750442504648586	14.909428	3.8612728
2.3925747904683963	14.651988	3.8277915
2.410105386475459	14.480015	3.8052614
2.4276360388968707	14.075337	3.7517114
2.445166748143469	14.018952	3.7441893
2.4626975146261025	13.796671	3.714387
2.4802283387556323	13.52132	3.6771348
2.4977592209429305	13.2754135	3.6435442
2.5152901615988825	13.031536	3.609922
2.5328211611343865	12.8435335	3.5837877
2.5503522199603523	12.651524	3.556898
2.5678833384877024	12.515961	3.5377903
2.5854145171273712	12.262604	3.5018
2.6029457562903064	12.079124	3.4755034
2.620477056387469	11.905202	3.4503915
2.6380084178298326	11.705198	3.421286
2.655539841028383	11.455529	3.3846018
2.673071326394119	11.21837	3.3493836
2.6906028743380523	11.055786	3.3250241
2.708134485271211	10.934448	3.3067276
2.7256661596046325	10.730911	3.275807
2.743197897749369	10.5167	3.2429461
2.760729700116486	10.395769	3.224247
2.778261567117063	10.350845	3.217273
2.795793499162193	10.254778	3.2023082
2.8133254966629817	10.051144	3.170354
2.830857560030551	9.975747	3.1584406
2.8483896896760337	9.880885	3.1433876
2.865921886010578	9.809374	3.131992
2.883454149445347	9.68393	3.1119015
2.9009864803915177	9.572488	3.0939438
2.91851887926028	9.4018	3.0662355
2.9360513464628384	9.299524	3.0495121
2.953583882410413	9.026851	3.0044718
2.9711164875142373	8.846624	2.9743276
2.9886491621855606	8.735849	2.955647
3.0061819068356455	8.694643	2.948668
3.023714721875769	8.688577	2.9476392
3.041247607717225	8.514553	2.9179707
3.0587805647713213	8.331769	2.8864803
3.0763135934493806	8.048796	2.83704
3.0938466941627407	7.932476	2.8164651
3.1113798673227544	7.9588165	2.8211374
3.1289131133407904	7.941935	2.8181438
3.1464464326282315	7.8699765	2.805348
3.1639798255964786	7.743882	2.7827833
3.1815132926569443	7.565069	2.750467
3.1990468342210603	7.5714726	2.751631
3.216580450700272	7.4653616	2.7322814
3.2341141425060416	7.385179	2.7175686
3.251647910049847	7.277758	2.697732
3.2691817537431813	7.121315	2.668579
3.286715673997555	6.9554634	2.6373212
3.3042496712244938	6.7976904	2.607238
3.32178374583554	6.760688	2.6001322
3.339317898242251	6.89561	2.6259494
3.3568521288562034	6.823031	2.6120932
3.3743864380889876	6.874689	2.6219628
3.3919208263522127	6.8983254	2.6264663
3.4094552940575023	6.8925033	2.6253576
3.4269898416164972	6.7532434	2.5987003
3.444524469440858	6.4868755	2.5469346
3.4620591779422587	6.425831	2.5349224
3.479593967532391	6.4366055	2.5370467
3.4971288386229658	6.443971	2.538498
3.5146637916257086	6.4274445	2.5352404
3.5321988269523628	6.2619324	2.5023854
3.5497339450146903	6.213975	2.4927845
3.5672691462244708	6.2032566	2.4906337
3.5848044309934988	6.2416096	2.4983213
3.60233979973359	6.2986445	2.50971
3.619875252856575	6.381349	2.5261333
3.6374107907743034	6.424016	2.5345643
3.6549464138986427	6.318688	2.5137
3.6724821226414788	6.2115855	2.4923053
3.690017917414714	6.0961094	2.4690301
3.7075537986302702	6.1650524	2.4829524
3.7250897667000857	6.295406	2.5090647
3.7426258220361235	6.4980006	2.5491176
3.7601619650503553	6.8093033	2.6094642
3.777698196154779	7.285954	2.6992507
3.7952345157614067	8.342822	2.8883944
3.8127709242822716	9.151671	3.025173
3.830307422129425	11.547339	3.3981376
3.847844009714936	30.463308	5.5193577
3.8653806874508954	97.964874	9.89772
3.882917455749409	97.14267	9.856098
3.900454315022606	96.84707	9.841091
3.917991265682631	41.34192	6.429768
3.9355283081416506	10.89248	3.3003757
3.9530654428118495	8.651629	2.9413652
3.970602670105433	7.3361545	2.7085335
3.9881399904346244	6.509266	2.5513263
4.005677404211669	6.478913	2.5453708
4.023214911848827	6.4610553	2.5418606
4.0407525137583855	6.397318	2.5292919
4.058290210352644	6.371521	2.524187
4.075828002043927	6.286583	2.5073059
4.0933658892445814	6.27802	2.5055978
4.110903872366966	6.176639	2.4852846
4.128441951823468	6.118996	2.4736605
4.145980128026488	5.99807	2.4490957
4.163518401388452	5.9578605	2.440873
4.181056772321807	6.0605855	2.4618256
4.1985952412390155	6.182978	2.4865594
4.216133808552567	6.3120494	2.5123792
4.233672474674966	6.327169	2.5153863
4.251211240018741	6.5364127	2.5566409
4.268750104996445	6.7449846	2.5971107
4.286289070020643	7.6031284	2.7573771
4.303828135503928	9.136592	3.0226796
4.3213673018589125	29.414024	5.4234695
4.3389065694982305	90.55829	9.5162115
4.356445938834537	165.92139	12.881047
4.3739854102805085	171.40808	13.092291
4.391524984248844	172.40121	13.130164
4.409064661152262	136.45062	11.681208
4.426604441403504	96.77972	9.837668
4.444144325415337	75.68088	8.699475
4.461684313600543	21.635132	4.651358
4.47922440637193	21.99244	4.6896095
4.496764604142329	20.399782	4.5166116
4.5143049073245916	18.621962	4.315317
4.531845316331589	16.487583	4.0604906
4.5493858315762195	13.50776	3.6752906
4.566926453471405	11.143389	3.3381715
4.584467182430081	9.086245	3.01434
4.602008018865218	8.029044	2.833557
4.619548963189798	7.5564733	2.748904
4.637090015816834	7.069924	2.658933
4.654631177159353	6.857164	2.6186187
4.672172447630417	6.5170627	2.5528538
4.689713827643102	6.342819	2.5184953
4.7072553176105085	6.070854	2.4639103
4.724796917945764	5.879751	2.42482
4.742338629062015	5.767932	2.4016519
4.759880451372434	5.7102795	2.389619
4.777422385290215	5.671109	2.3814092
4.794964431228581	5.6783357	2.3829257
4.812506589600768	5.681026	2.3834903
4.830048860820047	5.682994	2.383903
4.847591245299709	5.7293563	2.3936074
4.8651337434530655	5.721653	2.3919978
4.882676355693457	5.626987	2.372127
4.900219082434242	5.5254717	2.3506322
4.917761924088813	5.4434514	2.3331206
4.935304881070575	5.334143	2.3095765
4.952847953792969	5.422907	2.3287137
4.970391142669449	5.4790936	2.3407464
4.9879344481135055	5.591339	2.3646014
5.005477870538642	5.5954947	2.3654797
5.023021410358394	5.4535546	2.3352847
5.040565067986324	5.3253922	2.307681
5.05810884383601	5.265551	2.294679
5.075652738321066	5.2793303	2.2976794
5.09319675185512	5.3617234	2.3155396
5.110740884851836	5.3624115	2.3156881
5.128285137724894	5.4149456	2.3270035
5.145829510888007	5.3525467	2.3135571
5.163374004754908	5.3628244	2.3157773
5.1809186197393595	5.385013	2.320563
5.198463356255145	5.453049	2.3351765
5.216008214716077	5.443163	2.3330586
5.233553195535998	5.4243116	2.3290153
5.251098299128764	5.3161983	2.3056881
5.268643525908272	5.2086267	2.2822416
5.286188876288432	5.169955	2.2737534
5.3037343506831895	5.1389623	2.266928
5.32127994950651	5.2146106	2.2835522
5.3388256731723915	5.2265406	2.2861629
5.356371522094851	5.2303033	2.2869856
5.373917496687938	5.206069	2.281681
5.391463597365729	5.0937066	2.2569242
5.40900982454232	5.1061873	2.2596874
5.426556178631843	5.213374	2.2832813
5.444102660048449	5.2633977	2.2942097
5.4616492692063225	5.3160625	2.3056588
5.479196006519669	5.221112	2.2849753
5.496742872402727	5.2250814	2.2858436
5.514289867269756	5.2492313	2.29112
5.531836991535049	5.270974	2.2958603
5.549384245612924	5.208551	2.282225
5.566931629917724	5.212555	2.283102
5.584479144863822	5.1913457	2.2784524
5.6020267908656205	5.1883664	2.2777987
5.619574568337545	5.198379	2.2799954
5.637122477694054	5.2165055	2.283967
5.654670519349629	5.2683086	2.2952797
5.672218693718784	5.303019	2.3028286
5.689767001216059	5.2389207	2.288869
5.707315442256021	5.16599	2.2728815
5.724864017253266	5.0752854	2.2528393
5.7424127266224225	5.0653524	2.2506337
5.75996157077814	5.060022	2.2494493
5.777510550135105	5.094284	2.2570522
5.795059665108022	5.1072507	2.2599227
5.812608916111639	5.1612396	2.2718363
5.830158303560715	5.3034916	2.302931
5.847707827870055	5.312813	2.304954
5.86525748945448	5.3668838	2.3166535
5.8828072887288485	5.4991612	2.345029
5.900357226108044	5.5454264	2.354873
5.917907302006979	5.6802583	2.3833292
5.9354575168406	6.2356143	2.497121
5.9530078710238765	6.8556266	2.6183252
5.970558364971812	7.3745594	2.715614
5.988108999099438	7.7450757	2.7829976
6.005659773821818	8.310044	2.8827147
6.023210689554039	8.153982	2.8555179
6.040761746711227	8.551086	2.9242241
6.058312945708531	7.8551497	2.802704
6.075864286961132	7.282521	2.6986146
6.093415770884244	6.655113	2.5797505
6.1109673978931065	6.1786504	2.4856892
6.128519168402993	5.575352	2.3612185
6.146071082829204	5.426864	2.3295631
6.163623141587075	5.2806473	2.297966
6.181175345091969	5.2043085	2.2812953
6.198727693759281	5.1500874	2.2693803
6.216280188004435	5.1070385	2.2598758
6.233832828242885	5.082575	2.2544568
6.251385614890126	5.1249676	2.263839
6.268938548361669	5.1270843	2.2643065
6.286491629073067	5.110297	2.2605968
6.304044857439898	5.07098	2.2518837
6.321598233877777	5.0359263	2.244087
6.339151758802344	5.0366955	2.2442584
6.356705432629277	5.094371	2.2570713
6.37425925577428	5.094767	2.257159
6.391813228653095	5.079926	2.253869
6.409367351681486	5.0582757	2.249061
6.426921625275259	5.059842	2.2494092
6.44447604985025	5.051503	2.247555
6.46203062582232	4.9992075	2.2358909
6.47958535360737	5.0182877	2.2401536
6.497140233621328	5.0617614	2.249836
6.514695266280161	5.0997176	2.2582555
6.532250451999859	5.1430707	2.267834
6.549805791196454	5.1664963	2.2729928
6.567361284286002	5.1394057	2.2670257
6.584916931684597	5.0664415	2.2508757
6.602472733808367	5.000518	2.236184
6.6200286910734665	5.006237	2.2374623
6.637584803896092	5.01477	2.2393682
6.655141072692462	4.992412	2.2343707
6.672697497878842	4.9733167	2.2300935
6.690254079871514	4.939489	2.222496
6.707810819086808	4.992154	2.234313
6.725367715941078	5.009393	2.2381673
6.742924770850719	5.028388	2.2424068
6.760481984232151	4.979042	2.2313766
6.778039356501836	4.9904985	2.2339423
6.795596888076266	5.068432	2.2513177
6.813154579371963	5.091776	2.2564964
6.830712430805492	5.046137	2.2463608
6.84827044279344	4.993299	2.234569
6.865828615752445	4.9523168	2.2253802
6.883386950099159	4.9870167	2.2331629
6.900945446250287	5.033654	2.2435806
6.918504104622553	5.115089	2.2616563
6.936062925632727	5.104224	2.259253
6.953621909697607	5.1207075	2.262898
6.971181057234028	5.1067424	2.2598102
6.988740368658859	5.0617194	2.2498264
7.006299844389007	5.067588	2.2511303
7.023859484841407	5.1807513	2.2761264
7.041419290433036	5.2557406	2.2925403
7.058979261580902	5.402541	2.3243368
7.0765393987020495	5.541247	2.3539853
7.094099702213559	5.928372	2.4348247
7.111660172532549	6.3262935	2.5152123
7.129220810076164	6.6771293	2.5840142
7.146781615261595	7.1974006	2.6827972
7.16434258850606	7.4613976	2.731556
7.181903730226821	7.829583	2.7981393
7.1994650408411704	7.99937	2.8283157
7.217026520766437	8.093772	2.8449554
7.234588170419983	8.359128	2.8912156
7.252149990219215	8.330193	2.8862073
7.269711980581568	8.266417	2.8751376
7.2872741419245175	8.149884	2.8548002
7.304836474665574	7.811943	2.7949853
7.322398979222286	7.494953	2.7376912
7.339961656012233	7.2209387	2.6871805
7.357524505453039	6.816019	2.6107507
7.375087527962357	6.530621	2.555508
7.392650723957886	6.282728	2.5065372
7.410214093857353	5.931337	2.4354336
7.427777638078528	5.744993	2.3968716
7.445341357039213	5.554399	2.3567772
7.4629052511572525	5.4188175	2.3278353
7.480469320850524	5.323381	2.3072453
7.498033566536948	5.2649665	2.2945514
7.5155979886344735	5.2041054	2.281251
7.5331625875610975	5.1903977	2.2782445
7.550727363734844	5.226859	2.2862325
7.568292317573788	5.256007	2.2925982
7.585857449496025	5.2386484	2.2888093
7.603422759919705	5.2420564	2.2895536
7.620988249263007	5.2226796	2.2853184
7.638553917944147	5.1899753	2.2781518
7.656119766381391	5.09862	2.2580123
7.673685794993023	5.1320524	2.2654033
7.691252004197388	5.1379204	2.2666981
7.70881839441285	5.143289	2.267882
7.726384966057826	5.1431704	2.267856
7.743951719550762	5.102775	2.2589324
7.761518655310149	5.167884	2.273298
7.779085773754511	5.18162	2.2763171
7.796653075302419	5.275742	2.2968984
7.814220560372475	5.3418937	2.3112538
7.831788229383323	5.335659	2.3099046
7.8493560827536495	5.3099	2.304322
7.866924120902174	5.268805	2.2953877
7.884492344247663	5.2613254	2.293758
7.9020607532089135	5.335635	2.3098993
7.919629348204771	5.4173512	2.3275204
7.937198129654115	5.4575057	2.3361304
7.954767097975865	5.491911	2.3434827
7.972336253588986	5.5152917	2.348466
7.989905596912472	5.50784	2.3468788
8.007475128365371	5.452551	2.33507
8.025044848366756	5.4110017	2.326156
8.042614757335754	5.556059	2.3571293
8.060184855691523	5.649881	2.3769479
8.07775514385327	5.7637095	2.4007728
8.095325622240228	5.779655	2.4040914
8.112896291271687	5.772162	2.4025323
8.130467151366968	5.8418875	2.4169996
8.148038202945436	5.85009	2.418696
8.165609446426497	5.8640027	2.4215703
8.183180882229594	5.9039154	2.4297974
8.200752510774217	5.9080358	2.4306452
8.218324332479893	5.8874674	2.4264104
8.235896347766193	5.911348	2.4313264
8.253468557052724	5.979126	2.4452252
8.27104096075914	6.000055	2.449501
8.288613559305137	6.075374	2.4648273
8.306186353110448	6.1407228	2.478048
8.32375934259485	6.1853957	2.4870455
8.341332528178162	6.192341	2.4884415
8.358905910280246	6.186007	2.4871686
8.376479489321003	6.1929398	2.4885619
8.394053265720377	6.2343397	2.496866
8.411627239898356	6.241561	2.4983115
8.42920141227497	6.2367663	2.497352
8.44677578327029	6.2666063	2.503319
8.464350353304427	6.225612	2.4951177
8.48192512279754	6.2516246	2.500325
8.499500092169827	6.1920795	2.488389
8.51707526184153	6.148851	2.4796877
8.534650632232934	6.111152	2.4720745
8.552226203764365	6.133178	2.4765255
8.569801976856192	6.198185	2.4896154
8.587377951928834	6.26236	2.5024707
8.60495412940274	6.2939024	2.5087652
8.622530509698416	6.3167477	2.513314
8.6401070932364	6.3736005	2.524599
8.657683880437283	6.4973183	2.5489838
8.675260871721695	6.5859866	2.5663178
8.692838067510303	6.7656617	2.6010885
8.710415468223834	6.8729663	2.6216342
8.727993074283043	7.0215187	2.6498148
8.745570886108737	7.0188913	2.649319
8.763148904121765	7.1460843	2.673216
8.78072712874302	7.193142	2.6820033
8.798305560393441	7.4607315	2.7314339
8.815884199494006	7.576128	2.7524767
8.833463046465745	7.690754	2.7732208
8.851042101729728	7.8122244	2.7950356
8.86862136570707	8.035016	2.8346105
8.886200838818924	8.190431	2.861893
8.903780521486505	8.245281	2.8714597
8.921360414131055	8.30892	2.8825197
8.938940517173874	8.457803	2.90823
8.956520831036297	8.668578	2.9442449
8.97410135613971	8.976414	2.9960663
8.99168209290554	9.205868	3.0341172
9.009263041755265	9.534658	3.087824
9.026844203110405	9.771329	3.1259124
9.044425577392525	9.910457	3.1480877
9.062007165023239	9.961737	3.1562219
9.079588966424197	10.222178	3.1972141
9.097170982017108	10.371853	3.2205362
9.11475321222372	11.535785	3.3964372
9.132335657465825	12.478297	3.5324633
9.149918318165264	12.540311	3.5412302
9.167501194743924	13.027144	3.6093135
9.18508428762374	12.617066	3.552051
9.202667597226693	12.588766	3.5480652
9.220251123974803	12.211227	3.4944568
9.237834868290143	11.970088	3.4597814
9.255418830594836	11.838524	3.4407156
9.273003011311046	11.367646	3.371594
9.290587410860985	11.153506	3.3396866
9.308172029666911	10.530103	3.245012
9.32575686815113	10.235973	3.1993709
9.343341926735997	8.90382	2.983927
9.360927205843916	8.625902	2.9369886
9.378512705897327	8.353909	2.890313
9.396098427318728	8.163841	2.8572435
9.413684370530664	8.125153	2.8504653
9.431270535955722	7.9920444	2.8270204
9.448856924016539	7.843022	2.8005395
9.466443535135806	7.684931	2.7721708
9.484030369736251	7.6951623	2.7740157
9.501617428240658	7.7240906	2.7792249
9.519204711071852	7.7738104	2.7881553
9.536792218652714	7.8221593	2.7968123
9.55437995140617	7.8754745	2.8063276
9.571967909755191	7.910011	2.8124743
9.589556094122802	7.9117794	2.8127885
9.60714450493207	7.898076	2.8103516
9.624733142606116	7.9105496	2.8125699
9.642322007568108	7.9170194	2.8137197
9.659911100241267	7.96864	2.822878
9.677500421048851	8.05272	2.8377316
9.695089970414175	8.16435	2.8573327
9.712679748760609	8.24745	2.8718374
9.730269756511557	8.228604	2.8685544
9.747859994090492	8.174255	2.8590655
9.765450461920915	8.132563	2.851765
9.78304116042639	8.175502	2.8592834
9.800632090030527	8.222749	2.8675337
9.81822325115699	8.239902	2.870523
9.835814644229481	8.268714	2.8755372
9.853406269671762	8.276743	2.8769329
9.870998127907646	8.322633	2.8848975
9.888590219360985	8.3717	2.893389
9.906182544455698	8.406236	2.899351
9.923775103615734	8.424781	2.9025474
9.941367897265108	8.430735	2.9035728
9.958960925827878	8.4066305	2.899419
9.97655418972816	8.37864	2.894588
9.994147689390106	8.3481455	2.8893158
10.011741425237934	8.338258	2.8876042
10.029335397695904	8.354303	2.890381
10.04692960718833	8.315103	2.883592
10.06452405413958	8.295706	2.8802266
10.082118738974064	8.237656	2.8701317
10.099713662116246	8.196949	2.8630314
10.117308823990651	8.1533985	2.8554156
10.134904225021844	8.109395	2.8476999
10.152499865634445	8.12893	2.8511279
10.170095746253125	8.193551	2.862438
10.18769186730261	8.18709	2.861309
10.205288229207675	8.183743	2.8607242
10.222884832393145	8.152211	2.8552077
10.2404816772839	8.158598	2.8563259
10.258078764304868	8.251743	2.8725848
10.275676093881035	8.194698	2.8626382
10.293273666437438	8.131383	2.851558
10.310871482399158	8.183247	2.8606374
10.32846954219134	8.093646	2.8449335
10.346067846239173	8.083128	2.8430843
10.363666394967908	8.016262	2.8313005
10.38126518880283	8.07957	2.8424585
10.398864228169298	8.237624	2.8701262
10.416463513492713	8.263574	2.8746433
10.434063045198531	8.249193	2.872141
10.451662823712262	8.165014	2.8574488
10.469262849459467	8.157452	2.8561254
10.486863122865758	8.119456	2.8494658
10.504463644356806	8.0831	2.8430793
10.522064414358338	7.9745364	2.8239222
10.539665433296118	7.926686	2.815437
10.557266701595987	7.86233	2.8039846
10.574868219683818	7.7753153	2.7884252
10.592469987985552	7.6655335	2.76867
10.610072006927185	7.58953	2.7549102
10.627674276934751	7.476692	2.734354
10.64527679843435	7.386097	2.7177374
10.662879571852143	7.306414	2.703038
10.680482597614331	7.229519	2.6887765
10.698085876147173	7.1513977	2.6742098
10.715689407876988	7.0390997	2.65313
10.733293193230146	6.873848	2.6218023
10.750897232633072	6.80041	2.6077595
10.76850152651225	6.7110796	2.5905752
10.786106075294207	6.6371784	2.5762722
10.803710879405534	6.5372224	2.5567992
10.821315939272877	6.4213977	2.5340476
10.83892125532294	6.3952084	2.5288749
10.856526827982472	6.3237343	2.5147035
10.874132657678285	6.281119	2.506216
10.891738744837243	6.215324	2.493055
10.909345089886271	6.1989427	2.4897676
10.926951693252343	6.1102066	2.4718833
10.944558555362494	6.030416	2.4556906
10.96216567664381	5.972807	2.4439328
10.979773057523436	5.9857664	2.4465826
10.997380698428573	5.940396	2.4372928
11.014988599786477	5.8629913	2.4213614
11.032596762024461	5.7726274	2.4026294
11.050205185569892	5.659409	2.3789513
11.067813870850198	5.5684905	2.3597648
11.085422818292859	5.511338	2.347624
11.10303202832541	5.5000596	2.3452206
11.120641501375454	5.4000006	2.32379
11.138251237870636	5.2943034	2.3009353
11.155861238238671	5.2485237	2.2909656
11.173471502907317	5.2075586	2.2820077
11.191082032304402	5.1667285	2.2730439
11.208692826857805	5.1484575	2.2690213
11.226303886995465	5.131659	2.2653165
11.243915213145371	5.1099463	2.260519
11.261526805735578	5.0372267	2.2443767
11.279138665194196	4.8984165	2.2132366
11.296750791949393	4.817482	2.1948762
11.314363186429393	4.7699714	2.1840265
11.331975849062479	4.7211943	2.1728308
11.34958878027699	4.7031574	2.1686764
11.36720198050133	4.627818	2.1512363
11.384815450163948	4.5756264	2.1390715
11.402429189693366	4.5316367	2.1287642
11.420043199518153	4.5048385	2.1224604
11.437657480066942	63.48778	7.967922
11.455272031768422	85.1627	9.228364
11.472886855051353	107.55962	10.371096
11.490501950344528	99.15115	9.957467
11.508117318076819	84.50751	9.192797
11.52573295867715	45.875298	6.7731304
11.543348872574514	4.12329	2.0305886
11.560965060197946	4.138375	2.0342996
11.57858152197655	4.1430655	2.0354521
11.59619825833949	4.077461	2.0192723
11.613815269715985	4.022403	2.0055928
11.631432556535323	38.511868	6.205793
11.649050119226837	83.04294	9.11279
11.666667958219929	93.423546	9.6655855
11.68428607394406	107.69608	10.377672
11.701904466828756	82.50028	9.082967
11.719523137303586	65.33354	8.082916
11.737142085798196	4.5701394	2.1377885
11.754761312742286	3.7315974	1.9317343
11.772380818565619	3.6937742	1.9219195
11.790000603698015	3.6940598	1.9219937
11.80762066856935	3.6634789	1.9140216
11.825241013609572	3.608042	1.8994846
11.842861639248683	3.5334694	1.8797525
11.860482545916748	3.4924245	1.8688029
11.878103734043883	3.4851928	1.8668671
11.895725204060282	3.4866195	1.8672491
11.91334695639619	3.452777	1.8581649
11.930968991481919	3.4048963	1.8452361
11.948591309747824	3.3685462	1.8353599
11.966213911624347	3.363397	1.8339566
11.98383679754198	3.3609257	1.8332827
12.001459967931268	3.329472	1.8246841
12.019083423222835	3.289142	1.8135991
12.036707163847352	3.2583923	1.8051018
12.05433119023556	3.205347	1.7903483
12.071955502818259	3.1583428	1.7771727
12.089580102026313	3.140662	1.7721913
12.107204988290643	3.1639206	1.7787414
12.12483016204224	3.151787	1.7753273
12.142455623712152	3.1094472	1.7633625
12.16008137373149	3.0787551	1.7546382
12.177707412531431	3.0859337	1.7566826
12.19533374054321	3.0757976	1.7537951
12.212960358198126	3.044987	1.7449892
12.230587265927545	3.021262	1.7381778
12.248214464162889	3.0359457	1.7423965
12.265841953335649	3.0426075	1.7443072
12.283469733877375	3.0518107	1.7469432
12.301097806219685	3.080457	1.755123
12.31872617079425	3.0493312	1.7462335
12.336354828032825	3.015526	1.736527
12.353983778367205	2.9538846	1.7186869
12.371613022229262	2.9134965	1.7068968
12.389242560050928	2.8650873	1.6926569
12.406872392264201	2.8812408	1.6974218
12.424502519301143	2.8791208	1.6967973
12.442132941593874	2.9110432	1.706178
12.459763659574586	2.8773127	1.6962643
12.477394673675532	2.826065	1.6810905
12.49502598432903	2.8057075	1.6750246
12.51265759196746	2.8028243	1.6741637
12.530289497023267	2.8391874	1.6849889
12.547921699928967	2.8337836	1.6833845
12.565554201117134	2.8738258	1.6952362
12.583187001020404	2.886489	1.698967
12.600820100071486	2.8910296	1.7003028
12.618453498703152	2.8225334	1.6800396
12.636087197348235	2.806556	1.6752778
12.65372119643964	2.7969697	1.6724143
12.671355496410326	2.7702591	1.6644095
12.68899009769333	2.7915676	1.6707985
12.706625000721749	2.8178148	1.6786348
12.724260205928752	2.9111483	1.7062087
12.741895713747551	2.9287004	1.7113446
12.759531524611454	2.9574785	1.7197322
12.777167638953818	2.9651923	1.7219734
12.794804057208072	3.0187614	1.7374583
12.812440779807702	3.0704756	1.7522773
12.830077807186271	3.2403145	1.8000873
12.847715139777405	3.26786	1.8077223
12.865352778014795	3.4986346	1.8704637
12.882990722332197	3.5982819	1.8969138
12.90062897316344	3.668539	1.915343
12.918267530942412	3.6916714	1.9213723
12.935906396103071	3.5648663	1.8880854
12.953545569079449	3.759624	1.938975
12.971185050305628	3.6063495	1.8990391
12.988824840215775	3.5965092	1.8964465
13.006464939244115	3.633847	1.9062651
13.024105347824943	3.4861872	1.8671334
13.041746066392617	3.6023114	1.8979756
13.05938709538157	3.3581264	1.8325192
13.077028435226296	3.3528423	1.8310769
13.094670086361363	3.262737	1.8063048
13.112312049221401	3.1326416	1.769927
13.129954324241112	3.0746882	1.7534789
13.147596911855258	2.894643	1.7013651
13.165239812498685	2.9013257	1.7033278
13.182883026606293	2.8200397	1.6792974
13.200526554613058	2.762686	1.662133
13.218170396954017	2.7159126	1.6480026
13.235814554064284	2.6981158	1.6425942
13.253459026379034	2.7234206	1.6502789
13.271103814333523	2.7126188	1.6470029
13.288748918363058	2.668272	1.6334846
13.306394338903031	2.6378882	1.6241577
13.32404007638889	2.639279	1.6245857
13.341686131256164	2.6830292	1.6379955
13.359332503940449	2.676298	1.6359395
13.376979194877402	2.6707516	1.6342434
13.394626204502751	2.6909127	1.6404002
13.412273533252307	2.7103856	1.6463249
13.429921181561937	2.6993656	1.6429746
13.447569149867581	2.682952	1.6379719
13.465217438605247	2.651677	1.628397
13.482866048211022	2.643307	1.625825
13.500514979121052	2.6943321	1.6414421
13.518164231771568	2.7189436	1.648922
13.535813806598844	2.7190359	1.64895
13.553463704039254	2.7063458	1.6450975
13.571113924529229	2.7026696	1.6439798
13.588764468505275	2.703878	1.6443473
13.606415336403956	2.698051	1.6425745
13.624066528661917	2.7161772	1.6480829
13.641718045715882	2.7737112	1.6654463
13.659369888002635	2.801593	1.673796
13.67702205595903	2.8635826	1.6922123
13.694674550021993	2.9365375	1.7136328
13.712327370628532	3.0129356	1.735781
13.729980518215713	3.1195326	1.7662199
13.747633993220681	3.1761806	1.7821842
13.765287796080647	3.2416978	1.8004715
13.7829419272329	3.2724364	1.8089876
13.800596387114801	3.3009348	1.8168474
13.818251176163775	3.332752	1.8255826
13.835906294817324	3.375282	1.8371941
13.853561743513023	3.3937807	1.8422216
13.871217522688525	3.425529	1.8508185
13.888873632781538	3.4455287	1.8562136
13.906530074229858	3.4929152	1.8689343
13.92418684747135	3.513163	1.8743434
13.941843952943948	3.5518353	1.8846314
13.959501391085665	3.5186331	1.875802
13.977159162334578	3.4312668	1.8523679
13.994817267128846	3.3681774	1.8352594
14.012475705906693	3.3273752	1.8241094
14.030134479106424	3.2992399	1.816381
14.047793587166414	3.1991146	1.7886069
14.065453030525108	3.0825114	1.7557082
14.083112809621026	3.0225015	1.7385343
14.100772924892766	2.952188	1.7181933
14.118433376778997	2.9036028	1.7039962
14.136094165718458	2.8267188	1.6812849
14.153755292149969	2.7544537	1.6596547
14.171416756512416	2.661069	1.6312783
14.189078559244768	2.6094465	1.6153781
14.20674070078606	2.5659437	1.6018564
14.224403181575408	2.5596108	1.5998784
14.242066002051999	2.506485	1.5831882
14.259729162655093	2.455507	1.5670058
14.277392663824022	2.4506218	1.5654463
14.295056505998208	2.433551	1.5599843
14.312720689617128	2.3706014	1.5396757
14.330385215120348	2.350252	1.5330532
14.348050082947497	2.365044	1.53787
14.3657152935383	2.4291203	1.5585636
14.383380847332528	2.4463909	1.5640943
14.401046744770051	2.4161696	1.5544033
14.418712986290798	2.3676922	1.5387307
14.436379572334793	2.3618696	1.5368376
14.454046503342123	2.38693	1.5449692
14.471713779752946	2.4062579	1.5512117
14.489381402007504	2.4452486	1.563729
14.507049370546113	2.423398	1.5567267
14.524717685809168	2.4101949	1.5524802
14.542386348237134	2.3991482	1.5489184
14.560055358270553	2.3846924	1.5442449
14.577724716350051	2.3985722	1.5487324
14.595394422916325	2.383965	1.5440094
14.61306447841015	2.4382954	1.5615042
14.63073488327237	2.4560196	1.5671693
14.648405637943917	2.4691753	1.571361
14.6660767428658	2.4336543	1.5600173
14.683748198479094	2.447144	1.564335
14.701420005224954	2.5171967	1.5865675
14.719092163544628	2.6218226	1.6192043
14.73676467387942	2.7023807	1.6438919
14.754437536670727	2.7509918	1.6586114
14.772110752360014	2.7540014	1.6595184
14.78978432138882	2.7264452	1.651195
14.807458244198777	2.7271137	1.6513975
14.82513252123159	2.6757636	1.6357762
14.842807152929028	2.708533	1.6457622
14.860482139732962	2.6728299	1.6348791
14.87815748208531	2.6375523	1.6240543
14.8958331804281	2.632438	1.622479
14.91350923520342	2.6315908	1.6222179
14.931185646853438	2.710555	1.6463764
14.948862415820408	2.7092917	1.6459926
14.966539542546656	2.6905546	1.640291
14.98421702747459	2.6572716	1.630114
15.001894871046696	2.6502957	1.6279728
15.019573073705542	2.6441245	1.6260765
15.037251635893766	2.6400466	1.624822
15.054930558054092	2.6605425	1.631117
15.072609840629323	2.6997833	1.6431017
15.090289484062351	2.8507586	1.688419
15.107969488796124	3.186038	1.7849476
15.125649855273691	3.6201904	1.9026798
15.14333058393817	4.140103	2.0347242
15.161011675232768	5.0940485	2.257
15.17869312960076	6.3966084	2.5291517
15.196374947485506	8.113775	2.848469
15.214057129330447	11.133387	3.336673
15.231739675579114	15.859038	3.9823408
15.249422586675102	21.156267	4.599594
15.267105863062092	24.415155	4.9411693
15.284789505183847	24.881577	4.9881434
15.302473513484218	22.904684	4.785884
15.320157888407127	19.400545	4.404605
15.337842630396578	15.175166	3.8955317
15.355527739896656	11.775664	3.4315689
15.37321321735153	9.1078	3.017913
15.39089906320545	6.570115	2.5632236
15.408585277902748	4.8486195	2.2019582
15.42627186188783	3.7458377	1.9354167
15.443958815605198	3.2132044	1.7925413
15.461646139499424	2.9462612	1.7164676
15.479333834015168	2.7832704	1.6683136
15.497021899597165	2.7307365	1.6524941
15.514710336690234	2.684836	1.638547
15.53239914573928	2.6142144	1.6168532
15.550088327189297	2.5465198	1.5957819
15.567777881485336	2.4979827	1.5805008
15.58546780907256	2.5021455	1.5818172
15.6031581103962	2.4802482	1.5748804
15.620848785901568	2.4875512	1.5771973
15.638539836034063	2.474633	1.5730966
15.656231261239173	2.4882023	1.5774037
15.673923061962451	2.4707253	1.5718541
15.691615238649552	2.437862	1.5613654
15.709307791746202	2.4467216	1.5641999
15.727000721698221	2.4485831	1.5647949
15.744694028951498	2.4626245	1.5692751
15.76238771395202	2.424993	1.5572389
15.780081777145844	2.4270282	1.5578922
15.797776218979125	2.4194307	1.555452
15.815471039898094	2.4235382	1.5567718
15.833166240349064	2.4184449	1.555135
15.850861820778437	2.4013705	1.5496356
15.868557781632699	2.3859415	1.5446494
15.886254123358412	2.362804	1.5371414
15.903950846402232	2.341349	1.5301467
15.921647951210897	2.3487012	1.5325474
15.939345438231225	2.3746755	1.5409982
15.957043307910133	2.3869178	1.5449653
15.974741560694602	2.3833587	1.543813
15.992440197031714	2.3858027	1.5446044
16.01013921736862	2.3673327	1.5386139
16.02783862215259	2.3871133	1.5450286
16.045538411830933	2.3621802	1.5369385
16.06323858685107	2.3769429	1.5417337
16.080939147660512	2.3626542	1.5370928
16.09864009470684	2.4046667	1.5506988
16.11634142843774	2.4084814	1.5519283
16.134043149300954	2.4450464	1.5636644
16.15174525774433	2.4277947	1.5581383
16.169447754215817	2.4198427	1.5555843
16.18715063916342	2.4110215	1.5527464
16.204853913035244	2.4433863	1.5631335
16.222557576279478	2.4498396	1.5651964
16.240261629344403	22.45719	4.7389016
16.257966072678386	42.999462	6.5573974
16.275670906729868	38.07616	6.1705885
16.293376131947387	2.4422917	1.5627834
16.31108174877957	2.4564843	1.5673176
16.328787757675133	2.5097	1.5842032
16.34649415908287	2.5552561	1.5985168
16.364200953451657	2.6036417	1.6135805
16.38190814123048	2.6241775	1.6199313
16.39961572286839	2.6814945	1.637527
16.41732369881455	2.7134728	1.6472622
16.43503206951817	2.7534618	1.6593559
16.45274083542859	2.7941422	1.6715688
16.47044999699522	2.8358896	1.68401
16.488159554667558	2.8374236	1.6844654
16.505869508895184	2.8549688	1.6896653
16.523579860127786	2.8866994	1.699029
16.541290608815117	2.9649012	1.7218889
16.559001755407035	3.0203602	1.7379184
16.57671330035348	3.0304198	1.7408102
16.59442524410448	3.0790458	1.754721
16.61213758711015	3.149827	1.7747751
16.629850329820705	3.240299	1.800083
16.647563472686436	3.3306615	1.8250101
16.665277016157724	3.3826454	1.8391969
16.682990960685053	3.4458404	1.8562975
16.70070530671898	3.5217378	1.8766294
16.718420054710155	3.5410979	1.8817805
16.736135205109335	3.5750048	1.8907683
16.753850758367335	3.5903459	1.8948208
16.771566714935087	3.6459672	1.9094416
16.789283075263597	3.6915662	1.9213449
16.80699983980398	3.732303	1.931917
16.82471700900741	3.8137019	1.9528701
16.84243458332518	3.9240677	1.980926
16.860152563208665	4.033176	2.008277
16.87787094910932	4.129419	2.032097
16.89558974147871	4.1912875	2.0472634
16.913308940768466	4.231099	2.0569637
16.931028547430333	4.277042	2.068101
16.94874856191613	4.362387	2.0886328
16.966468984677785	4.4201794	2.1024222
16.98418981616729	4.4135823	2.1008527
17.00191105683676	4.3662853	2.0895658
17.019632707138374	4.3980727	2.0971582
17.03735476752442	4.4833655	2.1173959
17.05507723844728	4.5807924	2.1402786
17.072800120359403	4.6695075	2.1609044
17.090523413713353	4.7042913	2.168938
17.108247118961785	4.73736	2.1765478
17.125971236557437	4.6699553	2.161008
17.143695766953133	4.6410284	2.1543045
17.161420710601806	4.6174974	2.1488364
17.179146067956477	4.6015177	2.145115
17.19687183947025	4.575968	2.139151
17.21459802559634	4.5755253	2.1390479
17.232324626788028	4.5459127	2.1321146
17.25005164349871	4.569319	2.1375966
17.267779076181863	4.56936	2.1376061
17.285506925291074	4.593211	2.1431777
17.30323519127999	4.5703797	2.1378446
17.320963874602384	4.5983133	2.144368
17.33869297571211	4.6034536	2.145566
17.356422495063114	4.620893	2.1496263
17.37415243310944	4.5524726	2.1336524
17.391882790305218	4.5022955	2.1218612
17.40961356710468	4.450921	2.1097207
17.42734476396215	4.47076	2.114417
17.445076381332044	4.483328	2.117387
17.462808419668868	4.5786505	2.1397781
17.48054087942723	4.6943436	2.1666434
17.498273761061835	4.9632697	2.2278397
17.51600706502747	5.440178	2.332419
17.533740791779024	6.119743	2.4738114
17.551474941771485	7.539967	2.7459002
17.56920951545993	8.636868	2.9388547
17.586944513299528	10.935382	3.3068688
17.60467993574556	12.674149	3.560077
17.622415783253373	14.569781	3.8170383
17.64015205627843	16.16263	4.0202775
17.657888755276293	17.299292	4.1592417
17.675625880702604	17.758875	4.214128
17.69336343301311	17.507828	4.1842356
17.71110141266366	16.738289	4.091245
17.728839820110178	15.686099	3.960568
17.746578655808705	14.58612	3.8191779
17.764317920215372	12.939815	3.5971954
17.7820576137864	11.331332	3.3662045
17.79979773697811	9.317374	3.0524373
17.81753829024692	7.462432	2.7317452
17.835279274049356	5.7749715	2.403117
17.85302068884201	4.7446957	2.1782322
17.870762535081607	4.1257405	2.0311918
17.888504813224934	3.8825967	1.9704306
17.90624752372891	3.7211714	1.9290338
17.923990667050536	3.6392577	1.9076838
17.941734243646895	3.5610795	1.8870822
17.959478253975185	3.508149	1.8730053
17.9772226984927	3.4504254	1.857532
17.994967577656833	3.4201014	1.8493516
18.01271289192506	3.4207914	1.8495382
18.030458641754965	3.4241643	1.8504498
18.04820482760425	3.3943276	1.8423702
18.06595144993067	3.3523228	1.830935
18.083698509192125	3.3415637	1.8279945
18.101446005846576	3.2823017	1.8117124
18.119193940352105	3.2264524	1.7962328
18.136942313166887	3.1730938	1.781318
18.1546911247492	3.135346	1.7706908
18.1724403755574	3.1392295	1.771787
18.19019006604997	3.178274	1.7827715
18.207940196685467	3.1664255	1.7794453
18.225690767922575	3.152337	1.7754822
18.243441780220046	3.1141238	1.764688
18.261193234036764	3.1008763	1.7609305
18.278945129831676	3.0992935	1.760481
18.29669746806386	3.0789945	1.7547064
18.314450249192483	3.0874457	1.7571129
18.3322034736768	3.0652285	1.7507794
18.349957141976184	3.0261893	1.7395946
18.3677112545501	3.0370846	1.7427233
18.385465811858108	3.0509756	1.7467042
18.403220814359884	3.036785	1.7426374
18.420976262515172	3.07912	1.7547421
18.43873215678387	3.1058855	1.7623522
18.456488497625923	3.17788	1.782661
18.474245285501407	3.2485251	1.8023665
18.492002520870486	3.3518555	1.8308073
18.50976020419343	3.4055448	1.8454118
18.527518335930615	3.6535695	1.9114313
18.545276916542516	4.2316303	2.0570927
18.563035946489688	4.422999	2.1030927
18.580795426232832	4.9078603	2.2153692
18.598555356232698	4.780009	2.1863232
18.616315736950185	5.038413	2.244641
18.63407656884626	4.6279907	2.1512766
18.65183785238201	4.8285027	2.1973853
18.669599588018617	4.63789	2.1535761
18.68736177621737	4.61903	2.1491928
18.705124417439652	4.5914283	2.142762
18.72288751214696	4.420997	2.1026168
18.740651060800886	4.6079516	2.146614
18.758415063863115	4.291007	2.0714746
18.77617952179546	4.4597797	2.111819
18.793944435059814	4.22183	2.0547092
18.811709804118184	4.2363625	2.0582426
18.829475629432675	4.1367836	2.0339084
18.8472419114655	3.9278867	1.9818897
18.86500865067897	3.9982042	1.999551
18.88277584753551	3.6867163	1.9200823
18.90054350249763	3.6977139	1.9229441
18.918311616027957	3.4246807	1.8505893
18.936080188589226	3.326006	1.823734
18.953849220644265	3.0320432	1.7412763
18.971618712656007	2.834016	1.6834536
18.9893886650875	2.8021944	1.6739756
19.007159078401887	7.9664593	2.8224916
19.024929953062408	32.841614	5.73076
19.042701289532435	32.77046	5.724549
19.060473088275405	25.34022	5.033907
19.07824534975489	2.6262634	1.6205751
19.096018074434568	2.6432023	1.6257929
19.113791262778197	2.6529548	1.6287894
19.13156491524966	2.6289964	1.621418
19.149339032312945	2.602938	1.6133623
19.167113614432136	2.5734007	1.6041822
19.184888662071433	2.5443609	1.5951053
19.202664175695123	2.494956	1.579543
19.220440155767623	2.5198915	1.5874166
19.238216602753447	2.5713456	1.6035416
19.2559935171172	2.5815723	1.6067272
19.27377089932361	2.5619984	1.6006243
19.291548749837514	2.5288744	1.5902435
19.309327069123835	2.4908648	1.5782473
19.32710585764763	2.4630291	1.5694041
19.344885115874032	2.445122	1.5636886
19.362664844268313	2.441414	1.5625025
19.380445043295822	2.4448822	1.5636119
19.39822571342203	2.472966	1.5725666
19.41600685511252	2.5160544	1.5862075
19.43378846883297	2.5320928	1.5912551
19.451570555049173	2.5714612	1.6035776
19.469353114227037	2.5652626	1.6016437
19.48713614683254	2.5765786	1.6051725
19.50491965333182	2.5279279	1.5899459
19.52270363419109	2.4948938	1.5795233
19.540488089876686	2.4808793	1.5750808
19.55827302085503	2.491294	1.5783833
19.576058427592674	2.515676	1.5860883
19.593844310556282	2.542714	1.594589
19.611630670212598	2.5445194	1.595155
19.629417507028506	2.5529118	1.5977834
19.64720482147098	2.5593498	1.5997968
19.6649926140071	2.551994	1.5974962
19.682780885104084	2.4898758	1.577934
19.70056963522921	2.4621165	1.5691133
19.718358864849908	2.4779403	1.5741475
19.7361485744337	2.5095694	1.584162
19.753938764448215	2.5482852	1.5963349
19.771729435361202	2.5795903	1.6061103
19.789520587640506	2.5575411	1.5992314
19.807312221754092	2.5268269	1.5895996
19.825104338170043	2.5168624	1.5864623
19.842896937356517	2.5031705	1.5821412
19.860690019781824	2.4740112	1.572899
19.87848358591436	2.4696386	1.5715084
19.896277636222635	2.446129	1.5640106
19.914072171175278	2.4605181	1.5686039
19.931867191241015	2.4300983	1.5588772
19.94966269688869	2.4545987	1.5667158
19.967458688587264	2.4518313	1.5658325
19.985255166805807	2.4898598	1.577929
20.00305213201348	2.4785957	1.5743556
20.020849584679578	2.472356	1.5723728
20.038647525273507	2.4339042	1.5600975
20.05644595426477	2.4196837	1.5555333
20.07424487212299	2.3958938	1.5478675
20.092044279317903	2.4089494	1.5520791
20.109844176319353	2.4527347	1.5661209
20.127644563597304	2.5153096	1.5859728
20.145445441621817	2.4982939	1.5805992
20.16324681086307	2.4591937	1.5681816
20.181048671791373	2.4640477	1.5697285
20.198851024877122	2.4476933	1.5645106
20.216653870590836	2.428432	1.5583427
20.234457209403146	2.4049108	1.5507774
20.252261041784802	2.3929908	1.5469295
20.270065368206662	2.3594856	1.5360618
20.287870189139685	2.3557777	1.5348543
20.305675505054968	2.351016	1.5333023
20.323481316423702	2.3708298	1.53975
20.341287623717207	2.3429308	1.5306635
20.359094427406884	2.3813767	1.543171
20.376901727964288	2.3852372	1.5444213
20.39470952586107	2.3821993	1.5434375
20.41251782156899	2.3622987	1.5369772
20.430326615559935	2.306174	1.5186093
20.448135908305886	2.3153777	1.5216365
20.465945700278965	2.3190908	1.5228561
20.483755991951384	2.3368635	1.5286803
20.50156678379548	2.3521607	1.5336756
20.519378076283708	2.3823435	1.5434842
20.537189869888635	2.411226	1.5528123
20.55500216508294	2.3926349	1.5468144
20.572814962339415	2.3761902	1.5414896
20.59062826213098	2.366736	1.53842
20.60844206493066	2.3524926	1.5337838
20.626256371211593	2.3117588	1.5204469
20.644071181447032	2.268195	1.5060527
20.66188649611036	2.3111434	1.5202445
20.67970231567506	2.36129	1.536649
20.697518640614742	2.3424742	1.5305144
20.715335471403122	2.316467	1.5219945
20.73315280851404	2.299005	1.516247
20.750970652421447	2.3031743	1.5176213
20.768789003599412	2.3165083	1.522008
20.786607862522136	2.2927716	1.5141901
20.8044272296639	2.2681615	1.5060416
20.82224710549913	2.2446563	1.4982177
20.84006749050237	2.251544	1.5005146
20.857888385148268	3.806962	1.9511437
20.8757097899116	45.928616	6.7770653
20.893531705267254	64.80559	8.050192
20.911354131690224	83.85019	9.156975
20.92917706965566	69.12986	8.314437
20.94700051963877	50.17153	7.0831866
20.96482448211493	29.425085	5.4244895
20.982648957559622	4.1662455	2.0411382
21.00047394644843	2.2946994	1.5148265
21.01829944925707	2.266511	1.5054936
21.036125466461375	2.2470071	1.4990021
21.053951998537297	2.228052	1.492666
21.071779045960906	2.2699914	1.506649
21.089606609208378	2.289732	1.513186
21.10743468875603	2.2764206	1.5087812
21.12526328508028	2.2367065	1.4955623
21.143092398657675	2.2205853	1.4901628
21.16092202996488	2.2229695	1.4909626
21.17875217947867	2.2163353	1.4887362
21.19658284767596	2.2270179	1.4923196
21.21441403503377	2.2180865	1.4893242
21.232245742029225	2.18557	1.4783673
21.2500779691396	2.1334517	1.460634
21.26791071684227	2.1454937	1.4647504
21.28574398561475	2.1561456	1.468382
21.30357777593465	2.1630497	1.470731
21.321412088279704	2.163036	1.4707264
21.339246923127792	2.1666667	1.4719602
21.357082280956888	2.1559763	1.4683243
21.3749181622451	2.1625607	1.4705647
21.392754567470647	2.1236694	1.4572815
21.41059149711187	2.1143663	1.4540861
21.42842895164726	2.1036248	1.4503878
21.446266931555378	2.0982523	1.4485345
21.464105437314945	2.0706656	1.4389807
21.481944469404798	2.1072512	1.4516374
21.49978402830388	2.109618	1.4524524
21.51762411449127	2.0765092	1.4410098
21.53546472844617	2.0425067	1.429163
21.553305870647876	2.0306444	1.4250069
21.571147541575865	2.0715697	1.4392948
21.58898974170967	2.0782738	1.4416219
21.60683247152899	2.0693672	1.4385295
21.62467573151363	2.074538	1.4403256
21.642519522143523	2.0852609	1.4440433
21.660363843898722	2.1047368	1.4507711
21.6782086972594	2.1096492	1.4524632
21.696054082705864	2.0733051	1.4398977
21.713900000718535	2.0429466	1.4293169
21.73174645177795	2.021985	1.4219652
21.749593436364794	2.0456123	1.4302491
21.767440954959845	2.0653825	1.4371438
21.785289008044032	2.0708423	1.4390421
21.803137596098388	2.049947	1.4317636
21.820986719604086	2.024342	1.4227937
21.838836379042412	2.0050704	1.4160051
21.85668657489478	2.0095382	1.4175818
21.87453730764273	2.0268452	1.4236732
21.892388577767914	2.0026522	1.4151509
21.91024038575213	1.9961946	1.4128675
21.928092732077285	2.027726	1.4239824
21.945945617225426	2.0375938	1.4274431
21.963799041678694	2.0216687	1.4218539
21.981653005919398	31.299345	5.5945816
21.999507510429943	78.10847	8.837899
22.01736255569286	73.066444	8.547892
22.035218142190818	4.187572	2.0463557
22.05307427040661	2.013547	1.418995
22.07093094082315	2.019487	1.4210865
22.088788153923474	2.0348616	1.4264858
22.106645910190746	2.0114267	1.4182477
22.12450421010827	1.9795188	1.4069537
22.142363054159464	1.9549949	1.3982114
22.16022244282787	1.9779744	1.4064047
22.178082376597164	1.9787261	1.406672
22.195942855951145	1.9548421	1.3981566
22.213803881373742	1.9674047	1.402642
22.231665453349002	1.9617015	1.4006076
22.24952757236111	1.9799124	1.4070936
22.26739023889438	1.9755456	1.4055411
22.28525345343323	1.9568292	1.3988671
22.30311721646225	1.9546059	1.3980722
22.320981528466113	1.9268544	1.3881118
22.33884638992964	1.9442105	1.3943495
22.356711801337788	1.9566526	1.398804
22.37457776317561	1.9737089	1.4048874
22.392444275928337	1.959124	1.399687
22.410311340081282	1.9449904	1.3946291
22.428178956119904	1.9908773	1.4109845
22.446047124529805	1.9982325	1.4135885
22.46391584579669	2.0162973	1.4199638
22.481785120406414	1.9824064	1.4079795
22.49965494884496	2.0038466	1.4155729
22.51752533159841	1.9894841	1.4104908
22.53539626915302	1.9502187	1.3965023
22.553267761995137	1.965497	1.4019618
22.571139810611264	1.9607234	1.4002583
22.589012415488025	1.9938353	1.4120324
22.60688557711216	1.9940284	1.4121007
22.624759295970566	1.9803828	1.4072608
22.642633572550263	1.9423761	1.3936915
22.660508407338362	1.8924903	1.3756781
22.67838380082217	1.8922917	1.375606
22.696259753489077	1.9508762	1.3967377
22.714136265826614	2.0034113	1.4154191
22.73201333832246	1.9913093	1.4111376
22.74989097146439	1.9770044	1.4060599
22.76776916574035	1.9585378	1.3994777
22.785647921638393	1.9374449	1.3919213
22.803527239646712	1.9041667	1.3799155
22.82140712025363	1.8804803	1.3713061
22.839287563947593	1.8812014	1.3715689
22.85716857121719	1.885335	1.373075
22.875050142551135	1.8896836	1.3746576
22.892932278438277	1.8497492	1.3600549
22.910814979367604	1.8499473	1.3601277
22.928698245828222	1.8872768	1.3737819
22.946582078309387	1.925246	1.3875324
22.96446647730047	1.9185433	1.3851149
22.98235144329098	1.876679	1.3699193
23.000236976770562	1.8315853	1.3533608
23.018123078229	1.8350624	1.3546448
23.03600974815619	1.8690156	1.3671194
23.053896987042194	1.8747776	1.3692251
23.071784795377173	1.8899543	1.3747561
23.08967317365145	1.9222323	1.3864459
23.10756212235546	1.926627	1.3880299
23.125451641979787	1.9205061	1.3858232
23.143341733015134	1.9222221	1.3864423
23.161232395952357	1.9341749	1.3907461
23.179123631282426	1.9198717	1.3855944
23.197015439496468	1.9238816	1.3870406
23.214907821085717	1.9683658	1.4029846
23.23280077654157	1.9577463	1.3991948
23.250694306355538	1.9217618	1.3862762
23.268588411019277	1.89388	1.3761832
23.28648309102458	1.8987887	1.3779655
23.304378346863356	1.9278604	1.3884741
23.322274179027676	1.9362814	1.3915033
23.340170588009723	1.9405831	1.3930482
23.358067574301852	1.951113	1.3968225
23.37596513839651	1.9282967	1.3886312
23.39386328078629	1.9295201	1.3890717
23.411762001963947	1.9373032	1.3918704
23.429661302422353	1.9674662	1.402664
23.4475611826545	1.9654144	1.4019324
23.46546164315356	1.9120222	1.382759
23.48336268441279	1.9024464	1.379292
23.501264306925638	1.9014469	1.3789296
23.51916651118564	1.9160973	1.3842317
23.537069297686497	1.9010693	1.3787926
23.554972666922037	1.9115126	1.3825747
23.57287661938623	1.896726	1.3772168
23.59078115557318	1.8927457	1.3757709
23.608686275977128	1.9016689	1.3790101
23.62659198109246	1.8718992	1.3681737
23.6444982714137	1.872263	1.3683066
23.66240514743549	1.8875314	1.3738745
23.68031260965263	1.878596	1.3706188
23.698220658560068	1.8735977	1.3687943
23.716129294652845	1.895303	1.3767
23.7340385184262	1.8998756	1.3783598
23.75194833037546	1.91841	1.3850667
23.769858730996123	1.9106071	1.3822471
23.78776972078382	1.9323341	1.3900841
23.80568130023431	1.942908	1.3938824
23.823593469843495	1.9474541	1.3955121
23.841506230107424	1.9163378	1.3843186
23.859419581522275	1.892581	1.3757111
23.87733352458438	1.8958564	1.376901
23.89524805979019	1.9287101	1.3887801
23.913163187636318	1.934197	1.3907541
23.931078908619508	1.947593	1.3955619
23.948995223236633	1.9528732	1.3974524
23.966912131984735	1.9960604	1.41282
23.98482963536096	2.054007	1.4331807
24.002747733862616	2.0500743	1.4318081
24.020666427987155	2.0594118	1.435065
24.038585718232156	2.0340087	1.4261868
24.056505605095353	2.030474	1.424947
24.074426089074617	2.0606618	1.4355005
24.092347170667946	2.1051216	1.4509038
24.110268850373515	2.1007984	1.4494131
24.128191128689586	2.140177	1.4629344
24.146114006114626	2.095806	1.4476899
24.164037483147187	2.0834649	1.4434212
24.181961560286005	2.0492408	1.431517
24.199886238029926	2.03041	1.4249246
24.21781151687797	1.9713858	1.4040605
24.235737397329274	1.9388789	1.3924363
24.253663879883135	2.0052226	1.4160588
24.271590965038975	2.0469477	1.4307158
24.289518653296376	2.0478776	1.4310408
24.30744694515505	2.0607622	1.4355356
24.32537584111486	2.087354	1.4447678
24.34330534167581	2.1321583	1.4601911
24.361235447338046	2.09855	1.4486374
24.379166158601876	2.0626404	1.4361895
24.39709747596772	2.0279398	1.4240575
24.41502939993615	2.0118065	1.4183817
24.432961931007917	1.9873229	1.4097245
24.450895069683856	1.998571	1.4137082
24.468828816465	2.0505111	1.4319606
24.4867631718525	2.0381212	1.4276278
24.504698136347656	2.0069122	1.4166553
24.52263371045192	1.9627775	1.4009916
24.540569894666874	1.9588379	1.3995849
24.558506689494266	1.9612385	1.4004422
24.57644409543597	1.9678556	1.4028027
24.594382112994012	1.9368664	1.3917135
24.61232074267057	1.9320507	1.3899822
24.630259984967953	1.9494245	1.396218
24.64819984038863	1.9907305	1.4109325
24.66614030943522	2.006222	1.4164116
24.684081392610462	1.9972293	1.4132336
24.702023090417274	1.9776579	1.4062922
24.7199654033587	2.004204	1.4156991
24.737908331937927	2.0191152	1.4209558
24.755851876658305	2.0398588	1.4282362
24.773796038023324	2.0330412	1.4258475
24.79174081653661	2.067848	1.4380014
24.809686212701962	2.092598	1.4465815
24.827632227023294	2.1337926	1.4607507
24.8455788600047	2.1329288	1.4604551
24.8635261121504	2.0847182	1.4438553
24.88147398396475	2.0429668	1.4293239
24.899422475952303	2.0698543	1.4386988
24.917371588617698	2.1509662	1.4666172
24.935321322465768	2.247233	1.4990773
24.953271678001478	2.3324928	1.52725
24.97122265572994	2.4859953	1.5767039
24.989174256156414	2.7587955	1.6609622
25.00712647978632	3.2081308	1.7911255
25.02507932712521	3.7753847	1.9430349
25.043032798678798	4.3646965	2.0891857
25.060986894952933	5.051835	2.2476287
25.078941616453637	5.8595486	2.4206505
25.096896963687055	6.849817	2.6172154
25.114852937159508	7.9837356	2.8255506
25.132809537377444	8.543555	2.922936
25.150766764847468	8.630983	2.9378536
25.168724620076347	8.036286	2.8348343
25.186683103570985	6.92226	2.6310189
25.204642215838426	5.638932	2.3746436
25.222601957385894	4.2345524	2.057803
25.24056232872074	3.201852	1.789372
25.25852333035048	2.6704519	1.6341517
25.276484962782778	2.3171828	1.5222296
25.294447226525435	2.0984802	1.4486132
25.312410122086423	1.9936258	1.4119581
25.330373649973843	1.9805145	1.4073075
25.348337810695988	1.9929303	1.4117118
25.366302604761245	2.0006697	1.4144503
25.384268032678207	1.9880257	1.4099736
25.40223409495558	1.8998376	1.378346
25.420200792102257	1.8138841	1.3468052
25.438168124627246	1.8127569	1.3463866
25.45613609303974	1.8484168	1.3595649
25.474104697849057	1.8525785	1.3610946
25.492073939564698	1.8725027	1.3683943
25.510043818696285	1.9141092	1.3835133
25.528014335753614	1.9235665	1.386927
25.54598549124664	1.882702	1.3721159
25.56395728568544	1.8053764	1.343643
25.58192971958028	1.8150929	1.3472538
25.59990279344156	1.8605444	1.3640177
25.617876507779833	1.8883401	1.3741689
25.635850863105826	1.8670487	1.3663999
25.653825859930386	1.8576473	1.3629553
25.671801498764548	1.8744928	1.3691212
25.68977778011949	1.9104856	1.3822032
25.707754704506524	1.8779585	1.3703862
25.725732272437153	1.8535916	1.3614666
25.743710484423012	1.8579296	1.3630589
25.761689340975888	1.8783993	1.370547
25.77966884260774	1.8760936	1.3697057
25.797648989830662	1.8831596	1.3722826
25.815629783156922	1.8658302	1.3659539
25.83361122309895	1.8594246	1.3636072
25.85159331016929	1.8319651	1.3535011
25.869576044880695	1.85829	1.3631911
25.887559427746034	1.86725	1.3664736
25.90554345927836	1.8731651	1.3686363
25.92352813999086	1.8902639	1.3748686
25.94151347039689	1.9126189	1.3829746
25.959499451009965	1.8733351	1.3686984
25.97748608234374	1.8177993	1.3482579
25.995473364912062	1.8054729	1.3436788
26.013461299228904	1.8058933	1.3438354
26.03144988580839	1.8121592	1.3461646
26.04943912516483	1.8388673	1.3560485
26.067429017812675	1.8748168	1.3692394
26.085419564266537	1.8466007	1.3588969
26.103410765041186	1.8105203	1.3455558
26.12140262065155	1.8381431	1.3557813
26.139395131612723	1.8448213	1.358242
26.157388298439948	1.8388693	1.3560492
26.17538212164861	1.797599	1.3407457
26.193376601754295	1.8211528	1.3495009
26.211371739272714	1.8387654	1.3560108
26.229367534719746	1.8222275	1.349899
26.247363988611433	1.781097	1.3345774
26.26536110146397	1.811677	1.3459855
26.283358873793727	1.8520935	1.3609164
26.301357306117204	1.8212869	1.3495506
26.319356398951104	1.7679485	1.3296423
26.33735615281224	1.7362949	1.3176854
26.35535656821762	1.7526296	1.3238692
26.373357645684404	1.7658961	1.3288702
26.39135938572991	1.7733359	1.3316666
26.409361788871614	1.7994478	1.341435
26.427364855627165	1.778587	1.3336368
26.445368586514352	1.7965667	1.3403606
26.46337298205115	1.8143181	1.3469663
26.48137804275568	1.8124459	1.3462712
26.499383769146217	1.8254946	1.3511087
26.517390161741215	1.8233606	1.3503187
26.53539722105928	1.8140221	1.3468564
26.553404947619182	1.8015633	1.3422233
26.571413341939856	1.8150543	1.3472395
26.589422404540397	1.8048742	1.343456
26.60743213594006	1.8102615	1.3454596
26.62544253665827	1.7829951	1.3352884
26.64345360721459	1.7967877	1.3404431
26.66146534812879	1.8015726	1.3422267
26.679477759920758	1.8135422	1.3466783
26.69749084311057	1.8357319	1.3548918
26.71550459821847	1.8527803	1.3611687
26.733519025764842	1.8719122	1.3681785
26.751534126270258	1.852389	1.361025
26.769549900255434	1.7972825	1.3406277
26.787566348241267	1.7751496	1.3323474
26.80558347074881	1.7702416	1.3305043
26.823601268299267	1.8175719	1.3481735
26.841619741414036	1.8167061	1.3478523
26.85963889061465	1.8287275	1.3523045
26.877658716422832	1.7994958	1.3414528
26.89567921936045	1.7607124	1.3269184
26.913700399949544	1.748936	1.3224734
26.93172225871233	1.8030875	1.342791
26.949744796171174	1.8233114	1.3503006
26.967768012848605	1.8262758	1.3513978
26.98579190926733	1.8478016	1.3593386
27.003816485950225	1.8537062	1.3615088
27.021841743420318	1.840702	1.3567247
27.039867682200814	1.8288971	1.3523673
27.057894302815072	1.8581916	1.363155
27.07592160578664	1.8411888	1.3569041
27.0939495916392	1.822196	1.3498874
27.111978260896635	1.8389951	1.3560956
27.13000761408296	1.850142	1.3601992
27.148037651722397	1.8368192	1.355293
27.166068374339304	1.809681	1.3452438
27.184099782458215	1.7935059	1.3392184
27.20213187660384	1.8317263	1.3534129
27.22016465730105	1.9026744	1.3793746
27.23819812507487	1.8955102	1.3767753
27.256232280450533	1.8467392	1.3589479
27.274267123953383	1.8207618	1.349356
27.292302656108987	1.8349341	1.3545974
27.31033887744306	1.823383	1.350327
27.32837578848146	1.7977195	1.3407906
27.34641338975026	1.8243055	1.3506685
27.364451681775673	1.8311112	1.3531855
27.382490665084074	1.8090725	1.3450177
27.400530340202046	1.7614807	1.3272078
27.41857070765629	1.7503184	1.322996
27.436611767973726	1.7856463	1.3362808
27.454653521681404	1.8924379	1.3756591
27.472695969306564	1.8957967	1.3768793
27.490739111376627	1.83161	1.3533698
27.508782948419153	1.7975507	1.3407277
27.526827480961902	1.8102386	1.3454511
27.54487270953279	1.8335276	1.3540782
27.562918634659898	1.8107548	1.3456429
27.580965256871508	1.8137019	1.3467375
27.599012576696026	1.7851374	1.3360903
27.617060594662068	1.7942233	1.3394862
27.63510931129842	1.7929054	1.3389941
27.65315872713401	1.7767807	1.3329594
27.67120884269797	1.7145344	1.3094023
27.68925965851958	1.7288177	1.3148451
27.707311175128307	1.757942	1.3258741
27.725363393053787	1.8198072	1.3490022
27.74341631282583	1.885224	1.3730346
27.7614699349744	1.9521092	1.397179
27.77952426002968	2.1072035	1.4516209
27.797579288521973	2.1454456	1.464734
27.815635020981784	2.533252	1.5916193
27.83369145793979	2.5944407	1.6107267
27.85174859992682	2.3961484	1.5479498
27.869806447473923	2.2543428	1.5014468
27.887865001112267	2.030305	1.4248877
27.905924261373233	1.893638	1.3760952
27.92398422878836	1.8789302	1.3707408
27.94204490388936	1.856905	1.362683
27.96010628720813	1.8689705	1.367103
27.978168379276728	1.8843074	1.3727008
27.9962311806274	1.8781981	1.3704737
28.014294691792568	1.8723633	1.3683432
28.0323589133048	1.8452523	1.3584006
28.050423845696887	1.8672075	1.366458
28.068489489501758	1.8659621	1.3660022
28.086555845252523	1.8626302	1.3647821
28.104622913482487	1.8703059	1.3675913
28.122690694725115	1.8959181	1.3769234
28.14075918951405	1.9315928	1.3898176
28.15882839838312	1.9460219	1.3949989
28.176898321866304	1.9076262	1.3811684
28.1949689604978	1.9176975	1.3848096
28.213040314811945	1.9071822	1.3810077
28.23111238534327	1.9098139	1.3819602
28.249185172626493	1.9341825	1.3907489
28.267258677196473	1.9434574	1.3940794
28.285332899588294	1.9399178	1.3928093
28.303407840337172	1.9315171	1.3897903
28.321483499978545	1.8985856	1.3778917
28.33955987904799	1.8778782	1.3703569
28.357636978081285	1.9177643	1.3848337
28.37571479761439	1.9420174	1.3935629
28.393793338183425	1.9619882	1.4007099
28.41187260032469	1.962355	1.4008409
28.429952584574686	1.9744755	1.4051603
28.448033291470065	1.9936287	1.4119592
28.46611472154769	1.979417	1.4069176
28.484196875344566	1.9144111	1.3836224
28.502279753397914	1.9094741	1.3818372
28.52036335624511	1.9557927	1.3984966
28.538447684423716	2.0291774	1.424492
28.556532738471482	2.024867	1.4229783
28.574618518926325	1.9898282	1.4106127
28.59270502632635	1.9483982	1.3958504
28.61079226120985	1.970024	1.4035754
28.628880224115274	2.0014875	1.4147394
28.646968915581287	1.99077	1.4109465
28.66505833614671	2.0152159	1.419583
28.68314848635055	2.0332522	1.4259216
28.701239366732004	2.0695162	1.4385813
28.71933097783044	2.0514219	1.4322785
28.737423320185403	2.0385137	1.4277653
28.75551639433665	2.0869322	1.4446218
28.773610200824074	2.1315575	1.4599854
28.791704740187793	2.1117182	1.4531752
28.80980001296809	2.123459	1.4572093
28.827896019705413	2.1568117	1.4686087
28.845992760940433	2.173213	1.4741821
28.86409023721397	2.1725888	1.4739704
28.88218844906704	2.1704543	1.4732462
28.900287397040845	2.219672	1.4898564
28.918387081676755	2.236594	1.4955246
28.936487503516343	2.2584126	1.5028015
28.954588663101365	2.2560835	1.5020264
28.97269056097374	2.2717738	1.5072404
28.990793197675597	2.290599	1.5134726
29.00889657374923	2.3068674	1.5188375
29.027000689737125	2.3257322	1.5250351
29.04510554618196	2.4247472	1.55716
29.06321114362659	2.5072227	1.5834212
29.08131748261405	2.5261	1.589371
29.099424563687567	2.4868321	1.5769693
29.11753238739057	2.5206797	1.5876648
29.13564095426663	2.5743756	1.6044861
29.15375026485954	2.5962868	1.6112998
29.171860319713275	2.6016693	1.612969
29.18997111937199	2.6067371	1.6145393
29.20808266438002	2.711006	1.6465132
29.226194955281898	2.8083665	1.6758182
29.244307992622335	2.8778038	1.6964091
29.26242177694624	2.896461	1.7018993
29.2805363087987	2.9248195	1.7102103
29.29865158872498	2.9552693	1.7190896
29.316767617270557	2.9183009	1.7083035
29.334884394981064	2.9489677	1.7172558
29.353001922402367	2.958955	1.7201613
29.37112020008047	2.9357438	1.7134012
29.389239228561596	3.0819707	1.7555542
29.407359008392152	3.34914	1.8300656
29.42547954011872	3.71164	1.9265617
29.44360082428809	4.4023166	2.0981698
29.46172286144722	5.4894934	2.3429668
29.479845652143283	7.036891	2.6527138
29.497969196923606	9.049246	3.0081964
29.516093496335728	11.696084	3.4199538
29.5342185509274	14.591957	3.819942
29.55234436124651	17.127213	4.1385036
29.570470927841175	18.573479	4.3096957
29.588598251259686	18.23007	4.2696686
29.60672633205055	16.881582	4.1087203
29.624855170762405	14.786732	3.845352
29.642984767944146	12.074791	3.47488
29.66111512414481	9.130692	3.0217035
29.67924623991366	6.790302	2.6058207
29.697378115800138	5.2891617	2.2998178
29.71551075235387	4.3452945	2.084537
29.733644150124675	3.7788265	1.9439204
29.751778309662576	3.469746	1.8627255
29.769913231517766	3.412577	1.8473161
29.78804891624066	3.3237822	1.8231243
29.806185364381818	3.26884	1.8079934
29.82432257649206	3.2699358	1.8082964
29.842460553122333	3.2388203	1.7996722
29.86059929482382	3.2018845	1.789381
29.878738802147872	3.2204998	1.7945751
29.896879075646048	3.261447	1.8059477
29.915020115870114	3.237993	1.7994424
29.933161923371976	3.1792042	1.7830323
29.951304498703777	3.1501644	1.7748703
29.969447842417857	3.2294228	1.7970595
29.987591955066733	3.2743263	1.80951
30.005736837203123	3.238219	1.7995052
30.023882489379943	3.2237122	1.7954699
30.04202891215028	3.253023	1.8036139
30.060176106067455	3.1987045	1.7884922
30.078324071684946	3.1701882	1.7805022
30.09647280955646	3.1714277	1.7808503
30.114622320235863	3.1642468	1.778833
30.132772604277257	3.102189	1.7613032
30.1509236622349	3.0909796	1.7581182
30.16907549466328	3.1140885	1.764678
30.18722810211705	3.083959	1.7561204
30.205381485151097	3.0888896	1.7575237
30.22353564432045	3.1563537	1.776613
30.241690580180403	3.1243486	1.7675827
30.25984629328638	3.1080587	1.7629687
30.278002784194037	3.0480254	1.7458595
30.296160053459246	2.948447	1.7171042
30.314318101638033	2.9523487	1.71824
30.332476929286646	2.9438436	1.7157633
30.35063653696153	2.8909514	1.7002798
30.368796925219307	2.855168	1.6897243
30.386958094616844	2.9092803	1.7056613
30.40512004571115	2.9725413	1.724106
30.423282779059463	2.9294405	1.7115608
30.441446295219233	2.8671553	1.6932677
30.459610594748067	2.919913	1.7087753
30.47777567820382	2.8975077	1.7022067
30.495941546144504	2.9189544	1.7084948
30.51410819912835	2.869905	1.6940794
30.532275637713795	2.8787584	1.6966904
30.55044386245946	2.8348844	1.6837115
30.56861287392416	2.7810888	1.6676596
30.586782672666956	2.7358873	1.6540518
30.604953259247047	2.7080913	1.645628
30.623124634223885	2.6810746	1.6373987
30.641296798157075	2.7318017	1.6528163
30.659469751606462	2.7911592	1.6706762
30.677643495132074	2.7922592	1.6710055
30.695818029294152	2.744346	1.6566068
30.713993354653116	2.755442	1.6599524
30.73216947176962	2.7297122	1.6521841
30.75034638120448	2.6325362	1.6225092
30.768524083518756	2.6566215	1.6299145
30.786702579273673	2.7277954	1.6516038
30.80488186903069	2.7457206	1.6570216
30.82306195335144	2.7706394	1.6645238
30.841242832797782	2.9918916	1.7297086
30.85942450793176	3.3066874	1.81843
30.877606979315637	3.7281744	1.9308481
30.895790247511883	4.179944	2.044491
30.913974313083134	4.6437078	2.1549263
30.932159176592283	4.8814907	2.2094095
30.95034483860237	4.882993	2.2097497
30.968531299676698	4.7041225	2.1688988
30.98671856037873	4.3440223	2.0842319
31.00490662127215	3.9227276	1.9805877
31.023095482920848	3.4679527	1.862244
31.04128514588892	3.1072216	1.7627313
31.059475610740662	2.7517486	1.6588395
31.07766687804056	2.5682588	1.6025788
31.09585894835335	2.4373286	1.5611947
31.11405182224393	2.3855462	1.5445213
31.132245500277417	2.4002285	1.549267
31.15043998301914	2.4345195	1.5602947
31.168635271034628	2.4665768	1.5705339
31.18683136488964	2.422347	1.5563891
31.20502826515008	2.4247272	1.5571536
31.223225972382135	2.426147	1.5576094
31.241424487152155	2.4342425	1.5602059
31.259623810026692	2.4991953	1.5808843
31.27782394157253	2.5120652	1.5849496
31.296024882356644	2.442014	1.5626944
31.314226632946237	2.4163864	1.554473
31.332429193908684	2.505031	1.582729
31.350632565811598	2.5476382	1.5961323
31.368836749222787	2.484004	1.5760723
31.387041744710295	2.424745	1.5571593
31.40524755284232	2.4225497	1.5564542
31.423454174187317	2.3996909	1.5490936
31.441661609313922	2.443516	1.563175
31.459869858791002	2.4229488	1.5565825
31.478078923187628	2.3888462	1.5455892
31.496288803073064	2.3912134	1.5463549
31.514499499016807	2.3591144	1.5359409
31.532711011588546	2.2839267	1.5112666
31.550923341358178	2.2762074	1.5087105
31.56913648889584	2.273471	1.5078034
31.587350454771844	2.258157	1.5027165
31.605565239556732	2.3086157	1.519413
31.62378084382127	2.289948	1.5132574
31.641997268136382	2.2668788	1.5056157
31.660214513073274	2.2421243	1.4973725
31.67843257920331	2.239303	1.4964302
31.6966514670981	2.2609456	1.5036441
31.71487117732944	2.3063312	1.518661
31.733091710469346	2.315914	1.5218127
31.751313067090052	2.3554974	1.534763
31.769535247764008	2.3487468	1.5325621
31.787758253063878	2.2921665	1.5139903
31.805982083562526	2.2738712	1.5079361
31.824206739833024	2.2451072	1.4983681
31.84243222244869	2.189584	1.4797243
31.860658531983013	2.2049022	1.4848913
31.878885669009737	2.2968578	1.5155388
31.897113634102784	2.2843676	1.5114124
31.91534242783632	2.2029862	1.484246
31.933572050784694	2.1847594	1.4780931
31.951802503522508	2.2159445	1.4886049
31.970033786624548	2.2703037	1.5067527
31.988265900665834	2.270857	1.5069363
32.006498846221575	2.2026906	1.4841465
32.02473262386724	2.157359	1.4687951
32.04296723417845	2.063299	1.4364188
32.0612026777311	2.063069	1.4363388
32.07943895510129	2.1224065	1.4568481
32.097676066865304	2.1419706	1.4635472
32.115914013599685	2.0990224	1.4488003
32.13415279588115	2.0717	1.4393401
32.152392414286666	2.0737739	1.4400604
32.1706328693934	2.098348	1.4485675
32.18887416177875	2.1358502	1.4614549
32.20711629202032	2.1718607	1.4737234
32.225359260695924	2.2044144	1.484727
32.243603068383614	2.2093482	1.4863876
32.26184771566166	2.1979434	1.4825463
32.28009320310852	2.1227899	1.4569798
32.2983395313029	2.0876377	1.444866
32.31658670082372	2.1060476	1.4512228
32.33483471225012	2.1726701	1.473998
32.35308356616143	2.191593	1.480403
32.371333263137245	2.1430292	1.4639089
32.38958380375734	2.0305963	1.4249899
32.407835188601744	1.9320754	1.3899912
32.42608741825067	2.010393	1.4178833
32.444340493284585	2.0681767	1.4381157
32.46259441428416	2.0129716	1.4187924
32.48084918183028	1.9655126	1.4019674
32.49910479650405	1.9972128	1.4132278
32.51736125888683	2.0336213	1.4260509
32.53561856956014	2.0337925	1.426111
32.5538767291058	2.038139	1.4276341
32.572135738105764	2.1019344	1.449805
32.59039559714228	2.0812633	1.4426584
32.608656306797776	2.0377142	1.4274852
32.62691786765491	2.0313842	1.4252664
32.645180280296586	2.0720584	1.4394647
32.663443545305896	2.0588756	1.4348782
32.68170766326619	2.1406143	1.4630839
32.69997263476099	2.121317	1.4564742
32.7182384603741	2.0281665	1.4241371
32.7365051406895	1.9905905	1.4108828
32.75477267629144	2.0159938	1.419857
32.77304106776434	1.9616103	1.400575
32.79131031569289	1.9862982	1.4093609
32.809580420661966	2.02261	1.422185
32.827851383256714	1.9853234	1.409015
32.84612320406245	1.9402444	1.3929266
32.86439588366476	1.8630115	1.3649218
32.88266942264945	1.8359362	1.3549672
32.9009438216025	1.8890616	1.3744314
32.9192190811102	1.9555176	1.3983983
32.937495201758985	2.006688	1.4165761
32.95577218413556	1.9895661	1.4105198
32.974050028826866	1.9554527	1.398375
32.992328736420035	1.8868572	1.3736292
33.010608307502444	1.873438	1.3687359
33.02888874266169	1.970051	1.4035851
33.047170042485604	2.0304437	1.4249364
33.06545220756225	2.0030684	1.415298
33.083735238479896	1.9568739	1.3988831
33.10201913582707	1.9713261	1.4040393
33.12030390019248	2.049402	1.4315733
33.138589532165135	2.0979202	1.4484199
33.15687603233419	2.0807602	1.442484
33.17516340128909	2.0050452	1.4159962
33.19345163961947	1.9200623	1.3856632
33.211740747915215	2.0153608	1.4196341
33.23003072676643	2.0339234	1.4261569
33.248321576763466	2.0405526	1.4284791
33.266613298496885	2.0591505	1.4349741
33.28490589255747	1.9977552	1.4134197
33.30319935953626	1.9178721	1.3848726
33.32149370002451	1.868897	1.367076
33.339788914613706	1.8895667	1.3746151
33.358085003895575	1.9737555	1.4049041
33.376381968462034	1.9781427	1.4064646
33.39467980890529	1.9729228	1.4046077
33.41297852581774	1.9227427	1.3866299
33.43127811979204	1.9217023	1.3862548
33.44957859142105	1.8787575	1.3706777
33.467879941297866	1.8463632	1.3588095
33.486182170015844	1.8378472	1.3556722
33.50448527816853	1.8269346	1.3516414
33.522789266349754	1.8615563	1.3643886
33.541094135153514	1.8698871	1.3674382
33.55939988517411	1.866459	1.3661841
33.57770651700602	1.9872743	1.4097072
33.59601403124398	1.9704268	1.403719
33.61432242848296	1.9018153	1.3790632
33.632631709318154	1.8299402	1.3527528
33.650941874344994	1.7885283	1.3373587
33.66925292415916	1.8611478	1.3642389
33.68756485935654	1.9044836	1.3800303
33.70587768053328	1.8229686	1.3501736
33.724191388285746	1.8863565	1.373447
33.74250598321054	1.9502399	1.3965099
33.760821465904506	1.9355129	1.3912271
33.77913783696474	1.9046988	1.3801082
33.79745509698852	1.8866398	1.37355
33.815773246573414	1.8737508	1.3688502
33.8340922863172	1.9378211	1.3920565
33.852412216817896	1.9376831	1.3920069
33.87073303867377	2.0151527	1.4195608
33.889054752483304	2.0367074	1.4271326
33.907377358845245	1.9079773	1.3812956
33.92570085835853	1.8313661	1.3532797
33.94402525162239	1.9082446	1.3813922
33.96235053923627	1.9812487	1.4075683
33.980676721799824	1.8685666	1.3669553
33.999003799912984	1.6874279	1.2990104
34.01733177417592	1.7516017	1.3234808
34.03566064518901	2.0306854	1.4250212
34.0539904135529	2.1996312	1.4831153
34.07232107986846	2.2310095	1.4936564
34.090652644736785	2.14666	1.4651484
34.108985108759235	2.0023024	1.4150274
34.12731847253742	1.9086835	1.3815511
34.14565273667313	1.953245	1.3975854
34.16398790176847	2.0218604	1.4219214
34.18232396842574	1.9921391	1.4114316
34.20066093724749	2.0007067	1.4144634
34.21899880883651	1.9949404	1.4124236
34.23733758379583	1.9903387	1.4107937
34.25567726272874	1.9589422	1.3996222
34.27401784623872	1.8708205	1.3677794
34.29235933492957	1.8588347	1.3633909
34.31070172940526	1.9168524	1.3845043
34.32904503027003	1.9362065	1.3914764
34.347389238128386	1.8344842	1.3544313
34.36573435358502	1.8805076	1.371316
34.38408037724492	1.979444	1.4069271
34.402427309713296	2.076651	1.441059
34.42077515159559	2.1382167	1.4622643
34.43912390349752	2.069758	1.4386654
34.45747356602499	2.0093317	1.417509
34.47582413978423	2.0154645	1.4196706
34.49417562538163	1.8478336	1.3593504
34.51252802342388	1.7390467	1.3187292
34.53088133451789	1.9295996	1.3891003
34.54923555927084	2.0946984	1.4473073
34.567590698290104	2.1097927	1.4525125
34.58594675218336	1.9868921	1.4095716
34.6043037215585	1.9341984	1.3907546
34.62266160702365	2.0443754	1.4298166
34.641020409187234	1.9770074	1.4060609
34.65938012865785	2.0510094	1.4321345
34.677740766044394	2.0733135	1.4399005
34.69610232195598	1.8822857	1.3719642
34.714464797002016	1.7557636	1.3250523
34.73282819179208	1.8228301	1.3501222
34.751192506936064	1.8768152	1.369969
34.76955774304408	1.9607344	1.4002622
34.7879239007265	2.0041738	1.4156884
34.80629098059391	1.9707239	1.4038247
34.824658983257194	2.1043415	1.4506348
34.843027909327446	2.2423744	1.497456
34.86139775941603	2.1186855	1.4555705
34.879768534134534	1.9277704	1.3884417
34.89814023409483	1.9756413	1.405575
34.91651285990901	2.0948174	1.4473484
34.93488641218944	2.236246	1.4954083
34.95326089154871	2.1340644	1.4608437
34.97163629859967	1.9371622	1.3918197
34.99001263395542	2.0617557	1.4358815
35.00838989822934	2.120732	1.4562733
35.02676809203499	2.0088136	1.4173262
35.04514721598624	1.8453718	1.3584447
35.063527270697215	1.9222134	1.3864391
35.081908256782256	2.1021745	1.4498878
35.10029017485597	1.8779424	1.3703804
35.11867302553321	1.7003567	1.3039773
35.137056809429104	1.9007229	1.3786671
35.155441527159006	1.970815	1.4038571
35.173827179338524	1.7969337	1.3404975
35.19221376658354	1.7841432	1.3357183
35.21060128951017	1.8823112	1.3719735
35.2289897487348	2.0516653	1.4323635
35.24737914487405	2.1213386	1.4564816
35.26576947854479	2.1413503	1.4633353
35.28416075036418	2.0536382	1.4330521
35.30255296094958	1.9745734	1.4051951
35.32094611091867	1.9939957	1.4120891
35.33934020088932	2.0071492	1.416739
35.35773523147969	2.1228502	1.4570004
35.3761312033082	2.1291018	1.4591442
35.394528116993506	2.344053	1.53103
35.41292597315452	2.4243588	1.5570353
35.431324772410434	2.1088142	1.4521757
35.449724515380666	1.775482	1.3324722
35.46812520268491	2.012129	1.4184953
35.486526834943106	2.2212136	1.4903736
35.504929412775454	2.4042559	1.5505663
35.52333293680242	2.4056704	1.5510224
35.54173740764471	2.2292614	1.4930711
35.560142825923286	2.0104585	1.4179064
35.5785491922594	2.1238136	1.457331
35.59695650727454	1.8351161	1.3546646
35.61536477159042	1.1140177	1.0554703
