0.008763373481513119	0.051685803	0.22734512
0.026290120649546365	0.18429624	0.4292974
0.043816868432600686	0.12367553	0.35167533
0.06134361724069026	0.08536854	0.29217896
0.07887036748382949	0.01998222	0.14135848
0.0963971195720331	0.0	0.0
0.11392387391531617	0.08050678	0.28373715
0.1314506309236943	0.123651065	0.35164052
0.1489773910071836	0.10893022	0.3300458
0.16650415457580078	0.08414522	0.29007795
0.18403092203956356	0.057693947	0.24019565
0.20155769380849	0.123230964	0.3510427
0.2190844702925996	0.14365445	0.37901774
0.2366112519019124	0.12146398	0.34851682
0.2541380390464497	0.0650274	0.2550047
0.27166483213623416	0.07758399	0.27853903
0.28919163158128947	0.08670893	0.2944638
0.3067184377916406	0.09248591	0.30411497
0.324245251177314	0.12295103	0.35064372
0.34177207214833777	0.10094358	0.31771618
0.3592989011147415	0.11904009	0.34502187
0.37682573848655654	0.15071267	0.3882173
0.39435258467381573	0.18221334	0.42686453
0.41187944008655414	0.1996535	0.44682604
0.42940630513480854	0.21684054	0.4656614
0.446933180228618	0.19329858	0.43965733
0.4644600657780234	0.21959025	0.46860456
0.48198696219306775	0.19333372	0.4396973
0.49951386988379676	0.18826243	0.4338922
0.5170407892602581	0.15141736	0.38912383
0.5345677207325025	0.10988929	0.33149552
0.5520946647105822	0.09451527	0.30743337
0.5696216216045534	0.12608068	0.3550784
0.5871485918244737	0.16232942	0.40290126
0.6046755757804043	0.21014127	0.4584117
0.6222025738824094	0.21594313	0.46469682
0.6397295865405557	0.20996788	0.45822254
0.6572566141649129	0.18190208	0.4264998
0.6747836571655547	0.16820197	0.41012433
0.6923107159525568	0.15568614	0.39457083
0.7098377909359992	0.17374419	0.41682634
0.7273648825259653	0.18591167	0.43117476
0.7448919911325411	0.15995753	0.3999469
0.762419117165817	0.1702415	0.41260332
0.7799462610358868	0.17670266	0.42036015
0.7974734231528482	0.18548954	0.43068495
0.8150006039268024	0.2101411	0.4584115
0.8325278037678551	0.22795154	0.4774427
0.8500550230861152	0.25982046	0.50972587
0.8675822622916969	0.23967443	0.48956555
0.8851095217947171	0.23959714	0.4894866
0.9026368020052984	0.21628906	0.46506888
0.9201641033335665	0.20322303	0.45080265
0.9376914261896523	0.20110433	0.44844657
0.9552187709836915	0.18080501	0.42521173
0.9727461381258234	0.21094179	0.459284
0.990273528026193	0.20721877	0.4552129
1.0078009410949496	0.23062879	0.48023826
1.0253283777422473	0.27533987	0.52472836
1.0428558383782454	0.24750811	0.49750188
1.0603833234131086	0.2759047	0.5252663
1.0779108332570058	0.29082358	0.5392806
1.0954383683201119	0.3167621	0.5628162
1.112965929012607	0.37529308	0.6126117
1.1304935157446763	0.50050604	0.7074645
1.1480211289265108	0.56256926	0.7500462
1.1655487689683062	1.4100585	1.1874589
1.1830764362802655	1.6598513	1.2883521
1.200604131272596	2.0310736	1.4251574
1.2181318543555117	2.4365332	1.5609399
1.235659605939232	2.5015953	1.5816432
1.253187386433982	4.137514	2.0340881
1.270715196249994	6.4279118	2.5353327
1.2882430357975057	12.116522	3.4808795
1.3057709054867608	17.085255	4.1334314
1.3232988057280106	22.837805	4.7788916
1.3408267369315112	27.61634	5.255125
1.358354699507526	31.3917	5.60283
1.3758826938663256	35.85142	5.9876056
1.3934107204181858	38.449703	6.2007823
1.410938779573391	38.638474	6.2159853
1.4284668717422309	38.947357	6.240782
1.4459949973350033	38.42234	6.1985755
1.4635231567620117	38.467155	6.2021894
1.4810513504335687	37.949417	6.16031
1.4985795787599925	37.360302	6.1123075
1.5161078421516088	36.979923	6.081112
1.5336361410187505	36.136093	6.0113306
1.5511644757717598	35.881065	5.9900804
1.5686928468209842	36.31655	6.0263214
1.58622125457678	36.768772	6.063726
1.6037496994495108	37.859516	6.153009
1.621278181849548	37.379936	6.1139135
1.6388067021872719	38.04285	6.1678886
1.6563352608730693	37.712067	6.141015
1.673863858317336	37.049263	6.0868106
1.6913924949304753	36.374176	6.0311007
1.7089211711228998	35.219864	5.934633
1.7264498873050296	34.32253	5.8585434
1.7439786438872935	33.442474	5.782947
1.7615074412801288	32.355156	5.6881595
1.779036279893981	31.418625	5.605232
1.796565160139305	29.865522	5.464936
1.814094082426564	29.216093	5.4051914
1.8316230471662298	28.926876	5.3783712
1.849152054768784	28.304697	5.3202157
1.8666811056447168	27.830296	5.2754426
1.8842102002045273	26.88857	5.185419
1.901739338858724	26.40923	5.138991
1.9192685220178245	25.840559	5.083361
1.9367977500923557	25.322643	5.0321608
1.9543270234928547	24.79076	4.979032
1.971856342629867	24.205662	4.919925
1.9893857079139496	23.749737	4.87337
2.006915119755667	23.08209	4.8043823
2.0244445785655945	22.422754	4.735267
2.0419740847543175	22.100353	4.7011013
2.0595036387324317	21.557299	4.642984
2.0770332409105414	21.242743	4.608985
2.094562891699263	20.901033	4.571765
2.1120925915092217	20.259893	4.501099
2.129622340751053	19.739294	4.4428926
2.1471521398354043	187.87807	13.706862
2.1646819891729323	444.38803	21.080513
2.182211889174303	440.94284	20.998638
2.1997418402501974	453.31265	21.29114
2.2172718428113023	433.09143	20.810848
2.234801897268317	321.00177	17.916523
2.2523320040319548	17.350811	4.1654305
2.269862163512935	17.27823	4.156709
2.287392376121992	16.963541	4.118682
2.304922642269869	16.542456	4.0672417
2.322452962367322	16.22516	4.0280466
2.3399833368251164	15.836827	3.979551
2.357513766054032	15.560107	3.9446301
2.3750442504648586	15.304249	3.9120646
2.3925747904683963	15.003443	3.8734279
2.410105386475459	14.729832	3.8379462
2.4276360388968707	14.433789	3.7991827
2.445166748143469	14.38213	3.792378
2.4626975146261025	14.2172985	3.7705834
2.4802283387556323	13.886962	3.7265215
2.4977592209429305	13.531224	3.6784813
2.5152901615988825	13.18879	3.6316373
2.5328211611343865	12.915809	3.593857
2.5503522199603523	12.788774	3.5761395
2.5678833384877024	12.604836	3.550329
2.5854145171273712	12.406947	3.5223496
2.6029457562903064	12.163339	3.487598
2.620477056387469	11.964053	3.4589093
2.6380084178298326	11.595066	3.4051528
2.655539841028383	11.474385	3.387386
2.673071326394119	11.237065	3.3521733
2.6906028743380523	11.057037	3.3252125
2.708134485271211	10.903857	3.302099
2.7256661596046325	10.897839	3.3011875
2.743197897749369	10.878462	3.2982514
2.760729700116486	10.837984	3.2921093
2.778261567117063	10.727331	3.2752604
2.795793499162193	10.438851	3.230921
2.8133254966629817	10.192087	3.192505
2.830857560030551	9.967497	3.1571343
2.8483896896760337	9.867787	3.1413035
2.865921886010578	9.726536	3.1187394
2.883454149445347	9.588787	3.0965767
2.9009864803915177	9.473281	3.0778697
2.91851887926028	9.231108	3.0382738
2.9360513464628384	9.223435	3.037011
2.953583882410413	9.020041	3.0033383
2.9711164875142373	8.9962	2.9993665
2.9886491621855606	8.913433	2.9855373
3.0061819068356455	8.848105	2.9745765
3.023714721875769	8.6352	2.938571
3.041247607717225	8.335697	2.8871608
3.0587805647713213	8.14836	2.8545332
3.0763135934493806	8.073597	2.8414075
3.0938466941627407	7.9488416	2.819369
3.1113798673227544	7.975783	2.824143
3.1289131133407904	7.929445	2.815927
3.1464464326282315	7.7703047	2.7875266
3.1639798255964786	7.752963	2.7844143
3.1815132926569443	7.6449747	2.7649548
3.1990468342210603	7.6287866	2.7620258
3.216580450700272	7.4914794	2.7370567
3.2341141425060416	7.3697357	2.7147257
3.251647910049847	7.209625	2.6850743
3.2691817537431813	7.147108	2.6734076
3.286715673997555	7.1231174	2.668917
3.3042496712244938	7.1237087	2.6690276
3.32178374583554	7.1517024	2.6742668
3.339317898242251	7.015442	2.648668
3.3568521288562034	6.9172373	2.630064
3.3743864380889876	6.790413	2.605842
3.3919208263522127	6.68937	2.5863817
3.4094552940575023	6.6197596	2.5728893
3.4269898416164972	6.6349344	2.5758367
3.444524469440858	6.647518	2.578278
3.4620591779422587	6.5765443	2.5644774
3.479593967532391	6.41428	2.5326428
3.4971288386229658	6.3894253	2.5277312
3.5146637916257086	6.4633718	2.5423162
3.5321988269523628	6.545002	2.55832
3.5497339450146903	6.5383453	2.5570188
3.5672691462244708	6.4178057	2.5333388
3.5848044309934988	6.271135	2.5042233
3.60233979973359	6.249928	2.4999857
3.619875252856575	6.107329	2.471301
3.6374107907743034	6.1321135	2.4763105
3.6549464138986427	6.052177	2.4601173
3.6724821226414788	6.138894	2.4776793
3.690017917414714	6.407727	2.5313487
3.7075537986302702	6.65683	2.5800834
3.7250897667000857	6.705906	2.5895765
3.7426258220361235	6.7751126	2.6029046
3.7601619650503553	6.9256687	2.6316664
3.777698196154779	7.4128404	2.7226532
3.7952345157614067	8.364408	2.8921285
3.8127709242822716	9.081198	3.0135026
3.830307422129425	11.1225395	3.3350472
3.847844009714936	29.91922	5.4698462
3.8653806874508954	97.45271	9.871814
3.882917455749409	96.72023	9.834644
3.900454315022606	96.51962	9.82444
3.917991265682631	41.068718	6.408488
3.9355283081416506	10.640739	3.2620146
3.9530654428118495	8.649152	2.940944
3.970602670105433	7.485024	2.7358773
3.9881399904346244	6.692848	2.587054
4.005677404211669	6.688352	2.5861847
4.023214911848827	6.649058	2.5785768
4.0407525137583855	6.6388	2.576587
4.058290210352644	6.43303	2.536342
4.075828002043927	6.18678	2.4873238
4.0933658892445814	6.0953784	2.468882
4.110903872366966	6.1080008	2.471437
4.128441951823468	6.1055174	2.4709346
4.145980128026488	6.159616	2.4818573
4.163518401388452	6.194293	2.4888337
4.181056772321807	6.275511	2.505097
4.1985952412390155	6.257891	2.5015779
4.216133808552567	6.3075113	2.511476
4.233672474674966	6.324137	2.5147836
4.251211240018741	6.5291004	2.5552104
4.268750104996445	6.7200994	2.5923154
4.286289070020643	7.685576	2.7722871
4.303828135503928	9.310485	3.0513086
4.3213673018589125	29.710295	5.450715
4.3389065694982305	90.86242	9.532178
4.356445938834537	166.01385	12.884636
4.3739854102805085	171.4744	13.094823
4.391524984248844	172.24127	13.124072
4.409064661152262	136.41197	11.679554
4.426604441403504	96.92307	9.844952
4.444144325415337	75.795395	8.706055
4.461684313600543	21.820786	4.6712723
4.47922440637193	22.013226	4.6918254
4.496764604142329	20.278673	4.503185
4.5143049073245916	18.481853	4.2990527
4.531845316331589	16.520185	4.064503
4.5493858315762195	13.943528	3.7341034
4.566926453471405	11.588067	3.404125
4.584467182430081	9.530394	3.0871336
4.602008018865218	8.324179	2.8851652
4.619548963189798	7.612474	2.759071
4.637090015816834	7.129032	2.6700246
4.654631177159353	6.820889	2.6116831
4.672172447630417	6.5099344	2.5514574
4.689713827643102	6.333973	2.5167387
4.7072553176105085	6.0860195	2.466986
4.724796917945764	6.0135736	2.4522588
4.742338629062015	5.939614	2.4371324
4.759880451372434	5.92073	2.433255
4.777422385290215	5.834011	2.4153697
4.794964431228581	5.742893	2.3964334
4.812506589600768	5.6638103	2.3798761
4.830048860820047	5.6291795	2.372589
4.847591245299709	5.6645236	2.3800259
4.8651337434530655	5.682524	2.3838046
4.882676355693457	5.5885043	2.3640018
4.900219082434242	5.547668	2.3553488
4.917761924088813	5.5757523	2.361303
4.935304881070575	5.647211	2.3763862
4.952847953792969	5.598277	2.366068
4.970391142669449	5.5850267	2.3632662
4.9879344481135055	5.5307584	2.3517563
5.005477870538642	5.5135264	2.34809
5.023021410358394	5.5277886	2.351125
5.040565067986324	5.5066786	2.3466313
5.05810884383601	5.512825	2.3479407
5.075652738321066	5.548054	2.3554308
5.09319675185512	5.5218096	2.349853
5.110740884851836	5.4463024	2.3337314
5.128285137724894	5.3661003	2.3164845
5.145829510888007	5.353071	2.3136704
5.163374004754908	5.403792	2.3246057
5.1809186197393595	5.442421	2.3328996
5.198463356255145	5.404375	2.324731
5.216008214716077	5.336545	2.3100963
5.233553195535998	5.2868524	2.2993157
5.251098299128764	5.254196	2.2922034
5.268643525908272	5.324508	2.3074896
5.286188876288432	5.3913846	2.3219354
5.3037343506831895	5.43734	2.3318105
5.32127994950651	5.3904185	2.3217275
5.3388256731723915	5.298628	2.3018749
5.356371522094851	5.22264	2.2853096
5.373917496687938	5.118758	2.2624674
5.391463597365729	5.1516237	2.269719
5.40900982454232	5.1676764	2.2732525
5.426556178631843	5.2111654	2.2827978
5.444102660048449	5.1723447	2.2742789
5.4616492692063225	5.14466	2.2681842
5.479196006519669	5.173805	2.2746
5.496742872402727	5.226993	2.2862618
5.514289867269756	5.1800485	2.275972
5.531836991535049	5.2024584	2.2808897
5.549384245612924	5.2146583	2.2835627
5.566931629917724	5.1715517	2.2741046
5.584479144863822	5.154282	2.2703044
5.6020267908656205	5.0797095	2.2538211
5.619574568337545	5.0679097	2.2512019
5.637122477694054	4.989198	2.2336514
5.654670519349629	4.987998	2.2333827
5.672218693718784	5.131036	2.265179
5.689767001216059	5.203771	2.2811775
5.707315442256021	5.2660856	2.2947953
5.724864017253266	5.245028	2.2902026
5.7424127266224225	5.232811	2.2875338
5.75996157077814	5.241876	2.2895143
5.777510550135105	5.285893	2.299107
5.795059665108022	5.282702	2.298413
5.812608916111639	5.324785	2.3075497
5.830158303560715	5.3727074	2.3179102
5.847707827870055	5.295184	2.3011267
5.86525748945448	5.347815	2.3125343
5.8828072887288485	5.3877063	2.3211434
5.900357226108044	5.4177322	2.3276021
5.917907302006979	5.515563	2.3485236
5.9354575168406	6.143039	2.4785156
5.9530078710238765	6.818269	2.6111815
5.970558364971812	7.3295116	2.707307
5.988108999099438	7.6060634	2.7579093
6.005659773821818	8.11941	2.8494577
6.023210689554039	7.9510136	2.8197541
6.040761746711227	8.420828	2.9018662
6.058312945708531	7.8395815	2.7999253
6.075864286961132	7.434561	2.726639
6.093415770884244	6.8100657	2.6096103
6.1109673978931065	6.294597	2.5089035
6.128519168402993	5.6670184	2.38055
6.146071082829204	5.5089974	2.3471253
6.163623141587075	5.3383574	2.3104885
6.181175345091969	5.2616234	2.2938228
6.198727693759281	5.186862	2.2774684
6.216280188004435	5.1009846	2.2585359
6.233832828242885	5.0898795	2.256076
6.251385614890126	5.132516	2.2655056
6.268938548361669	5.140676	2.2673059
6.286491629073067	5.1153793	2.2617204
6.304044857439898	5.1448174	2.268219
6.321598233877777	5.135869	2.2662456
6.339151758802344	5.1102386	2.2605836
6.356705432629277	5.0421343	2.2454698
6.37425925577428	5.0087295	2.238019
6.391813228653095	4.987906	2.233362
6.409367351681486	4.994828	2.2349112
6.426921625275259	5.0403295	2.2450678
6.44447604985025	5.017207	2.2399123
6.46203062582232	4.9739995	2.2302465
6.47958535360737	4.9889603	2.233598
6.497140233621328	5.109344	2.2603858
6.514695266280161	5.132362	2.2654717
6.532250451999859	5.0381	2.2445712
6.549805791196454	4.9757943	2.2306488
6.567361284286002	4.963112	2.2278042
6.584916931684597	5.0914116	2.2564156
6.602472733808367	5.132787	2.2655656
6.6200286910734665	5.1339006	2.2658112
6.637584803896092	5.111086	2.260771
6.655141072692462	5.006258	2.2374668
6.672697497878842	4.979722	2.231529
6.690254079871514	4.930342	2.2204373
6.707810819086808	4.9806147	2.231729
6.725367715941078	4.983089	2.2322834
6.742924770850719	4.9630036	2.2277799
6.760481984232151	5.0419745	2.245434
6.778039356501836	5.024628	2.2415683
6.795596888076266	5.008085	2.237875
6.813154579371963	5.028519	2.242436
6.830712430805492	5.028675	2.2424707
6.84827044279344	5.066041	2.2507868
6.865828615752445	5.0053	2.2372527
6.883386950099159	4.9459004	2.223938
6.900945446250287	4.906384	2.215036
6.918504104622553	4.922963	2.218775
6.936062925632727	4.963259	2.2278373
6.953621909697607	5.045278	2.2461696
6.971181057234028	5.1264625	2.2641692
6.988740368658859	5.1728163	2.2743826
7.006299844389007	5.208325	2.2821755
7.023859484841407	5.2907615	2.3001654
7.041419290433036	5.383554	2.3202486
7.058979261580902	5.5325193	2.352131
7.0765393987020495	5.717234	2.391074
7.094099702213559	6.126302	2.4751368
7.111660172532549	6.5571856	2.5607002
7.129220810076164	6.910976	2.6288736
7.146781615261595	7.5211616	2.7424736
7.16434258850606	7.737223	2.7815864
7.181903730226821	8.127884	2.8509443
7.1994650408411704	8.171467	2.8585777
7.217026520766437	8.256781	2.8734615
7.234588170419983	8.521902	2.9192297
7.252149990219215	8.532625	2.9210658
7.269711980581568	8.454087	2.9075913
7.2872741419245175	8.233527	2.8694124
7.304836474665574	7.774352	2.7882526
7.322398979222286	7.37867	2.7163708
7.339961656012233	7.0364795	2.6526363
7.357524505453039	6.728904	2.594013
7.375087527962357	6.4207845	2.5339267
7.392650723957886	6.1643996	2.482821
7.410214093857353	5.908346	2.430709
7.427777638078528	5.7180276	2.3912396
7.445341357039213	5.5423994	2.3542302
7.4629052511572525	5.3633757	2.3158963
7.480469320850524	5.2755027	2.2968462
7.498033566536948	5.229553	2.2868216
7.5155979886344735	5.188223	2.2777672
7.5331625875610975	5.1251535	2.2638803
7.550727363734844	5.1287637	2.2646773
7.568292317573788	5.1250124	2.263849
7.585857449496025	5.196789	2.2796466
7.603422759919705	5.2317677	2.2873058
7.620988249263007	5.1781607	2.2755573
7.638553917944147	5.1600494	2.2715743
7.656119766381391	5.2168093	2.2840335
7.673685794993023	5.274708	2.2966733
7.691252004197388	5.290849	2.3001845
7.70881839441285	5.2352843	2.2880743
7.726384966057826	5.2493987	2.2911565
7.743951719550762	5.2191553	2.284547
7.761518655310149	5.215124	2.2836647
7.779085773754511	5.265301	2.2946243
7.796653075302419	5.338171	2.3104482
7.814220560372475	5.3825765	2.320038
7.831788229383323	5.3897204	2.321577
7.8493560827536495	5.299232	2.302006
7.866924120902174	5.317068	2.305877
7.884492344247663	5.3526764	2.3135853
7.9020607532089135	5.44369	2.3331716
7.919629348204771	5.497861	2.3447518
7.937198129654115	5.508399	2.346998
7.954767097975865	5.445815	2.333627
7.972336253588986	5.4461756	2.3337042
7.989905596912472	5.4361324	2.3315516
8.007475128365371	5.5213146	2.349748
8.025044848366756	5.5089836	2.3471224
8.042614757335754	5.5557847	2.3570712
8.060184855691523	5.600288	2.3664927
8.07775514385327	5.7869477	2.4056075
8.095325622240228	5.828474	2.4142232
8.112896291271687	5.867425	2.4222767
8.130467151366968	5.8623075	2.4212203
8.148038202945436	5.8829007	2.4254692
8.165609446426497	5.9266524	2.4344716
8.183180882229594	5.9188347	2.4328656
8.200752510774217	5.928521	2.4348555
8.218324332479893	5.9649186	2.4423182
8.235896347766193	6.061097	2.4619296
8.253468557052724	6.0445323	2.458563
8.27104096075914	5.9403358	2.4372804
8.288613559305137	5.942984	2.4378235
8.306186353110448	6.036048	2.456837
8.32375934259485	6.18331	2.4866261
8.341332528178162	6.2383003	2.497659
8.358905910280246	6.259588	2.501917
8.376479489321003	6.1835294	2.4866703
8.394053265720377	6.236918	2.4973822
8.411627239898356	6.262452	2.502489
8.42920141227497	6.3106303	2.512097
8.44677578327029	6.3227863	2.5145152
8.464350353304427	6.2392406	2.4978473
8.48192512279754	6.2365723	2.497313
8.499500092169827	6.1614985	2.4822366
8.51707526184153	6.16945	2.4838376
8.534650632232934	6.1899624	2.4879634
8.552226203764365	6.2054358	2.4910712
8.569801976856192	6.164148	2.4827702
8.587377951928834	6.1930876	2.4885914
8.60495412940274	6.195341	2.4890442
8.622530509698416	6.255274	2.5010545
8.6401070932364	6.4071827	2.5312414
8.657683880437283	6.5094366	2.5513597
8.675260871721695	6.6596694	2.5806336
8.692838067510303	6.8064713	2.6089215
8.710415468223834	7.0360746	2.65256
8.727993074283043	7.218956	2.6868114
8.745570886108737	7.1719327	2.6780465
8.763148904121765	7.1902313	2.6814606
8.78072712874302	7.1891522	2.6812594
8.798305560393441	7.403312	2.720903
8.815884199494006	7.633606	2.7628982
8.833463046465745	7.836059	2.7992961
8.851042101729728	7.981045	2.8250742
8.86862136570707	8.195434	2.8627667
8.886200838818924	8.393176	2.8970978
8.903780521486505	8.5719795	2.9277942
8.921360414131055	8.666075	2.9438198
8.938940517173874	8.816383	2.9692395
8.956520831036297	8.890829	2.9817493
8.97410135613971	9.14753	3.0244882
8.99168209290554	9.349031	3.0576186
9.009263041755265	9.588081	3.0964627
9.026844203110405	9.771948	3.1260116
9.044425577392525	9.943496	3.1533308
9.062007165023239	10.050868	3.1703105
9.079588966424197	10.376604	3.2212737
9.097170982017108	10.5315	3.2452273
9.11475321222372	11.365424	3.3712645
9.132335657465825	12.148146	3.485419
9.149918318165264	12.184885	3.4906855
9.167501194743924	12.822939	3.580913
9.18508428762374	12.660783	3.5581994
9.202667597226693	12.611976	3.5513344
9.220251123974803	12.175267	3.4893076
9.237834868290143	11.764528	3.4299457
9.255418830594836	11.491278	3.3898787
9.273003011311046	11.026069	3.3205523
9.290587410860985	10.778766	3.283103
9.308172029666911	10.256848	3.2026315
9.32575686815113	10.031168	3.167202
9.343341926735997	8.891998	2.9819453
9.360927205843916	8.580144	2.9291883
9.378512705897327	8.24919	2.8721404
9.396098427318728	7.9803696	2.8249547
9.413684370530664	7.9637914	2.822019
9.431270535955722	8.006545	2.829584
9.448856924016539	8.046955	2.8367155
9.466443535135806	7.899571	2.8106174
9.484030369736251	7.8307734	2.798352
9.501617428240658	7.7355804	2.7812912
9.519204711071852	7.6973896	2.774417
9.536792218652714	7.7689767	2.7872884
9.55437995140617	7.8444414	2.800793
9.571967909755191	7.907479	2.8120239
9.589556094122802	7.9420447	2.8181634
9.60714450493207	8.019365	2.8318484
9.624733142606116	8.10819	2.8474884
9.642322007568108	8.101191	2.846259
9.659911100241267	8.145486	2.8540297
9.677500421048851	8.136589	2.8524706
9.695089970414175	8.172515	2.858761
9.712679748760609	8.170087	2.8583364
9.730269756511557	8.177886	2.8597004
9.747859994090492	8.16537	2.857511
9.765450461920915	8.166238	2.857663
9.78304116042639	8.194839	2.8626628
9.800632090030527	8.2709465	2.8759253
9.81822325115699	8.373899	2.893769
9.835814644229481	8.472436	2.910745
9.853406269671762	8.492467	2.9141839
9.870998127907646	8.439085	2.9050102
9.888590219360985	8.394338	2.8972983
9.906182544455698	8.419559	2.9016476
9.923775103615734	8.40034	2.898334
9.941367897265108	8.354719	2.890453
9.958960925827878	8.30453	2.8817582
9.97655418972816	8.3043585	2.8817284
9.994147689390106	8.253701	2.8729255
10.011741425237934	8.305816	2.8819811
10.029335397695904	8.370367	2.8931587
10.04692960718833	8.418965	2.9015453
10.06452405413958	8.398337	2.8979886
10.082118738974064	8.449587	2.9068172
10.099713662116246	8.440442	2.9052439
10.117308823990651	8.399326	2.898159
10.134904225021844	8.354405	2.8903987
10.152499865634445	8.276491	2.8768892
10.170095746253125	8.210963	2.8654778
10.18769186730261	8.10368	2.8466964
10.205288229207675	8.083455	2.8431418
10.222884832393145	8.123499	2.8501751
10.2404816772839	8.171964	2.8586648
10.258078764304868	8.202452	2.8639922
10.275676093881035	8.146404	2.8541906
10.293273666437438	8.086293	2.8436408
10.310871482399158	8.12734	2.8508492
10.32846954219134	8.166507	2.8577101
10.346067846239173	8.202615	2.8640208
10.363666394967908	8.143655	2.853709
10.38126518880283	8.191571	2.862092
10.398864228169298	8.245218	2.8714488
10.416463513492713	8.223131	2.8676002
10.434063045198531	8.13183	2.8516364
10.451662823712262	8.153909	2.855505
10.469262849459467	8.167346	2.857857
10.486863122865758	8.126983	2.8507862
10.504463644356806	8.074739	2.8416085
10.522064414358338	7.9923735	2.8270786
10.539665433296118	7.953936	2.8202724
10.557266701595987	7.928021	2.815674
10.574868219683818	7.834128	2.7989511
10.592469987985552	7.725999	2.7795682
10.610072006927185	7.5561314	2.7488418
10.627674276934751	7.494787	2.737661
10.64527679843435	7.39517	2.7194061
10.662879571852143	7.318109	2.7052004
10.680482597614331	7.198613	2.6830232
10.698085876147173	7.222719	2.6875117
10.715689407876988	7.1162686	2.6676335
10.733293193230146	7.006336	2.6469486
10.750897232633072	6.8534837	2.6179159
10.76850152651225	6.775916	2.603059
10.786106075294207	6.7253976	2.593337
10.803710879405534	6.5831556	2.565766
10.821315939272877	6.497266	2.5489736
10.83892125532294	6.358193	2.5215456
10.856526827982472	6.280984	2.506189
10.874132657678285	6.243606	2.498721
10.891738744837243	6.2202725	2.4940474
10.909345089886271	6.2630515	2.502609
10.926951693252343	6.1916966	2.488312
10.944558555362494	6.11648	2.473152
10.96216567664381	5.9880457	2.4470484
10.979773057523436	5.9422626	2.4376757
10.997380698428573	5.854038	2.4195118
11.014988599786477	5.734619	2.3947065
11.032596762024461	5.638195	2.3744884
11.050205185569892	5.5777426	2.3617244
11.067813870850198	5.536075	2.3528864
11.085422818292859	5.5242414	2.3503704
11.10303202832541	5.489319	2.3429296
11.120641501375454	5.5019307	2.3456194
11.138251237870636	5.414173	2.3268375
11.155861238238671	5.268172	2.29525
11.173471502907317	5.1829586	2.2766113
11.191082032304402	5.142009	2.2675998
11.208692826857805	5.1467977	2.2686555
11.226303886995465	5.102966	2.2589746
11.243915213145371	5.0404577	2.2450964
11.261526805735578	4.936001	2.2217112
11.279138665194196	4.8751774	2.2079804
11.296750791949393	4.8191657	2.1952598
11.314363186429393	4.758618	2.1814256
11.331975849062479	4.7640185	2.1826632
11.34958878027699	4.719931	2.1725402
11.36720198050133	4.708033	2.1698003
11.384815450163948	4.627718	2.1512132
11.402429189693366	4.6176853	2.14888
11.420043199518153	4.5434585	2.131539
11.437657480066942	63.472088	7.966937
11.455272031768422	85.167885	9.228644
11.472886855051353	107.60077	10.373079
11.490501950344528	99.27547	9.963708
11.508117318076819	84.60899	9.198315
11.52573295867715	46.008034	6.7829223
11.543348872574514	4.301294	2.073956
11.560965060197946	4.2120605	2.0523305
11.57858152197655	4.184502	2.0456057
11.59619825833949	4.1033764	2.0256793
11.613815269715985	4.052455	2.013071
11.631432556535323	38.505264	6.205261
11.649050119226837	83.05979	9.113714
11.666667958219929	93.50002	9.669541
11.68428607394406	107.7726	10.381358
11.701904466828756	82.60894	9.088946
11.719523137303586	65.438644	8.089416
11.737142085798196	4.6295657	2.1516426
11.754761312742286	3.719165	1.9285136
11.772380818565619	3.679732	1.9182627
11.790000603698015	3.6853716	1.9197322
11.80762066856935	3.6047964	1.8986301
11.825241013609572	3.5504904	1.8842745
11.842861639248683	3.4902453	1.8682199
11.860482545916748	3.5131552	1.8743412
11.878103734043883	3.5147357	1.8747629
11.895725204060282	3.46223	1.8607068
11.91334695639619	3.4167821	1.848454
11.930968991481919	3.3656845	1.8345802
11.948591309747824	3.3691566	1.8355262
11.966213911624347	3.3123899	1.8199972
11.98383679754198	3.3235395	1.8230578
12.001459967931268	3.343611	1.8285544
12.019083423222835	3.3332963	1.8257318
12.036707163847352	3.3093061	1.8191499
12.05433119023556	3.2257092	1.796026
12.071955502818259	3.2116296	1.792102
12.089580102026313	3.2073612	1.7909107
12.107204988290643	3.2127836	1.792424
12.12483016204224	3.197765	1.7882296
12.142455623712152	3.1771836	1.7824656
12.16008137373149	3.1676502	1.7797893
12.177707412531431	3.1763127	1.7822213
12.19533374054321	3.1805212	1.7834016
12.212960358198126	3.128548	1.7687702
12.230587265927545	3.080603	1.7551646
12.248214464162889	3.0740528	1.7532977
12.265841953335649	3.032932	1.7415315
12.283469733877375	3.0355473	1.7422822
12.301097806219685	3.039528	1.7434242
12.31872617079425	3.0543797	1.7476784
12.336354828032825	3.0524316	1.747121
12.353983778367205	3.037495	1.742841
12.371613022229262	2.999463	1.7318958
12.389242560050928	2.9599285	1.7204443
12.406872392264201	2.918948	1.7084929
12.424502519301143	2.8991635	1.702693
12.442132941593874	2.8461666	1.6870586
12.459763659574586	2.8066473	1.6753051
12.477394673675532	2.8039975	1.674514
12.49502598432903	2.832821	1.6830986
12.51265759196746	2.833019	1.6831574
12.530289497023267	2.8220358	1.6798916
12.547921699928967	2.8304405	1.6823913
12.565554201117134	2.8655372	1.6927898
12.583187001020404	2.861895	1.6917137
12.600820100071486	2.8606179	1.6913362
12.618453498703152	2.8577209	1.6904795
12.636087197348235	2.8610568	1.6914659
12.65372119643964	2.866006	1.6929282
12.671355496410326	2.8632152	1.6921037
12.68899009769333	2.892023	1.7005949
12.706625000721749	2.8892896	1.6997911
12.724260205928752	2.9595392	1.7203311
12.741895713747551	2.9763467	1.7252092
12.759531524611454	3.019069	1.7375468
12.777167638953818	3.033632	1.7417325
12.794804057208072	3.0315313	1.7411293
12.812440779807702	3.0377433	1.7429123
12.830077807186271	3.206961	1.7907989
12.847715139777405	3.2653284	1.807022
12.865352778014795	3.4667473	1.8619204
12.882990722332197	3.5188642	1.8758636
12.90062897316344	3.5694716	1.8893045
12.918267530942412	3.6458883	1.909421
12.935906396103071	3.5495877	1.884035
12.953545569079449	3.7671082	1.940904
12.971185050305628	3.5956156	1.8962109
12.988824840215775	3.6162302	1.9016389
13.006464939244115	3.6120172	1.9005308
13.024105347824943	3.4277513	1.8514187
13.041746066392617	3.545086	1.8828398
13.05938709538157	3.3795116	1.8383448
13.077028435226296	3.4159863	1.8482387
13.094670086361363	3.289509	1.8137003
13.112312049221401	3.1900198	1.7860627
13.129954324241112	3.0690045	1.7518574
13.147596911855258	2.8835533	1.6981028
13.165239812498685	2.9006264	1.7031225
13.182883026606293	2.856547	1.6901323
13.200526554613058	2.8254125	1.6808963
13.218170396954017	2.7456067	1.6569872
13.235814554064284	2.708954	1.6458901
13.253459026379034	2.6775522	1.6363227
13.271103814333523	2.6945121	1.6414969
13.288748918363058	2.7417104	1.6558111
13.306394338903031	2.752704	1.6591275
13.32404007638889	2.724208	1.6505176
13.341686131256164	2.726164	1.6511099
13.359332503940449	2.6893463	1.6399226
13.376979194877402	2.6867793	1.6391398
13.394626204502751	2.691379	1.6405423
13.412273533252307	2.728721	1.6518841
13.429921181561937	2.728151	1.6517116
13.447569149867581	2.7293272	1.6520675
13.465217438605247	2.7134235	1.6472472
13.482866048211022	2.6653574	1.6325922
13.500514979121052	2.6709297	1.634298
13.518164231771568	2.6472075	1.6270242
13.535813806598844	2.6577003	1.6302454
13.553463704039254	2.6716645	1.6345227
13.571113924529229	2.6870356	1.639218
13.588764468505275	2.6727142	1.6348438
13.606415336403956	2.697723	1.6424747
13.624066528661917	2.747217	1.6574731
13.641718045715882	2.8313599	1.6826645
13.659369888002635	2.8952417	1.701541
13.67702205595903	2.9275856	1.7110189
13.694674550021993	2.98363	1.7273188
13.712327370628532	3.0361633	1.7424589
13.729980518215713	3.069437	1.7519809
13.747633993220681	3.1402376	1.7720716
13.765287796080647	3.2095993	1.7915355
13.7829419272329	3.2959278	1.815469
13.800596387114801	3.3519006	1.8308196
13.818251176163775	3.3651	1.8344209
13.835906294817324	3.4011986	1.8442339
13.853561743513023	3.4457326	1.8562684
13.871217522688525	3.4469447	1.8565949
13.888873632781538	3.4481947	1.8569316
13.906530074229858	3.4847918	1.8667597
13.92418684747135	3.4933383	1.8690474
13.941843952943948	3.484982	1.8668107
13.959501391085665	3.457264	1.8593719
13.977159162334578	3.3848228	1.8397888
13.994817267128846	3.3269665	1.8239974
14.012475705906693	3.27165	1.8087703
14.030134479106424	3.2639697	1.806646
14.047793587166414	3.2138345	1.7927171
14.065453030525108	3.1115875	1.7639693
14.083112809621026	2.9768958	1.7253683
14.100772924892766	2.8662515	1.6930007
14.118433376778997	2.83217	1.6829052
14.136094165718458	2.8096492	1.6762009
14.153755292149969	2.784575	1.6687046
14.171416756512416	2.7253215	1.6508548
14.189078559244768	2.6835675	1.6381598
14.20674070078606	2.6323402	1.6224488
14.224403181575408	2.5692573	1.6028903
14.242066002051999	2.5191603	1.5871862
14.259729162655093	2.5056098	1.5829118
14.277392663824022	2.4830174	1.5757593
14.295056505998208	2.4641228	1.5697525
14.312720689617128	2.4258952	1.5575286
14.330385215120348	2.4102752	1.5525061
14.348050082947497	2.3991106	1.5489062
14.3657152935383	2.4154363	1.5541674
14.383380847332528	2.4436784	1.5632269
14.401046744770051	2.4699788	1.5716166
14.418712986290798	2.4547503	1.5667642
14.436379572334793	2.438357	1.5615239
14.454046503342123	2.3996396	1.549077
14.471713779752946	2.369622	1.5393577
14.489381402007504	2.3670938	1.5385363
14.507049370546113	2.389157	1.5456898
14.524717685809168	2.409244	1.552174
14.542386348237134	2.3796434	1.5426093
14.560055358270553	2.3629305	1.5371827
14.577724716350051	2.411471	1.5528911
14.595394422916325	2.469009	1.571308
14.61306447841015	2.5034127	1.5822177
14.63073488327237	2.5089524	1.5839673
14.648405637943917	2.5071752	1.5834062
14.6660767428658	2.5077572	1.5835899
14.683748198479094	2.5314825	1.5910633
14.701420005224954	2.5583892	1.5994965
14.719092163544628	2.6217382	1.6191783
14.73676467387942	2.6859186	1.6388773
14.754437536670727	2.7327528	1.653104
14.772110752360014	2.7195156	1.6490954
14.78978432138882	2.6755972	1.6357253
14.807458244198777	2.6911614	1.640476
14.82513252123159	2.680243	1.6371448
14.842807152929028	2.7363093	1.6541793
14.860482139732962	2.7110848	1.6465372
14.87815748208531	2.6865146	1.6390591
14.8958331804281	2.662429	1.6316952
14.91350923520342	2.6569135	1.6300042
14.931185646853438	2.6785502	1.6366277
14.948862415820408	2.6141725	1.6168402
14.966539542546656	2.6721284	1.6346647
14.98421702747459	2.686785	1.6391416
15.001894871046696	2.702927	1.6440581
15.019573073705542	2.673292	1.6350205
15.037251635893766	2.648281	1.627354
15.054930558054092	2.670035	1.6340241
15.072609840629323	2.7237236	1.6503707
15.090289484062351	2.8275309	1.6815263
15.107969488796124	3.1168227	1.7654525
15.125649855273691	3.5342827	1.8799688
15.14333058393817	4.0433626	2.0108113
15.161011675232768	5.0074463	2.2377324
15.17869312960076	6.342431	2.5184183
15.196374947485506	8.20503	2.8644423
15.214057129330447	11.303383	3.3620503
15.231739675579114	16.023243	4.0029044
15.249422586675102	20.875456	4.5689664
15.267105863062092	23.84209	4.8828363
15.284789505183847	23.994759	4.8984447
15.302473513484218	21.934351	4.6834126
15.320157888407127	18.487959	4.2997627
15.337842630396578	14.439231	3.7998989
15.355527739896656	11.253145	3.3545709
15.37321321735153	8.7429495	2.956848
15.39089906320545	6.4230876	2.5343812
15.408585277902748	4.888126	2.2109106
15.42627186188783	3.7876267	1.9461826
15.443958815605198	3.2366238	1.7990619
15.461646139499424	2.9583101	1.7199739
15.479333834015168	2.7856412	1.669024
15.497021899597165	2.7741218	1.6655695
15.514710336690234	2.7601833	1.6613799
15.53239914573928	2.6882277	1.6395816
15.550088327189297	2.6162393	1.6174793
15.567777881485336	2.560559	1.6001747
15.58546780907256	2.5360634	1.5925022
15.6031581103962	2.495361	1.5796711
15.620848785901568	2.4728808	1.5725396
15.638539836034063	2.4944217	1.5793738
15.656231261239173	2.5032485	1.5821657
15.673923061962451	2.4948566	1.5795115
15.691615238649552	2.463364	1.5695107
15.709307791746202	2.4812505	1.5751985
15.727000721698221	2.4529529	1.5661906
15.744694028951498	2.4146988	1.5539302
15.76238771395202	2.3610573	1.5365732
15.780081777145844	2.3606586	1.5364435
15.797776218979125	2.3855257	1.5445147
15.815471039898094	2.388018	1.5453213
15.833166240349064	2.3891828	1.5456982
15.850861820778437	2.3908625	1.5462414
15.868557781632699	2.3895988	1.5458328
15.886254123358412	2.3883271	1.5454214
15.903950846402232	2.3777525	1.5419962
15.921647951210897	2.3899062	1.5459322
15.939345438231225	2.4049904	1.5508032
15.957043307910133	2.4175644	1.5548519
15.974741560694602	2.4183433	1.5551023
15.992440197031714	2.4068012	1.5513868
16.01013921736862	2.4008968	1.5494827
16.02783862215259	2.3988895	1.5488349
16.045538411830933	2.3574839	1.53541
16.06323858685107	2.3623114	1.5369812
16.080939147660512	2.3961656	1.5479553
16.09864009470684	2.460242	1.5685159
16.11634142843774	2.4887955	1.5775917
16.134043149300954	2.4728594	1.5725328
16.15174525774433	2.4399927	1.5620476
16.169447754215817	2.4112155	1.5528089
16.18715063916342	2.4210007	1.5559565
16.204853913035244	2.4662635	1.5704342
16.222557576279478	2.4653878	1.5701554
16.240261629344403	22.434002	4.7364545
16.257966072678386	42.967243	6.55494
16.275670906729868	38.061287	6.169383
16.293376131947387	2.4856339	1.5765893
16.31108174877957	2.5102885	1.584389
16.328787757675133	2.5470617	1.5959517
16.34649415908287	2.579011	1.60593
16.364200953451657	2.6308382	1.6219859
16.38190814123048	2.6503391	1.6279862
16.39961572286839	2.6282759	1.6211958
16.41732369881455	2.6381817	1.624248
16.43503206951817	2.6660118	1.6327926
16.45274083542859	2.6947627	1.6415732
16.47044999699522	2.7131038	1.6471502
16.488159554667558	2.7746615	1.6657315
16.505869508895184	2.8832805	1.6980225
16.523579860127786	2.9596515	1.7203637
16.541290608815117	2.9878144	1.7285296
16.559001755407035	3.006543	1.7339386
16.57671330035348	3.077667	1.7543281
16.59442524410448	3.168614	1.78006
16.61213758711015	3.250428	1.8028944
16.629850329820705	3.2855022	1.8125955
16.647563472686436	3.321074	1.8223814
16.665277016157724	3.3506148	1.8304684
16.682990960685053	3.3628972	1.8338203
16.70070530671898	3.4172618	1.8485837
16.718420054710155	3.4774768	1.8647994
16.736135205109335	3.565966	1.8883765
16.753850758367335	3.640089	1.9079018
16.771566714935087	3.7456565	1.9353698
16.789283075263597	3.7704256	1.9417584
16.80699983980398	3.8162231	1.9535155
16.82471700900741	3.8488529	1.9618493
16.84243458332518	3.9209478	1.9801383
16.860152563208665	3.9485955	1.9871073
16.87787094910932	4.0191374	2.0047786
16.89558974147871	4.1081223	2.0268505
16.913308940768466	4.220157	2.0543022
16.931028547430333	4.302671	2.0742881
16.94874856191613	4.346633	2.084858
16.966468984677785	4.3528895	2.086358
16.98418981616729	4.4141994	2.1009996
17.00191105683676	4.4938116	2.1198611
17.019632707138374	4.572902	2.1384344
17.03735476752442	4.5496387	2.1329882
17.05507723844728	4.5679803	2.1372833
17.072800120359403	4.5965	2.143945
17.090523413713353	4.661221	2.158986
17.108247118961785	4.6768036	2.162592
17.125971236557437	4.673498	2.1618276
17.143695766953133	4.658777	2.15842
17.161420710601806	4.6524706	2.1569586
17.179146067956477	4.7041535	2.168906
17.19687183947025	4.7268934	2.174142
17.21459802559634	4.7419686	2.177606
17.232324626788028	4.8049498	2.1920195
17.25005164349871	4.797399	2.1902966
17.267779076181863	4.746186	2.1785743
17.285506925291074	4.6217775	2.149832
17.30323519127999	4.5316544	2.1287682
17.320963874602384	4.5684905	2.1374028
17.33869297571211	4.665047	2.159872
17.356422495063114	4.7095594	2.170152
17.37415243310944	4.6159453	2.1484752
17.391882790305218	4.5476813	2.1325293
17.40961356710468	4.484966	2.1177738
17.42734476396215	4.4844832	2.1176598
17.445076381332044	4.4453945	2.1084104
17.462808419668868	4.4835315	2.1174352
17.48054087942723	4.6735826	2.161847
17.498273761061835	5.0433116	2.2457318
17.51600706502747	5.573148	2.3607516
17.533740791779024	6.30546	2.5110674
17.551474941771485	7.70269	2.775372
17.56920951545993	8.776369	2.9624937
17.586944513299528	10.966448	3.3115628
17.60467993574556	12.5105715	3.5370286
17.622415783253373	14.008507	3.742794
17.64015205627843	15.176233	3.8956685
17.657888755276293	16.272346	4.0339
17.675625880702604	16.829775	4.102411
17.69336343301311	16.656569	4.081246
17.71110141266366	15.898214	3.9872565
17.728839820110178	14.98839	3.8714843
17.746578655808705	14.119207	3.7575533
17.764317920215372	12.712	3.5653892
17.7820576137864	11.266324	3.3565345
17.79979773697811	9.343487	3.0567117
17.81753829024692	7.5343633	2.7448795
17.835279274049356	5.863147	2.4213936
17.85302068884201	4.87948	2.2089546
17.870762535081607	4.2866344	2.0704188
17.888504813224934	4.0056553	2.0014133
17.90624752372891	3.7417665	1.9343646
17.923990667050536	3.5678387	1.8888724
17.941734243646895	3.4949458	1.8694774
17.959478253975185	3.5007882	1.8710394
17.9772226984927	3.4849634	1.8668057
17.994967577656833	3.4308975	1.8522682
18.01271289192506	3.4099014	1.8465918
18.030458641754965	3.3915672	1.8416208
18.04820482760425	3.3498993	1.830273
18.06595144993067	3.3284004	1.8243904
18.083698509192125	3.302203	1.8171965
18.101446005846576	3.2461958	1.8017203
18.119193940352105	3.1784184	1.7828119
18.136942313166887	3.1616976	1.7781163
18.1546911247492	3.1521268	1.7754229
18.1724403755574	3.1789763	1.7829684
18.19019006604997	3.165882	1.7792926
18.207940196685467	3.1442358	1.7731993
18.225690767922575	3.1212742	1.7667128
18.243441780220046	3.1088936	1.7632055
18.261193234036764	3.151639	1.7752856
18.278945129831676	3.1573198	1.7768849
18.29669746806386	3.1411455	1.7723277
18.314450249192483	3.0563896	1.7482533
18.3322034736768	3.0244346	1.7390902
18.349957141976184	2.9952629	1.7306827
18.3677112545501	3.0503666	1.7465299
18.385465811858108	3.0704746	1.752277
18.403220814359884	3.0894125	1.7576724
18.420976262515172	3.1251109	1.7677983
18.43873215678387	3.1540098	1.7759532
18.456488497625923	3.1216252	1.7668122
18.474245285501407	3.2007096	1.7890527
18.492002520870486	3.303285	1.8174942
18.50976020419343	3.373434	1.836691
18.527518335930615	3.679598	1.9182279
18.545276916542516	4.330703	2.0810342
18.563035946489688	4.5679293	2.1372714
18.580795426232832	5.059451	2.2493224
18.598555356232698	4.883664	2.2099013
18.616315736950185	5.158618	2.271259
18.63407656884626	4.7202964	2.1726243
18.65183785238201	4.9125447	2.2164261
18.669599588018617	4.6920485	2.1661136
18.68736177621737	4.748152	2.1790254
18.705124417439652	4.7518635	2.179877
18.72288751214696	4.562863	2.136086
18.740651060800886	4.699584	2.1678524
18.758415063863115	4.3735642	2.091307
18.77617952179546	4.5594983	2.1352983
18.793944435059814	4.3287196	2.0805576
18.811709804118184	4.3609934	2.0882993
18.829475629432675	4.281478	2.0691733
18.8472419114655	4.0642548	2.0159998
18.86500865067897	4.136764	2.0339036
18.88277584753551	3.8067353	1.9510857
18.90054350249763	3.8087168	1.9515934
18.918311616027957	3.4918542	1.8686503
18.936080188589226	3.3608613	1.8332652
18.953849220644265	3.0412717	1.7439243
18.971618712656007	2.8438761	1.6863796
18.9893886650875	2.788009	1.6697332
19.007159078401887	7.979485	2.8247983
19.024929953062408	32.898094	5.735686
19.042701289532435	32.886246	5.734653
19.060473088275405	25.440035	5.0438113
19.07824534975489	2.700245	1.6432422
19.096018074434568	2.664463	1.6323183
19.113791262778197	2.6349852	1.6232637
19.13156491524966	2.6109507	1.6158437
19.149339032312945	2.571251	1.603512
19.167113614432136	2.565437	1.6016982
19.184888662071433	2.5955455	1.6110697
19.202664175695123	2.5783267	1.6057168
19.220440155767623	2.5662003	1.6019365
19.238216602753447	2.5524185	1.5976291
19.2559935171172	2.5748816	1.6046437
19.27377089932361	2.5859463	1.6080878
19.291548749837514	2.5791276	1.6059662
19.309327069123835	2.5736706	1.6042664
19.32710585764763	2.5942445	1.6106658
19.344885115874032	2.566036	1.6018851
19.362664844268313	2.527348	1.5897635
19.380445043295822	2.5450993	1.5953367
19.39822571342203	2.5418851	1.594329
19.41600685511252	2.5626495	1.6008277
19.43378846883297	2.5320516	1.5912422
19.451570555049173	2.5497763	1.5968019
19.469353114227037	2.5464578	1.5957625
19.48713614683254	2.5145738	1.5857408
19.50491965333182	2.4644248	1.5698487
19.52270363419109	2.4534445	1.5663475
19.540488089876686	2.4766214	1.5737284
19.55827302085503	2.5072086	1.5834167
19.576058427592674	2.5429406	1.59466
19.593844310556282	2.5606496	1.600203
19.611630670212598	2.5404508	1.5938792
19.629417507028506	2.5543773	1.5982419
19.64720482147098	2.5377543	1.5930331
19.6649926140071	2.5457368	1.5955365
19.682780885104084	2.5029962	1.5820861
19.70056963522921	2.4745383	1.5730666
19.718358864849908	2.4876816	1.5772386
19.7361485744337	2.5127256	1.5851579
19.753938764448215	2.507609	1.5835432
19.771729435361202	2.5088854	1.5839461
19.789520587640506	2.5392265	1.593495
19.807312221754092	2.5787356	1.6058441
19.825104338170043	2.554815	1.5983789
19.842896937356517	2.5214772	1.587916
19.860690019781824	2.4794626	1.574631
19.87848358591436	2.4722855	1.5723503
19.896277636222635	2.4807465	1.5750386
19.914072171175278	2.4854264	1.5765235
19.931867191241015	2.466955	1.5706543
19.94966269688869	2.4536433	1.566411
19.967458688587264	2.4614499	1.5689008
19.985255166805807	2.4962401	1.5799494
20.00305213201348	2.4973931	1.5803143
20.020849584679578	2.4632227	1.5694658
20.038647525273507	2.4622605	1.5691592
20.05644595426477	2.4770012	1.5738492
20.07424487212299	2.502781	1.582018
20.092044279317903	2.4795797	1.5746682
20.109844176319353	2.460099	1.5684702
20.127644563597304	2.4264748	1.5577146
20.145445441621817	2.4015346	1.5496886
20.16324681086307	2.3925283	1.54678
20.181048671791373	2.3910294	1.5462954
20.198851024877122	2.4071138	1.5514876
20.216653870590836	2.437238	1.5611656
20.234457209403146	2.4293637	1.5586417
20.252261041784802	2.4122794	1.5531515
20.270065368206662	2.3905876	1.5461525
20.287870189139685	2.3971944	1.5482875
20.305675505054968	2.3714416	1.5399486
20.323481316423702	2.3857028	1.5445721
20.341287623717207	2.3790667	1.5424223
20.359094427406884	2.354684	1.534498
20.376901727964288	2.3597453	1.5361463
20.39470952586107	2.4074218	1.5515869
20.41251782156899	2.4627378	1.5693113
20.430326615559935	2.4213488	1.5560684
20.448135908305886	2.3702579	1.5395641
20.465945700278965	2.313596	1.5210509
20.483755991951384	2.3421035	1.5303932
20.50156678379548	2.3426056	1.5305573
20.519378076283708	2.331659	1.5269771
20.537189869888635	2.3343658	1.5278631
20.55500216508294	2.3561044	1.5349607
20.572814962339415	2.3718834	1.540092
20.59062826213098	2.3668396	1.5384537
20.60844206493066	2.3517563	1.5335437
20.626256371211593	2.2917354	1.5138478
20.644071181447032	2.27801	1.5093077
20.66188649611036	2.2794783	1.5097941
20.67970231567506	2.3250806	1.5248215
20.697518640614742	2.3277714	1.5257035
20.715335471403122	2.3278308	1.525723
20.73315280851404	2.314596	1.5213796
20.750970652421447	2.3156326	1.5217203
20.768789003599412	2.300823	1.5168464
20.786607862522136	2.3039832	1.5178877
20.8044272296639	2.2705104	1.5068213
20.82224710549913	2.269967	1.506641
20.84006749050237	2.2888	1.5128781
20.857888385148268	3.8409364	1.9598308
20.8757097899116	45.929565	6.7771354
20.893531705267254	64.82049	8.051117
20.911354131690224	83.84283	9.156573
20.92917706965566	69.09107	8.312104
20.94700051963877	50.156605	7.082133
20.96482448211493	29.418888	5.4239182
20.982648957559622	4.143922	2.0356624
21.00047394644843	2.2220936	1.4906689
21.01829944925707	2.2118793	1.4872388
21.036125466461375	2.266174	1.5053817
21.053951998537297	2.29104	1.5136181
21.071779045960906	2.2775435	1.5091532
21.089606609208378	2.2531092	1.501036
21.10743468875603	2.2336898	1.4945533
21.12526328508028	2.2041523	1.4846388
21.143092398657675	2.20095	1.4835598
21.16092202996488	2.2244642	1.4914638
21.17875217947867	2.2252293	1.4917202
21.19658284767596	2.1864326	1.478659
21.21441403503377	2.1501002	1.4663221
21.232245742029225	2.1428561	1.4638498
21.2500779691396	2.1515222	1.4668068
21.26791071684227	2.1434639	1.4640573
21.28574398561475	2.1466577	1.4651476
21.30357777593465	2.1661737	1.4717927
21.321412088279704	2.1768363	1.4754106
21.339246923127792	2.1942177	1.4812891
21.357082280956888	2.197403	1.4823639
21.3749181622451	2.1594613	1.4695106
21.392754567470647	2.1192267	1.4557564
21.41059149711187	2.0928416	1.4466656
21.42842895164726	2.0989144	1.448763
21.446266931555378	2.1250782	1.4577647
21.464105437314945	2.1521165	1.4670094
21.481944469404798	2.1409967	1.4632145
21.49978402830388	2.1134121	1.4537579
21.51762411449127	2.1000597	1.4491583
21.53546472844617	2.1130242	1.4536245
21.553305870647876	2.1207669	1.4562854
21.571147541575865	2.1258428	1.458027
21.58898974170967	2.108748	1.4521528
21.60683247152899	2.0973816	1.448234
21.62467573151363	2.0811498	1.4426191
21.642519522143523	2.0855541	1.4441447
21.660363843898722	2.0934749	1.4468845
21.6782086972594	2.0777965	1.4414563
21.696054082705864	2.0460424	1.4303994
21.713900000718535	2.0153508	1.4196305
21.73174645177795	2.0132475	1.4188895
21.749593436364794	2.0269	1.4236923
21.767440954959845	2.0706465	1.4389741
21.785289008044032	2.0646262	1.4368807
21.803137596098388	2.0470695	1.4307584
21.820986719604086	2.0079875	1.4170347
21.838836379042412	2.0029962	1.4152725
21.85668657489478	2.0314155	1.4252774
21.87453730764273	2.0412188	1.4287122
21.892388577767914	2.0387125	1.4278349
21.91024038575213	2.0493803	1.4315656
21.928092732077285	2.0322063	1.4255548
21.945945617225426	2.0214667	1.421783
21.963799041678694	2.0306132	1.4249959
21.981653005919398	31.389687	5.60265
21.999507510429943	78.16008	8.840819
22.01736255569286	73.0987	8.549778
22.035218142190818	4.160224	2.0396626
22.05307427040661	1.9966332	1.4130228
22.07093094082315	2.0000694	1.4142381
22.088788153923474	2.0121253	1.418494
22.106645910190746	2.0425334	1.4291723
22.12450421010827	2.0649998	1.4370108
22.142363054159464	2.0861714	1.4443585
22.16022244282787	2.0536015	1.4330393
22.178082376597164	2.0158124	1.4197931
22.195942855951145	1.9421408	1.3936071
22.213803881373742	1.9099764	1.3820189
22.231665453349002	1.9369993	1.3917612
22.24952757236111	1.9607897	1.400282
22.26739023889438	1.9910424	1.411043
22.28525345343323	1.9982609	1.4135985
22.30311721646225	2.0065432	1.416525
22.320981528466113	1.9850352	1.4089128
22.33884638992964	1.9633869	1.4012091
22.356711801337788	1.9533731	1.3976313
22.37457776317561	1.959908	1.3999672
22.392444275928337	1.915204	1.383909
22.410311340081282	1.90121	1.3788437
22.428178956119904	1.9198785	1.3855968
22.446047124529805	1.9451807	1.3946973
22.46391584579669	1.9591882	1.39971
22.481785120406414	1.9587607	1.3995574
22.49965494884496	1.96066	1.4002357
22.51752533159841	1.9617192	1.4006139
22.53539626915302	1.9668974	1.4024612
22.553267761995137	1.9752373	1.4054314
22.571139810611264	1.9744235	1.4051418
22.589012415488025	1.96138	1.4004928
22.60688557711216	1.9623705	1.4008464
22.624759295970566	1.9539433	1.3978353
22.642633572550263	1.9575711	1.3991323
22.660508407338362	1.9617939	1.4006405
22.67838380082217	1.980572	1.407328
22.696259753489077	1.9703918	1.4037064
22.714136265826614	1.9525864	1.3973498
22.73201333832246	1.9336848	1.3905699
22.74989097146439	1.9268131	1.3880969
22.76776916574035	1.9422101	1.3936319
22.785647921638393	1.9332801	1.3904245
22.803527239646712	1.9165145	1.3843824
22.82140712025363	1.8957273	1.3768542
22.839287563947593	1.9069991	1.3809414
22.85716857121719	1.9464386	1.3951483
22.875050142551135	1.9588718	1.399597
22.892932278438277	1.9763116	1.4058135
22.910814979367604	1.9239986	1.3870828
22.928698245828222	1.8988632	1.3779925
22.946582078309387	1.8549049	1.361949
22.96446647730047	1.8619174	1.3645209
22.98235144329098	1.8868729	1.3736349
23.000236976770562	1.9197217	1.3855402
23.018123078229	1.9214617	1.386168
23.03600974815619	1.9447138	1.3945299
23.053896987042194	1.9661607	1.4021986
23.071784795377173	1.9421122	1.3935969
23.08967317365145	1.8981001	1.3777156
23.10756212235546	1.8982476	1.3777691
23.125451641979787	1.9160655	1.3842201
23.143341733015134	1.9238049	1.387013
23.161232395952357	1.9321508	1.3900183
23.179123631282426	1.9320415	1.389979
23.197015439496468	1.9306712	1.389486
23.214907821085717	1.9375533	1.3919603
23.23280077654157	1.9191753	1.385343
23.250694306355538	1.902906	1.3794585
23.268588411019277	1.8930261	1.3758729
23.28648309102458	1.8930244	1.3758723
23.304378346863356	1.9120189	1.3827577
23.322274179027676	1.9229666	1.3867108
23.340170588009723	1.9008353	1.3787079
23.358067574301852	1.8957841	1.3768748
23.37596513839651	1.8638215	1.3652185
23.39386328078629	1.885803	1.3732455
23.411762001963947	1.9094509	1.3818288
23.429661302422353	1.8998474	1.3783495
23.4475611826545	1.8750983	1.3693423
23.46546164315356	1.8389219	1.3560685
23.48336268441279	1.8890762	1.3744367
23.501264306925638	1.9560894	1.3986026
23.51916651118564	1.9972559	1.413243
23.537069297686497	1.938681	1.3923652
23.554972666922037	1.877186	1.3701043
23.57287661938623	1.8717942	1.3681353
23.59078115557318	1.8745152	1.3691293
23.608686275977128	1.8698893	1.3674389
23.62659198109246	1.9168794	1.3845141
23.6444982714137	1.9570048	1.3989298
23.66240514743549	1.9540274	1.3978653
23.68031260965263	1.9073724	1.3810766
23.698220658560068	1.9009542	1.3787509
23.716129294652845	1.9210776	1.3860295
23.7340385184262	1.9454349	1.3947885
23.75194833037546	1.9395778	1.3926873
23.769858730996123	1.9357744	1.3913211
23.78776972078382	1.9466889	1.3952379
23.80568130023431	1.9299898	1.3892407
23.823593469843495	1.9404899	1.3930147
23.841506230107424	1.9378165	1.3920548
23.859419581522275	1.9588096	1.3995748
23.87733352458438	1.9617642	1.4006299
23.89524805979019	1.942448	1.3937173
23.913163187636318	1.907773	1.3812215
23.931078908619508	1.933829	1.3906218
23.948995223236633	1.9560868	1.3986018
23.966912131984735	1.9559042	1.3985364
23.98482963536096	1.9526138	1.3973596
24.002747733862616	1.9583789	1.399421
24.020666427987155	1.9874166	1.4097576
24.038585718232156	2.054145	1.4332289
24.056505605095353	2.1065233	1.4513867
24.074426089074617	2.1234205	1.4571961
24.092347170667946	2.080803	1.4424988
24.110268850373515	2.052642	1.4327044
24.128191128689586	2.0633821	1.4364477
24.146114006114626	2.0389023	1.4279014
24.164037483147187	2.0310082	1.4251344
24.181961560286005	2.0302138	1.4248557
24.199886238029926	2.0536997	1.4330735
24.21781151687797	2.0834394	1.4434124
24.235737397329274	2.08953	1.4455206
24.253663879883135	2.0394282	1.4280856
24.271590965038975	1.9955566	1.4126418
24.289518653296376	2.0091588	1.417448
24.30744694515505	2.022541	1.4221607
24.32537584111486	2.0151563	1.419562
24.34330534167581	1.994242	1.4121764
24.361235447338046	2.0433192	1.4294472
24.379166158601876	2.0769625	1.441167
24.39709747596772	2.0448945	1.429998
24.41502939993615	2.059462	1.4350826
24.432961931007917	2.0243335	1.4227908
24.450895069683856	2.0196714	1.4211514
24.468828816465	1.9881235	1.4100083
24.4867631718525	1.9670335	1.4025097
24.504698136347656	1.9490838	1.3960959
24.52263371045192	1.9448947	1.3945948
24.540569894666874	1.9512991	1.3968891
24.558506689494266	1.9682643	1.4029485
24.57644409543597	1.9594003	1.3997858
24.594382112994012	1.9726242	1.4045014
24.61232074267057	1.9944004	1.4122324
24.630259984967953	2.0283687	1.424208
24.64819984038863	1.9952327	1.4125271
24.66614030943522	1.9775095	1.4062395
24.684081392610462	1.9768311	1.4059982
24.702023090417274	2.0194907	1.4210879
24.7199654033587	2.0507367	1.4320394
24.737908331937927	2.0622442	1.4360516
24.755851876658305	2.0459964	1.4303833
24.773796038023324	1.9877464	1.4098746
24.79174081653661	1.9947611	1.4123601
24.809686212701962	2.0160367	1.419872
24.827632227023294	2.0759566	1.4408181
24.8455788600047	2.0801723	1.4422803
24.8635261121504	2.0903811	1.4458151
24.88147398396475	2.0768173	1.4411167
24.899422475952303	2.0704381	1.4389017
24.917371588617698	2.073621	1.4400073
24.935321322465768	2.0924442	1.4465283
24.953271678001478	2.197669	1.4824537
24.97122265572994	2.3992672	1.5489568
24.989174256156414	2.7139204	1.6473981
25.00712647978632	3.172657	1.7811954
25.02507932712521	3.7370348	1.9331412
25.043032798678798	4.2212496	2.054568
25.060986894952933	4.8317056	2.1981142
25.078941616453637	5.5198054	2.3494265
25.096896963687055	6.436166	2.53696
25.114852937159508	7.602068	2.7571847
25.132809537377444	8.102472	2.8464842
25.150766764847468	8.12339	2.850156
25.168724620076347	7.5776343	2.7527504
25.186683103570985	6.6332436	2.5755084
25.204642215838426	5.541289	2.3539941
25.222601957385894	4.174674	2.043202
25.24056232872074	3.254633	1.8040601
25.25852333035048	2.7207232	1.6494615
25.276484962782778	2.3886788	1.5455351
25.294447226525435	2.1665444	1.4719186
25.312410122086423	2.0233126	1.422432
25.330373649973843	1.9878048	1.4098953
25.348337810695988	1.9615278	1.4005456
25.366302604761245	1.9472531	1.3954401
25.384268032678207	1.9152415	1.3839225
25.40223409495558	1.8724204	1.3683641
25.420200792102257	1.8513868	1.3606567
25.438168124627246	1.8976102	1.3775377
25.45613609303974	1.8898144	1.3747052
25.474104697849057	1.9210244	1.3860103
25.492073939564698	1.9256548	1.3876796
25.510043818696285	1.9108477	1.3823341
25.528014335753614	1.8574644	1.3628882
25.54598549124664	1.8933846	1.3760031
25.56395728568544	1.8885493	1.374245
25.58192971958028	1.881664	1.3717376
25.59990279344156	1.8684467	1.3669114
25.617876507779833	1.8859093	1.3732841
25.635850863105826	1.8613677	1.3643194
25.653825859930386	1.822869	1.3501366
25.671801498764548	1.8022721	1.3424872
25.68977778011949	1.7983655	1.3410316
25.707754704506524	1.7972823	1.3406276
25.725732272437153	1.7912387	1.3383716
25.743710484423012	1.798958	1.3412523
25.761689340975888	1.8311247	1.3531905
25.77966884260774	1.8859061	1.3732829
25.797648989830662	1.9022101	1.3792063
25.815629783156922	1.8860097	1.3733207
25.83361122309895	1.8620067	1.3645537
25.85159331016929	1.8498273	1.3600836
25.869576044880695	1.8262168	1.3513759
25.887559427746034	1.8321459	1.3535678
25.90554345927836	1.8219198	1.3497851
25.92352813999086	1.8410077	1.3568374
25.94151347039689	1.8664131	1.3661673
25.959499451009965	1.8706492	1.3677168
25.97748608234374	1.8332853	1.3539886
25.995473364912062	1.7926865	1.3389124
26.013461299228904	1.8023926	1.3425322
26.03144988580839	1.8235521	1.3503896
26.04943912516483	1.8018032	1.3423127
26.067429017812675	1.7919357	1.338632
26.085419564266537	1.8324805	1.3536915
26.103410765041186	1.8537896	1.3615394
26.12140262065155	1.8558148	1.362283
26.139395131612723	1.8250518	1.3509448
26.157388298439948	1.8363096	1.355105
26.17538212164861	1.8259528	1.3512782
26.193376601754295	1.825489	1.3511066
26.211371739272714	1.8112797	1.345838
26.229367534719746	1.8144453	1.3470135
26.247363988611433	1.8073756	1.3443867
26.26536110146397	1.8609294	1.3641589
26.283358873793727	1.9158174	1.3841306
26.301357306117204	1.9519423	1.3971193
26.319356398951104	1.893331	1.3759837
26.33735615281224	1.8241662	1.3506169
26.35535656821762	1.763754	1.328064
26.373357645684404	1.8016477	1.3422546
26.39135938572991	1.8332376	1.3539711
26.409361788871614	1.8300744	1.3528024
26.427364855627165	1.8050976	1.3435392
26.445368586514352	1.794909	1.3397422
26.46337298205115	1.8001754	1.3417062
26.48137804275568	1.8600874	1.3638502
26.499383769146217	1.9150456	1.3838518
26.517390161741215	1.9132503	1.3832029
26.53539722105928	1.8345087	1.3544403
26.553404947619182	1.787039	1.3368018
26.571413341939856	1.7951887	1.3398465
26.589422404540397	1.814491	1.3470304
26.60743213594006	1.8395425	1.3562974
26.62544253665827	1.8287358	1.3523076
26.64345360721459	1.7948079	1.3397044
26.66146534812879	1.8207893	1.3493663
26.679477759920758	1.7962182	1.3402306
26.69749084311057	1.7712785	1.3308939
26.71550459821847	1.7691296	1.3300864
26.733519025764842	1.748401	1.3222712
26.751534126270258	1.7907591	1.3381925
26.769549900255434	1.8205036	1.3492603
26.787566348241267	1.8321092	1.3535542
26.80558347074881	1.8406638	1.3567107
26.823601268299267	1.8677466	1.3666552
26.841619741414036	1.8551433	1.3620365
26.85963889061465	1.8446131	1.3581654
26.877658716422832	1.8312991	1.353255
26.89567921936045	1.7924019	1.3388062
26.913700399949544	1.8019141	1.3423539
26.93172225871233	1.817298	1.3480719
26.949744796171174	1.7995661	1.3414791
26.967768012848605	1.8058747	1.3438283
26.98579190926733	1.809411	1.3451436
27.003816485950225	1.8200477	1.3490914
27.021841743420318	1.761371	1.3271666
27.039867682200814	1.7743104	1.3320324
27.057894302815072	1.8225229	1.3500085
27.07592160578664	1.8476373	1.3592782
27.0939495916392	1.8214787	1.3496217
27.111978260896635	1.7882714	1.3372626
27.13000761408296	1.8082215	1.3447013
27.148037651722397	1.8177446	1.3482376
27.166068374339304	1.807625	1.3444794
27.184099782458215	1.7786434	1.3336579
27.20213187660384	1.7387242	1.318607
27.22016465730105	1.7229303	1.3126044
27.23819812507487	1.7482059	1.3221973
27.256232280450533	1.7754185	1.3324484
27.274267123953383	1.8326865	1.3537675
27.292302656108987	1.8265928	1.351515
27.31033887744306	1.8447653	1.3582214
27.32837578848146	1.839464	1.3562684
27.34641338975026	1.830035	1.3527879
27.364451681775673	1.7679529	1.329644
27.382490665084074	1.7402003	1.3191665
27.400530340202046	1.781073	1.3345685
27.41857070765629	1.8277215	1.3519325
27.436611767973726	1.8680159	1.3667538
27.454653521681404	1.8930528	1.3758825
27.472695969306564	1.8839891	1.3725848
27.490739111376627	1.804452	1.3432989
27.508782948419153	1.7513591	1.3233893
27.526827480961902	1.7938584	1.33935
27.54487270953279	1.8773711	1.3701719
27.562918634659898	1.8658409	1.3659579
27.580965256871508	1.815843	1.3475322
27.599012576696026	1.7712487	1.3308827
27.617060594662068	1.7902515	1.3380028
27.63510931129842	1.8022157	1.3424662
27.65315872713401	1.7856585	1.3362854
27.67120884269797	1.7694025	1.3301889
27.68925965851958	1.7907299	1.3381816
27.707311175128307	1.8045436	1.343333
27.725363393053787	1.8484337	1.3595711
27.74341631282583	1.8797864	1.371053
27.7614699349744	1.8688403	1.3670553
27.77952426002968	2.0848951	1.4439166
27.797579288521973	2.1999881	1.4832357
27.815635020981784	2.66656	1.6329604
27.83369145793979	2.7069557	1.6452829
27.85174859992682	2.4897726	1.5779014
27.869806447473923	2.3225405	1.5239884
27.887865001112267	2.0817287	1.4428197
27.905924261373233	2.012852	1.4187502
27.92398422878836	1.9892298	1.4104006
27.94204490388936	1.9223226	1.3864785
27.96010628720813	1.8251864	1.3509946
27.978168379276728	1.7662315	1.3289964
27.9962311806274	1.8257174	1.3511912
28.014294691792568	1.868619	1.3669744
28.0323589133048	1.8758981	1.3696343
28.050423845696887	1.9004185	1.3785567
28.068489489501758	1.9229912	1.3867196
28.086555845252523	1.9076742	1.3811858
28.104622913482487	1.8663619	1.3661486
28.122690694725115	1.8022579	1.342482
28.14075918951405	1.8639426	1.3652629
28.15882839838312	1.9122351	1.3828359
28.176898321866304	1.8540795	1.3616458
28.1949689604978	1.786772	1.3367019
28.213040314811945	1.8191208	1.3487478
28.23111238534327	1.8564737	1.3625247
28.249185172626493	1.9298145	1.3891776
28.267258677196473	1.9622055	1.4007875
28.285332899588294	1.9265219	1.387992
28.303407840337172	1.9139463	1.3834544
28.321483499978545	1.9298469	1.3891892
28.33955987904799	1.9623344	1.4008335
28.357636978081285	1.952013	1.3971446
28.37571479761439	1.9081036	1.3813412
28.393793338183425	1.903991	1.3798518
28.41187260032469	1.963496	1.401248
28.429952584574686	1.9933755	1.4118695
28.448033291470065	1.9652503	1.4018738
28.46611472154769	1.9392322	1.3925632
28.484196875344566	1.9497265	1.3963261
28.502279753397914	1.9989861	1.4138551
28.52036335624511	2.0478818	1.4310422
28.538447684423716	2.0388255	1.4278744
28.556532738471482	2.0329983	1.4258325
28.574618518926325	2.0224257	1.4221201
28.59270502632635	2.03663	1.4271054
28.61079226120985	1.9920505	1.4114002
28.628880224115274	1.9665687	1.402344
28.646968915581287	1.9849321	1.4088762
28.66505833614671	2.0224926	1.4221437
28.68314848635055	2.0540733	1.4332038
28.701239366732004	2.044263	1.4297773
28.71933097783044	2.0698795	1.4387076
28.737423320185403	2.0557592	1.4337919
28.75551639433665	2.07114	1.4391456
28.773610200824074	2.082504	1.4430884
28.791704740187793	2.0709858	1.439092
28.80980001296809	2.0070088	1.4166894
28.827896019705413	2.0175345	1.4203994
28.845992760940433	2.1259484	1.4580632
28.86409023721397	2.1907687	1.4801246
28.88218844906704	2.184714	1.4780779
28.900287397040845	2.1895134	1.4797004
28.918387081676755	2.2414842	1.4971586
28.936487503516343	2.311536	1.5203737
28.954588663101365	2.3540547	1.5342929
28.97269056097374	2.304732	1.5181344
28.990793197675597	2.2952764	1.5150169
29.00889657374923	2.3313808	1.526886
29.027000689737125	2.409843	1.5523669
29.04510554618196	2.448551	1.5647846
29.06321114362659	2.4168346	1.5546172
29.08131748261405	2.4423184	1.5627918
29.099424563687567	2.4748168	1.573155
29.11753238739057	2.519392	1.5872593
29.13564095426663	2.5300324	1.5906075
29.15375026485954	2.5891032	1.6090691
29.171860319713275	2.6021414	1.6131154
29.18997111937199	2.6521509	1.6285425
29.20808266438002	2.73884	1.6549442
29.226194955281898	2.8167584	1.6783202
29.244307992622335	2.8458152	1.6869544
29.26242177694624	2.8732092	1.6950543
29.2805363087987	2.8637955	1.6922753
29.29865158872498	2.9065735	1.7048676
29.316767617270557	2.991112	1.7294831
29.334884394981064	3.054636	1.7477517
29.353001922402367	3.027034	1.7398374
29.37112020008047	3.040396	1.7436731
29.389239228561596	3.1181748	1.7658354
29.407359008392152	3.2420359	1.8005655
29.42547954011872	3.565508	1.8882552
29.44360082428809	4.2575536	2.063384
29.46172286144722	5.3392463	2.3106809
29.479845652143283	6.80495	2.60863
29.497969196923606	8.759216	2.9595973
29.516093496335728	11.082623	3.3290572
29.5342185509274	13.699344	3.7012625
29.55234436124651	15.900595	3.987555
29.570470927841175	17.207695	4.148216
29.588598251259686	16.929474	4.1145444
29.60672633205055	15.654103	3.9565268
29.624855170762405	13.56237	3.6827123
29.642984767944146	10.978338	3.3133576
29.66111512414481	8.466329	2.9096956
29.67924623991366	6.477543	2.5451016
29.697378115800138	5.139236	2.2669883
29.71551075235387	4.2434244	2.0599573
29.733644150124675	3.7664912	1.940745
29.751778309662576	3.5233614	1.877062
29.769913231517766	3.4408445	1.8549514
29.78804891624066	3.383877	1.8395318
29.806185364381818	3.3024247	1.8172574
29.82432257649206	3.3050222	1.8179721
29.842460553122333	3.305069	1.8179848
29.86059929482382	3.269471	1.8081678
29.878738802147872	3.2105868	1.791811
29.896879075646048	3.215413	1.7931573
29.915020115870114	3.2778225	1.8104757
29.933161923371976	3.293926	1.8149177
29.951304498703777	3.2200172	1.7944406
29.969447842417857	3.1977065	1.7882133
29.987591955066733	3.1654751	1.7791783
30.005736837203123	3.201517	1.7892784
30.023882489379943	3.1441648	1.7731793
30.04202891215028	3.0915155	1.7582706
30.060176106067455	3.1523366	1.775482
30.078324071684946	3.223076	1.7952927
30.09647280955646	3.1222646	1.766993
30.114622320235863	3.0747554	1.7534981
30.132772604277257	3.1028852	1.7615008
30.1509236622349	3.083895	1.7561022
30.16907549466328	3.0399845	1.7435551
30.18722810211705	2.981739	1.7267712
30.205381485151097	2.998793	1.7317023
30.22353564432045	3.0555322	1.748008
30.241690580180403	3.0931768	1.7587429
30.25984629328638	2.9790487	1.7259921
30.278002784194037	2.944759	1.71603
30.296160053459246	2.9160461	1.7076434
30.314318101638033	2.9492495	1.717338
30.332476929286646	3.0281363	1.7401541
30.35063653696153	3.0531309	1.747321
30.368796925219307	3.0113893	1.7353355
30.386958094616844	2.9991858	1.7318157
30.40512004571115	2.9870214	1.7283002
30.423282779059463	2.938017	1.7140645
30.441446295219233	2.8564637	1.6901076
30.459610594748067	2.8546383	1.6895674
30.47777567820382	2.8771548	1.6962178
30.495941546144504	2.8771942	1.6962293
30.51410819912835	2.852765	1.689013
30.532275637713795	2.8075142	1.6755638
30.55044386245946	2.833765	1.683379
30.56861287392416	2.8858664	1.6987838
30.586782672666956	2.8069909	1.6754076
30.604953259247047	2.715682	1.6479326
30.623124634223885	2.7485545	1.6578765
30.641296798157075	2.754429	1.6596472
30.659469751606462	2.7503507	1.6584182
30.677643495132074	2.6577852	1.6302716
30.695818029294152	2.6511228	1.6282269
30.713993354653116	2.7621346	1.661967
30.73216947176962	2.7739775	1.6655262
30.75034638120448	2.7094243	1.6460329
30.768524083518756	2.679155	1.6368124
30.786702579273673	2.718364	1.6487461
30.80488186903069	2.834404	1.6835688
30.82306195335144	2.9462976	1.7164782
30.841242832797782	3.070958	1.7524148
30.85942450793176	3.386754	1.8403136
30.877606979315637	3.7022717	1.9241288
30.895790247511883	4.0384526	2.0095901
30.913974313083134	4.4379125	2.1066353
30.932159176592283	4.7726274	2.1846344
30.95034483860237	4.893341	2.2120898
30.968531299676698	4.7461853	2.178574
30.98671856037873	4.4141994	2.1009996
31.00490662127215	4.0210977	2.0052674
31.023095482920848	3.5357957	1.8803712
31.04128514588892	3.0640988	1.7504567
31.059475610740662	2.7687602	1.6639591
31.07766687804056	2.6131563	1.616526
31.09585894835335	2.6180236	1.6180308
31.11405182224393	2.6001666	1.6125032
31.132245500277417	2.5494668	1.596705
31.15043998301914	2.497586	1.5803753
31.168635271034628	2.4776251	1.5740473
31.18683136488964	2.5255573	1.5892003
31.20502826515008	2.5298276	1.5905432
31.223225972382135	2.4390209	1.5617365
31.241424487152155	2.4090338	1.5521063
31.259623810026692	2.3827827	1.5436264
31.27782394157253	2.3609154	1.536527
31.296024882356644	2.38149	1.5432076
31.314226632946237	2.4380357	1.561421
31.332429193908684	2.421034	1.5559672
31.350632565811598	2.423818	1.5568616
31.368836749222787	2.545411	1.5954344
31.387041744710295	2.564988	1.601558
31.40524755284232	2.5794172	1.6060565
31.423454174187317	2.5589092	1.5996591
31.441661609313922	2.504234	1.5824772
31.459869858791002	2.433065	1.5598285
31.478078923187628	2.4432576	1.5630924
31.496288803073064	2.3722835	1.5402219
31.514499499016807	2.3022773	1.5173258
31.532711011588546	2.2912679	1.5136935
31.550923341358178	2.2735007	1.5078132
31.56913648889584	2.2915325	1.5137808
31.587350454771844	2.3727822	1.5403838
31.605565239556732	2.4133596	1.5534991
31.62378084382127	2.3899107	1.5459336
31.641997268136382	2.3043466	1.5180074
31.660214513073274	2.2934005	1.5143977
31.67843257920331	2.3115082	1.5203645
31.6966514670981	2.3348918	1.5280353
31.71487117732944	2.28011	1.5100033
31.733091710469346	2.2565145	1.50217
31.751313067090052	2.3073108	1.5189835
31.769535247764008	2.2705739	1.5068424
31.787758253063878	2.2865686	1.5121404
31.805982083562526	2.3205342	1.52333
31.824206739833024	2.275548	1.508492
31.84243222244869	2.211492	1.4871086
31.860658531983013	2.1986706	1.4827915
31.878885669009737	2.224958	1.4916292
31.897113634102784	2.2074213	1.4857394
31.91534242783632	2.1848526	1.4781247
31.933572050784694	2.1964245	1.4820338
31.951802503522508	2.1767821	1.4753922
31.970033786624548	2.1372848	1.4619455
31.988265900665834	2.0911014	1.4460641
32.006498846221575	2.1087492	1.4521533
32.02473262386724	2.137242	1.461931
32.04296723417845	2.1419275	1.4635326
32.0612026777311	2.162213	1.4704466
32.07943895510129	2.2041228	1.4846288
32.097676066865304	2.243553	1.4978495
32.115914013599685	2.2084086	1.4860716
32.13415279588115	2.136939	1.4618273
32.152392414286666	2.0989268	1.4487673
32.1706328693934	2.097187	1.4481667
32.18887416177875	2.0687447	1.4383131
32.20711629202032	2.0756059	1.4406964
32.225359260695924	2.1150677	1.4543272
32.243603068383614	2.1322114	1.4602094
32.26184771566166	2.0974185	1.4482467
32.28009320310852	2.0497944	1.4317104
32.2983395313029	2.0444865	1.4298555
32.31658670082372	2.0914233	1.4461753
32.33483471225012	2.1973221	1.4823368
32.35308356616143	2.1674178	1.4722153
32.371333263137245	2.1886084	1.4793946
32.38958380375734	2.1536303	1.4675252
32.407835188601744	2.208759	1.4861895
32.42608741825067	2.2340803	1.494684
32.444340493284585	2.2002265	1.4833161
32.46259441428416	2.0706832	1.4389869
32.48084918183028	2.0473154	1.4308443
32.49910479650405	2.1368587	1.4617999
32.51736125888683	2.1413515	1.4633358
32.53561856956014	2.0549777	1.4335194
32.5538767291058	1.9741273	1.4050364
32.572135738105764	2.0035408	1.4154649
32.59039559714228	2.0416508	1.4288634
32.608656306797776	1.9776621	1.4062937
32.62691786765491	1.9701992	1.4036379
32.645180280296586	2.0720546	1.4394633
32.663443545305896	2.0564115	1.4340193
32.68170766326619	1.9933046	1.4118444
32.69997263476099	1.9627134	1.4009687
32.7182384603741	1.9787571	1.4066831
32.7365051406895	1.9771088	1.406097
32.75477267629144	1.9038513	1.3798012
32.77304106776434	1.9229369	1.3867
32.79131031569289	2.0125904	1.418658
32.809580420661966	1.9835776	1.4083954
32.827851383256714	1.9812274	1.4075608
32.84612320406245	2.054522	1.4333605
32.86439588366476	2.1528761	1.4672682
32.88266942264945	2.1528864	1.4672718
32.9009438216025	2.118721	1.4555827
32.9192190811102	2.0547605	1.4334435
32.937495201758985	1.9885306	1.4101527
32.95577218413556	2.009986	1.4177397
32.974050028826866	1.9841874	1.4086119
32.992328736420035	1.9385583	1.3923212
33.010608307502444	1.9467819	1.3952713
33.02888874266169	1.9705988	1.4037802
33.047170042485604	1.9189485	1.3852612
33.06545220756225	2.0139897	1.4191511
33.083735238479896	2.046835	1.4306763
33.10201913582707	1.9890287	1.4103293
33.12030390019248	1.9624689	1.4008814
33.138589532165135	1.9782137	1.4064898
33.15687603233419	2.010098	1.4177792
33.17516340128909	1.9135138	1.3832982
33.19345163961947	1.9078214	1.381239
33.211740747915215	2.0672762	1.4378026
33.23003072676643	2.0701206	1.4387914
33.248321576763466	1.9363421	1.3915251
33.266613298496885	1.8959736	1.3769436
33.28490589255747	1.9738158	1.4049256
33.30319935953626	1.9684566	1.4030169
33.32149370002451	2.0340316	1.4261948
33.339788914613706	1.9962229	1.4128776
33.358085003895575	1.9660459	1.4021575
33.376381968462034	1.8995665	1.3782476
33.39467980890529	1.8483024	1.3595228
33.41297852581774	1.80758	1.3444628
33.43127811979204	1.9323132	1.3900766
33.44957859142105	1.9172606	1.3846518
33.467879941297866	1.8518347	1.3608214
33.486182170015844	1.7776527	1.3332864
33.50448527816853	1.8789327	1.3707417
33.522789266349754	1.9370435	1.3917772
33.541094135153514	1.87954	1.3709631
33.55939988517411	1.8157705	1.3475053
33.57770651700602	1.8010073	1.3420161
33.59601403124398	1.8091745	1.3450556
33.61432242848296	1.9234337	1.3868791
33.632631709318154	2.0451026	1.4300709
33.650941874344994	2.0276096	1.4239416
33.66925292415916	1.8767513	1.3699458
33.68756485935654	1.7820566	1.3349369
33.70587768053328	1.8333577	1.3540154
33.724191388285746	1.971653	1.4041556
33.74250598321054	2.0716507	1.4393231
33.760821465904506	2.0937839	1.4469913
33.77913783696474	2.021492	1.4217918
33.79745509698852	1.9641393	1.4014776
33.815773246573414	1.9148071	1.3837656
33.8340922863172	1.8131418	1.3465296
33.852412216817896	1.8868418	1.3736236
33.87073303867377	1.9259468	1.3877848
33.889054752483304	1.889283	1.3745118
33.907377358845245	1.8813865	1.3716364
33.92570085835853	1.7685992	1.3298869
33.94402525162239	1.7000761	1.3038697
33.96235053923627	1.7857138	1.336306
33.980676721799824	1.8960782	1.3769816
33.999003799912984	1.9727654	1.4045517
34.01733177417592	1.9573573	1.3990558
34.03566064518901	1.9444268	1.3944271
34.0539904135529	1.9646597	1.4016632
34.07232107986846	1.9906636	1.4109088
34.090652644736785	2.033026	1.4258422
34.108985108759235	2.0307498	1.4250438
34.12731847253742	1.9170606	1.3845795
34.14565273667313	1.822464	1.3499867
34.16398790176847	1.8135209	1.3466703
34.18232396842574	1.8532172	1.3613292
34.20066093724749	1.9509208	1.3967537
34.21899880883651	1.96422	1.4015063
34.23733758379583	2.0122073	1.418523
34.25567726272874	1.9243038	1.3871927
34.27401784623872	1.8562754	1.362452
34.29235933492957	1.8870927	1.3737149
34.31070172940526	1.8751717	1.369369
34.32904503027003	1.8654426	1.3658121
34.347389238128386	1.9701501	1.4036204
34.36573435358502	2.0843549	1.4437295
34.38408037724492	2.1186726	1.455566
34.402427309713296	2.1030748	1.4501982
34.42077515159559	2.1202362	1.4561031
34.43912390349752	2.1868415	1.4787973
34.45747356602499	2.017706	1.4204597
34.47582413978423	1.7292349	1.3150038
34.49417562538163	1.723389	1.3127791
34.51252802342388	1.8249749	1.3509163
34.53088133451789	1.9030855	1.3795236
34.54923555927084	2.0734894	1.4399616
34.567590698290104	2.1177487	1.4552487
34.58594675218336	2.0140536	1.4191736
34.6043037215585	1.9984238	1.4136562
34.62266160702365	2.007251	1.4167749
34.641020409187234	1.9845247	1.4087316
34.65938012865785	1.999306	1.4139682
34.677740766044394	2.0924804	1.4465408
34.69610232195598	2.052185	1.432545
34.714464797002016	1.9854281	1.4090523
34.73282819179208	2.1141455	1.4540101
34.751192506936064	2.156155	1.4683852
34.76955774304408	2.0931394	1.4467686
34.7879239007265	1.9508142	1.3967155
34.80629098059391	1.923042	1.386738
34.824658983257194	1.9609145	1.4003266
34.843027909327446	1.9885215	1.4101495
34.86139775941603	2.0934966	1.446892
34.879768534134534	2.1215022	1.4565377
34.89814023409483	1.9372187	1.39184
34.91651285990901	2.0943003	1.4471698
34.93488641218944	2.2857394	1.5118662
34.95326089154871	2.144436	1.4643892
34.97163629859967	1.985005	1.408902
34.99001263395542	1.9867737	1.4095296
35.00838989822934	1.7985888	1.3411148
35.02676809203499	1.8123586	1.3462387
35.04514721598624	2.0214572	1.4217796
35.063527270697215	1.9854723	1.4090679
35.081908256782256	1.7192204	1.3111905
35.10029017485597	1.8888613	1.3743585
35.11867302553321	2.152277	1.467064
35.137056809429104	2.2796133	1.5098388
35.155441527159006	2.2955625	1.5151113
35.173827179338524	2.2666497	1.5055397
35.19221376658354	2.3971727	1.5482806
35.21060128951017	2.56783	1.602445
35.2289897487348	2.2998629	1.5165299
35.24737914487405	2.1691048	1.4727881
35.26576947854479	2.350969	1.533287
35.28416075036418	2.563606	1.6011264
35.30255296094958	2.3275287	1.525624
35.32094611091867	2.294498	1.51476
35.33934020088932	2.2196805	1.4898592
35.35773523147969	1.9129289	1.3830868
35.3761312033082	1.8518951	1.3608435
35.394528116993506	2.3256154	1.5249969
35.41292597315452	2.353774	1.5342015
35.431324772410434	2.1499927	1.4662853
35.449724515380666	2.3158042	1.5217767
35.46812520268491	2.2481966	1.4993987
35.486526834943106	1.9241036	1.3871206
35.504929412775454	1.8043052	1.3432443
35.52333293680242	2.1961975	1.4819573
35.54173740764471	2.2914908	1.5137671
35.560142825923286	1.8280627	1.3520586
35.5785491922594	1.9888604	1.4102696
35.59695650727454	2.090378	1.445814
35.61536477159042	2.2280354	1.4926605
