0.008763373481513119	0.051685803	0.22734512
0.026290120649546365	0.33056164	0.5749449
0.043816868432600686	0.24927503	0.4992745
0.06134361724069026	0.17206512	0.41480732
0.07887036748382949	0.070537224	0.26558846
0.0963971195720331	0.056627702	0.23796576
0.11392387391531617	0.046409275	0.21542811
0.1314506309236943	0.077391006	0.2781924
0.1489773910071836	0.092011295	0.30333364
0.16650415457580078	0.11575205	0.34022352
0.18403092203956356	0.14327686	0.3785193
0.20155769380849	0.20784277	0.45589775
0.2190844702925996	0.17996874	0.42422724
0.2366112519019124	0.2203764	0.46944264
0.2541380390464497	0.17005865	0.41238168
0.27166483213623416	0.19397572	0.44042674
0.28919163158128947	0.20952845	0.45774278
0.3067184377916406	0.18258047	0.42729437
0.324245251177314	0.10925144	0.33053204
0.34177207214833777	0.10833933	0.3291494
0.3592989011147415	0.13560604	0.36824724
0.37682573848655654	0.20329523	0.45088273
0.39435258467381573	0.2680689	0.5177537
0.41187944008655414	0.2413858	0.4913103
0.42940630513480854	0.2055722	0.4534007
0.446933180228618	0.11772991	0.34311792
0.4644600657780234	0.090883166	0.30146834
0.48198696219306775	0.14430006	0.37986848
0.49951386988379676	0.21847478	0.46741286
0.5170407892602581	0.23879106	0.4886625
0.5345677207325025	0.2754008	0.5247864
0.5520946647105822	0.22756422	0.47703692
0.5696216216045534	0.16761513	0.40940827
0.5871485918244737	0.11347068	0.3368541
0.6046755757804043	0.11907986	0.34507948
0.6222025738824094	0.16410083	0.4050936
0.6397295865405557	0.15143265	0.38914347
0.6572566141649129	0.13607387	0.3688819
0.6747836571655547	0.09971584	0.31577814
0.6923107159525568	0.124223076	0.35245293
0.7098377909359992	0.1481958	0.38496208
0.7273648825259653	0.15976605	0.39970747
0.7448919911325411	0.14482756	0.38056216
0.762419117165817	0.12979631	0.36027256
0.7799462610358868	0.14973266	0.38695306
0.7974734231528482	0.17213133	0.41488713
0.8150006039268024	0.18740304	0.43290073
0.8325278037678551	0.18571281	0.4309441
0.8500550230861152	0.17690109	0.42059612
0.8675822622916969	0.19168207	0.4378151
0.8851095217947171	0.20258062	0.45008957
0.9026368020052984	0.20563297	0.45346773
0.9201641033335665	0.21388055	0.46247223
0.9376914261896523	0.22749142	0.4769606
0.9552187709836915	0.24737401	0.49736708
0.9727461381258234	0.26451898	0.51431406
0.990273528026193	0.25191683	0.5019132
1.0078009410949496	0.22465323	0.473976
1.0253283777422473	0.2331058	0.48281032
1.0428558383782454	0.27792796	0.5271887
1.0603833234131086	0.3144101	0.5607228
1.0779108332570058	0.3210452	0.5666085
1.0954383683201119	0.29486707	0.5430166
1.112965929012607	0.33420053	0.5781008
1.1304935157446763	0.46487567	0.6818179
1.1480211289265108	0.53251225	0.72973436
1.1655487689683062	1.3948771	1.1810491
1.1830764362802655	1.6967961	1.3026112
1.200604131272596	2.148348	1.4657245
1.2181318543555117	2.4379616	1.5613973
1.235659605939232	2.4239767	1.5569125
1.253187386433982	3.8596141	1.9645901
1.270715196249994	6.1499257	2.4799044
1.2882430357975057	11.525386	3.3949058
1.3057709054867608	16.416733	4.051757
1.3232988057280106	22.391218	4.731936
1.3408267369315112	27.639639	5.2573414
1.358354699507526	31.243649	5.589602
1.3758826938663256	35.270264	5.938877
1.3934107204181858	36.752167	6.0623565
1.410938779573391	37.369526	6.113062
1.4284668717422309	37.89336	6.1557584
1.4459949973350033	37.29964	6.107343
1.4635231567620117	37.228012	6.101476
1.4810513504335687	36.526867	6.043746
1.4985795787599925	36.154224	6.0128384
1.5161078421516088	36.52274	6.0434046
1.5336361410187505	35.6713	5.9725456
1.5511644757717598	35.60103	5.9666595
1.5686928468209842	35.78994	5.9824696
1.58622125457678	36.286312	6.0238123
1.6037496994495108	37.241543	6.102585
1.621278181849548	37.160183	6.0959153
1.6388067021872719	37.81883	6.1497016
1.6563352608730693	37.36612	6.1127834
1.673863858317336	36.391697	6.032553
1.6913924949304753	35.5607	5.9632792
1.7089211711228998	34.347504	5.8606744
1.7264498873050296	33.724445	5.8072753
1.7439786438872935	32.921665	5.7377405
1.7615074412801288	32.02801	5.6593294
1.779036279893981	30.930693	5.561537
1.796565160139305	30.07461	5.484032
1.814094082426564	29.372107	5.419604
1.8316230471662298	28.751575	5.3620496
1.849152054768784	28.042479	5.295515
1.8666811056447168	27.730904	5.266014
1.8842102002045273	27.030201	5.1990576
1.901739338858724	26.25034	5.1235085
1.9192685220178245	25.75707	5.0751424
1.9367977500923557	24.85852	4.985832
1.9543270234928547	24.55045	4.954841
1.971856342629867	23.941126	4.8929667
1.9893857079139496	23.385153	4.8358197
2.006915119755667	22.592274	4.753133
2.0244445785655945	21.991732	4.689534
2.0419740847543175	21.631418	4.650959
2.0595036387324317	21.190214	4.603283
2.0770332409105414	20.85918	4.5671854
2.094562891699263	20.381409	4.5145774
2.1120925915092217	19.965624	4.468291
2.129622340751053	19.666872	4.434735
2.1471521398354043	187.8028	13.704116
2.1646819891729323	444.17834	21.075539
2.182211889174303	440.27292	20.982681
2.1997418402501974	452.46634	21.271255
2.2172718428113023	432.4295	20.794939
2.234801897268317	320.5709	17.904493
2.2523320040319548	17.108053	4.136188
2.269862163512935	16.828775	4.102289
2.287392376121992	16.37429	4.046516
2.304922642269869	16.210575	4.026236
2.322452962367322	16.07388	4.0092244
2.3399833368251164	15.823005	3.977814
2.357513766054032	15.592574	3.9487433
2.3750442504648586	15.262296	3.906699
2.3925747904683963	14.890835	3.8588645
2.410105386475459	14.522625	3.810856
2.4276360388968707	14.114721	3.7569563
2.445166748143469	14.014597	3.7436075
2.4626975146261025	13.905534	3.7290125
2.4802283387556323	13.681927	3.6989088
2.4977592209429305	13.522597	3.6773083
2.5152901615988825	13.256615	3.6409633
2.5328211611343865	12.906327	3.5925376
2.5503522199603523	12.516207	3.537825
2.5678833384877024	12.400068	3.521373
2.5854145171273712	12.3014145	3.5073373
2.6029457562903064	12.14831	3.4854426
2.620477056387469	11.883937	3.4473085
2.6380084178298326	11.688858	3.4188972
2.655539841028383	11.410026	3.377873
2.673071326394119	11.124877	3.3353975
2.6906028743380523	10.967815	3.3117692
2.708134485271211	11.010635	3.3182278
2.7256661596046325	11.014958	3.3188791
2.743197897749369	10.834962	3.2916503
2.760729700116486	10.645168	3.2626934
2.778261567117063	10.330957	3.2141807
2.795793499162193	10.268941	3.2045188
2.8133254966629817	10.175737	3.189943
2.830857560030551	10.114127	3.1802716
2.8483896896760337	9.952072	3.1546905
2.865921886010578	9.822072	3.1340184
2.883454149445347	9.469513	3.0772574
2.9009864803915177	9.264144	3.0437057
2.91851887926028	9.140118	3.0232627
2.9360513464628384	9.1612625	3.0267577
2.953583882410413	9.279913	3.046295
2.9711164875142373	9.148061	3.0245762
2.9886491621855606	8.874413	2.9789953
3.0061819068356455	8.643007	2.9398992
3.023714721875769	8.495036	2.9146245
3.041247607717225	8.447438	2.9064476
3.0587805647713213	8.421964	2.902062
3.0763135934493806	8.421202	2.9019306
3.0938466941627407	8.273919	2.8764422
3.1113798673227544	8.136094	2.8523839
3.1289131133407904	8.015182	2.8311095
3.1464464326282315	7.998007	2.8280747
3.1639798255964786	7.9553747	2.8205273
3.1815132926569443	7.7772627	2.7887745
3.1990468342210603	7.7191467	2.7783353
3.216580450700272	7.5264025	2.743429
3.2341141425060416	7.4692006	2.7329838
3.251647910049847	7.4278755	2.7254128
3.2691817537431813	7.345527	2.7102633
3.286715673997555	7.2330613	2.6894352
3.3042496712244938	7.169888	2.6776648
3.32178374583554	7.0195045	2.6494348
3.339317898242251	6.9076686	2.6282444
3.3568521288562034	6.8160434	2.6107554
3.3743864380889876	6.8281693	2.6130767
3.3919208263522127	6.756095	2.599249
3.4094552940575023	6.7278843	2.5938165
3.4269898416164972	6.6881394	2.5861437
3.444524469440858	6.535111	2.5563862
3.4620591779422587	6.57622	2.5644143
3.479593967532391	6.500887	2.5496836
3.4971288386229658	6.474443	2.5444927
3.5146637916257086	6.4205923	2.5338888
3.5321988269523628	6.3225594	2.51447
3.5497339450146903	6.3231893	2.5145953
3.5672691462244708	6.3391614	2.517769
3.5848044309934988	6.1975627	2.4894905
3.60233979973359	6.225458	2.495087
3.619875252856575	6.270026	2.504002
3.6374107907743034	6.355687	2.5210488
3.6549464138986427	6.4028764	2.5303905
3.6724821226414788	6.3591566	2.5217369
3.690017917414714	6.3247914	2.5149138
3.7075537986302702	6.3203726	2.5140352
3.7250897667000857	6.351936	2.5203047
3.7426258220361235	6.4808574	2.5457528
3.7601619650503553	6.7584915	2.59971
3.777698196154779	7.2298274	2.688834
3.7952345157614067	8.236414	2.8699152
3.8127709242822716	9.06314	3.010505
3.830307422129425	11.384413	3.3740795
3.847844009714936	30.28762	5.503419
3.8653806874508954	97.839165	9.891368
3.882917455749409	97.05298	9.851547
3.900454315022606	96.75532	9.836428
3.917991265682631	41.342724	6.4298306
3.9355283081416506	10.989374	3.3150225
3.9530654428118495	8.818863	2.969657
3.970602670105433	7.6436877	2.764722
3.9881399904346244	6.7112	2.5905983
4.005677404211669	6.5944066	2.5679576
4.023214911848827	6.404943	2.530799
4.0407525137583855	6.335916	2.5171247
4.058290210352644	6.414733	2.5327322
4.075828002043927	6.4197435	2.5337212
4.0933658892445814	6.342514	2.5184348
4.110903872366966	6.2200756	2.4940078
4.128441951823468	6.134299	2.4767516
4.145980128026488	6.1491976	2.4797575
4.163518401388452	6.1542172	2.4807694
4.181056772321807	6.0780582	2.4653718
4.1985952412390155	6.139348	2.4777708
4.216133808552567	6.153863	2.480698
4.233672474674966	6.1996613	2.4899118
4.251211240018741	6.351647	2.5202475
4.268750104996445	6.5636854	2.561969
4.286289070020643	7.5916233	2.75529
4.303828135503928	9.194714	3.0322785
4.3213673018589125	29.48459	5.4299717
4.3389065694982305	90.69357	9.523317
4.356445938834537	166.01305	12.884605
4.3739854102805085	171.78429	13.10665
4.391524984248844	172.71802	13.142222
4.409064661152262	136.70184	11.6919565
4.426604441403504	96.94099	9.845861
4.444144325415337	75.68381	8.699644
4.461684313600543	21.561647	4.643452
4.47922440637193	21.875568	4.6771326
4.496764604142329	20.298382	4.5053725
4.5143049073245916	18.735493	4.3284516
4.531845316331589	16.745434	4.0921183
4.5493858315762195	13.972915	3.7380362
4.566926453471405	11.550596	3.3986168
4.584467182430081	9.563345	3.0924659
4.602008018865218	8.279632	2.877435
4.619548963189798	7.4749203	2.73403
4.637090015816834	6.918334	2.6302726
4.654631177159353	6.7306895	2.5943573
4.672172447630417	6.533288	2.5560298
4.689713827643102	6.3780675	2.5254836
4.7072553176105085	6.1953654	2.4890492
4.724796917945764	5.9931283	2.4480867
4.742338629062015	5.9448915	2.4382148
4.759880451372434	5.8295074	2.4144373
4.777422385290215	5.7425213	2.3963559
4.794964431228581	5.673023	2.381811
4.812506589600768	5.673189	2.3818457
4.830048860820047	5.7430086	2.3964574
4.847591245299709	5.735994	2.3949935
4.8651337434530655	5.6618085	2.3794556
4.882676355693457	5.507759	2.3468616
4.900219082434242	5.446114	2.3336911
4.917761924088813	5.4696975	2.3387384
4.935304881070575	5.5214543	2.3497775
4.952847953792969	5.5499587	2.355835
4.970391142669449	5.544544	2.3546855
4.9879344481135055	5.561398	2.3582616
5.005477870538642	5.5448327	2.3547468
5.023021410358394	5.515187	2.3484435
5.040565067986324	5.5307684	2.3517585
5.05810884383601	5.501784	2.3455882
5.075652738321066	5.458061	2.3362494
5.09319675185512	5.423782	2.3289015
5.110740884851836	5.4031267	2.3244627
5.128285137724894	5.3730946	2.3179936
5.145829510888007	5.2758	2.296911
5.163374004754908	5.2272964	2.286328
5.1809186197393595	5.248612	2.2909849
5.198463356255145	5.2842765	2.2987554
5.216008214716077	5.322607	2.3070776
5.233553195535998	5.3212767	2.3067892
5.251098299128764	5.3339143	2.309527
5.268643525908272	5.3310776	2.3089128
5.286188876288432	5.329608	2.3085945
5.3037343506831895	5.366921	2.3166616
5.32127994950651	5.287168	2.2993844
5.3388256731723915	5.251107	2.2915294
5.356371522094851	5.1605105	2.2716758
5.373917496687938	5.1451178	2.2682853
5.391463597365729	5.157627	2.271041
5.40900982454232	5.175231	2.2749133
5.426556178631843	5.1337028	2.2657676
5.444102660048449	5.147963	2.2689123
5.4616492692063225	5.1365204	2.2663894
5.479196006519669	5.1993785	2.2802145
5.496742872402727	5.1589327	2.2713284
5.514289867269756	5.1846824	2.2769897
5.531836991535049	5.1668434	2.2730691
5.549384245612924	5.193706	2.2789705
5.566931629917724	5.195328	2.2793262
5.584479144863822	5.193215	2.2788627
5.6020267908656205	5.1999683	2.280344
5.619574568337545	5.1603518	2.2716408
5.637122477694054	5.147536	2.2688181
5.654670519349629	5.131427	2.2652652
5.672218693718784	5.1367683	2.266444
5.689767001216059	5.1338773	2.2658062
5.707315442256021	5.106265	2.2597046
5.724864017253266	5.1019287	2.258745
5.7424127266224225	5.1234455	2.2635028
5.75996157077814	5.2065806	2.2817934
5.777510550135105	5.232522	2.2874706
5.795059665108022	5.1879854	2.277715
5.812608916111639	5.228001	2.2864823
5.830158303560715	5.353371	2.3137352
5.847707827870055	5.408102	2.3255327
5.86525748945448	5.4360614	2.3315363
5.8828072887288485	5.471048	2.3390272
5.900357226108044	5.4977674	2.3447318
5.917907302006979	5.594164	2.3651984
5.9354575168406	6.1497016	2.479859
5.9530078710238765	6.63199	2.575265
5.970558364971812	7.1515703	2.674242
5.988108999099438	7.504973	2.7395205
6.005659773821818	8.15544	2.8557732
6.023210689554039	7.9471464	2.8190684
6.040761746711227	8.301593	2.8812485
6.058312945708531	7.6687136	2.7692442
6.075864286961132	7.2333307	2.6894853
6.093415770884244	6.6126246	2.5715024
6.1109673978931065	6.049125	2.459497
6.128519168402993	5.4632087	2.3373508
6.146071082829204	5.3218703	2.306918
6.163623141587075	5.2086625	2.2822495
6.181175345091969	5.174607	2.2747762
6.198727693759281	5.107817	2.2600482
6.216280188004435	5.1164784	2.2619634
6.233832828242885	5.152762	2.2699697
6.251385614890126	5.206393	2.281752
6.268938548361669	5.235598	2.288143
6.286491629073067	5.172598	2.2743347
6.304044857439898	5.1406746	2.2673056
6.321598233877777	5.080531	2.2540033
6.339151758802344	4.9851756	2.2327507
6.356705432629277	4.986029	2.2329419
6.37425925577428	4.9768395	2.2308831
6.391813228653095	4.9448156	2.223694
6.409367351681486	4.9622107	2.227602
6.426921625275259	4.977914	2.231124
6.44447604985025	5.061975	2.2498834
6.46203062582232	5.0812907	2.2541718
6.47958535360737	5.1401753	2.2671955
6.497140233621328	5.154188	2.2702837
6.514695266280161	5.0555706	2.2484596
6.532250451999859	5.048122	2.2468026
6.549805791196454	5.0517726	2.2476149
6.567361284286002	5.096781	2.257605
6.584916931684597	5.08757	2.2555642
6.602472733808367	5.041044	2.245227
6.6200286910734665	5.008238	2.2379093
6.637584803896092	4.9749665	2.2304633
6.655141072692462	4.9324994	2.2209232
6.672697497878842	4.968346	2.2289786
6.690254079871514	4.9732423	2.2300768
6.707810819086808	4.9969444	2.2353847
6.725367715941078	4.9616647	2.2274795
6.742924770850719	4.972225	2.2298486
6.760481984232151	4.9762654	2.2307544
6.778039356501836	4.955114	2.2260084
6.795596888076266	4.987453	2.2332606
6.813154579371963	5.0040407	2.2369714
6.830712430805492	5.0577035	2.2489338
6.84827044279344	5.0485654	2.2469013
6.865828615752445	5.059501	2.2493334
6.883386950099159	5.020003	2.2405362
6.900945446250287	4.988978	2.233602
6.918504104622553	5.019316	2.2403831
6.936062925632727	5.109269	2.2603693
6.953621909697607	5.0798635	2.2538552
6.971181057234028	5.052908	2.2478673
6.988740368658859	5.0072293	2.237684
7.006299844389007	5.06751	2.2511132
7.023859484841407	5.194236	2.2790866
7.041419290433036	5.365444	2.3163428
7.058979261580902	5.4899244	2.3430588
7.0765393987020495	5.6689286	2.3809512
7.094099702213559	6.0289235	2.4553866
7.111660172532549	6.381242	2.526112
7.129220810076164	6.696424	2.587745
7.146781615261595	7.254691	2.6934533
7.16434258850606	7.485577	2.7359784
7.181903730226821	8.009678	2.8301375
7.1994650408411704	8.176999	2.8595452
7.217026520766437	8.32408	2.8851483
7.234588170419983	8.572175	2.9278276
7.252149990219215	8.592099	2.9312282
7.269711980581568	8.437604	2.9047554
7.2872741419245175	8.189353	2.8617046
7.304836474665574	7.690358	2.7731495
7.322398979222286	7.3560104	2.7121966
7.339961656012233	7.1322355	2.6706245
7.357524505453039	6.742968	2.5967226
7.375087527962357	6.443844	2.5384727
7.392650723957886	6.1622066	2.4823792
7.410214093857353	5.9194574	2.4329934
7.427777638078528	5.783747	2.4049423
7.445341357039213	5.5901165	2.3643427
7.4629052511572525	5.4424286	2.3329012
7.480469320850524	5.355987	2.3143005
7.498033566536948	5.3192806	2.3063567
7.5155979886344735	5.2907257	2.3001578
7.5331625875610975	5.220663	2.284877
7.550727363734844	5.125845	2.2640328
7.568292317573788	5.070946	2.251876
7.585857449496025	5.033424	2.2435293
7.603422759919705	5.13157	2.265297
7.620988249263007	5.207032	2.2818923
7.638553917944147	5.291394	2.300303
7.656119766381391	5.234669	2.28794
7.673685794993023	5.2428184	2.28972
7.691252004197388	5.2294817	2.286806
7.70881839441285	5.211792	2.282935
7.726384966057826	5.2387433	2.28883
7.743951719550762	5.2497907	2.2912421
7.761518655310149	5.2799726	2.2978191
7.779085773754511	5.274028	2.2965252
7.796653075302419	5.246894	2.2906098
7.814220560372475	5.2546196	2.2922957
7.831788229383323	5.229384	2.2867846
7.8493560827536495	5.317378	2.305944
7.866924120902174	5.3284636	2.3083465
7.884492344247663	5.3364453	2.3100748
7.9020607532089135	5.291334	2.30029
7.919629348204771	5.284697	2.298847
7.937198129654115	5.3323126	2.30918
7.954767097975865	5.381704	2.31985
7.972336253588986	5.384746	2.3205056
7.989905596912472	5.3969607	2.3231359
8.007475128365371	5.4659667	2.3379407
8.025044848366756	5.4655843	2.337859
8.042614757335754	5.5695806	2.3599958
8.060184855691523	5.5915294	2.3646414
8.07775514385327	5.719908	2.391633
8.095325622240228	5.7790813	2.403972
8.112896291271687	5.8431373	2.4172583
8.130467151366968	5.908564	2.4307537
8.148038202945436	5.9295306	2.4350626
8.165609446426497	5.936942	2.436584
8.183180882229594	5.966181	2.4425766
8.200752510774217	5.9827266	2.4459612
8.218324332479893	6.0249195	2.4545712
8.235896347766193	6.007246	2.4509683
8.253468557052724	6.0052094	2.450553
8.27104096075914	6.0136113	2.4522665
8.288613559305137	6.05706	2.4611094
8.306186353110448	6.1645093	2.482843
8.32375934259485	6.2808676	2.506166
8.341332528178162	6.316157	2.5131965
8.358905910280246	6.328622	2.5156753
8.376479489321003	6.2793264	2.5058584
8.394053265720377	6.2271137	2.4954185
8.411627239898356	6.239384	2.497876
8.42920141227497	6.312522	2.5124733
8.44677578327029	6.353754	2.5206654
8.464350353304427	6.3159695	2.5131593
8.48192512279754	6.252141	2.5004282
8.499500092169827	6.1801715	2.485995
8.51707526184153	6.141165	2.4781373
8.534650632232934	6.185848	2.4871366
8.552226203764365	6.1828537	2.4865344
8.569801976856192	6.2518	2.50036
8.587377951928834	6.2867885	2.5073469
8.60495412940274	6.316701	2.5133047
8.622530509698416	6.33051	2.5160506
8.6401070932364	6.4500394	2.5396929
8.657683880437283	6.5373907	2.556832
8.675260871721695	6.6852326	2.5855818
8.692838067510303	6.846777	2.6166346
8.710415468223834	7.0220547	2.649916
8.727993074283043	7.1799	2.6795335
8.745570886108737	7.131138	2.670419
8.763148904121765	7.186926	2.6808443
8.78072712874302	7.1970806	2.6827376
8.798305560393441	7.5033727	2.7392285
8.815884199494006	7.6134934	2.759256
8.833463046465745	7.7320943	2.7806644
8.851042101729728	7.899731	2.810646
8.86862136570707	8.152419	2.8552442
8.886200838818924	8.253832	2.8729482
8.903780521486505	8.270465	2.8758416
8.921360414131055	8.444083	2.9058704
8.938940517173874	8.663948	2.9434586
8.956520831036297	8.836156	2.9725673
8.97410135613971	9.0516405	3.0085945
8.99168209290554	9.175493	3.0291076
9.009263041755265	9.455873	3.0750403
9.026844203110405	9.736801	3.1203847
9.044425577392525	9.960077	3.1559591
9.062007165023239	10.093542	3.1770334
9.079588966424197	10.382396	3.2221725
9.097170982017108	10.4940815	3.239457
9.11475321222372	11.29763	3.3611948
9.132335657465825	12.046393	3.4707916
9.149918318165264	12.058979	3.472604
9.167501194743924	12.677592	3.5605607
9.18508428762374	12.392529	3.5203023
9.202667597226693	12.467518	3.5309372
9.220251123974803	12.1346445	3.4834816
9.237834868290143	11.811937	3.4368498
9.255418830594836	11.615579	3.4081635
9.273003011311046	11.083352	3.329167
9.290587410860985	10.94357	3.3081067
9.308172029666911	10.218394	3.1966224
9.32575686815113	9.957664	3.1555765
9.343341926735997	8.757405	2.9592915
9.360927205843916	8.526072	2.9199438
9.378512705897327	8.392081	2.896909
9.396098427318728	8.091032	2.8444738
9.413684370530664	7.9953837	2.827611
9.431270535955722	7.8801637	2.807163
9.448856924016539	7.84691	2.8012338
9.466443535135806	7.79968	2.7927907
9.484030369736251	7.7913227	2.791294
9.501617428240658	7.6952004	2.7740223
9.519204711071852	7.593949	2.755712
9.536792218652714	7.613921	2.7593334
9.55437995140617	7.756002	2.78496
9.571967909755191	7.8645253	2.8043761
9.589556094122802	7.9206276	2.8143609
9.60714450493207	7.8488216	2.801575
9.624733142606116	7.864776	2.8044207
9.642322007568108	7.901195	2.8109064
9.659911100241267	7.946963	2.8190358
9.677500421048851	7.973813	2.8237941
9.695089970414175	7.976613	2.8242898
9.712679748760609	7.9969034	2.8278797
9.730269756511557	8.077669	2.842124
9.747859994090492	8.158851	2.8563702
9.765450461920915	8.190814	2.86196
9.78304116042639	8.183788	2.860732
9.800632090030527	8.225036	2.8679323
9.81822325115699	8.266287	2.8751152
9.835814644229481	8.314176	2.8834312
9.853406269671762	8.284882	2.878347
9.870998127907646	8.268811	2.875554
9.888590219360985	8.262189	2.8744023
9.906182544455698	8.319504	2.884355
9.923775103615734	8.375302	2.8940115
9.941367897265108	8.404447	2.8990424
9.958960925827878	8.356562	2.8907719
9.97655418972816	8.301658	2.8812597
9.994147689390106	8.258886	2.873828
10.011741425237934	8.192815	2.8623095
10.029335397695904	8.185411	2.8610158
10.04692960718833	8.203968	2.864257
10.06452405413958	8.223033	2.867583
10.082118738974064	8.278022	2.877155
10.099713662116246	8.289113	2.879082
10.117308823990651	8.298415	2.880697
10.134904225021844	8.312609	2.8831594
10.152499865634445	8.289494	2.879148
10.170095746253125	8.212351	2.86572
10.18769186730261	8.158355	2.8562834
10.205288229207675	8.131279	2.8515399
10.222884832393145	8.119453	2.8494654
10.2404816772839	8.104082	2.846767
10.258078764304868	8.030305	2.8337793
10.275676093881035	8.049286	2.8371263
10.293273666437438	8.04864	2.8370125
10.310871482399158	8.161731	2.8568742
10.32846954219134	8.204442	2.8643398
10.346067846239173	8.234462	2.8695753
10.363666394967908	8.279026	2.8773296
10.38126518880283	8.25169	2.8725755
10.398864228169298	8.271786	2.8760712
10.416463513492713	8.290033	2.8792417
10.434063045198531	8.266387	2.8751326
10.451662823712262	8.168669	2.8580883
10.469262849459467	8.1589365	2.8563852
10.486863122865758	8.0646715	2.8398366
10.504463644356806	8.035971	2.8347788
10.522064414358338	7.9709954	2.823295
10.539665433296118	7.877636	2.8067126
10.557266701595987	7.767609	2.787043
10.574868219683818	7.724339	2.7792695
10.592469987985552	7.718431	2.7782063
10.610072006927185	7.6431675	2.764628
10.627674276934751	7.535639	2.7451117
10.64527679843435	7.3732667	2.715376
10.662879571852143	7.290285	2.7000527
10.680482597614331	7.229128	2.6887038
10.698085876147173	7.144908	2.672996
10.715689407876988	6.9968996	2.6451654
10.733293193230146	6.9182305	2.6302528
10.750897232633072	6.8093767	2.6094782
10.76850152651225	6.7036204	2.5891352
10.786106075294207	6.5802016	2.5651903
10.803710879405534	6.5262337	2.5546494
10.821315939272877	6.4281626	2.535382
10.83892125532294	6.346051	2.519137
10.856526827982472	6.218132	2.4936182
10.874132657678285	6.2049603	2.4909759
10.891738744837243	6.0779533	2.4653506
10.909345089886271	6.0508	2.4598374
10.926951693252343	6.0179234	2.4531455
10.944558555362494	5.993544	2.4481716
10.96216567664381	5.887113	2.4263375
10.979773057523436	5.8161707	2.4116738
10.997380698428573	5.8102274	2.4104414
11.014988599786477	5.7399516	2.3958197
11.032596762024461	5.6581707	2.378691
11.050205185569892	5.6001267	2.3664587
11.067813870850198	5.564972	2.3590193
11.085422818292859	5.576472	2.3614554
11.10303202832541	5.5275908	2.3510828
11.120641501375454	5.4740653	2.339672
11.138251237870636	5.3910303	2.3218591
11.155861238238671	5.3211308	2.3067577
11.173471502907317	5.2345676	2.2879179
11.191082032304402	5.2016554	2.2807138
11.208692826857805	5.1835265	2.276736
11.226303886995465	5.112927	2.2611783
11.243915213145371	5.012874	2.2389448
11.261526805735578	4.905026	2.2147293
11.279138665194196	4.8346605	2.1987863
11.296750791949393	4.7939267	2.1895037
11.314363186429393	4.7448125	2.1782591
11.331975849062479	4.668679	2.1607127
11.34958878027699	4.681987	2.16379
11.36720198050133	4.635863	2.1531055
11.384815450163948	4.598674	2.1444519
11.402429189693366	4.519053	2.1258063
11.420043199518153	4.4361315	2.1062126
11.437657480066942	63.412342	7.9631867
11.455272031768422	85.10719	9.225356
11.472886855051353	107.519424	10.369158
11.490501950344528	99.121864	9.9559965
11.508117318076819	84.48387	9.191511
11.52573295867715	45.883392	6.773728
11.543348872574514	4.1377234	2.0341394
11.560965060197946	4.1227255	2.0304496
11.57858152197655	4.1138716	2.028268
11.59619825833949	4.118055	2.029299
11.613815269715985	4.0644493	2.016048
11.631432556535323	38.53397	6.2075734
11.649050119226837	83.04619	9.112968
11.666667958219929	93.45559	9.667243
11.68428607394406	107.6967	10.377702
11.701904466828756	82.52417	9.084282
11.719523137303586	65.35296	8.084118
11.737142085798196	4.5925074	2.1430137
11.754761312742286	3.7218893	1.9292198
11.772380818565619	3.6607642	1.9133123
11.790000603698015	3.598298	1.896918
11.80762066856935	3.5941713	1.8958299
11.825241013609572	3.578541	1.8917032
11.842861639248683	3.5839105	1.8931218
11.860482545916748	3.5366542	1.8805994
11.878103734043883	3.5082345	1.8730282
11.895725204060282	3.4888318	1.8678415
11.91334695639619	3.4493523	1.8572432
11.930968991481919	3.4381976	1.8542378
11.948591309747824	3.4134	1.8475388
11.966213911624347	3.3732986	1.8366542
11.98383679754198	3.287187	1.8130602
12.001459967931268	3.2669182	1.8074619
12.019083423222835	3.2421632	1.8006008
12.036707163847352	3.240812	1.8002256
12.05433119023556	3.2406845	1.8001901
12.071955502818259	3.2184792	1.7940121
12.089580102026313	3.2042913	1.7900535
12.107204988290643	3.160622	1.7778138
12.12483016204224	3.1415472	1.772441
12.142455623712152	3.1091926	1.7632903
12.16008137373149	3.094337	1.7590728
12.177707412531431	3.1186924	1.765982
12.19533374054321	3.1260824	1.7680731
12.212960358198126	3.0828247	1.7557975
12.230587265927545	3.0684412	1.7516967
12.248214464162889	3.0175517	1.7371101
12.265841953335649	2.9864037	1.7281214
12.283469733877375	2.9671438	1.7225399
12.301097806219685	2.97422	1.7245927
12.31872617079425	2.973728	1.72445
12.336354828032825	2.9844165	1.7275463
12.353983778367205	2.9467041	1.7165967
12.371613022229262	2.935372	1.7132927
12.389242560050928	2.9179325	1.7081957
12.406872392264201	2.9095984	1.7057545
12.424502519301143	2.9193764	1.7086183
12.442132941593874	2.8670547	1.6932379
12.459763659574586	2.818505	1.6788404
12.477394673675532	2.785227	1.6689
12.49502598432903	2.8028626	1.6741753
12.51265759196746	2.8127441	1.6771238
12.530289497023267	2.7760909	1.6661605
12.547921699928967	2.7507188	1.6585292
12.565554201117134	2.7649524	1.6628146
12.583187001020404	2.7668216	1.6633766
12.600820100071486	2.7965713	1.6722952
12.618453498703152	2.7955942	1.672003
12.636087197348235	2.785919	1.6691072
12.65372119643964	2.7759247	1.6661106
12.671355496410326	2.797228	1.6724916
12.68899009769333	2.834553	1.6836131
12.706625000721749	2.8652508	1.6927052
12.724260205928752	2.932257	1.7123834
12.741895713747551	2.9667974	1.7224394
12.759531524611454	3.01461	1.7362633
12.777167638953818	3.0066903	1.733981
12.794804057208072	3.0271409	1.739868
12.812440779807702	3.071892	1.7526814
12.830077807186271	3.226726	1.796309
12.847715139777405	3.2454517	1.8015137
12.865352778014795	3.4558744	1.8589982
12.882990722332197	3.569657	1.8893536
12.90062897316344	3.6355531	1.9067127
12.918267530942412	3.6605136	1.9132469
12.935906396103071	3.52539	1.8776022
12.953545569079449	3.6935968	1.9218732
12.971185050305628	3.613387	1.9008912
12.988824840215775	3.6718602	1.9162098
13.006464939244115	3.6853192	1.9197185
13.024105347824943	3.5160666	1.8751178
13.041746066392617	3.5446138	1.8827145
13.05938709538157	3.3147228	1.8206381
13.077028435226296	3.2882586	1.8133556
13.094670086361363	3.2218146	1.7949414
13.112312049221401	3.1733665	1.7813946
13.129954324241112	3.083184	1.7558998
13.147596911855258	2.8845687	1.6984018
13.165239812498685	2.8293045	1.6820537
13.182883026606293	2.7779405	1.6667155
13.200526554613058	2.729289	1.652056
13.218170396954017	2.711251	1.6465877
13.235814554064284	2.6962779	1.6420346
13.253459026379034	2.6799219	1.6370467
13.271103814333523	2.650107	1.6279149
13.288748918363058	2.6497505	1.6278055
13.306394338903031	2.6834815	1.6381335
13.32404007638889	2.6865911	1.6390824
13.341686131256164	2.6890397	1.6398292
13.359332503940449	2.665589	1.6326632
13.376979194877402	2.643384	1.6258487
13.394626204502751	2.6663802	1.6329055
13.412273533252307	2.7091384	1.645946
13.429921181561937	2.7224321	1.6499795
13.447569149867581	2.755447	1.6599538
13.465217438605247	2.7313974	1.652694
13.482866048211022	2.7448096	1.6567467
13.500514979121052	2.7385685	1.654862
13.518164231771568	2.6998343	1.6431173
13.535813806598844	2.6524413	1.6286317
13.553463704039254	2.6743648	1.6353486
13.571113924529229	2.6684155	1.6335286
13.588764468505275	2.686469	1.6390451
13.606415336403956	2.7058525	1.6449475
13.624066528661917	2.7381692	1.6547414
13.641718045715882	2.7828286	1.6681812
13.659369888002635	2.7935915	1.671404
13.67702205595903	2.8731997	1.6950516
13.694674550021993	2.9585462	1.7200425
13.712327370628532	3.0466022	1.7454519
13.729980518215713	3.140097	1.7720319
13.747633993220681	3.197064	1.7880335
13.765287796080647	3.2644975	1.806792
13.7829419272329	3.3116324	1.819789
13.800596387114801	3.3160048	1.8209901
13.818251176163775	3.3027716	1.8173529
13.835906294817324	3.3373303	1.8268361
13.853561743513023	3.3854322	1.8399544
13.871217522688525	3.426972	1.8512082
13.888873632781538	3.4525015	1.8580909
13.906530074229858	3.4677632	1.8621931
13.92418684747135	3.4984694	1.8704196
13.941843952943948	3.5124831	1.874162
13.959501391085665	3.5084085	1.8730747
13.977159162334578	3.4748924	1.8641063
13.994817267128846	3.3950455	1.842565
14.012475705906693	3.2883625	1.8133843
14.030134479106424	3.210461	1.791776
14.047793587166414	3.1597934	1.7775807
14.065453030525108	3.0792155	1.7547693
14.083112809621026	2.9753802	1.7249291
14.100772924892766	2.9186757	1.7084132
14.118433376778997	2.8895667	1.6998725
14.136094165718458	2.8540454	1.689392
14.153755292149969	2.7824354	1.6680634
14.171416756512416	2.7131712	1.6471707
14.189078559244768	2.6213226	1.6190499
14.20674070078606	2.5163023	1.5862857
14.224403181575408	2.4304812	1.559
14.242066002051999	2.3860404	1.5446813
14.259729162655093	2.3719616	1.5401174
14.277392663824022	2.398	1.5485477
14.295056505998208	2.4179735	1.5549835
14.312720689617128	2.4071026	1.551484
14.330385215120348	2.3759923	1.5414255
14.348050082947497	2.4007452	1.5494338
14.3657152935383	2.4167593	1.554593
14.383380847332528	2.4221654	1.5563308
14.401046744770051	2.3900285	1.5459718
14.418712986290798	2.3749475	1.5410864
14.436379572334793	2.3486927	1.5325445
14.454046503342123	2.394862	1.5475341
14.471713779752946	2.3905036	1.5461254
14.489381402007504	2.3749552	1.5410889
14.507049370546113	2.3777282	1.5419884
14.524717685809168	2.4113097	1.5528393
14.542386348237134	2.4620128	1.5690802
14.560055358270553	2.4242237	1.5569918
14.577724716350051	2.437736	1.5613251
14.595394422916325	2.432539	1.5596598
14.61306447841015	2.430741	1.5590835
14.63073488327237	2.4292812	1.5586152
14.648405637943917	2.4714766	1.572093
14.6660767428658	2.4756322	1.5734142
14.683748198479094	2.492604	1.5787983
14.701420005224954	2.5071373	1.5833943
14.719092163544628	2.5943496	1.6106985
14.73676467387942	2.6624413	1.6316988
14.754437536670727	2.6856074	1.6387823
14.772110752360014	2.634371	1.6230745
14.78978432138882	2.6268873	1.6207675
14.807458244198777	2.6525757	1.628673
14.82513252123159	2.707074	1.6453187
14.842807152929028	2.7343931	1.6536001
14.860482139732962	2.6768513	1.6361085
14.87815748208531	2.6118774	1.6161304
14.8958331804281	2.6243906	1.6199971
14.91350923520342	2.6349146	1.623242
14.931185646853438	2.6565228	1.6298842
14.948862415820408	2.6020987	1.6131022
14.966539542546656	2.6347737	1.6231986
14.98421702747459	2.6258814	1.6204572
15.001894871046696	2.651118	1.6282254
15.019573073705542	2.6392615	1.6245804
15.037251635893766	2.6474776	1.6271071
15.054930558054092	2.6967797	1.6421875
15.072609840629323	2.7418916	1.6558658
15.090289484062351	2.9160917	1.7076567
15.107969488796124	3.218311	1.7939652
15.125649855273691	3.6562407	1.9121299
15.14333058393817	4.117109	2.029066
15.161011675232768	5.0684867	2.25133
15.17869312960076	6.3780804	2.5254862
15.196374947485506	8.139292	2.8529444
15.214057129330447	11.142522	3.3380415
15.231739675579114	15.772654	3.9714801
15.249422586675102	20.74315	4.554465
15.267105863062092	23.735476	4.8719068
15.284789505183847	23.935652	4.8924074
15.302473513484218	21.77033	4.6658688
15.320157888407127	18.283964	4.275975
15.337842630396578	14.215369	3.7703276
15.355527739896656	11.078236	3.3283985
15.37321321735153	8.661475	2.9430385
15.39089906320545	6.4062815	2.5310633
15.408585277902748	4.7950225	2.189754
15.42627186188783	3.68714	1.9201927
15.443958815605198	3.1606479	1.7778211
15.461646139499424	2.9478486	1.71693
15.479333834015168	2.8460083	1.6870116
15.497021899597165	2.8172882	1.6784779
15.514710336690234	2.7530518	1.6592323
15.53239914573928	2.6984422	1.6426936
15.550088327189297	2.6271777	1.6208571
15.567777881485336	2.562688	1.6008399
15.58546780907256	2.5245776	1.588892
15.6031581103962	2.4894826	1.5778095
15.620848785901568	2.4842715	1.5761572
15.638539836034063	2.4620411	1.5690893
15.656231261239173	2.448736	1.5648438
15.673923061962451	2.4454794	1.5638028
15.691615238649552	2.426215	1.5576311
15.709307791746202	2.4111285	1.5527809
15.727000721698221	2.4138458	1.5536556
15.744694028951498	2.403563	1.5503429
15.76238771395202	2.3873172	1.5450946
15.780081777145844	2.392762	1.5468554
15.797776218979125	2.389809	1.5459007
15.815471039898094	2.398023	1.5485551
15.833166240349064	2.3725767	1.540317
15.850861820778437	2.3665519	1.5383601
15.868557781632699	2.3676007	1.5387009
15.886254123358412	2.3826656	1.5435885
15.903950846402232	2.3740976	1.5408107
15.921647951210897	2.377064	1.541773
15.939345438231225	2.3510993	1.5333295
15.957043307910133	2.346677	1.5318868
15.974741560694602	2.3587635	1.5358267
15.992440197031714	2.3728945	1.5404203
16.01013921736862	2.39191	1.5465801
16.02783862215259	2.402498	1.5499994
16.045538411830933	2.4251435	1.5572872
16.06323858685107	2.409178	1.5521528
16.080939147660512	2.3806977	1.542951
16.09864009470684	2.3363032	1.5284971
16.11634142843774	2.3249803	1.5247886
16.134043149300954	2.3442466	1.5310932
16.15174525774433	2.3874645	1.5451423
16.169447754215817	2.4337335	1.5600427
16.18715063916342	2.447648	1.5644962
16.204853913035244	2.4382958	1.5615044
16.222557576279478	2.4350574	1.560467
16.240261629344403	22.435509	4.7366138
16.257966072678386	42.98625	6.5563903
16.275670906729868	38.090935	6.1717854
16.293376131947387	2.537098	1.5928271
16.31108174877957	2.5399592	1.593725
16.328787757675133	2.593491	1.6104319
16.34649415908287	2.6094408	1.6153764
16.364200953451657	2.6534545	1.6289427
16.38190814123048	2.6500623	1.6279012
16.39961572286839	2.6470788	1.6269846
16.41732369881455	2.6574972	1.6301832
16.43503206951817	2.7041285	1.6444235
16.45274083542859	2.7776735	1.6666354
16.47044999699522	2.808835	1.6759579
16.488159554667558	2.8278377	1.6816176
16.505869508895184	2.860959	1.691437
16.523579860127786	2.9119732	1.7064505
16.541290608815117	2.926626	1.7107384
16.559001755407035	2.971806	1.7238927
16.57671330035348	3.0252917	1.7393366
16.59442524410448	3.1003394	1.7607781
16.61213758711015	3.140935	1.7722683
16.629850329820705	3.1946278	1.7873522
16.647563472686436	3.2766018	1.8101386
16.665277016157724	3.3623872	1.8336813
16.682990960685053	3.4088335	1.8463026
16.70070530671898	3.510426	1.8736131
16.718420054710155	3.5301113	1.878859
16.736135205109335	3.516796	1.8753123
16.753850758367335	3.561872	1.8872923
16.771566714935087	3.6412854	1.9082153
16.789283075263597	3.71828	1.9282843
16.80699983980398	3.7687612	1.9413297
16.82471700900741	3.8265934	1.956168
16.84243458332518	3.9361327	1.983969
16.860152563208665	4.0342197	2.0085368
16.87787094910932	4.057072	2.0142176
16.89558974147871	4.0480866	2.0119858
16.913308940768466	4.032384	2.0080798
16.931028547430333	4.0779777	2.0194004
16.94874856191613	4.1416883	2.0351138
16.966468984677785	4.247126	2.0608556
16.98418981616729	4.3464074	2.0848038
17.00191105683676	4.436006	2.1061828
17.019632707138374	4.4826565	2.1172285
17.03735476752442	4.5278587	2.1278765
17.05507723844728	4.5608506	2.1356149
17.072800120359403	4.5281577	2.1279469
17.090523413713353	4.5677304	2.137225
17.108247118961785	4.5758095	2.1391141
17.125971236557437	4.5795164	2.1399806
17.143695766953133	4.567689	2.1372151
17.161420710601806	4.5712237	2.138042
17.179146067956477	4.615555	2.1483843
17.19687183947025	4.6174054	2.148815
17.21459802559634	4.621275	2.1497152
17.232324626788028	4.5922966	2.1429644
17.25005164349871	4.590545	2.1425557
17.267779076181863	4.5576634	2.1348684
17.285506925291074	4.569982	2.1377516
17.30323519127999	4.5966196	2.1439729
17.320963874602384	4.6232576	2.1501763
17.33869297571211	4.601813	2.1451836
17.356422495063114	4.545849	2.1320996
17.37415243310944	4.490704	2.1191282
17.391882790305218	4.499655	2.121239
17.40961356710468	4.489729	2.1188982
17.42734476396215	4.4631057	2.1126063
17.445076381332044	4.4753556	2.1155035
17.462808419668868	4.5629544	2.1361072
17.48054087942723	4.7421346	2.1776443
17.498273761061835	5.019461	2.2404153
17.51600706502747	5.547754	2.355367
17.533740791779024	6.2485447	2.499709
17.551474941771485	7.6282983	2.7619374
17.56920951545993	8.688933	2.9476998
17.586944513299528	10.830459	3.2909663
17.60467993574556	12.395084	3.5206654
17.622415783253373	13.949312	3.7348778
17.64015205627843	15.207289	3.8996525
17.657888755276293	16.216845	4.0270143
17.675625880702604	16.624937	4.0773687
17.69336343301311	16.486753	4.0603886
17.71110141266366	15.737587	3.9670627
17.728839820110178	14.97232	3.8694081
17.746578655808705	14.135703	3.7597477
17.764317920215372	12.777612	3.5745785
17.7820576137864	11.393066	3.3753617
17.79979773697811	9.472283	3.0777075
17.81753829024692	7.6262007	2.7615576
17.835279274049356	5.935659	2.4363208
17.85302068884201	4.9108443	2.2160425
17.870762535081607	4.2459674	2.0605745
17.888504813224934	3.9066823	1.9765329
17.90624752372891	3.6848056	1.9195848
17.923990667050536	3.5616326	1.8872288
17.941734243646895	3.494634	1.869394
17.959478253975185	3.5098464	1.8734584
17.9772226984927	3.5017855	1.8713058
17.994967577656833	3.4589598	1.8598279
18.01271289192506	3.3906996	1.8413852
18.030458641754965	3.3380723	1.8270392
18.04820482760425	3.2704937	1.8084507
18.06595144993067	3.2579403	1.8049766
18.083698509192125	3.2545433	1.8040353
18.101446005846576	3.2664363	1.8073285
18.119193940352105	3.2556293	1.8043362
18.136942313166887	3.1752691	1.7819285
18.1546911247492	3.0970514	1.7598442
18.1724403755574	3.1132507	1.7644407
18.19019006604997	3.1176155	1.7656771
18.207940196685467	3.1019437	1.7612336
18.225690767922575	3.092759	1.7586242
18.243441780220046	3.0874703	1.7571199
18.261193234036764	3.1097527	1.7634491
18.278945129831676	3.0921862	1.7584614
18.29669746806386	3.0895233	1.757704
18.314450249192483	3.092457	1.7585384
18.3322034736768	3.0778153	1.7543703
18.349957141976184	3.0716305	1.7526067
18.3677112545501	3.0810916	1.7553039
18.385465811858108	3.0868907	1.7569549
18.403220814359884	3.0556512	1.7480421
18.420976262515172	3.089397	1.757668
18.43873215678387	3.1380444	1.7714527
18.456488497625923	3.1643956	1.7788748
18.474245285501407	3.2155712	1.7932013
18.492002520870486	3.2536798	1.8037959
18.50976020419343	3.3249512	1.8234448
18.527518335930615	3.6328976	1.9060161
18.545276916542516	4.2536507	2.062438
18.563035946489688	4.4333453	2.105551
18.580795426232832	4.9002595	2.213653
18.598555356232698	4.7813644	2.186633
18.616315736950185	5.0904374	2.2561998
18.63407656884626	4.742761	2.177788
18.65183785238201	4.9426184	2.2232
18.669599588018617	4.64511	2.1552517
18.68736177621737	4.639178	2.153875
18.705124417439652	4.621968	2.149876
18.72288751214696	4.4834833	2.1174238
18.740651060800886	4.640609	2.1542072
18.758415063863115	4.369842	2.0904167
18.77617952179546	4.5272503	2.1277337
18.793944435059814	4.2797804	2.068763
18.811709804118184	4.275957	2.0678387
18.829475629432675	4.2302713	2.0567625
18.8472419114655	3.9707925	1.9926847
18.86500865067897	4.0466533	2.0116296
18.88277584753551	3.7416713	1.93434
18.90054350249763	3.811341	1.9522656
18.918311616027957	3.542346	1.8821121
18.936080188589226	3.4244545	1.8505281
18.953849220644265	3.1028202	1.7614824
18.971618712656007	2.9185836	1.7083863
18.9893886650875	2.8643758	1.6924467
19.007159078401887	8.031237	2.8339436
19.024929953062408	32.89241	5.7351904
19.042701289532435	32.849503	5.7314487
19.060473088275405	25.378462	5.037704
19.07824534975489	2.646618	1.626843
19.096018074434568	2.6559281	1.6297019
19.113791262778197	2.65273	1.6287204
19.13156491524966	2.592844	1.610231
19.149339032312945	2.543527	1.5948439
19.167113614432136	2.5609179	1.6002868
19.184888662071433	2.5858986	1.608073
19.202664175695123	2.5732126	1.6041236
19.220440155767623	2.5403855	1.5938587
19.238216602753447	2.5229237	1.5883714
19.2559935171172	2.5244138	1.5888404
19.27377089932361	2.5320365	1.5912374
19.291548749837514	2.5494351	1.5966951
19.309327069123835	2.53036	1.5907105
19.32710585764763	2.5108447	1.5845646
19.344885115874032	2.494121	1.5792787
19.362664844268313	2.4808955	1.5750859
19.380445043295822	2.4671211	1.5707072
19.39822571342203	2.479876	1.5747622
19.41600685511252	2.4828782	1.5757152
19.43378846883297	2.5156894	1.5860925
19.451570555049173	2.4926362	1.5788084
19.469353114227037	2.4518836	1.5658492
19.48713614683254	2.4672732	1.5707556
19.50491965333182	2.4812503	1.5751985
19.52270363419109	2.502318	1.5818716
19.540488089876686	2.4825702	1.5756174
19.55827302085503	2.5036309	1.5822866
19.576058427592674	2.5360844	1.5925088
19.593844310556282	2.5436144	1.5948713
19.611630670212598	2.4959366	1.5798534
19.629417507028506	2.4146185	1.5539043
19.64720482147098	2.4070618	1.5514709
19.6649926140071	2.4267294	1.5577964
19.682780885104084	2.4624267	1.5692121
19.70056963522921	2.4650545	1.5700492
19.718358864849908	2.4601948	1.5685009
19.7361485744337	2.4590204	1.5681264
19.753938764448215	2.512979	1.5852379
19.771729435361202	2.5510466	1.5971996
19.789520587640506	2.559388	1.5998087
19.807312221754092	2.538362	1.5932238
19.825104338170043	2.5104766	1.5844483
19.842896937356517	2.5126388	1.5851306
19.860690019781824	2.5319812	1.59122
19.87848358591436	2.5405755	1.5939183
19.896277636222635	2.5090902	1.5840108
19.914072171175278	2.523215	1.5884631
19.931867191241015	2.4929285	1.578901
19.94966269688869	2.4968677	1.580148
19.967458688587264	2.475469	1.5733624
19.985255166805807	2.449434	1.5650668
20.00305213201348	2.414196	1.5537683
20.020849584679578	2.3901386	1.5460073
20.038647525273507	2.3880682	1.5453376
20.05644595426477	2.4160607	1.5543683
20.07424487212299	2.4517562	1.5658085
20.092044279317903	2.482135	1.5754793
20.109844176319353	2.4511778	1.5656238
20.127644563597304	2.4354706	1.5605994
20.145445441621817	2.4370394	1.561102
20.16324681086307	2.420514	1.5558002
20.181048671791373	2.4018843	1.5498013
20.198851024877122	2.395589	1.5477691
20.216653870590836	2.3814876	1.5432069
20.234457209403146	2.3565063	1.5350916
20.252261041784802	2.31982	1.5230955
20.270065368206662	2.3133864	1.520982
20.287870189139685	2.3173535	1.5222856
20.305675505054968	2.3353024	1.5281696
20.323481316423702	2.337104	1.528759
20.341287623717207	2.355801	1.5348619
20.359094427406884	2.3427572	1.5306069
20.376901727964288	2.3154957	1.5216753
20.39470952586107	2.295923	1.5152303
20.41251782156899	2.2996128	1.5164474
20.430326615559935	2.3222985	1.523909
20.448135908305886	2.3354607	1.5282214
20.465945700278965	2.3377645	1.528975
20.483755991951384	2.3415632	1.5302167
20.50156678379548	2.3603926	1.5363569
20.519378076283708	2.3547487	1.5345191
20.537189869888635	2.3631697	1.5372604
20.55500216508294	2.3102415	1.5199479
20.572814962339415	2.2890034	1.5129453
20.59062826213098	2.2973394	1.5156977
20.60844206493066	2.3339863	1.5277389
20.626256371211593	2.338365	1.5291713
20.644071181447032	2.334276	1.5278337
20.66188649611036	2.3490086	1.5326476
20.67970231567506	2.3357909	1.5283295
20.697518640614742	2.3476985	1.5322201
20.715335471403122	2.3409274	1.5300089
20.73315280851404	2.3308938	1.5267265
20.750970652421447	2.335389	1.5281979
20.768789003599412	2.342767	1.53061
20.786607862522136	2.3337212	1.5276521
20.8044272296639	2.2765584	1.5088269
20.82224710549913	2.2801142	1.5100046
20.84006749050237	2.3058035	1.5184872
20.857888385148268	3.9029133	1.9755793
20.8757097899116	46.00492	6.782693
20.893531705267254	64.851814	8.053062
20.911354131690224	83.881256	9.158671
20.92917706965566	69.10657	8.313036
20.94700051963877	50.140133	7.08097
20.96482448211493	29.399479	5.4221287
20.982648957559622	4.145857	2.0361378
21.00047394644843	2.2371392	1.4957069
21.01829944925707	2.2271852	1.4923757
21.036125466461375	2.2371159	1.4956992
21.053951998537297	2.2013001	1.4836779
21.071779045960906	2.1832776	1.4775919
21.089606609208378	2.1952236	1.4816287
21.10743468875603	2.194763	1.4814732
21.12526328508028	2.1592882	1.4694517
21.143092398657675	2.1495461	1.4661331
21.16092202996488	2.1420264	1.4635663
21.17875217947867	2.1552958	1.4680926
21.19658284767596	2.1415172	1.4633924
21.21441403503377	2.1509216	1.4666021
21.232245742029225	2.1423805	1.4636873
21.2500779691396	2.1806026	1.4766864
21.26791071684227	2.1653447	1.471511
21.28574398561475	2.1741297	1.474493
21.30357777593465	2.1700852	1.4731209
21.321412088279704	2.2091768	1.4863299
21.339246923127792	2.1814246	1.4769647
21.357082280956888	2.1537094	1.4675522
21.3749181622451	2.147244	1.4653478
21.392754567470647	2.1458793	1.464882
21.41059149711187	2.157139	1.4687202
21.42842895164726	2.1578534	1.4689634
21.446266931555378	2.168641	1.4726306
21.464105437314945	2.1790295	1.4761536
21.481944469404798	2.1159286	1.4546232
21.49978402830388	2.0717418	1.4393547
21.51762411449127	2.0693467	1.4385223
21.53546472844617	2.0749407	1.4404655
21.553305870647876	2.0562198	1.4339526
21.571147541575865	2.0238461	1.4226195
21.58898974170967	2.0562506	1.4339633
21.60683247152899	2.0572412	1.4343086
21.62467573151363	2.0623617	1.4360925
21.642519522143523	2.066271	1.437453
21.660363843898722	2.0604584	1.4354297
21.6782086972594	2.018649	1.4207917
21.696054082705864	2.009899	1.417709
21.713900000718535	2.019405	1.4210577
21.73174645177795	2.0177038	1.420459
21.749593436364794	2.055316	1.4336374
21.767440954959845	2.0821338	1.44296
21.785289008044032	2.0711663	1.4391547
21.803137596098388	2.024522	1.422857
21.820986719604086	2.0307887	1.4250574
21.838836379042412	2.039351	1.4280585
21.85668657489478	2.038592	1.4277928
21.87453730764273	2.0120218	1.4184575
21.892388577767914	1.9828575	1.4081397
21.91024038575213	1.9679542	1.4028379
21.928092732077285	1.9659467	1.4021223
21.945945617225426	2.0009604	1.414553
21.963799041678694	2.0146182	1.4193724
21.981653005919398	31.324455	5.5968256
21.999507510429943	78.122375	8.838686
22.01736255569286	73.07161	8.548193
22.035218142190818	4.160885	2.0398247
22.05307427040661	1.9910364	1.4110409
22.07093094082315	1.976501	1.4058808
22.088788153923474	1.9807985	1.4074085
22.106645910190746	1.9900243	1.4106822
22.12450421010827	1.9652194	1.4018629
22.142363054159464	1.943272	1.3940129
22.16022244282787	1.9437913	1.3941991
22.178082376597164	1.9522736	1.3972379
22.195942855951145	1.9298373	1.3891859
22.213803881373742	1.9411274	1.3932434
22.231665453349002	1.9485098	1.3958904
22.24952757236111	1.984013	1.4085499
22.26739023889438	1.9927841	1.4116601
22.28525345343323	1.9743105	1.4051017
22.30311721646225	1.9663349	1.4022607
22.320981528466113	1.9643345	1.4015472
22.33884638992964	1.9737812	1.4049132
22.356711801337788	1.9463825	1.3951281
22.37457776317561	1.953744	1.397764
22.392444275928337	1.9443878	1.3944131
22.410311340081282	1.8883741	1.3741813
22.428178956119904	1.8516802	1.3607645
22.446047124529805	1.8398489	1.3564103
22.46391584579669	1.8918903	1.37546
22.481785120406414	1.937805	1.3920506
22.49965494884496	1.9572866	1.3990306
22.51752533159841	1.9331398	1.390374
22.53539626915302	1.9437146	1.3941717
22.553267761995137	1.9556583	1.3984486
22.571139810611264	1.9304479	1.3894056
22.589012415488025	1.934805	1.3909727
22.60688557711216	1.9316739	1.3898467
22.624759295970566	1.9561372	1.3986198
22.642633572550263	1.934766	1.3909587
22.660508407338362	1.9436873	1.3941618
22.67838380082217	1.9572035	1.3990009
22.696259753489077	1.9672983	1.4026041
22.714136265826614	1.9666146	1.4023603
22.73201333832246	1.9525098	1.3973223
22.74989097146439	1.9105064	1.3822107
22.76776916574035	1.9064103	1.3807282
22.785647921638393	1.919901	1.385605
22.803527239646712	1.940166	1.3928984
22.82140712025363	1.9346063	1.3909012
22.839287563947593	1.9372948	1.3918674
22.85716857121719	1.9376694	1.392002
22.875050142551135	1.9158012	1.3841246
22.892932278438277	1.9206268	1.3858668
22.910814979367604	1.9082907	1.3814089
22.928698245828222	1.9095309	1.3818578
22.946582078309387	1.8976434	1.3775498
22.96446647730047	1.8793347	1.3708882
22.98235144329098	1.8381494	1.3557837
23.000236976770562	1.8460217	1.3586838
23.018123078229	1.8856058	1.3731736
23.03600974815619	1.9488411	1.396009
23.053896987042194	1.9786506	1.4066452
23.071784795377173	1.9686332	1.4030799
23.08967317365145	1.9063909	1.3807212
23.10756212235546	1.8563172	1.3624673
23.125451641979787	1.8512673	1.3606129
23.143341733015134	1.8846669	1.3728317
23.161232395952357	1.8941633	1.376286
23.179123631282426	1.864706	1.3655424
23.197015439496468	1.8518791	1.3608377
23.214907821085717	1.8391943	1.356169
23.23280077654157	1.8613929	1.3643287
23.250694306355538	1.856521	1.3625422
23.268588411019277	1.8995038	1.3782248
23.28648309102458	1.9346716	1.3909247
23.304378346863356	1.9512954	1.3968878
23.322274179027676	1.9456366	1.3948607
23.340170588009723	1.9538834	1.3978138
23.358067574301852	1.9294494	1.3890462
23.37596513839651	1.9100571	1.3820481
23.39386328078629	1.905371	1.3803518
23.411762001963947	1.9445382	1.394467
23.429661302422353	1.9660182	1.4021477
23.4475611826545	1.9726869	1.4045237
23.46546164315356	1.9076557	1.3811791
23.48336268441279	1.8932159	1.3759419
23.501264306925638	1.9254797	1.3876165
23.51916651118564	1.951847	1.3970852
23.537069297686497	1.9358448	1.3913463
23.554972666922037	1.9303355	1.3893652
23.57287661938623	1.9258207	1.3877394
23.59078115557318	1.8952925	1.3766962
23.608686275977128	1.8928066	1.3757931
23.62659198109246	1.9013894	1.3789088
23.6444982714137	1.9010915	1.3788007
23.66240514743549	1.9037076	1.3797491
23.68031260965263	1.9370418	1.3917764
23.698220658560068	1.9744942	1.405167
23.716129294652845	1.9824779	1.4080049
23.7340385184262	1.9495152	1.3962504
23.75194833037546	1.9176987	1.38481
23.769858730996123	1.9023856	1.37927
23.78776972078382	1.9212761	1.386101
23.80568130023431	1.9129279	1.3830863
23.823593469843495	1.900778	1.378687
23.841506230107424	1.8853048	1.373064
23.859419581522275	1.8875129	1.3738679
23.87733352458438	1.8713931	1.3679887
23.89524805979019	1.8657058	1.3659084
23.913163187636318	1.8795923	1.3709823
23.931078908619508	1.9551594	1.3982701
23.948995223236633	2.0036976	1.4155203
23.966912131984735	2.0359008	1.42685
23.98482963536096	2.0702913	1.4388506
24.002747733862616	2.0789423	1.4418538
24.020666427987155	2.0345592	1.4263798
24.038585718232156	2.0083406	1.4171593
24.056505605095353	2.0215557	1.4218142
24.074426089074617	2.0452068	1.4301072
24.092347170667946	2.030206	1.424853
24.110268850373515	2.0411806	1.4286989
24.128191128689586	2.078704	1.4417711
24.146114006114626	2.1004958	1.4493088
24.164037483147187	2.09177	1.4462953
24.181961560286005	2.0987394	1.4487027
24.199886238029926	2.080808	1.4425006
24.21781151687797	2.0620954	1.4359998
24.235737397329274	2.049632	1.4316536
24.253663879883135	2.0102031	1.4178163
24.271590965038975	1.9892046	1.4103917
24.289518653296376	1.9874861	1.4097823
24.30744694515505	2.058243	1.4346578
24.32537584111486	2.0127835	1.418726
24.34330534167581	2.0276153	1.4239435
24.361235447338046	2.036025	1.4268935
24.379166158601876	2.036582	1.4270886
24.39709747596772	1.9843345	1.4086641
24.41502939993615	1.9862044	1.4093276
24.432961931007917	2.0123208	1.4185629
24.450895069683856	2.0197408	1.4211758
24.468828816465	1.9939673	1.4120791
24.4867631718525	1.9762962	1.405808
24.504698136347656	1.974161	1.4050484
24.52263371045192	1.9440123	1.3942784
24.540569894666874	1.9383742	1.3922551
24.558506689494266	1.9733526	1.4047607
24.57644409543597	1.9861953	1.4093244
24.594382112994012	1.940268	1.392935
24.61232074267057	1.9076556	1.3811791
24.630259984967953	1.843867	1.3578906
24.64819984038863	1.856449	1.3625157
24.66614030943522	1.8849928	1.3729504
24.684081392610462	1.9460944	1.3950249
24.702023090417274	1.9674577	1.402661
24.7199654033587	1.9694836	1.4033829
24.737908331937927	1.9999796	1.4142064
24.755851876658305	2.001219	1.4146445
24.773796038023324	1.9921283	1.4114277
24.79174081653661	2.0082614	1.4171314
24.809686212701962	1.9817863	1.4077593
24.827632227023294	2.003052	1.4152921
24.8455788600047	2.0328288	1.425773
24.8635261121504	2.053655	1.4330579
24.88147398396475	2.043778	1.4296076
24.899422475952303	2.1173825	1.4551228
24.917371588617698	2.16323	1.4707923
24.935321322465768	2.1934655	1.4810352
24.953271678001478	2.2301779	1.493378
24.97122265572994	2.4056225	1.5510069
24.989174256156414	2.7668188	1.6633757
25.00712647978632	3.2096648	1.7915537
25.02507932712521	3.7349036	1.9325899
25.043032798678798	4.2395525	2.0590174
25.060986894952933	4.83634	2.199168
25.078941616453637	5.4984436	2.344876
25.096896963687055	6.41378	2.5325441
25.114852937159508	7.5350327	2.7450013
25.132809537377444	8.00796	2.829834
25.150766764847468	8.047125	2.8367455
25.168724620076347	7.482629	2.7354395
25.186683103570985	6.5086	2.5511959
25.204642215838426	5.428565	2.3299282
25.222601957385894	4.176524	2.0436547
25.24056232872074	3.1978872	1.7882637
25.25852333035048	2.6439295	1.6260165
25.276484962782778	2.2906387	1.5134856
25.294447226525435	2.0965877	1.4479598
25.312410122086423	2.0070925	1.416719
25.330373649973843	1.91539	1.3839761
25.348337810695988	1.8864113	1.3734668
25.366302604761245	1.8619603	1.3645366
25.384268032678207	1.878596	1.3706188
25.40223409495558	1.8977522	1.3775892
25.420200792102257	1.9248066	1.387374
25.438168124627246	1.914955	1.383819
25.45613609303974	1.9131386	1.3831625
25.474104697849057	1.9134248	1.383266
25.492073939564698	1.9265412	1.3879989
25.510043818696285	1.8840293	1.3725995
25.528014335753614	1.8728671	1.3685273
25.54598549124664	1.8387423	1.3560023
25.56395728568544	1.8717967	1.3681362
25.58192971958028	1.8459419	1.3586545
25.59990279344156	1.871066	1.3678691
25.617876507779833	1.8850766	1.372981
25.635850863105826	1.8616073	1.3644073
25.653825859930386	1.8931961	1.3759346
25.671801498764548	1.8900428	1.3747883
25.68977778011949	1.9072846	1.3810447
25.707754704506524	1.9160553	1.3842165
25.725732272437153	1.9049909	1.3802141
25.743710484423012	1.8928673	1.3758152
25.761689340975888	1.8527409	1.3611542
25.77966884260774	1.8324536	1.3536814
25.797648989830662	1.8513857	1.3606564
25.815629783156922	1.8671907	1.3664519
25.83361122309895	1.823657	1.3504285
25.85159331016929	1.7698253	1.3303478
25.869576044880695	1.768221	1.3297447
25.887559427746034	1.8002062	1.3417176
25.90554345927836	1.8341112	1.3542936
25.92352813999086	1.873522	1.3687667
25.94151347039689	1.8537012	1.3615069
25.959499451009965	1.8343905	1.3543967
25.97748608234374	1.8117217	1.3460021
25.995473364912062	1.8443396	1.3580647
26.013461299228904	1.8705145	1.3676676
26.03144988580839	1.8610618	1.3642074
26.04943912516483	1.811659	1.3459789
26.067429017812675	1.8072373	1.3443352
26.085419564266537	1.8422793	1.3573059
26.103410765041186	1.8525907	1.3610991
26.12140262065155	1.826719	1.3515617
26.139395131612723	1.8121588	1.3461645
26.157388298439948	1.7528518	1.3239532
26.17538212164861	1.7392986	1.3188246
26.193376601754295	1.7419717	1.3198378
26.211371739272714	1.7633486	1.3279114
26.229367534719746	1.7892866	1.3376422
26.247363988611433	1.8085101	1.3448086
26.26536110146397	1.7951019	1.3398141
26.283358873793727	1.77016	1.3304735
26.301357306117204	1.7662935	1.3290198
26.319356398951104	1.7827785	1.3352073
26.33735615281224	1.7824059	1.3350677
26.35535656821762	1.8116331	1.3459692
26.373357645684404	1.8179159	1.3483012
26.39135938572991	1.8308986	1.353107
26.409361788871614	1.8308657	1.3530948
26.427364855627165	1.8300704	1.352801
26.445368586514352	1.8057442	1.3437798
26.46337298205115	1.808661	1.3448647
26.48137804275568	1.8128052	1.3464046
26.499383769146217	1.8349408	1.3545998
26.517390161741215	1.8095344	1.3451893
26.53539722105928	1.8193462	1.3488314
26.553404947619182	1.8924171	1.3756515
26.571413341939856	1.8789623	1.3707525
26.589422404540397	1.8446995	1.3581971
26.60743213594006	1.8254669	1.3510984
26.62544253665827	1.8117765	1.3460225
26.64345360721459	1.7825651	1.3351274
26.66146534812879	1.7926245	1.3388892
26.679477759920758	1.8063296	1.3439976
26.69749084311057	1.8014616	1.3421854
26.71550459821847	1.7854769	1.3362174
26.733519025764842	1.7903922	1.3380554
26.751534126270258	1.7999893	1.3416368
26.769549900255434	1.7736808	1.331796
26.787566348241267	1.8028035	1.3426852
26.80558347074881	1.8469487	1.3590249
26.823601268299267	1.8443736	1.3580772
26.841619741414036	1.8135526	1.3466821
26.85963889061465	1.773361	1.331676
26.877658716422832	1.7564645	1.3253168
26.89567921936045	1.7340417	1.3168302
26.913700399949544	1.7778931	1.3333765
26.93172225871233	1.8146267	1.3470808
26.949744796171174	1.8138893	1.3468071
26.967768012848605	1.8195684	1.3489138
26.98579190926733	1.8049239	1.3434745
27.003816485950225	1.8114977	1.3459189
27.021841743420318	1.8013406	1.3421403
27.039867682200814	1.7812289	1.3346269
27.057894302815072	1.7583284	1.3260198
27.07592160578664	1.7878745	1.3371142
27.0939495916392	1.821206	1.3495207
27.111978260896635	1.8205334	1.3492714
27.13000761408296	1.808417	1.3447739
27.148037651722397	1.7865274	1.3366104
27.166068374339304	1.8030137	1.3427634
27.184099782458215	1.8104874	1.3455435
27.20213187660384	1.8433862	1.3577136
27.22016465730105	1.8464524	1.3588423
27.23819812507487	1.7906221	1.3381413
27.256232280450533	1.7869245	1.336759
27.274267123953383	1.7877511	1.3370681
27.292302656108987	1.8099831	1.3453561
27.31033887744306	1.804342	1.343258
27.32837578848146	1.7954675	1.3399506
27.34641338975026	1.8054738	1.3436792
27.364451681775673	1.8226676	1.350062
27.382490665084074	1.8184797	1.3485101
27.400530340202046	1.823638	1.3504214
27.41857070765629	1.8608649	1.3641353
27.436611767973726	1.8052888	1.3436104
27.454653521681404	1.8340249	1.3542618
27.472695969306564	1.8278048	1.3519633
27.490739111376627	1.8029197	1.3427285
27.508782948419153	1.8047891	1.3434244
27.526827480961902	1.7993039	1.3413813
27.54487270953279	1.8119109	1.3460724
27.562918634659898	1.7883562	1.3372943
27.580965256871508	1.775866	1.3326162
27.599012576696026	1.7759145	1.3326344
27.617060594662068	1.8107152	1.3456281
27.63510931129842	1.8209665	1.3494319
27.65315872713401	1.8237185	1.3504512
27.67120884269797	1.7819769	1.334907
27.68925965851958	1.8181632	1.3483928
27.707311175128307	1.8795685	1.3709736
27.725363393053787	1.85231	1.3609959
27.74341631282583	1.7758242	1.3326006
27.7614699349744	1.7452672	1.3210856
27.77952426002968	1.9457712	1.394909
27.797579288521973	2.0717967	1.4393737
27.815635020981784	2.6037686	1.6136197
27.83369145793979	2.6780286	1.6364683
27.85174859992682	2.5238907	1.5886757
27.869806447473923	2.3332725	1.5275053
27.887865001112267	1.9957266	1.4127018
27.905924261373233	1.8976879	1.377566
27.92398422878836	1.890181	1.3748385
27.94204490388936	1.8638508	1.3652292
27.96010628720813	1.8358111	1.3549211
27.978168379276728	1.8376031	1.3555822
27.9962311806274	1.8274764	1.3518418
28.014294691792568	1.8256305	1.351159
28.0323589133048	1.8221531	1.3498715
28.050423845696887	1.8387376	1.3560005
28.068489489501758	1.8389204	1.356068
28.086555845252523	1.8525637	1.3610892
28.104622913482487	1.9080826	1.3813336
28.122690694725115	1.8480414	1.3594269
28.14075918951405	1.8597617	1.3637308
28.15882839838312	1.9010035	1.3787688
28.176898321866304	1.9081771	1.3813678
28.1949689604978	1.8675197	1.3665723
28.213040314811945	1.8579497	1.3630663
28.23111238534327	1.8975058	1.3774998
28.249185172626493	1.8836629	1.372466
28.267258677196473	1.86825	1.3668394
28.285332899588294	1.8887937	1.3743339
28.303407840337172	1.9082168	1.3813822
28.321483499978545	1.9490682	1.3960903
28.33955987904799	1.9435722	1.3941206
28.357636978081285	1.9275085	1.3883474
28.37571479761439	1.9131143	1.3831538
28.393793338183425	1.9480033	1.3957089
28.41187260032469	1.9711334	1.4039706
28.429952584574686	1.952583	1.3973485
28.448033291470065	1.9036925	1.3797436
28.46611472154769	1.9251797	1.3875085
28.484196875344566	1.9680331	1.402866
28.502279753397914	1.9841856	1.4086112
28.52036335624511	1.9747208	1.4052476
28.538447684423716	1.9732037	1.4047077
28.556532738471482	1.9442707	1.394371
28.574618518926325	1.8991674	1.3781028
28.59270502632635	1.9106575	1.3822653
28.61079226120985	1.9333376	1.3904451
28.628880224115274	1.9191116	1.3853201
28.646968915581287	1.928809	1.3888156
28.66505833614671	1.9649609	1.4017706
28.68314848635055	1.9979306	1.4134817
28.701239366732004	2.0281255	1.4241227
28.71933097783044	2.0526896	1.432721
28.737423320185403	2.0888479	1.4452847
28.75551639433665	2.0907924	1.4459573
28.773610200824074	2.0889237	1.445311
28.791704740187793	2.1164086	1.4547882
28.80980001296809	2.1294587	1.4592664
28.827896019705413	2.0879793	1.4449842
28.845992760940433	2.0546181	1.433394
28.86409023721397	2.077398	1.4413182
28.88218844906704	2.1507244	1.4665349
28.900287397040845	2.185549	1.4783603
28.918387081676755	2.1537747	1.4675745
28.936487503516343	2.201087	1.4836061
28.954588663101365	2.2550495	1.5016822
28.97269056097374	2.2445564	1.4981843
28.990793197675597	2.3150063	1.5215144
29.00889657374923	2.4013455	1.5496275
29.027000689737125	2.3661323	1.5382237
29.04510554618196	2.3520823	1.5336499
29.06321114362659	2.358629	1.5357828
29.08131748261405	2.388738	1.5455543
29.099424563687567	2.5190084	1.5871384
29.11753238739057	2.5924125	1.610097
29.13564095426663	2.5347934	1.5921035
29.15375026485954	2.5432863	1.5947684
29.171860319713275	2.596692	1.6114255
29.18997111937199	2.680555	1.63724
29.20808266438002	2.718694	1.6488463
29.226194955281898	2.8089924	1.6760049
29.244307992622335	2.8387697	1.6848649
29.26242177694624	2.8584654	1.6906997
29.2805363087987	2.8492389	1.6879689
29.29865158872498	2.8974783	1.7021981
29.316767617270557	2.918202	1.7082746
29.334884394981064	2.9426367	1.7154115
29.353001922402367	3.0086746	1.7345531
29.37112020008047	3.0602329	1.7493521
29.389239228561596	3.1476195	1.7741532
29.407359008392152	3.360407	1.8331413
29.42547954011872	3.7241893	1.9298159
29.44360082428809	4.3185196	2.0781047
29.46172286144722	5.312853	2.3049626
29.479845652143283	6.7556353	2.5991604
29.497969196923606	8.638549	2.9391408
29.516093496335728	11.043635	3.3231966
29.5342185509274	13.64424	3.6938112
29.55234436124651	15.877772	3.9846923
29.570470927841175	17.3172	4.161394
29.588598251259686	17.14791	4.1410036
29.60672633205055	15.8062	3.975701
29.624855170762405	13.788245	3.7132525
29.642984767944146	11.152481	3.339533
29.66111512414481	8.571654	2.9277387
29.67924623991366	6.458555	2.5413687
29.697378115800138	4.9853196	2.2327828
29.71551075235387	4.197732	2.0488367
29.733644150124675	3.7874894	1.9461473
29.751778309662576	3.5224013	1.8768061
29.769913231517766	3.360592	1.8331918
29.78804891624066	3.314019	1.8204447
29.806185364381818	3.3108597	1.8195767
29.82432257649206	3.2996593	1.8164964
29.842460553122333	3.2786145	1.8106945
29.86059929482382	3.2691436	1.8080773
29.878738802147872	3.2559946	1.8044375
29.896879075646048	3.221932	1.7949741
29.915020115870114	3.2783442	1.8106198
29.933161923371976	3.330714	1.8250244
29.951304498703777	3.3055952	1.8181295
29.969447842417857	3.2364028	1.7990005
29.987591955066733	3.2313726	1.7976019
30.005736837203123	3.212771	1.7924204
30.023882489379943	3.2127368	1.7924109
30.04202891215028	3.1529045	1.775642
30.060176106067455	3.1673217	1.7796971
30.078324071684946	3.1668699	1.7795701
30.09647280955646	3.19118	1.7863874
30.114622320235863	3.1743903	1.7816819
30.132772604277257	3.1834714	1.7842286
30.1509236622349	3.1888413	1.7857327
30.16907549466328	3.1452103	1.7734741
30.18722810211705	3.116946	1.7654874
30.205381485151097	3.0916705	1.7583147
30.22353564432045	3.0197663	1.7377474
30.241690580180403	2.9503784	1.7176665
30.25984629328638	2.9801092	1.7262993
30.278002784194037	2.9637742	1.7215616
30.296160053459246	2.910159	1.7059188
30.314318101638033	2.8739326	1.6952677
30.332476929286646	2.8407896	1.6854641
30.35063653696153	2.816874	1.6783545
30.368796925219307	2.8510225	1.6884971
30.386958094616844	2.8838882	1.6982014
30.40512004571115	2.9010663	1.7032517
30.423282779059463	2.8706896	1.6943109
30.441446295219233	2.854733	1.6895955
30.459610594748067	2.8286417	1.6818566
30.47777567820382	2.7772288	1.666502
30.495941546144504	2.7554173	1.659945
30.51410819912835	2.787696	1.6696395
30.532275637713795	2.7998426	1.673273
30.55044386245946	2.780934	1.6676133
30.56861287392416	2.8281193	1.6817013
30.586782672666956	2.8030872	1.6742423
30.604953259247047	2.7601147	1.6613593
30.623124634223885	2.7172208	1.6483995
30.641296798157075	2.7163196	1.6481261
30.659469751606462	2.719971	1.6492335
30.677643495132074	2.7173028	1.6484244
30.695818029294152	2.7537527	1.6594435
30.713993354653116	2.7154796	1.6478713
30.73216947176962	2.6565475	1.6298919
30.75034638120448	2.6952407	1.6417189
30.768524083518756	2.804986	1.6748092
30.786702579273673	2.8253543	1.680879
30.80488186903069	2.8889136	1.6996804
30.82306195335144	2.994255	1.7303916
30.841242832797782	3.2127428	1.7924125
30.85942450793176	3.4985538	1.8704422
30.877606979315637	3.6975076	1.9228904
30.895790247511883	4.024762	2.006181
30.913974313083134	4.5271573	2.1277118
30.932159176592283	4.7898145	2.1885645
30.95034483860237	4.6768208	2.1625957
30.968531299676698	4.517204	2.1253715
30.98671856037873	4.291224	2.071527
31.00490662127215	3.898513	1.9744653
31.023095482920848	3.410683	1.8468034
31.04128514588892	2.9955337	1.730761
31.059475610740662	2.6805458	1.6372372
31.07766687804056	2.4927416	1.5788418
31.09585894835335	2.4525023	1.5660467
31.11405182224393	2.409971	1.5524081
31.132245500277417	2.4179986	1.5549915
31.15043998301914	2.4259164	1.5575354
31.168635271034628	2.441773	1.5626173
31.18683136488964	2.4955392	1.5797275
31.20502826515008	2.4889822	1.5776509
31.223225972382135	2.4204059	1.5557654
31.241424487152155	2.380524	1.5428946
31.259623810026692	2.4058216	1.551071
31.27782394157253	2.4342015	1.5601928
31.296024882356644	2.463413	1.5695263
31.314226632946237	2.538782	1.5933555
31.332429193908684	2.4821246	1.5754759
31.350632565811598	2.4266896	1.5577836
31.368836749222787	2.4233284	1.5567043
31.387041744710295	2.4302669	1.5589314
31.40524755284232	2.4617388	1.568993
31.423454174187317	2.389563	1.5458212
31.441661609313922	2.4049866	1.5508019
31.459869858791002	2.500454	1.5812824
31.478078923187628	2.4776103	1.5740427
31.496288803073064	2.401676	1.5497341
31.514499499016807	2.3245795	1.5246571
31.532711011588546	2.3198886	1.523118
31.550923341358178	2.3131595	1.5209074
31.56913648889584	2.2661698	1.5053803
31.587350454771844	2.1980557	1.4825841
31.605565239556732	2.3211367	1.5235277
31.62378084382127	2.461144	1.5688033
31.641997268136382	2.4770715	1.5738715
31.660214513073274	2.444678	1.5635467
31.67843257920331	2.3572583	1.5353365
31.6966514670981	2.2890391	1.5129571
31.71487117732944	2.2981694	1.5159714
31.733091710469346	2.3077285	1.5191209
31.751313067090052	2.3055973	1.5184194
31.769535247764008	2.3646977	1.5377574
31.787758253063878	2.3913617	1.5464028
31.805982083562526	2.3369007	1.5286925
31.824206739833024	2.2502291	1.5000764
31.84243222244869	2.271259	1.5070697
31.860658531983013	2.3277988	1.5257126
31.878885669009737	2.2986495	1.5161299
31.897113634102784	2.2814767	1.5104558
31.91534242783632	2.254694	1.5015638
31.933572050784694	2.1973157	1.4823345
31.951802503522508	2.226769	1.4922363
31.970033786624548	2.1694086	1.4728912
31.988265900665834	2.149068	1.46597
32.006498846221575	2.1691666	1.4728091
32.02473262386724	2.1911335	1.4802477
32.04296723417845	2.2164977	1.4887906
32.0612026777311	2.2687654	1.5062422
32.07943895510129	2.27932	1.5097417
32.097676066865304	2.2810307	1.5103081
32.115914013599685	2.2072725	1.4856893
32.13415279588115	2.2111044	1.4869783
32.152392414286666	2.1996694	1.4831282
32.1706328693934	2.1867218	1.4787568
32.18887416177875	2.201284	1.4836725
32.20711629202032	2.2075248	1.4857742
32.225359260695924	2.1942825	1.4813111
32.243603068383614	2.1838	1.4777685
32.26184771566166	2.1564417	1.4684827
32.28009320310852	2.1775389	1.4756486
32.2983395313029	2.1950476	1.4815693
32.31658670082372	2.140438	1.4630237
32.33483471225012	2.0972273	1.4481807
32.35308356616143	2.1053085	1.4509681
32.371333263137245	2.1271286	1.4584678
32.38958380375734	2.1075451	1.4517387
32.407835188601744	2.1476681	1.4654925
32.42608741825067	2.0875893	1.4448493
32.444340493284585	2.071716	1.4393457
32.46259441428416	2.078083	1.4415557
32.48084918183028	2.0617223	1.4358698
32.49910479650405	2.0814018	1.4427065
32.51736125888683	2.1414835	1.4633808
32.53561856956014	2.1377048	1.4620892
32.5538767291058	2.098072	1.4484723
32.572135738105764	2.0772433	1.4412645
32.59039559714228	2.0715482	1.4392874
32.608656306797776	2.0916362	1.446249
32.62691786765491	2.0947292	1.447318
32.645180280296586	2.0189514	1.4208981
32.663443545305896	1.9618223	1.4006506
32.68170766326619	1.910654	1.382264
32.69997263476099	1.8830186	1.3722312
32.7182384603741	1.8676507	1.3666202
32.7365051406895	1.9126464	1.3829846
32.75477267629144	1.9764739	1.4058713
32.77304106776434	1.9696445	1.4034402
32.79131031569289	1.9710532	1.403942
32.809580420661966	2.011891	1.4184114
32.827851383256714	2.0425642	1.429183
32.84612320406245	2.0925546	1.4465665
32.86439588366476	2.0849035	1.4439195
32.88266942264945	2.0417974	1.4289148
32.9009438216025	1.9470828	1.3953791
32.9192190811102	1.9897314	1.4105784
32.937495201758985	1.9650224	1.4017925
32.95577218413556	1.9695361	1.4034016
32.974050028826866	1.990943	1.4110078
32.992328736420035	1.9302517	1.389335
33.010608307502444	1.9000876	1.3784367
33.02888874266169	1.9838768	1.4085016
33.047170042485604	1.9698645	1.4035186
33.06545220756225	2.0001535	1.4142679
33.083735238479896	2.044329	1.4298003
33.10201913582707	1.9912481	1.4111159
33.12030390019248	1.893342	1.3759876
33.138589532165135	1.858209	1.3631614
33.15687603233419	1.9348186	1.3909776
33.17516340128909	1.9790151	1.4067748
33.19345163961947	1.9517893	1.3970646
33.211740747915215	1.876013	1.3696762
33.23003072676643	1.8290435	1.3524214
33.248321576763466	1.8939947	1.3762248
33.266613298496885	1.945822	1.3949273
33.28490589255747	1.9089788	1.381658
33.30319935953626	1.9803303	1.4072421
33.32149370002451	1.9903712	1.4108052
33.339788914613706	1.9372933	1.3918668
33.358085003895575	1.9851401	1.40895
33.376381968462034	2.127277	1.4585187
33.39467980890529	1.997499	1.413329
33.41297852581774	1.8658795	1.365972
33.43127811979204	1.9445943	1.3944871
33.44957859142105	1.965348	1.4019088
33.467879941297866	1.8912461	1.3752258
33.486182170015844	1.8919151	1.3754691
33.50448527816853	1.8973739	1.377452
33.522789266349754	1.8379627	1.3557148
33.541094135153514	1.8927425	1.3757697
33.55939988517411	1.9175321	1.3847498
33.57770651700602	1.8790869	1.3707979
33.59601403124398	1.8875883	1.3738953
33.61432242848296	1.9688901	1.4031714
33.632631709318154	1.9312713	1.3897018
33.650941874344994	1.9732275	1.4047161
33.66925292415916	1.9915824	1.4112344
33.68756485935654	2.0176907	1.4204544
33.70587768053328	1.9694974	1.4033878
33.724191388285746	2.0098202	1.4176813
33.74250598321054	2.0455859	1.4302398
33.760821465904506	2.0660303	1.4373692
33.77913783696474	2.009708	1.4176416
33.79745509698852	1.983356	1.4083167
33.815773246573414	2.0476902	1.4309752
33.8340922863172	1.9149791	1.3838277
33.852412216817896	1.7438084	1.3205334
33.87073303867377	1.7722218	1.3312482
33.889054752483304	1.9667455	1.402407
33.907377358845245	1.9779432	1.4063936
33.92570085835853	1.8745235	1.3691324
33.94402525162239	1.8543211	1.3617346
33.96235053923627	1.8898729	1.3747265
33.980676721799824	1.8652022	1.3657241
33.999003799912984	1.948625	1.3959316
34.01733177417592	1.9642031	1.4015003
34.03566064518901	1.864207	1.3653597
34.0539904135529	1.7993394	1.3413945
34.07232107986846	1.9707861	1.4038469
34.090652644736785	2.070772	1.4390177
34.108985108759235	1.9688885	1.4031708
34.12731847253742	1.908223	1.3813845
34.14565273667313	1.9282659	1.3886201
34.16398790176847	1.8801128	1.3711721
34.18232396842574	1.8765106	1.3698579
34.20066093724749	1.8765088	1.3698572
34.21899880883651	1.9274027	1.3883094
34.23733758379583	1.8664287	1.366173
34.25567726272874	1.9495655	1.3962685
34.27401784623872	2.004877	1.4159368
34.29235933492957	2.0292408	1.4245143
34.31070172940526	2.0611455	1.4356691
34.32904503027003	2.059619	1.4351373
34.347389238128386	1.976596	1.4059147
34.36573435358502	1.9735125	1.4048176
34.38408037724492	2.050714	1.4320314
34.402427309713296	2.051703	1.4323767
34.42077515159559	1.9783157	1.4065261
34.43912390349752	2.0885737	1.4451898
34.45747356602499	2.1834142	1.477638
34.47582413978423	2.046688	1.4306251
34.49417562538163	1.9475728	1.3955547
34.51252802342388	2.0604644	1.4354317
34.53088133451789	2.1197956	1.4559518
34.54923555927084	2.070641	1.4389722
34.567590698290104	2.1402247	1.4629507
34.58594675218336	2.009279	1.4174904
34.6043037215585	2.00889	1.4173532
34.62266160702365	1.9321784	1.3900282
34.641020409187234	1.8153769	1.3473592
34.65938012865785	1.9338605	1.3906331
34.677740766044394	1.9456291	1.3948581
34.69610232195598	2.0231998	1.4223922
34.714464797002016	1.8692526	1.3672061
34.73282819179208	1.9393384	1.3926014
34.751192506936064	2.0400171	1.4282917
34.76955774304408	1.9995387	1.4140505
34.7879239007265	1.9377264	1.3920224
34.80629098059391	1.8176802	1.3482137
34.824658983257194	1.7949215	1.3397468
34.843027909327446	1.8643007	1.365394
34.86139775941603	1.9554256	1.3983654
34.879768534134534	1.9945893	1.4122993
34.89814023409483	2.023425	1.4224715
34.91651285990901	1.9960428	1.4128138
34.93488641218944	1.9273771	1.3883001
34.95326089154871	1.9969287	1.4131273
34.97163629859967	2.0326297	1.4257033
34.99001263395542	2.098268	1.44854
35.00838989822934	2.2037659	1.4845086
35.02676809203499	2.0350728	1.4265598
35.04514721598624	2.0384033	1.4277266
35.063527270697215	2.2661781	1.505383
35.081908256782256	2.1153228	1.454415
35.10029017485597	1.8320073	1.3535166
35.11867302553321	1.7587758	1.3261884
35.137056809429104	1.7599479	1.3266302
35.155441527159006	1.7615035	1.3272164
35.173827179338524	1.7993418	1.3413955
35.19221376658354	2.0363855	1.4270198
35.21060128951017	2.4518766	1.5658469
35.2289897487348	2.3756595	1.5413175
35.24737914487405	2.2197695	1.489889
35.26576947854479	2.21195	1.4872626
35.28416075036418	2.0423706	1.4291153
35.30255296094958	2.1381736	1.4622495
35.32094611091867	2.385324	1.5444494
35.33934020088932	2.2908092	1.5135419
35.35773523147969	2.0137906	1.4190809
35.3761312033082	1.9785488	1.4066089
35.394528116993506	1.9868582	1.4095596
35.41292597315452	1.9471066	1.3953876
35.431324772410434	2.114823	1.4542432
35.449724515380666	2.1659532	1.4717177
35.46812520268491	2.2646148	1.5048637
35.486526834943106	2.313414	1.5209912
35.504929412775454	2.4015858	1.549705
35.52333293680242	2.3045738	1.5180823
35.54173740764471	2.1578474	1.4689614
35.560142825923286	1.9765344	1.4058927
35.5785491922594	1.8453437	1.3584343
35.59695650727454	2.3443701	1.5311337
35.61536477159042	2.2280354	1.4926605
