0.008763373481513119	0.0	0.0
0.026290120649546365	0.0	0.0
0.043816868432600686	0.0	0.0
0.06134361724069026	0.0	0.0
0.07887036748382949	0.0	0.0
0.0963971195720331	0.028871369	0.16991577
0.11392387391531617	0.087406754	0.29564634
0.1314506309236943	0.08567352	0.29270038
0.1489773910071836	0.12852398	0.35850242
0.16650415457580078	0.14013895	0.37435138
0.18403092203956356	0.11401865	0.33766648
0.20155769380849	0.12278268	0.3504036
0.2190844702925996	0.17282988	0.41572812
0.2366112519019124	0.28454643	0.53342897
0.2541380390464497	0.33087268	0.57521534
0.27166483213623416	0.2561652	0.50612766
0.28919163158128947	0.16879192	0.41084293
0.3067184377916406	0.11645245	0.34125128
0.324245251177314	0.12662037	0.35583755
0.34177207214833777	0.104372166	0.3230668
0.3592989011147415	0.10574097	0.32517835
0.37682573848655654	0.09494932	0.3081385
0.39435258467381573	0.13795255	0.37141964
0.41187944008655414	0.14192553	0.37673005
0.42940630513480854	0.14410836	0.37961605
0.446933180228618	0.13505116	0.36749306
0.4644600657780234	0.12318977	0.350984
0.48198696219306775	0.12290276	0.3505749
0.49951386988379676	0.18296032	0.4277386
0.5170407892602581	0.22249971	0.47169876
0.5345677207325025	0.24323358	0.49318716
0.5520946647105822	0.20450138	0.4522183
0.5696216216045534	0.20954336	0.45775905
0.5871485918244737	0.22232102	0.4715093
0.6046755757804043	0.21419877	0.46281612
0.6222025738824094	0.21505608	0.4637414
0.6397295865405557	0.20161618	0.4490169
0.6572566141649129	0.16897318	0.41106346
0.6747836571655547	0.18206514	0.42669094
0.6923107159525568	0.14826298	0.3850493
0.7098377909359992	0.20985547	0.45809984
0.7273648825259653	0.23529387	0.485071
0.7448919911325411	0.2527047	0.5026974
0.762419117165817	0.2753502	0.52473825
0.7799462610358868	0.25754398	0.5074879
0.7974734231528482	0.21889617	0.4678634
0.8150006039268024	0.1797239	0.42393857
0.8325278037678551	0.19181423	0.43796602
0.8500550230861152	0.20309135	0.4506566
0.8675822622916969	0.1807583	0.4251568
0.8851095217947171	0.16699767	0.4086535
0.9026368020052984	0.16866003	0.4106824
0.9201641033335665	0.17246035	0.41528344
0.9376914261896523	0.15124258	0.3888992
0.9552187709836915	0.17064928	0.41309717
0.9727461381258234	0.20596837	0.45383736
0.990273528026193	0.23155442	0.48120102
1.0078009410949496	0.24436924	0.49433717
1.0253283777422473	0.25600392	0.5059683
1.0428558383782454	0.25674692	0.506702
1.0603833234131086	0.26765758	0.51735634
1.0779108332570058	0.31533125	0.56154364
1.0954383683201119	0.30026495	0.5479644
1.112965929012607	0.34712002	0.5891689
1.1304935157446763	0.49565908	0.7040306
1.1480211289265108	0.57513094	0.75837386
1.1655487689683062	1.5218384	1.2336282
1.1830764362802655	1.7968119	1.3404522
1.200604131272596	2.2446897	1.4982289
1.2181318543555117	2.6073616	1.6147326
1.235659605939232	2.6751676	1.6355939
1.253187386433982	4.05764	2.0143585
1.270715196249994	6.1778674	2.4855316
1.2882430357975057	11.289818	3.3600323
1.3057709054867608	16.387917	4.048199
1.3232988057280106	22.449677	4.738109
1.3408267369315112	27.711864	5.264206
1.358354699507526	31.641768	5.6251016
1.3758826938663256	35.382465	5.948316
1.3934107204181858	37.00761	6.083388
1.410938779573391	37.265594	6.104555
1.4284668717422309	37.93311	6.158986
1.4459949973350033	37.38461	6.1142955
1.4635231567620117	37.14292	6.094499
1.4810513504335687	36.303055	6.025202
1.4985795787599925	36.018997	6.001583
1.5161078421516088	35.785034	5.9820595
1.5336361410187505	34.833126	5.9019594
1.5511644757717598	34.364117	5.8620915
1.5686928468209842	34.718098	5.8922067
1.58622125457678	35.35952	5.9463873
1.6037496994495108	36.92155	6.0763106
1.621278181849548	37.182285	6.097728
1.6388067021872719	37.7142	6.1411886
1.6563352608730693	37.346344	6.1111655
1.673863858317336	36.547966	6.045491
1.6913924949304753	35.939075	5.9949207
1.7089211711228998	34.694645	5.890216
1.7264498873050296	33.304256	5.770984
1.7439786438872935	32.30041	5.683345
1.7615074412801288	31.314402	5.5959272
1.779036279893981	30.634108	5.5348086
1.796565160139305	29.722141	5.451802
1.814094082426564	29.181683	5.402007
1.8316230471662298	28.58554	5.3465447
1.849152054768784	27.82469	5.2749114
1.8666811056447168	27.352581	5.2299695
1.8842102002045273	26.582386	5.155811
1.901739338858724	26.223661	5.1209044
1.9192685220178245	26.026016	5.10157
1.9367977500923557	25.226034	5.0225525
1.9543270234928547	24.63162	4.963025
1.971856342629867	23.573788	4.8552847
1.9893857079139496	23.074553	4.803598
2.006915119755667	22.74562	4.769237
2.0244445785655945	22.52686	4.746247
2.0419740847543175	21.77557	4.66643
2.0595036387324317	21.015598	4.584277
2.0770332409105414	20.50698	4.5284634
2.094562891699263	20.159534	4.489937
2.1120925915092217	20.022154	4.474612
2.129622340751053	19.46391	4.4117923
2.1471521398354043	187.68326	13.699754
2.1646819891729323	443.83957	21.067501
2.182211889174303	440.12228	20.979092
2.1997418402501974	452.65778	21.275755
2.2172718428113023	432.64648	20.800156
2.234801897268317	320.42786	17.9005
2.2523320040319548	16.664356	4.0822
2.269862163512935	16.425198	4.052801
2.287392376121992	16.346804	4.043118
2.304922642269869	16.168516	4.0210094
2.322452962367322	15.895706	3.986942
2.3399833368251164	15.43196	3.9283533
2.357513766054032	15.263637	3.9068704
2.3750442504648586	15.10517	3.886537
2.3925747904683963	14.813121	3.8487818
2.410105386475459	14.600039	3.8209996
2.4276360388968707	14.27065	3.7776513
2.445166748143469	14.126152	3.7584774
2.4626975146261025	13.970789	3.737752
2.4802283387556323	13.603134	3.6882427
2.4977592209429305	13.351664	3.653993
2.5152901615988825	13.131168	3.6236954
2.5328211611343865	12.903866	3.592195
2.5503522199603523	12.645963	3.5561163
2.5678833384877024	12.399259	3.521258
2.5854145171273712	12.213358	3.4947615
2.6029457562903064	11.977307	3.4608247
2.620477056387469	11.814845	3.437273
2.6380084178298326	11.681535	3.417826
2.655539841028383	11.561938	3.400285
2.673071326394119	11.403828	3.3769553
2.6906028743380523	11.168518	3.3419333
2.708134485271211	11.029162	3.3210182
2.7256661596046325	10.819097	3.2892394
2.743197897749369	10.660834	3.2650933
2.760729700116486	10.598817	3.2555823
2.778261567117063	10.457813	3.2338543
2.795793499162193	10.294803	3.2085514
2.8133254966629817	10.035245	3.1678455
2.830857560030551	9.8021755	3.1308427
2.8483896896760337	9.650973	3.1066015
2.865921886010578	9.511245	3.0840306
2.883454149445347	9.400074	3.065954
2.9009864803915177	9.29101	3.0481157
2.91851887926028	9.210687	3.0349114
2.9360513464628384	8.963548	2.9939184
2.953583882410413	8.812096	2.9685173
2.9711164875142373	8.697819	2.9492064
2.9886491621855606	8.665126	2.9436586
3.0061819068356455	8.49043	2.9138343
3.023714721875769	8.427397	2.902998
3.041247607717225	8.417456	2.9012852
3.0587805647713213	8.305694	2.88196
3.0763135934493806	8.238115	2.8702116
3.0938466941627407	8.253683	2.8729224
3.1113798673227544	8.266598	2.8751693
3.1289131133407904	8.137176	2.8525734
3.1464464326282315	7.921363	2.8144915
3.1639798255964786	7.752567	2.7843432
3.1815132926569443	7.718716	2.7782578
3.1990468342210603	7.7410994	2.782283
3.216580450700272	7.6803393	2.7713425
3.2341141425060416	7.5364695	2.745263
3.251647910049847	7.3198004	2.705513
3.2691817537431813	7.22334	2.6876273
3.286715673997555	7.0797987	2.660789
3.3042496712244938	6.992533	2.6443398
3.32178374583554	6.9055104	2.6278338
3.339317898242251	6.8185215	2.61123
3.3568521288562034	6.796407	2.606992
3.3743864380889876	6.742369	2.5966072
3.3919208263522127	6.683033	2.5851562
3.4094552940575023	6.610947	2.5711763
3.4269898416164972	6.6211267	2.573155
3.444524469440858	6.6685133	2.5823464
3.4620591779422587	6.5940895	2.567896
3.479593967532391	6.5328937	2.5559525
3.4971288386229658	6.4135346	2.5324957
3.5146637916257086	6.3310957	2.516167
3.5321988269523628	6.2136717	2.4927237
3.5497339450146903	6.224899	2.4949746
3.5672691462244708	6.152347	2.4803925
3.5848044309934988	6.143434	2.4785953
3.60233979973359	6.154129	2.4807518
3.619875252856575	6.2527847	2.500557
3.6374107907743034	6.2835455	2.5067
3.6549464138986427	6.303731	2.510723
3.6724821226414788	6.2553053	2.5010607
3.690017917414714	6.2724953	2.504495
3.7075537986302702	6.3042803	2.5108325
3.7250897667000857	6.3669524	2.523282
3.7426258220361235	6.5180006	2.5530376
3.7601619650503553	6.76746	2.6014342
3.777698196154779	7.2687063	2.6960537
3.7952345157614067	8.281128	2.8776948
3.8127709242822716	9.094394	3.0156913
3.830307422129425	11.341783	3.3677564
3.847844009714936	30.238842	5.498986
3.8653806874508954	97.72679	9.885686
3.882917455749409	96.89454	9.843502
3.900454315022606	96.62343	9.829721
3.917991265682631	41.219986	6.4202795
3.9355283081416506	10.898501	3.301288
3.9530654428118495	8.651763	2.941388
3.970602670105433	7.3502827	2.7111404
3.9881399904346244	6.5015025	2.5498044
4.005677404211669	6.3762717	2.5251281
4.023214911848827	6.3734202	2.5245633
4.0407525137583855	6.3737817	2.524635
4.058290210352644	6.385402	2.5269353
4.075828002043927	6.2724857	2.504493
4.0933658892445814	6.087757	2.467338
4.110903872366966	6.0317945	2.4559712
4.128441951823468	6.097327	2.4692767
4.145980128026488	6.181228	2.4862075
4.163518401388452	6.194154	2.4888058
4.181056772321807	6.1331487	2.4765196
4.1985952412390155	6.0795455	2.4656734
4.216133808552567	6.0950294	2.4688113
4.233672474674966	6.174438	2.4848416
4.251211240018741	6.3363533	2.5172114
4.268750104996445	6.5283504	2.5550637
4.286289070020643	7.396513	2.7196531
4.303828135503928	9.016721	3.0027854
4.3213673018589125	29.302065	5.4131384
4.3389065694982305	90.443565	9.510182
4.356445938834537	165.78123	12.875607
4.3739854102805085	171.32796	13.089231
4.391524984248844	172.30559	13.126522
4.409064661152262	136.36493	11.67754
4.426604441403504	96.58804	9.827922
4.444144325415337	75.65918	8.698229
4.461684313600543	21.546886	4.6418624
4.47922440637193	21.9372	4.6837163
4.496764604142329	20.270323	4.5022573
4.5143049073245916	18.485052	4.2994246
4.531845316331589	16.455946	4.056593
4.5493858315762195	13.572	3.6840196
4.566926453471405	11.232412	3.351479
4.584467182430081	9.173333	3.0287511
4.602008018865218	8.156028	2.855876
4.619548963189798	7.557939	2.7491705
4.637090015816834	7.1397624	2.6720333
4.654631177159353	6.807585	2.609135
4.672172447630417	6.4746537	2.5445342
4.689713827643102	6.3257594	2.5151062
4.7072553176105085	6.1005473	2.4699285
4.724796917945764	5.9242196	2.433972
4.742338629062015	5.834413	2.415453
4.759880451372434	5.7807026	2.4043093
4.777422385290215	5.742335	2.396317
4.794964431228581	5.6714945	2.38149
4.812506589600768	5.656876	2.378419
4.830048860820047	5.645693	2.3760667
4.847591245299709	5.6380515	2.374458
4.8651337434530655	5.630881	2.3729477
4.882676355693457	5.617405	2.3701065
4.900219082434242	5.6062727	2.3677568
4.917761924088813	5.5410814	2.3539503
4.935304881070575	5.513624	2.3481107
4.952847953792969	5.43563	2.3314438
4.970391142669449	5.4615808	2.3370025
4.9879344481135055	5.478789	2.3406813
5.005477870538642	5.4290056	2.3300226
5.023021410358394	5.347275	2.3124175
5.040565067986324	5.258431	2.2931268
5.05810884383601	5.3008113	2.302349
5.075652738321066	5.4604974	2.3367708
5.09319675185512	5.507546	2.346816
5.110740884851836	5.4920015	2.343502
5.128285137724894	5.4600997	2.3366857
5.145829510888007	5.407222	2.3253434
5.163374004754908	5.410121	2.3259666
5.1809186197393595	5.3294225	2.3085542
5.198463356255145	5.3115067	2.3046706
5.216008214716077	5.2615757	2.2938125
5.233553195535998	5.231786	2.2873096
5.251098299128764	5.2249146	2.2858071
5.268643525908272	5.2204633	2.2848334
5.286188876288432	5.2088923	2.2822998
5.3037343506831895	5.1874433	2.277596
5.32127994950651	5.2100368	2.2825506
5.3388256731723915	5.2112303	2.2828119
5.356371522094851	5.252315	2.2917929
5.373917496687938	5.2204638	2.2848334
5.391463597365729	5.211739	2.2829235
5.40900982454232	5.1911283	2.2784047
5.426556178631843	5.1715136	2.2740963
5.444102660048449	5.1833386	2.2766948
5.4616492692063225	5.0906863	2.256255
5.479196006519669	5.0724926	2.2522194
5.496742872402727	5.057208	2.2488236
5.514289867269756	5.0920463	2.2565563
5.531836991535049	5.1034575	2.2590833
5.549384245612924	5.1170015	2.262079
5.566931629917724	5.075283	2.2528389
5.584479144863822	5.066324	2.2508497
5.6020267908656205	5.146461	2.2685814
5.619574568337545	5.086211	2.255263
5.637122477694054	5.107675	2.2600167
5.654670519349629	5.1177883	2.262253
5.672218693718784	5.153111	2.2700465
5.689767001216059	5.1490135	2.2691438
5.707315442256021	5.1571774	2.270942
5.724864017253266	5.175733	2.2750237
5.7424127266224225	5.20231	2.2808573
5.75996157077814	5.1969	2.279671
5.777510550135105	5.155437	2.2705588
5.795059665108022	5.1004143	2.2584097
5.812608916111639	5.0662837	2.2508407
5.830158303560715	5.178003	2.2755225
5.847707827870055	5.2710114	2.2958684
5.86525748945448	5.4331613	2.3309143
5.8828072887288485	5.5382857	2.3533564
5.900357226108044	5.643803	2.375669
5.917907302006979	5.6977324	2.3869925
5.9354575168406	6.3128405	2.5125368
5.9530078710238765	6.8941407	2.6256695
5.970558364971812	7.390596	2.718565
5.988108999099438	7.68789	2.7727044
6.005659773821818	8.208273	2.8650084
6.023210689554039	7.9515266	2.8198452
6.040761746711227	8.430144	2.903471
6.058312945708531	7.9535675	2.8202069
6.075864286961132	7.5361214	2.7451997
6.093415770884244	6.8774796	2.622495
6.1109673978931065	6.239699	2.4979389
6.128519168402993	5.5621123	2.358413
6.146071082829204	5.372798	2.3179297
6.163623141587075	5.2567596	2.2927625
6.181175345091969	5.14264	2.267739
6.198727693759281	5.0384355	2.244646
6.216280188004435	5.066891	2.2509756
6.233832828242885	5.1238065	2.2635827
6.251385614890126	5.2576976	2.292967
6.268938548361669	5.1927266	2.2787554
6.286491629073067	5.1094437	2.260408
6.304044857439898	5.053033	2.2478952
6.321598233877777	4.9706388	2.229493
6.339151758802344	4.9793506	2.2314458
6.356705432629277	4.992007	2.2342799
6.37425925577428	5.017129	2.2398949
6.391813228653095	5.027616	2.2422347
6.409367351681486	5.0462255	2.2463806
6.426921625275259	5.049845	2.2471862
6.44447604985025	5.0671744	2.2510386
6.46203062582232	4.986382	2.2330208
6.47958535360737	4.9764357	2.2307925
6.497140233621328	4.961932	2.2275395
6.514695266280161	5.0799723	2.2538793
6.532250451999859	5.123815	2.2635846
6.549805791196454	5.137882	2.2666898
6.567361284286002	5.0662203	2.2508266
6.584916931684597	4.9716463	2.229719
6.602472733808367	4.954729	2.225922
6.6200286910734665	4.9452834	2.2237992
6.637584803896092	4.9159164	2.2171867
6.655141072692462	4.9580674	2.226672
6.672697497878842	5.0136876	2.2391264
6.690254079871514	4.9896126	2.2337441
6.707810819086808	4.9735026	2.2301352
6.725367715941078	4.913049	2.2165399
6.742924770850719	4.902556	2.2141716
6.760481984232151	4.9406548	2.2227583
6.778039356501836	4.9734626	2.2301261
6.795596888076266	5.0118537	2.238717
6.813154579371963	5.0131736	2.2390118
6.830712430805492	5.074563	2.252679
6.84827044279344	5.0724387	2.2522075
6.865828615752445	5.0444984	2.245996
6.883386950099159	5.005145	2.2372181
6.900945446250287	5.01231	2.238819
6.918504104622553	5.0116715	2.2386763
6.936062925632727	5.081407	2.2541976
6.953621909697607	5.0765452	2.253119
6.971181057234028	5.1019564	2.2587512
6.988740368658859	5.1961164	2.279499
7.006299844389007	5.236856	2.2884178
7.023859484841407	5.305575	2.3033834
7.041419290433036	5.2848144	2.2988725
7.058979261580902	5.3296027	2.3085933
7.0765393987020495	5.5042834	2.3461208
7.094099702213559	5.8984637	2.4286754
7.111660172532549	6.3013244	2.510244
7.129220810076164	6.7508283	2.5982356
7.146781615261595	7.3524547	2.711541
7.16434258850606	7.6088085	2.7584069
7.181903730226821	8.055839	2.838281
7.1994650408411704	8.200785	2.863701
7.217026520766437	8.377493	2.8943899
7.234588170419983	8.523318	2.9194722
7.252149990219215	8.423822	2.9023821
7.269711980581568	8.288193	2.8789222
7.2872741419245175	8.095794	2.845311
7.304836474665574	7.7484336	2.7836008
7.322398979222286	7.368913	2.714574
7.339961656012233	7.1208887	2.6684992
7.357524505453039	6.8525066	2.6177292
7.375087527962357	6.6045074	2.5699236
7.392650723957886	6.284672	2.5069249
7.410214093857353	5.8229947	2.4130883
7.427777638078528	5.561095	2.3581975
7.445341357039213	5.463589	2.3374321
7.4629052511572525	5.429245	2.330074
7.480469320850524	5.384018	2.3203487
7.498033566536948	5.251383	2.2915895
7.5155979886344735	5.1934786	2.2789204
7.5331625875610975	5.145296	2.2683246
7.550727363734844	5.113707	2.2613506
7.568292317573788	5.096942	2.2576408
7.585857449496025	5.147159	2.2687352
7.603422759919705	5.198791	2.2800858
7.620988249263007	5.216969	2.2840686
7.638553917944147	5.249731	2.2912292
7.656119766381391	5.1754537	2.2749624
7.673685794993023	5.096168	2.2574694
7.691252004197388	5.0863705	2.2552984
7.70881839441285	5.074181	2.2525942
7.726384966057826	5.1379547	2.2667058
7.743951719550762	5.0771194	2.2532463
7.761518655310149	5.0424485	2.2455397
7.779085773754511	5.0860324	2.2552233
7.796653075302419	5.155641	2.2706037
7.814220560372475	5.272335	2.2961566
7.831788229383323	5.301584	2.302517
7.8493560827536495	5.2705173	2.2957606
7.866924120902174	5.309197	2.3041694
7.884492344247663	5.3425264	2.3113906
7.9020607532089135	5.380111	2.3195066
7.919629348204771	5.3939295	2.3224835
7.937198129654115	5.396622	2.3230631
7.954767097975865	5.407088	2.3253145
7.972336253588986	5.404034	2.324658
7.989905596912472	5.4202223	2.3281372
8.007475128365371	5.4196715	2.328019
8.025044848366756	5.4248705	2.3291352
8.042614757335754	5.532888	2.352209
8.060184855691523	5.5407023	2.3538697
8.07775514385327	5.6281195	2.3723657
8.095325622240228	5.681175	2.3835216
8.112896291271687	5.742901	2.396435
8.130467151366968	5.865214	2.4218204
8.148038202945436	5.920177	2.4331415
8.165609446426497	5.950461	2.4393566
8.183180882229594	5.990421	2.4475336
8.200752510774217	5.9464602	2.4385364
8.218324332479893	5.9417024	2.4375608
8.235896347766193	5.955275	2.4403431
8.253468557052724	5.9989004	2.4492652
8.27104096075914	6.0332804	2.4562738
8.288613559305137	6.092436	2.468286
8.306186353110448	6.10381	2.470589
8.32375934259485	6.206146	2.4912138
8.341332528178162	6.1918397	2.4883409
8.358905910280246	6.2416835	2.498336
8.376479489321003	6.2625575	2.5025103
8.394053265720377	6.3678827	2.5234663
8.411627239898356	6.3604903	2.5220013
8.42920141227497	6.25412	2.5008237
8.44677578327029	6.2366123	2.4973211
8.464350353304427	6.1394963	2.4778006
8.48192512279754	6.158002	2.481532
8.499500092169827	6.144959	2.4789028
8.51707526184153	6.1268287	2.475243
8.534650632232934	6.1378026	2.477459
8.552226203764365	6.108176	2.4714725
8.569801976856192	6.07674	2.4651043
8.587377951928834	6.1519494	2.4803123
8.60495412940274	6.2753115	2.505057
8.622530509698416	6.321294	2.5142183
8.6401070932364	6.3937397	2.5285845
8.657683880437283	6.5385075	2.5570505
8.675260871721695	6.7257624	2.5934074
8.692838067510303	6.913102	2.629278
8.710415468223834	7.050715	2.6553183
8.727993074283043	7.1202855	2.6683862
8.745570886108737	7.03336	2.6520483
8.763148904121765	7.0255585	2.650577
8.78072712874302	7.018502	2.6492455
8.798305560393441	7.2658067	2.695516
8.815884199494006	7.4151444	2.7230763
8.833463046465745	7.705472	2.7758732
8.851042101729728	7.82067	2.7965462
8.86862136570707	8.100716	2.8461757
8.886200838818924	8.205673	2.8645546
8.903780521486505	8.294767	2.8800638
8.921360414131055	8.415278	2.90091
8.938940517173874	8.5725765	2.9278963
8.956520831036297	8.703024	2.9500887
8.97410135613971	8.955678	2.9926038
8.99168209290554	9.129061	3.0214336
9.009263041755265	9.402681	3.0663793
9.026844203110405	9.638441	3.104584
9.044425577392525	9.850141	3.1384933
9.062007165023239	9.999876	3.1622581
9.079588966424197	10.334239	3.2146912
9.097170982017108	10.401932	3.2252026
9.11475321222372	11.407056	3.3774333
9.132335657465825	12.244642	3.4992344
9.149918318165264	12.384046	3.5190973
9.167501194743924	12.960337	3.6000469
9.18508428762374	12.64181	3.5555325
9.202667597226693	12.522998	3.5387847
9.220251123974803	12.158358	3.4868836
9.237834868290143	11.83389	3.4400423
9.255418830594836	11.728453	3.4246829
9.273003011311046	11.22253	3.3500044
9.290587410860985	10.99168	3.3153703
9.308172029666911	10.3579235	3.2183728
9.32575686815113	10.046566	3.169632
9.343341926735997	8.743156	2.956883
9.360927205843916	8.460728	2.908733
9.378512705897327	8.286511	2.8786302
9.396098427318728	8.105125	2.8469503
9.413684370530664	8.03438	2.8344982
9.431270535955722	7.8865147	2.8082938
9.448856924016539	7.8111315	2.79484
9.466443535135806	7.7491527	2.78373
9.484030369736251	7.758744	2.7854521
9.501617428240658	7.7671256	2.7869563
9.519204711071852	7.739676	2.7820272
9.536792218652714	7.7448635	2.7829595
9.55437995140617	7.798395	2.7925606
9.571967909755191	7.8724446	2.8057878
9.589556094122802	7.8865423	2.8082988
9.60714450493207	7.888305	2.8086126
9.624733142606116	7.886302	2.8082561
9.642322007568108	7.900931	2.8108594
9.659911100241267	7.9064927	2.8118486
9.677500421048851	7.9529943	2.8201053
9.695089970414175	7.958714	2.8211193
9.712679748760609	7.9954295	2.827619
9.730269756511557	8.092502	2.8447323
9.747859994090492	8.108794	2.8475945
9.765450461920915	8.148826	2.8546147
9.78304116042639	8.16066	2.8566868
9.800632090030527	8.229511	2.8687124
9.81822325115699	8.216574	2.8664567
9.835814644229481	8.172382	2.858738
9.853406269671762	8.180184	2.8601022
9.870998127907646	8.190037	2.861824
9.888590219360985	8.197905	2.8631983
9.906182544455698	8.246796	2.8717234
9.923775103615734	8.257374	2.8735647
9.941367897265108	8.288667	2.8790045
9.958960925827878	8.303015	2.8814952
9.97655418972816	8.327919	2.8858135
9.994147689390106	8.343195	2.888459
10.011741425237934	8.314494	2.8834865
10.029335397695904	8.301387	2.8812127
10.04692960718833	8.284328	2.8782508
10.06452405413958	8.276328	2.8768609
10.082118738974064	8.228505	2.8685372
10.099713662116246	8.2725725	2.876208
10.117308823990651	8.223037	2.8675838
10.134904225021844	8.2623415	2.874429
10.152499865634445	8.203534	2.8641813
10.170095746253125	8.213017	2.8658361
10.18769186730261	8.209376	2.865201
10.205288229207675	8.197676	2.8631582
10.222884832393145	8.112699	2.84828
10.2404816772839	8.04459	2.8362987
10.258078764304868	8.04426	2.8362405
10.275676093881035	8.054049	2.8379655
10.293273666437438	8.073263	2.841349
10.310871482399158	8.114201	2.8485436
10.32846954219134	8.074721	2.8416054
10.346067846239173	8.032579	2.8341806
10.363666394967908	7.9615583	2.8216233
10.38126518880283	7.9753246	2.8240616
10.398864228169298	8.127796	2.850929
10.416463513492713	8.147033	2.8543007
10.434063045198531	8.067666	2.8403637
10.451662823712262	8.030612	2.8338335
10.469262849459467	8.039044	2.835321
10.486863122865758	8.013653	2.8308396
10.504463644356806	8.009546	2.8301141
10.522064414358338	7.908073	2.8121295
10.539665433296118	7.8949056	2.8097875
10.557266701595987	7.759201	2.7855341
10.574868219683818	7.6590347	2.767496
10.592469987985552	7.6398745	2.7640324
10.610072006927185	7.626378	2.7615898
10.627674276934751	7.6281643	2.761913
10.64527679843435	7.4965086	2.7379754
10.662879571852143	7.3081465	2.7033584
10.680482597614331	7.150178	2.6739817
10.698085876147173	6.9890375	2.6436787
10.715689407876988	6.9173484	2.6300852
10.733293193230146	6.8017626	2.6080189
10.750897232633072	6.701825	2.5887883
10.76850152651225	6.612005	2.571382
10.786106075294207	6.5065174	2.5507877
10.803710879405534	6.4305286	2.5358486
10.821315939272877	6.3552923	2.5209706
10.83892125532294	6.3686113	2.5236108
10.856526827982472	6.283743	2.5067394
10.874132657678285	6.241331	2.4982655
10.891738744837243	6.2351584	2.49703
10.909345089886271	6.254915	2.5009828
10.926951693252343	6.149105	2.479739
10.944558555362494	6.0103254	2.4515965
10.96216567664381	5.9038315	2.4297802
10.979773057523436	5.8206677	2.412606
10.997380698428573	5.784143	2.4050245
11.014988599786477	5.7583647	2.3996594
11.032596762024461	5.7428107	2.3964162
11.050205185569892	5.728742	2.393479
11.067813870850198	5.5969596	2.3657894
11.085422818292859	5.471031	2.3390236
11.10303202832541	5.3775907	2.3189633
11.120641501375454	5.393346	2.322358
11.138251237870636	5.3472285	2.3124075
11.155861238238671	5.3486795	2.3127213
11.173471502907317	5.3141875	2.305252
11.191082032304402	5.2504992	2.2913969
11.208692826857805	5.12717	2.2643256
11.226303886995465	5.0039916	2.2369604
11.243915213145371	4.912742	2.2164707
11.261526805735578	4.8746223	2.2078547
11.279138665194196	4.837458	2.1994221
11.296750791949393	4.8129945	2.1938539
11.314363186429393	4.7971587	2.1902418
11.331975849062479	4.771269	2.1843233
11.34958878027699	4.729289	2.1746929
11.36720198050133	4.6971397	2.1672885
11.384815450163948	4.6062036	2.1462069
11.402429189693366	4.523531	2.1268594
11.420043199518153	4.477012	2.115895
11.437657480066942	63.44158	7.9650226
11.455272031768422	85.1542	9.227903
11.472886855051353	107.48577	10.367535
11.490501950344528	99.1143	9.955617
11.508117318076819	84.470535	9.190785
11.52573295867715	45.855927	6.7717004
11.543348872574514	4.157165	2.0389128
11.560965060197946	4.166469	2.041193
11.57858152197655	4.170146	2.0420935
11.59619825833949	4.0791106	2.0196807
11.613815269715985	4.035459	2.008845
11.631432556535323	38.52642	6.2069654
11.649050119226837	83.06756	9.1141405
11.666667958219929	93.444916	9.666691
11.68428607394406	107.72077	10.378861
11.701904466828756	82.52227	9.084177
11.719523137303586	65.35744	8.084394
11.737142085798196	4.5381236	2.1302872
11.754761312742286	3.6604576	1.9132322
11.772380818565619	3.6609476	1.9133602
11.790000603698015	3.6664784	1.914805
11.80762066856935	3.6385405	1.9074959
11.825241013609572	3.56174	1.8872572
11.842861639248683	3.5282469	1.8783628
11.860482545916748	3.4992309	1.8706231
11.878103734043883	3.5036702	1.8718094
11.895725204060282	3.4997592	1.8707644
11.91334695639619	3.4576585	1.859478
11.930968991481919	3.4138553	1.8476621
11.948591309747824	3.3697157	1.8356786
11.966213911624347	3.3812454	1.8388163
11.98383679754198	3.3317642	1.8253121
12.001459967931268	3.2918122	1.8143352
12.019083423222835	3.2711143	1.8086222
12.036707163847352	3.2547355	1.8040886
12.05433119023556	3.2391694	1.7997693
12.071955502818259	3.2054467	1.7903762
12.089580102026313	3.1719143	1.7809869
12.107204988290643	3.119627	1.7662466
12.12483016204224	3.1004891	1.7608206
12.142455623712152	3.1075227	1.7628167
12.16008137373149	3.1148176	1.7648846
12.177707412531431	3.1165767	1.7653829
12.19533374054321	3.0906236	1.758017
12.212960358198126	3.0528307	1.7472352
12.230587265927545	3.0116882	1.7354217
12.248214464162889	3.0217006	1.7383039
12.265841953335649	3.054681	1.7477646
12.283469733877375	3.039166	1.7433203
12.301097806219685	2.9895473	1.7290307
12.31872617079425	2.94026	1.7147186
12.336354828032825	2.9513698	1.7179551
12.353983778367205	3.011094	1.7352505
12.371613022229262	3.0157285	1.7365853
12.389242560050928	2.9776251	1.7255796
12.406872392264201	2.9164379	1.7077582
12.424502519301143	2.8863947	1.6989393
12.442132941593874	2.9052222	1.7044712
12.459763659574586	2.887351	1.6992207
12.477394673675532	2.8461235	1.6870458
12.49502598432903	2.836614	1.684225
12.51265759196746	2.8196657	1.679186
12.530289497023267	2.8239522	1.6804619
12.547921699928967	2.8183534	1.6787952
12.565554201117134	2.8196626	1.679185
12.583187001020404	2.8112059	1.6766651
12.600820100071486	2.847173	1.6873568
12.618453498703152	2.831374	1.6826687
12.636087197348235	2.7906706	1.6705301
12.65372119643964	2.784711	1.6687453
12.671355496410326	2.8092012	1.6760672
12.68899009769333	2.8469925	1.6873033
12.706625000721749	2.8692956	1.6938995
12.724260205928752	2.9267538	1.7107757
12.741895713747551	2.9419641	1.7152154
12.759531524611454	2.9976866	1.7313828
12.777167638953818	3.0001976	1.7321079
12.794804057208072	2.9912767	1.7295308
12.812440779807702	2.981035	1.7265674
12.830077807186271	3.1282883	1.7686968
12.847715139777405	3.173899	1.781544
12.865352778014795	3.4169238	1.8484923
12.882990722332197	3.5242531	1.8772994
12.90062897316344	3.6156404	1.9014838
12.918267530942412	3.707346	1.925447
12.935906396103071	3.6420321	1.9084109
12.953545569079449	3.821669	1.954909
12.971185050305628	3.6011677	1.8976743
12.988824840215775	3.570465	1.8895674
13.006464939244115	3.591441	1.8951098
13.024105347824943	3.4109223	1.8468683
13.041746066392617	3.5131488	1.8743396
13.05938709538157	3.2902832	1.8139138
13.077028435226296	3.37367	1.8367553
13.094670086361363	3.3169014	1.8212363
13.112312049221401	3.2683623	1.8078612
13.129954324241112	3.150555	1.7749803
13.147596911855258	2.9252486	1.7103359
13.165239812498685	2.867084	1.6932466
13.182883026606293	2.7946756	1.6717284
13.200526554613058	2.7434723	1.6563431
13.218170396954017	2.721266	1.649626
13.235814554064284	2.713879	1.6473855
13.253459026379034	2.765734	1.6630496
13.271103814333523	2.720218	1.6493083
13.288748918363058	2.6729405	1.634913
13.306394338903031	2.6531246	1.6288415
13.32404007638889	2.6508687	1.6281488
13.341686131256164	2.6884806	1.6396587
13.359332503940449	2.6686633	1.6336044
13.376979194877402	2.6519606	1.6284841
13.394626204502751	2.711089	1.6465385
13.412273533252307	2.733397	1.6532989
13.429921181561937	2.7647607	1.6627569
13.447569149867581	2.7330613	1.6531973
13.465217438605247	2.742002	1.6558992
13.482866048211022	2.699382	1.6429796
13.500514979121052	2.7429726	1.6561922
13.518164231771568	2.703277	1.6441646
13.535813806598844	2.7199287	1.6492207
13.553463704039254	2.7184405	1.6487694
13.571113924529229	2.7409017	1.6555669
13.588764468505275	2.726619	1.6512477
13.606415336403956	2.6844134	1.638418
13.624066528661917	2.6691875	1.6337649
13.641718045715882	2.70984	1.6461592
13.659369888002635	2.780876	1.6675959
13.67702205595903	2.8661215	1.6929624
13.694674550021993	2.931421	1.7121394
13.712327370628532	2.9804757	1.7264054
13.729980518215713	3.0378468	1.742942
13.747633993220681	3.1430387	1.7728617
13.765287796080647	3.2051852	1.7903031
13.7829419272329	3.309467	1.8191941
13.800596387114801	3.3581192	1.8325171
13.818251176163775	3.398035	1.843376
13.835906294817324	3.394347	1.8423754
13.853561743513023	3.3776178	1.8378297
13.871217522688525	3.3906252	1.8413651
13.888873632781538	3.4009314	1.8441614
13.906530074229858	3.4561112	1.859062
13.92418684747135	3.4415913	1.8551526
13.941843952943948	3.496814	1.869977
13.959501391085665	3.505369	1.8722631
13.977159162334578	3.4707081	1.8629837
13.994817267128846	3.3773608	1.8377597
14.012475705906693	3.2373164	1.7992544
14.030134479106424	3.1441858	1.7731853
14.047793587166414	3.0949643	1.759251
14.065453030525108	3.0602467	1.749356
14.083112809621026	2.9819584	1.7268348
14.100772924892766	2.8889449	1.6996896
14.118433376778997	2.8394954	1.6850803
14.136094165718458	2.7935476	1.6713909
14.153755292149969	2.7513623	1.6587231
14.171416756512416	2.6483538	1.6273763
14.189078559244768	2.5921288	1.610009
14.20674070078606	2.5275218	1.5898182
14.224403181575408	2.4516137	1.565763
14.242066002051999	2.400524	1.5493624
14.259729162655093	2.3868663	1.5449487
14.277392663824022	2.3895373	1.5458128
14.295056505998208	2.4092493	1.5521756
14.312720689617128	2.4125972	1.5532538
14.330385215120348	2.4080229	1.5517806
14.348050082947497	2.4256017	1.5574343
14.3657152935383	2.4384978	1.561569
14.383380847332528	2.4285707	1.5583873
14.401046744770051	2.3968718	1.5481834
14.418712986290798	2.3742301	1.5408537
14.436379572334793	2.373082	1.5404811
14.454046503342123	2.38047	1.5428772
14.471713779752946	2.388742	1.5455556
14.489381402007504	2.3981059	1.5485818
14.507049370546113	2.3899262	1.5459386
14.524717685809168	2.3462772	1.5317563
14.542386348237134	2.3263516	1.5252383
14.560055358270553	2.3473058	1.532092
14.577724716350051	2.4130924	1.5534132
14.595394422916325	2.399024	1.5488783
14.61306447841015	2.399128	1.5489118
14.63073488327237	2.3749557	1.541089
14.648405637943917	2.4108038	1.5526763
14.6660767428658	2.414951	1.5540113
14.683748198479094	2.468151	1.571035
14.701420005224954	2.5257382	1.5892571
14.719092163544628	2.6264825	1.6206427
14.73676467387942	2.6890504	1.6398325
14.754437536670727	2.6798575	1.637027
14.772110752360014	2.686361	1.6390122
14.78978432138882	2.6643689	1.6322894
14.807458244198777	2.6493433	1.6276803
14.82513252123159	2.6360426	1.6235894
14.842807152929028	2.675402	1.6356655
14.860482139732962	2.678191	1.6365179
14.87815748208531	2.6445496	1.6262071
14.8958331804281	2.6156485	1.6172967
14.91350923520342	2.6041532	1.6137389
14.931185646853438	2.6464074	1.6267782
14.948862415820408	2.644267	1.6261202
14.966539542546656	2.6687665	1.633636
14.98421702747459	2.6287365	1.6213379
15.001894871046696	2.630138	1.62177
15.019573073705542	2.6202524	1.6187193
15.037251635893766	2.6374147	1.6240119
15.054930558054092	2.7071788	1.6453507
15.072609840629323	2.7538328	1.6594676
15.090289484062351	2.8862658	1.6989013
15.107969488796124	3.124499	1.7676252
15.125649855273691	3.491179	1.8684697
15.14333058393817	3.991908	1.997976
15.161011675232768	5.0240808	2.241446
15.17869312960076	6.4406595	2.5378454
15.196374947485506	8.270069	2.8757727
15.214057129330447	11.331872	3.3662846
15.231739675579114	16.059603	4.0074434
15.249422586675102	21.321892	4.6175632
15.267105863062092	24.502823	4.9500327
15.284789505183847	24.876745	4.9876595
15.302473513484218	22.672457	4.7615604
15.320157888407127	19.05319	4.364996
15.337842630396578	14.755957	3.8413482
15.355527739896656	11.486625	3.3891923
15.37321321735153	8.90577	2.9842536
15.39089906320545	6.4869184	2.546943
15.408585277902748	4.870256	2.2068655
15.42627186188783	3.7488592	1.936197
15.443958815605198	3.1991954	1.7886294
15.461646139499424	2.898984	1.7026403
15.479333834015168	2.744757	1.6567308
15.497021899597165	2.6628876	1.6318357
15.514710336690234	2.5991488	1.6121876
15.53239914573928	2.5713394	1.6035396
15.550088327189297	2.5488348	1.5965071
15.567777881485336	2.5417516	1.5942872
15.58546780907256	2.5043995	1.5825294
15.6031581103962	2.4835446	1.5759265
15.620848785901568	2.45065	1.5654552
15.638539836034063	2.436349	1.5608808
15.656231261239173	2.44974	1.5651646
15.673923061962451	2.4247441	1.557159
15.691615238649552	2.4451165	1.5636868
15.709307791746202	2.4504268	1.5653839
15.727000721698221	2.4886029	1.5775306
15.744694028951498	2.4716368	1.572144
15.76238771395202	2.3970182	1.5482306
15.780081777145844	2.3566878	1.5351508
15.797776218979125	2.360001	1.5362295
15.815471039898094	2.385431	1.544484
15.833166240349064	2.380367	1.5428438
15.850861820778437	2.3731036	1.5404881
15.868557781632699	2.3420699	1.5303823
15.886254123358412	2.3313172	1.5268651
15.903950846402232	2.3207161	1.5233897
15.921647951210897	2.3545165	1.5344434
15.939345438231225	2.3837025	1.5439243
15.957043307910133	2.3973112	1.5483253
15.974741560694602	2.4067433	1.5513682
15.992440197031714	2.4082525	1.5518545
16.01013921736862	2.4203026	1.5557321
16.02783862215259	2.4259007	1.5575303
16.045538411830933	2.4314911	1.5593239
16.06323858685107	2.4156952	1.5542507
16.080939147660512	2.3750157	1.5411086
16.09864009470684	2.3329148	1.5273882
16.11634142843774	2.325089	1.5248243
16.134043149300954	2.3229544	1.5241241
16.15174525774433	2.3303025	1.5265328
16.169447754215817	2.3787892	1.5423324
16.18715063916342	2.4242935	1.5570143
16.204853913035244	2.449335	1.5650352
16.222557576279478	2.4524913	1.5660431
16.240261629344403	22.431664	4.7362075
16.257966072678386	42.93788	6.5527005
16.275670906729868	38.061558	6.169405
16.293376131947387	2.4816663	1.5753305
16.31108174877957	2.5280902	1.5899969
16.328787757675133	2.547532	1.596099
16.34649415908287	2.5596561	1.5998925
16.364200953451657	2.596576	1.6113894
16.38190814123048	2.6549606	1.629405
16.39961572286839	2.693859	1.6412979
16.41732369881455	2.690935	1.640407
16.43503206951817	2.6790192	1.636771
16.45274083542859	2.717818	1.6485806
16.47044999699522	2.7807055	1.6675447
16.488159554667558	2.8349452	1.6837295
16.505869508895184	2.8609583	1.6914368
16.523579860127786	2.8817797	1.6975806
16.541290608815117	2.9061482	1.7047429
16.559001755407035	2.997658	1.7313746
16.57671330035348	3.0386372	1.7431687
16.59442524410448	3.1027553	1.761464
16.61213758711015	3.1947973	1.7873995
16.629850329820705	3.270413	1.8084283
16.647563472686436	3.335096	1.8262244
16.665277016157724	3.3745508	1.836995
16.682990960685053	3.4238799	1.8503729
16.70070530671898	3.441238	1.8550574
16.718420054710155	3.4598727	1.8600733
16.736135205109335	3.4640808	1.8612041
16.753850758367335	3.4822395	1.866076
16.771566714935087	3.5694888	1.889309
16.789283075263597	3.6953266	1.9223232
16.80699983980398	3.8092806	1.9517379
16.82471700900741	3.9189947	1.9796451
16.84243458332518	3.9887383	1.9971826
16.860152563208665	4.0669456	2.016667
16.87787094910932	4.078337	2.0194893
16.89558974147871	4.069675	2.0173435
16.913308940768466	4.0979886	2.024349
16.931028547430333	4.158815	2.0393174
16.94874856191613	4.224719	2.055412
16.966468984677785	4.2649207	2.0651684
16.98418981616729	4.3201413	2.078495
17.00191105683676	4.369471	2.090328
17.019632707138374	4.488455	2.1185973
17.03735476752442	4.5150337	2.1248608
17.05507723844728	4.5892763	2.1422596
17.072800120359403	4.612069	2.1475728
17.090523413713353	4.6637497	2.1595716
17.108247118961785	4.678679	2.1630254
17.125971236557437	4.7077374	2.169732
17.143695766953133	4.7509446	2.1796663
17.161420710601806	4.716763	2.171811
17.179146067956477	4.6773477	2.1627176
17.19687183947025	4.6248846	2.1505544
17.21459802559634	4.641446	2.1544015
17.232324626788028	4.6572666	2.15807
17.25005164349871	4.6577816	2.1581895
17.267779076181863	4.6217885	2.1498346
17.285506925291074	4.5775976	2.139532
17.30323519127999	4.555838	2.134441
17.320963874602384	4.5653124	2.1366591
17.33869297571211	4.5720057	2.1382248
17.356422495063114	4.5481677	2.1326435
17.37415243310944	4.5279036	2.127887
17.391882790305218	4.495728	2.1203132
17.40961356710468	4.500429	2.1214216
17.42734476396215	4.5243154	2.1270437
17.445076381332044	4.511711	2.124079
17.462808419668868	4.5446086	2.1318088
17.48054087942723	4.6171546	2.1487565
17.498273761061835	4.9328246	2.2209964
17.51600706502747	5.439209	2.3322113
17.533740791779024	6.2106814	2.4921238
17.551474941771485	7.559626	2.7494774
17.56920951545993	8.63424	2.9384077
17.586944513299528	10.900888	3.3016493
17.60467993574556	12.689044	3.5621684
17.622415783253373	14.491756	3.806804
17.64015205627843	15.839978	3.979947
17.657888755276293	16.847237	4.1045384
17.675625880702604	17.261925	4.1547475
17.69336343301311	17.224125	4.1501956
17.71110141266366	16.521097	4.0646152
17.728839820110178	15.554911	3.9439714
17.746578655808705	14.56229	3.816057
17.764317920215372	13.023833	3.6088548
17.7820576137864	11.461402	3.3854692
17.79979773697811	9.484366	3.07967
17.81753829024692	7.5615916	2.7498348
17.835279274049356	5.849406	2.4185545
17.85302068884201	4.8285203	2.1973894
17.870762535081607	4.208876	2.0515547
17.888504813224934	3.9146268	1.9785416
17.90624752372891	3.740309	1.9339879
17.923990667050536	3.6371615	1.9071344
17.941734243646895	3.5524282	1.8847886
17.959478253975185	3.4894881	1.8680172
17.9772226984927	3.4422975	1.855343
17.994967577656833	3.4109612	1.8468788
18.01271289192506	3.3722193	1.8363603
18.030458641754965	3.3482232	1.829815
18.04820482760425	3.3401484	1.8276073
18.06595144993067	3.3445663	1.8288156
18.083698509192125	3.3244603	1.8233103
18.101446005846576	3.2997744	1.8165281
18.119193940352105	3.2451413	1.8014276
18.136942313166887	3.2094362	1.79149
18.1546911247492	3.133791	1.7702516
18.1724403755574	3.0674818	1.7514228
18.19019006604997	3.1013591	1.7610676
18.207940196685467	3.0965137	1.7596914
18.225690767922575	3.075218	1.7536299
18.243441780220046	3.013563	1.7359617
18.261193234036764	3.05854	1.7488682
18.278945129831676	3.0717566	1.7526428
18.29669746806386	3.0729918	1.7529951
18.314450249192483	3.071797	1.7526542
18.3322034736768	3.0876875	1.7571816
18.349957141976184	3.0621848	1.74991
18.3677112545501	3.0472612	1.7456406
18.385465811858108	3.0556493	1.7480415
18.403220814359884	3.0704455	1.7522687
18.420976262515172	3.095516	1.7594079
18.43873215678387	3.0768056	1.7540826
18.456488497625923	3.0871031	1.7570153
18.474245285501407	3.1476324	1.7741568
18.492002520870486	3.2641747	1.8067027
18.50976020419343	3.3600168	1.8330349
18.527518335930615	3.5972235	1.8966348
18.545276916542516	4.1116605	2.027723
18.563035946489688	4.3039412	2.0745943
18.580795426232832	4.8132586	2.193914
18.598555356232698	4.731889	2.1752906
18.616315736950185	4.976622	2.2308345
18.63407656884626	4.618894	2.1491613
18.65183785238201	4.788888	2.1883528
18.669599588018617	4.5878344	2.141923
18.68736177621737	4.570269	2.1378188
18.705124417439652	4.5255694	2.1273386
18.72288751214696	4.3360367	2.0823152
18.740651060800886	4.524689	2.1271317
18.758415063863115	4.302942	2.0743535
18.77617952179546	4.411756	2.100418
18.793944435059814	4.1644483	2.040698
18.811709804118184	4.1731114	2.0428195
18.829475629432675	4.1071587	2.0266125
18.8472419114655	3.8937008	1.9732462
18.86500865067897	3.976751	1.9941792
18.88277584753551	3.7110977	1.9264209
18.90054350249763	3.7748857	1.9429065
18.918311616027957	3.5255067	1.8776333
18.936080188589226	3.4044187	1.8451067
18.953849220644265	3.0663064	1.7510872
18.971618712656007	2.8615572	1.6916138
18.9893886650875	2.8224502	1.680015
19.007159078401887	8.023569	2.8325906
19.024929953062408	32.881878	5.734272
19.042701289532435	32.79675	5.726845
19.060473088275405	25.37649	5.0375085
19.07824534975489	2.6794343	1.6368978
19.096018074434568	2.6540608	1.6291288
19.113791262778197	2.6099176	1.6155239
19.13156491524966	2.6287942	1.6213557
19.149339032312945	2.6335945	1.6228353
19.167113614432136	2.5880322	1.6087363
19.184888662071433	2.5541909	1.5981836
19.202664175695123	2.5528104	1.5977517
19.220440155767623	2.6147392	1.6170155
19.238216602753447	2.6234488	1.6197064
19.2559935171172	2.6008582	1.6127176
19.27377089932361	2.531776	1.5911555
19.291548749837514	2.516352	1.5863013
19.309327069123835	2.4861696	1.5767592
19.32710585764763	2.5044734	1.5825528
19.344885115874032	2.5070581	1.5833693
19.362664844268313	2.4702709	1.5717095
19.380445043295822	2.4376643	1.5613021
19.39822571342203	2.446514	1.5641336
19.41600685511252	2.4417315	1.5626041
19.43378846883297	2.4188414	1.5552624
19.451570555049173	2.4198823	1.5555971
19.469353114227037	2.4326463	1.5596943
19.48713614683254	2.4656415	1.5702361
19.50491965333182	2.4516234	1.5657661
19.52270363419109	2.46448	1.5698662
19.540488089876686	2.4764953	1.5736884
19.55827302085503	2.469656	1.5715139
19.576058427592674	2.4755073	1.5733745
19.593844310556282	2.4960833	1.5798998
19.611630670212598	2.508849	1.5839347
19.629417507028506	2.4797752	1.5747302
19.64720482147098	2.4535995	1.566397
19.6649926140071	2.4676065	1.5708617
19.682780885104084	2.4999206	1.5811137
19.70056963522921	2.5082362	1.5837412
19.718358864849908	2.5035641	1.5822655
19.7361485744337	2.512682	1.5851442
19.753938764448215	2.5030901	1.5821158
19.771729435361202	2.4975145	1.5803527
19.789520587640506	2.4791572	1.5745339
19.807312221754092	2.461579	1.5689421
19.825104338170043	2.4681416	1.571032
19.842896937356517	2.47874	1.5744015
19.860690019781824	2.5113523	1.5847247
19.87848358591436	2.534317	1.5919539
19.896277636222635	2.5363662	1.5925974
19.914072171175278	2.5163162	1.5862901
19.931867191241015	2.4877467	1.5772592
19.94966269688869	2.4788957	1.5744509
19.967458688587264	2.504616	1.5825979
19.985255166805807	2.502162	1.5818224
20.00305213201348	2.4981039	1.5805391
20.020849584679578	2.4835026	1.5759133
20.038647525273507	2.4822698	1.5755221
20.05644595426477	2.5070584	1.5833693
20.07424487212299	2.5188098	1.5870758
20.092044279317903	2.4457679	1.5638951
20.109844176319353	2.4109418	1.5527208
20.127644563597304	2.4315786	1.559352
20.145445441621817	2.453851	1.5664773
20.16324681086307	2.5042663	1.5824873
20.181048671791373	2.4857733	1.5766336
20.198851024877122	2.4566216	1.5673614
20.216653870590836	2.375983	1.5414224
20.234457209403146	2.3692684	1.5392429
20.252261041784802	2.3691137	1.5391926
20.270065368206662	2.4041421	1.5505296
20.287870189139685	2.401253	1.5495977
20.305675505054968	2.377949	1.54206
20.323481316423702	2.3394945	1.5295407
20.341287623717207	2.330908	1.5267311
20.359094427406884	2.3552675	1.5346881
20.376901727964288	2.35939	1.5360307
20.39470952586107	2.3967495	1.5481439
20.41251782156899	2.3734946	1.540615
20.430326615559935	2.3543408	1.5343862
20.448135908305886	2.330575	1.526622
20.465945700278965	2.3117871	1.5204562
20.483755991951384	2.302623	1.5174396
20.50156678379548	2.3336203	1.5276191
20.519378076283708	2.3515399	1.5334731
20.537189869888635	2.324559	1.5246505
20.55500216508294	2.3220403	1.5238242
20.572814962339415	2.328347	1.5258921
20.59062826213098	2.2957892	1.5151862
20.60844206493066	2.2611072	1.5036979
20.626256371211593	2.2756412	1.5085229
20.644071181447032	2.306941	1.5188618
20.66188649611036	2.3151095	1.5215484
20.67970231567506	2.3129165	1.5208275
20.697518640614742	2.3020458	1.5172495
20.715335471403122	2.2752104	1.50838
20.73315280851404	2.2735946	1.5078443
20.750970652421447	2.3013866	1.5170321
20.768789003599412	2.3248243	1.5247375
20.786607862522136	2.3317783	1.5270162
20.8044272296639	2.3233302	1.5242474
20.82224710549913	2.2878282	1.5125568
20.84006749050237	2.2693484	1.5064356
20.857888385148268	3.82512	1.9557914
20.8757097899116	45.923298	6.776673
20.893531705267254	64.75052	8.046771
20.911354131690224	83.74863	9.151427
20.92917706965566	69.022	8.307948
20.94700051963877	50.10606	7.078563
20.96482448211493	29.384243	5.4207234
20.982648957559622	4.1219	2.0302463
21.00047394644843	2.2249994	1.4916432
21.01829944925707	2.1875122	1.479024
21.036125466461375	2.1798565	1.4764338
21.053951998537297	2.2017236	1.4838206
21.071779045960906	2.2133238	1.4877244
21.089606609208378	2.208909	1.4862399
21.10743468875603	2.208346	1.4860505
21.12526328508028	2.1910877	1.4802324
21.143092398657675	2.1806436	1.4767002
21.16092202996488	2.189326	1.4796371
21.17875217947867	2.1978204	1.4825047
21.19658284767596	2.1642084	1.4711249
21.21441403503377	2.1472538	1.4653511
21.232245742029225	2.132719	1.4603832
21.2500779691396	2.149575	1.4661429
21.26791071684227	2.1268616	1.4583763
21.28574398561475	2.1543436	1.4677682
21.30357777593465	2.1487963	1.4658773
21.321412088279704	2.1469712	1.4652547
21.339246923127792	2.1199014	1.4559882
21.357082280956888	2.0887403	1.4452475
21.3749181622451	2.0685623	1.4382497
21.392754567470647	2.0824711	1.443077
21.41059149711187	2.073327	1.4399053
21.42842895164726	2.0633686	1.436443
21.446266931555378	2.0677235	1.4379581
21.464105437314945	2.0765502	1.4410241
21.481944469404798	2.1153119	1.4544111
21.49978402830388	2.1260693	1.4581047
21.51762411449127	2.1227307	1.4569594
21.53546472844617	2.1197329	1.4559302
21.553305870647876	2.1116831	1.4531631
21.571147541575865	2.0814378	1.4427189
21.58898974170967	2.071947	1.439426
21.60683247152899	2.063899	1.4366276
21.62467573151363	2.0374022	1.4273759
21.642519522143523	2.0058503	1.4162805
21.660363843898722	2.0138607	1.4191056
21.6782086972594	2.0237103	1.4225717
21.696054082705864	2.011148	1.4181495
21.713900000718535	1.9924499	1.4115417
21.73174645177795	2.0263245	1.4234903
21.749593436364794	2.0448859	1.4299951
21.767440954959845	2.015329	1.4196228
21.785289008044032	1.9903649	1.410803
21.803137596098388	1.9924685	1.4115483
21.820986719604086	1.9845378	1.4087362
21.838836379042412	1.9921744	1.4114441
21.85668657489478	1.9446543	1.3945086
21.87453730764273	1.93835	1.3922464
21.892388577767914	1.9259979	1.3878032
21.91024038575213	1.9523867	1.3972783
21.928092732077285	1.9853661	1.4090302
21.945945617225426	2.0030513	1.4152919
21.963799041678694	1.9824674	1.4080012
21.981653005919398	31.304342	5.5950284
21.999507510429943	78.14353	8.839883
22.01736255569286	73.08987	8.549261
22.035218142190818	4.1774287	2.043876
22.05307427040661	1.997079	1.4131805
22.07093094082315	2.0108202	1.418034
22.088788153923474	2.0038526	1.415575
22.106645910190746	1.9590446	1.3996587
22.12450421010827	1.9753273	1.4054633
22.142363054159464	1.9855493	1.4090952
22.16022244282787	2.0094864	1.4175636
22.178082376597164	2.0000699	1.4142382
22.195942855951145	1.9758271	1.4056412
22.213803881373742	1.9761688	1.4057627
22.231665453349002	1.9499816	1.3964174
22.24952757236111	1.9452459	1.3947207
22.26739023889438	1.9671196	1.4025404
22.28525345343323	2.000219	1.414291
22.30311721646225	1.9827482	1.4081008
22.320981528466113	1.9364672	1.3915701
22.33884638992964	1.9099439	1.3820072
22.356711801337788	1.9167423	1.3844646
22.37457776317561	1.9203832	1.3857789
22.392444275928337	1.92733	1.3882831
22.410311340081282	1.9340574	1.3907039
22.428178956119904	1.9294766	1.389056
22.446047124529805	1.9502074	1.3964982
22.46391584579669	1.9263371	1.3879255
22.481785120406414	1.9178562	1.3848668
22.49965494884496	1.9295595	1.3890859
22.51752533159841	1.9522144	1.3972167
22.53539626915302	1.9569676	1.3989166
22.553267761995137	1.9808921	1.4074416
22.571139810611264	1.9745613	1.4051908
22.589012415488025	1.9682767	1.4029529
22.60688557711216	1.9297804	1.3891654
22.624759295970566	1.8942307	1.3763106
22.642633572550263	1.8713788	1.3679835
22.660508407338362	1.8592912	1.3635583
22.67838380082217	1.8804525	1.3712959
22.696259753489077	1.8714625	1.3680141
22.714136265826614	1.9051055	1.3802556
22.73201333832246	1.920657	1.3858777
22.74989097146439	1.905077	1.3802452
22.76776916574035	1.8799089	1.3710977
22.785647921638393	1.8890777	1.3744372
22.803527239646712	1.9171124	1.3845983
22.82140712025363	1.9258462	1.3877486
22.839287563947593	1.9158478	1.3841416
22.85716857121719	1.9341582	1.3907402
22.875050142551135	1.9234596	1.3868885
22.892932278438277	1.9132489	1.3832024
22.910814979367604	1.8741883	1.36901
22.928698245828222	1.8851335	1.3730017
22.946582078309387	1.8994461	1.378204
22.96446647730047	1.9312111	1.3896803
22.98235144329098	1.9216629	1.3862406
23.000236976770562	1.9040816	1.3798846
23.018123078229	1.9248005	1.3873718
23.03600974815619	1.9204072	1.3857876
23.053896987042194	1.9240599	1.3871049
23.071784795377173	1.8788166	1.3706993
23.08967317365145	1.8302588	1.3528706
23.10756212235546	1.8455821	1.358522
23.125451641979787	1.9043645	1.3799871
23.143341733015134	1.9652487	1.4018732
23.161232395952357	1.9516352	1.3970094
23.179123631282426	1.9431696	1.3939762
23.197015439496468	1.9427772	1.3938354
23.214907821085717	1.9102278	1.3821099
23.23280077654157	1.8782624	1.3704971
23.250694306355538	1.8887336	1.374312
23.268588411019277	1.9575287	1.3991171
23.28648309102458	1.96299	1.4010675
23.304378346863356	1.9442723	1.3943716
23.322274179027676	1.9398812	1.3927962
23.340170588009723	1.948468	1.3958753
23.358067574301852	1.9072851	1.381045
23.37596513839651	1.86461	1.3655072
23.39386328078629	1.8912245	1.375218
23.411762001963947	1.9279354	1.3885012
23.429661302422353	1.9322151	1.3900414
23.4475611826545	1.9235721	1.386929
23.46546164315356	1.9338607	1.3906332
23.48336268441279	1.9308641	1.3895553
23.501264306925638	1.9185493	1.385117
23.51916651118564	1.9093617	1.3817966
23.537069297686497	1.8721579	1.3682683
23.554972666922037	1.8756359	1.3695385
23.57287661938623	1.907464	1.3811097
23.59078115557318	1.9476645	1.3955876
23.608686275977128	1.9517069	1.397035
23.62659198109246	1.9262084	1.3878791
23.6444982714137	1.9245229	1.3872718
23.66240514743549	1.9060794	1.3806083
23.68031260965263	1.8917389	1.375405
23.698220658560068	1.8757418	1.3695773
23.716129294652845	1.8707392	1.3677497
23.7340385184262	1.8704183	1.3676324
23.75194833037546	1.8689215	1.3670851
23.769858730996123	1.8705436	1.3676782
23.78776972078382	1.8759288	1.3696455
23.80568130023431	1.8843626	1.3727208
23.823593469843495	1.8756899	1.3695582
23.841506230107424	1.8769149	1.3700054
23.859419581522275	1.8825213	1.37205
23.87733352458438	1.8720884	1.3682429
23.89524805979019	1.8361577	1.355049
23.913163187636318	1.8247966	1.3508503
23.931078908619508	1.8814762	1.3716692
23.948995223236633	1.9585133	1.3994689
23.966912131984735	2.007109	1.4167247
23.98482963536096	2.030748	1.4250431
24.002747733862616	2.0455577	1.4302299
24.020666427987155	2.0701578	1.4388043
24.038585718232156	2.1026545	1.4500532
24.056505605095353	2.0752556	1.4405748
24.074426089074617	2.0369532	1.4272187
24.092347170667946	2.0356877	1.4267752
24.110268850373515	2.0534835	1.4329981
24.128191128689586	2.0658967	1.4373227
24.146114006114626	1.9812007	1.4075513
24.164037483147187	1.9700732	1.403593
24.181961560286005	2.0245602	1.4228704
24.199886238029926	2.02375	1.4225857
24.21781151687797	2.0075405	1.416877
24.235737397329274	1.9748214	1.4052835
24.253663879883135	1.9851124	1.4089402
24.271590965038975	1.9808959	1.407443
24.289518653296376	2.0209177	1.4215899
24.30744694515505	2.0745013	1.4403129
24.32537584111486	2.0680602	1.4380752
24.34330534167581	2.04522	1.4301119
24.361235447338046	2.023297	1.4224265
24.379166158601876	2.051704	1.432377
24.39709747596772	2.1023164	1.4499366
24.41502939993615	2.084639	1.4438279
24.432961931007917	2.038899	1.4279002
24.450895069683856	2.0015447	1.4147596
24.468828816465	1.9906191	1.410893
24.4867631718525	1.9980342	1.4135184
24.504698136347656	1.9878638	1.4099163
24.52263371045192	1.9824302	1.407988
24.540569894666874	1.9796076	1.4069853
24.558506689494266	1.9647142	1.4016826
24.57644409543597	1.9493665	1.3961971
24.594382112994012	1.9377364	1.392026
24.61232074267057	1.9414165	1.3933473
24.630259984967953	1.9742591	1.4050833
24.64819984038863	1.9669074	1.4024647
24.66614030943522	1.9646268	1.4016515
24.684081392610462	1.924887	1.3874029
24.702023090417274	1.9428954	1.3938779
24.7199654033587	1.9560841	1.3986008
24.737908331937927	2.0239491	1.4226557
24.755851876658305	2.0522325	1.4325615
24.773796038023324	2.0489202	1.431405
24.79174081653661	2.0710456	1.4391128
24.809686212701962	2.02238	1.4221041
24.827632227023294	2.024763	1.4229417
24.8455788600047	2.0398521	1.428234
24.8635261121504	2.1090271	1.452249
24.88147398396475	2.130505	1.459625
24.899422475952303	2.1501417	1.4663361
24.917371588617698	2.1337545	1.4607377
24.935321322465768	2.1342533	1.4609084
24.953271678001478	2.2446544	1.4982171
24.97122265572994	2.4518394	1.5658351
24.989174256156414	2.772559	1.6651002
25.00712647978632	3.2581532	1.8050355
25.02507932712521	3.8295822	1.9569318
25.043032798678798	4.332788	2.081535
25.060986894952933	4.968903	2.2291036
25.078941616453637	5.7467546	2.397239
25.096896963687055	6.756789	2.5993824
25.114852937159508	7.9044256	2.811481
25.132809537377444	8.416476	2.9011164
25.150766764847468	8.4835825	2.912659
25.168724620076347	7.9574056	2.8208873
25.186683103570985	6.8521023	2.617652
25.204642215838426	5.6401887	2.3749082
25.222601957385894	4.314362	2.0771043
25.24056232872074	3.3010895	1.8168901
25.25852333035048	2.666038	1.6328007
25.276484962782778	2.2960072	1.5152581
25.294447226525435	2.1052012	1.4509312
25.312410122086423	1.9931165	1.4117777
25.330373649973843	1.9434723	1.3940847
25.348337810695988	1.8962605	1.3770478
25.366302604761245	1.8991135	1.3780832
25.384268032678207	1.9120864	1.3827821
25.40223409495558	1.8961242	1.3769983
25.420200792102257	1.8514198	1.3606689
25.438168124627246	1.8636243	1.3651463
25.45613609303974	1.8765837	1.3698846
25.474104697849057	1.8690808	1.3671433
25.492073939564698	1.8594854	1.3636295
25.510043818696285	1.8360016	1.3549914
25.528014335753614	1.8512187	1.360595
25.54598549124664	1.8202255	1.3491573
25.56395728568544	1.7876068	1.3370142
25.58192971958028	1.8105767	1.3455768
25.59990279344156	1.8174571	1.348131
25.617876507779833	1.8216587	1.3496884
25.635850863105826	1.8693151	1.367229
25.653825859930386	1.9167497	1.3844674
25.671801498764548	1.8834358	1.3723832
25.68977778011949	1.8634065	1.3650665
25.707754704506524	1.8438216	1.3578739
25.725732272437153	1.7993351	1.341393
25.743710484423012	1.8040482	1.3431486
25.761689340975888	1.8648148	1.3655822
25.77966884260774	1.8829972	1.3722234
25.797648989830662	1.8224566	1.3499839
25.815629783156922	1.8086659	1.3448665
25.83361122309895	1.8259683	1.3512839
25.85159331016929	1.8508391	1.3604555
25.869576044880695	1.8524892	1.3610618
25.887559427746034	1.8644893	1.365463
25.90554345927836	1.8585852	1.3632994
25.92352813999086	1.8295115	1.3525944
25.94151347039689	1.8466183	1.3589033
25.959499451009965	1.9059695	1.3805685
25.97748608234374	1.9360384	1.391416
25.995473364912062	1.8705813	1.367692
26.013461299228904	1.8202585	1.3491696
26.03144988580839	1.8054284	1.3436623
26.04943912516483	1.8203238	1.3491938
26.067429017812675	1.8391516	1.3561532
26.085419564266537	1.8583095	1.3631983
26.103410765041186	1.8505104	1.3603346
26.12140262065155	1.8437328	1.3578413
26.139395131612723	1.834359	1.3543851
26.157388298439948	1.826616	1.3515236
26.17538212164861	1.840299	1.3565762
26.193376601754295	1.8423098	1.3573171
26.211371739272714	1.8520793	1.3609113
26.229367534719746	1.8338609	1.3542012
26.247363988611433	1.8313621	1.3532783
26.26536110146397	1.8179543	1.3483154
26.283358873793727	1.80547	1.3436778
26.301357306117204	1.8399427	1.3564448
26.319356398951104	1.8659772	1.3660078
26.33735615281224	1.7640886	1.32819
26.35535656821762	1.7250655	1.3134174
26.373357645684404	1.6975188	1.3028886
26.39135938572991	1.774134	1.3319663
26.409361788871614	1.8505259	1.3603404
26.427364855627165	1.9000612	1.3784271
26.445368586514352	1.8470634	1.3590671
26.46337298205115	1.8134767	1.3466539
26.48137804275568	1.7744759	1.3320946
26.499383769146217	1.8028435	1.3427
26.517390161741215	1.8319526	1.3534964
26.53539722105928	1.8920348	1.3755126
26.553404947619182	1.8613932	1.3643289
26.571413341939856	1.7863047	1.3365271
26.589422404540397	1.7441725	1.3206712
26.60743213594006	1.7376407	1.318196
26.62544253665827	1.8007026	1.3419026
26.64345360721459	1.782063	1.3349394
26.66146534812879	1.7502018	1.3229519
26.679477759920758	1.7908673	1.3382329
26.69749084311057	1.8469113	1.3590112
26.71550459821847	1.8544825	1.3617939
26.733519025764842	1.8098841	1.3453193
26.751534126270258	1.7780021	1.3334174
26.769549900255434	1.7725224	1.3313612
26.787566348241267	1.809832	1.3453
26.80558347074881	1.8258226	1.35123
26.823601268299267	1.8188448	1.3486456
26.841619741414036	1.8292936	1.3525138
26.85963889061465	1.8430957	1.3576066
26.877658716422832	1.8266782	1.3515465
26.89567921936045	1.7925416	1.3388584
26.913700399949544	1.7962627	1.3402473
26.93172225871233	1.8542778	1.3617187
26.949744796171174	1.8595318	1.3636465
26.967768012848605	1.8359121	1.3549583
26.98579190926733	1.8292226	1.3524876
27.003816485950225	1.8055533	1.3437088
27.021841743420318	1.7933805	1.3391715
27.039867682200814	1.7992485	1.3413607
27.057894302815072	1.805149	1.3435583
27.07592160578664	1.8076813	1.3445004
27.0939495916392	1.8327217	1.3537805
27.111978260896635	1.8371572	1.3554177
27.13000761408296	1.826249	1.3513879
27.148037651722397	1.7889961	1.3375336
27.166068374339304	1.7818555	1.3348616
27.184099782458215	1.7754384	1.3324558
27.20213187660384	1.7712134	1.3308694
27.22016465730105	1.7629465	1.32776
27.23819812507487	1.7904489	1.3380766
27.256232280450533	1.7891151	1.337578
27.274267123953383	1.8242735	1.3506566
27.292302656108987	1.8562515	1.3624432
27.31033887744306	1.8534424	1.3614119
27.32837578848146	1.812571	1.3463175
27.34641338975026	1.7489073	1.3224626
27.364451681775673	1.7173446	1.310475
27.382490665084074	1.7124188	1.3085942
27.400530340202046	1.7247549	1.3132993
27.41857070765629	1.7469347	1.3217165
27.436611767973726	1.7751945	1.3323643
27.454653521681404	1.7994126	1.3414218
27.472695969306564	1.7604903	1.3268347
27.490739111376627	1.7399472	1.3190706
27.508782948419153	1.7441975	1.3206807
27.526827480961902	1.7927115	1.3389218
27.54487270953279	1.834703	1.3545121
27.562918634659898	1.8475322	1.3592396
27.580965256871508	1.7923664	1.3387929
27.599012576696026	1.7427921	1.3201485
27.617060594662068	1.7519099	1.3235973
27.63510931129842	1.7851961	1.3361123
27.65315872713401	1.8038639	1.34308
27.67120884269797	1.8060594	1.3438971
27.68925965851958	1.8323714	1.3536512
27.707311175128307	1.8642242	1.365366
27.725363393053787	1.8792655	1.3708631
27.74341631282583	1.8695779	1.3673251
27.7614699349744	1.8805548	1.3713332
27.77952426002968	1.9899287	1.4106483
27.797579288521973	2.0215216	1.4218023
27.815635020981784	2.4087355	1.5520102
27.83369145793979	2.4971523	1.5802381
27.85174859992682	2.4327188	1.5597175
27.869806447473923	2.3354998	1.5282342
27.887865001112267	2.007523	1.4168708
27.905924261373233	1.9211284	1.3860477
27.92398422878836	1.9255438	1.3876396
27.94204490388936	1.8714671	1.3680158
27.96010628720813	1.8342146	1.3543317
27.978168379276728	1.8536494	1.361488
27.9962311806274	1.8467764	1.3589615
28.014294691792568	1.8204606	1.3492445
28.0323589133048	1.7765932	1.3328891
28.050423845696887	1.8286927	1.3522916
28.068489489501758	1.8569374	1.3626949
28.086555845252523	1.8424559	1.357371
28.104622913482487	1.8371267	1.3554065
28.122690694725115	1.8710881	1.3678772
28.14075918951405	1.8877993	1.373972
28.15882839838312	1.8813335	1.3716171
28.176898321866304	1.8976238	1.3775426
28.1949689604978	1.8877286	1.3739463
28.213040314811945	1.8998016	1.3783329
28.23111238534327	1.8978913	1.3776398
28.249185172626493	1.8984985	1.3778602
28.267258677196473	1.9047396	1.380123
28.285332899588294	1.9080801	1.3813328
28.303407840337172	1.9179925	1.3849161
28.321483499978545	1.9135281	1.3833033
28.33955987904799	1.9091322	1.3817135
28.357636978081285	1.9390256	1.392489
28.37571479761439	1.9448127	1.3945653
28.393793338183425	1.9564942	1.3987473
28.41187260032469	1.9771066	1.4060962
28.429952584574686	1.9509676	1.3967704
28.448033291470065	1.9368922	1.3917227
28.46611472154769	1.9699082	1.4035342
28.484196875344566	1.9627147	1.4009691
28.502279753397914	1.9313834	1.3897423
28.52036335624511	1.9377298	1.3920237
28.538447684423716	2.0022676	1.4150151
28.556532738471482	2.0104	1.4178858
28.574618518926325	1.9835459	1.4083842
28.59270502632635	2.0089715	1.4173819
28.61079226120985	2.0381966	1.4276543
28.628880224115274	2.0234218	1.4224703
28.646968915581287	2.0005794	1.4144183
28.66505833614671	1.9979067	1.4134732
28.68314848635055	1.9891946	1.4103881
28.701239366732004	2.0022137	1.414996
28.71933097783044	2.0360792	1.4269124
28.737423320185403	2.0626795	1.4362031
28.75551639433665	2.082038	1.4429269
28.773610200824074	2.090267	1.4457755
28.791704740187793	2.0640335	1.4366745
28.80980001296809	2.094392	1.4472015
28.827896019705413	2.129652	1.4593327
28.845992760940433	2.1478941	1.4655696
28.86409023721397	2.1557148	1.4682353
28.88218844906704	2.1717105	1.4736725
28.900287397040845	2.1219745	1.4566998
28.918387081676755	2.0864747	1.4444635
28.936487503516343	2.1698947	1.4730562
28.954588663101365	2.273598	1.5078455
28.97269056097374	2.3564239	1.5350648
28.990793197675597	2.3354616	1.5282217
29.00889657374923	2.3318527	1.5270405
29.027000689737125	2.3300931	1.5264642
29.04510554618196	2.3612034	1.5366207
29.06321114362659	2.3737128	1.5406858
29.08131748261405	2.3948324	1.5475246
29.099424563687567	2.4181604	1.5550436
29.11753238739057	2.4874625	1.5771692
29.13564095426663	2.556848	1.5990148
29.15375026485954	2.6011856	1.6128191
29.171860319713275	2.604283	1.6137792
29.18997111937199	2.6319385	1.6223251
29.20808266438002	2.7040815	1.6444092
29.226194955281898	2.7345088	1.653635
29.244307992622335	2.7937634	1.6714555
29.26242177694624	2.8450994	1.6867423
29.2805363087987	2.8657713	1.6928589
29.29865158872498	2.866285	1.6930107
29.316767617270557	2.8553245	1.6897706
29.334884394981064	2.9403756	1.7147523
29.353001922402367	3.0229924	1.7386755
29.37112020008047	3.0122373	1.7355798
29.389239228561596	3.0361102	1.7424437
29.407359008392152	3.279724	1.8110008
29.42547954011872	3.670513	1.9158583
29.44360082428809	4.265035	2.065196
29.46172286144722	5.3436656	2.311637
29.479845652143283	6.9394407	2.6342819
29.497969196923606	9.101973	3.0169475
29.516093496335728	11.756757	3.4288127
29.5342185509274	14.619212	3.8235078
29.55234436124651	17.04994	4.1291575
29.570470927841175	18.598335	4.3125787
29.588598251259686	18.30739	4.2787137
29.60672633205055	16.85134	4.105038
29.624855170762405	14.56163	3.8159704
29.642984767944146	11.850004	3.4423835
29.66111512414481	9.086018	3.0143023
29.67924623991366	6.677594	2.584104
29.697378115800138	5.0618396	2.2498531
29.71551075235387	4.2105155	2.051954
29.733644150124675	3.7822788	1.9448081
29.751778309662576	3.509318	1.8733174
29.769913231517766	3.3960583	1.8428397
29.78804891624066	3.3278081	1.824228
29.806185364381818	3.25672	1.8046385
29.82432257649206	3.3398263	1.8275192
29.842460553122333	3.3969572	1.8430836
29.86059929482382	3.3504808	1.8304318
29.878738802147872	3.3053546	1.8180634
29.896879075646048	3.2887766	1.8134985
29.915020115870114	3.2452018	1.8014444
29.933161923371976	3.1855702	1.7848166
29.951304498703777	3.186958	1.7852054
29.969447842417857	3.2136607	1.7926686
29.987591955066733	3.1584337	1.7771983
30.005736837203123	3.1271281	1.7683687
30.023882489379943	3.0927174	1.7586124
30.04202891215028	3.1273448	1.76843
30.060176106067455	3.2525082	1.8034711
30.078324071684946	3.24596	1.8016548
30.09647280955646	3.1672368	1.7796732
30.114622320235863	3.1266723	1.7682399
30.132772604277257	3.096875	1.759794
30.1509236622349	3.049757	1.7463553
30.16907549466328	3.0272627	1.7399031
30.18722810211705	3.0410025	1.743847
30.205381485151097	3.056453	1.7482715
30.22353564432045	3.0255144	1.7394006
30.241690580180403	2.9453793	1.7162107
30.25984629328638	2.925267	1.7103412
30.278002784194037	2.93841	1.7141792
30.296160053459246	3.0120258	1.7355189
30.314318101638033	3.024604	1.7391388
30.332476929286646	3.0060744	1.7338035
30.35063653696153	2.9501019	1.717586
30.368796925219307	2.953666	1.7186233
30.386958094616844	2.877889	1.6964341
30.40512004571115	2.7915254	1.6707859
30.423282779059463	2.76959	1.6642085
30.441446295219233	2.8671446	1.6932645
30.459610594748067	2.8896146	1.6998867
30.47777567820382	2.887435	1.6992455
30.495941546144504	2.8418334	1.6857738
30.51410819912835	2.8408303	1.6854763
30.532275637713795	2.935694	1.7133867
30.55044386245946	2.9676843	1.7226968
30.56861287392416	2.9425251	1.715379
30.586782672666956	2.8903115	1.7000916
30.604953259247047	2.8402395	1.6853011
30.623124634223885	2.812029	1.6769105
30.641296798157075	2.826282	1.681155
30.659469751606462	2.773787	1.665469
30.677643495132074	2.6787186	1.6366792
30.695818029294152	2.645664	1.6265497
30.713993354653116	2.6765656	1.6360213
30.73216947176962	2.7388277	1.6549404
30.75034638120448	2.723299	1.6502421
30.768524083518756	2.687022	1.6392138
30.786702579273673	2.7571146	1.6604562
30.80488186903069	2.8487701	1.68783
30.82306195335144	2.9075081	1.7051417
30.841242832797782	2.9689763	1.7230717
30.85942450793176	3.2376032	1.799334
30.877606979315637	3.5871327	1.8939728
30.895790247511883	4.0344443	2.0085926
30.913974313083134	4.55452	2.1341321
30.932159176592283	4.9351826	2.221527
30.95034483860237	4.9420953	2.2230823
30.968531299676698	4.654244	2.1573696
30.98671856037873	4.3259683	2.0798962
31.00490662127215	3.9223547	1.9804935
31.023095482920848	3.4937377	1.8691542
31.04128514588892	3.0436456	1.7446047
31.059475610740662	2.7565598	1.660289
31.07766687804056	2.6574795	1.6301777
31.09585894835335	2.589676	1.609247
31.11405182224393	2.502891	1.5820528
31.132245500277417	2.4642782	1.5698019
31.15043998301914	2.448226	1.5646808
31.168635271034628	2.2990525	1.5162627
31.18683136488964	2.225224	1.4917185
31.20502826515008	2.3019762	1.5172265
31.223225972382135	2.3674545	1.5386535
31.241424487152155	2.3445432	1.5311902
31.259623810026692	2.3776245	1.5419548
31.27782394157253	2.426269	1.5576485
31.296024882356644	2.4371438	1.5611354
31.314226632946237	2.3558526	1.5348787
31.332429193908684	2.2611842	1.5037235
31.350632565811598	2.2903783	1.5133996
31.368836749222787	2.3697364	1.5393949
31.387041744710295	2.4957702	1.5798007
31.40524755284232	2.4829996	1.5757537
31.423454174187317	2.4939263	1.579217
31.441661609313922	2.5169559	1.5864917
31.459869858791002	2.494543	1.5794122
31.478078923187628	2.3936677	1.5471482
31.496288803073064	2.3311954	1.5268253
31.514499499016807	2.2999055	1.516544
31.532711011588546	2.272952	1.5076313
31.550923341358178	2.2583506	1.5027809
31.56913648889584	2.2583995	1.5027972
31.587350454771844	2.2874029	1.5124162
31.605565239556732	2.3444352	1.5311549
31.62378084382127	2.3702052	1.5395471
31.641997268136382	2.3402314	1.5297815
31.660214513073274	2.3026865	1.5174606
31.67843257920331	2.2682257	1.506063
31.6966514670981	2.274894	1.5082752
31.71487117732944	2.3223484	1.5239253
31.733091710469346	2.3508005	1.5332321
31.751313067090052	2.3767302	1.5416647
31.769535247764008	2.429118	1.5585628
31.787758253063878	2.396777	1.5481527
31.805982083562526	2.2728412	1.5075945
31.824206739833024	2.1933594	1.4809995
31.84243222244869	2.132111	1.460175
31.860658531983013	2.1324162	1.4602795
31.878885669009737	2.137762	1.4621087
31.897113634102784	2.1466725	1.4651527
31.91534242783632	2.1540825	1.4676793
31.933572050784694	2.1490386	1.4659599
31.951802503522508	2.1656518	1.4716153
31.970033786624548	2.1317205	1.4600413
31.988265900665834	2.1385539	1.4623796
32.006498846221575	2.1067092	1.4514507
32.02473262386724	2.056719	1.4341266
32.04296723417845	2.058501	1.4347477
32.0612026777311	2.0824277	1.443062
32.07943895510129	2.1027513	1.4500866
32.097676066865304	2.1565166	1.4685082
32.115914013599685	2.1680856	1.472442
32.13415279588115	2.1278327	1.4587092
32.152392414286666	2.1297638	1.4593711
32.1706328693934	2.1210642	1.4563874
32.18887416177875	2.06887	1.4383568
32.20711629202032	2.0656745	1.4372455
32.225359260695924	2.139826	1.4628145
32.243603068383614	2.0897045	1.4455811
32.26184771566166	2.0812242	1.4426448
32.28009320310852	2.0862148	1.4443735
32.2983395313029	2.0509188	1.4321029
32.31658670082372	2.0672338	1.4377878
32.33483471225012	2.1094947	1.45241
32.35308356616143	2.067713	1.4379544
32.371333263137245	1.9908293	1.4109675
32.38958380375734	1.9028298	1.379431
32.407835188601744	1.9182267	1.3850006
32.42608741825067	2.042717	1.4292365
32.444340493284585	2.1003988	1.4492753
32.46259441428416	2.1501396	1.4663354
32.48084918183028	2.1131504	1.4536679
32.49910479650405	2.0566103	1.4340887
32.51736125888683	2.0317144	1.4253823
32.53561856956014	1.9990621	1.4138819
32.5538767291058	2.0515592	1.4323266
32.572135738105764	2.145297	1.4646833
32.59039559714228	2.1117659	1.4531916
32.608656306797776	1.9991863	1.4139259
32.62691786765491	1.9227594	1.386636
32.645180280296586	1.9406306	1.3930652
32.663443545305896	1.9692879	1.4033132
32.68170766326619	1.9250851	1.3874743
32.69997263476099	1.8847415	1.3728589
32.7182384603741	1.8582125	1.3631626
32.7365051406895	1.9149324	1.3838108
32.75477267629144	1.9036716	1.3797361
32.77304106776434	2.0610738	1.435644
32.79131031569289	2.1824229	1.4773026
32.809580420661966	2.1469138	1.4652351
32.827851383256714	2.06052	1.4354511
32.84612320406245	2.0416276	1.4288554
32.86439588366476	2.0062141	1.4164089
32.88266942264945	1.9263268	1.3879217
32.9009438216025	1.9234066	1.3868693
32.9192190811102	1.9630959	1.4011053
32.937495201758985	1.9878742	1.4099199
32.95577218413556	1.9528044	1.3974278
32.974050028826866	1.9766719	1.4059416
32.992328736420035	1.9849855	1.4088951
33.010608307502444	1.965149	1.4018377
33.02888874266169	1.9581352	1.3993338
33.047170042485604	1.8988498	1.3779876
33.06545220756225	1.7913915	1.3384287
33.083735238479896	1.7892276	1.3376201
33.10201913582707	1.896193	1.3770232
33.12030390019248	1.9912809	1.4111276
33.138589532165135	1.9448768	1.3945884
33.15687603233419	1.8867279	1.3735821
33.17516340128909	1.8522689	1.3609809
33.19345163961947	1.8729727	1.3685659
33.211740747915215	1.9396459	1.3927118
33.23003072676643	2.0467267	1.4306386
33.248321576763466	2.0462742	1.4304804
33.266613298496885	1.942108	1.3935953
33.28490589255747	1.9821423	1.4078858
33.30319935953626	2.132407	1.4602764
33.32149370002451	2.09509	1.4474425
33.339788914613706	1.9519753	1.3971311
33.358085003895575	1.864007	1.3652865
33.376381968462034	1.880249	1.3712218
33.39467980890529	1.9369267	1.3917352
33.41297852581774	1.9765517	1.4058989
33.43127811979204	1.9478067	1.3956385
33.44957859142105	1.7991005	1.3413055
33.467879941297866	1.7794528	1.3339614
33.486182170015844	1.878418	1.3705539
33.50448527816853	2.0082889	1.4171411
33.522789266349754	2.0105937	1.4179541
33.541094135153514	1.993533	1.4119253
33.55939988517411	2.0321312	1.4255284
33.57770651700602	2.0176926	1.4204551
33.59601403124398	1.9548854	1.3981721
33.61432242848296	1.964098	1.4014628
33.632631709318154	1.9347844	1.3909652
33.650941874344994	1.9680364	1.4028672
33.66925292415916	1.8935189	1.3760519
33.68756485935654	1.7935061	1.3392185
33.70587768053328	1.829036	1.3524185
33.724191388285746	1.8770055	1.3700385
33.74250598321054	1.8725884	1.3684255
33.760821465904506	1.8999703	1.3783941
33.77913783696474	1.8301252	1.3528212
33.79745509698852	1.7092625	1.3073877
33.815773246573414	1.7786841	1.3336731
33.8340922863172	1.8874581	1.373848
33.852412216817896	1.9305673	1.3894485
33.87073303867377	1.9649849	1.4017792
33.889054752483304	1.9670702	1.4025228
33.907377358845245	1.9635462	1.4012659
33.92570085835853	1.8851279	1.3729995
33.94402525162239	1.8531897	1.3613191
33.96235053923627	1.8866266	1.3735453
33.980676721799824	2.003634	1.4154978
33.999003799912984	2.0164623	1.4200219
34.01733177417592	1.9317299	1.3898668
34.03566064518901	1.7727844	1.3314595
34.0539904135529	1.7011504	1.3042816
34.07232107986846	1.7108662	1.3080008
34.090652644736785	1.9521374	1.3971891
34.108985108759235	2.093255	1.4468086
34.12731847253742	2.0240488	1.4226907
34.14565273667313	2.0007238	1.4144695
34.16398790176847	1.8844014	1.372735
34.18232396842574	1.8488129	1.3597106
34.20066093724749	1.9264295	1.3879588
34.21899880883651	1.9262803	1.387905
34.23733758379583	1.9942816	1.4121903
34.25567726272874	2.0619996	1.4359664
34.27401784623872	2.0197952	1.421195
34.29235933492957	1.927267	1.3882604
34.31070172940526	1.9413185	1.3933121
34.32904503027003	1.9034021	1.3796384
34.347389238128386	1.848698	1.3596684
34.36573435358502	1.9148018	1.3837637
34.38408037724492	1.9315917	1.3898171
34.402427309713296	1.897035	1.377329
34.42077515159559	1.9796182	1.4069891
34.43912390349752	1.8926618	1.3757404
34.45747356602499	1.9749093	1.4053147
34.47582413978423	2.1411207	1.4632568
34.49417562538163	2.093351	1.4468417
34.51252802342388	1.9853421	1.4090217
34.53088133451789	2.0695496	1.4385929
34.54923555927084	2.1422002	1.4636257
34.567590698290104	2.0880406	1.4450054
34.58594675218336	2.0333674	1.425962
34.6043037215585	1.9673758	1.4026318
34.62266160702365	1.9062741	1.3806789
34.641020409187234	1.9340047	1.390685
34.65938012865785	1.9689546	1.4031944
34.677740766044394	2.045456	1.4301944
34.69610232195598	2.042855	1.4292848
34.714464797002016	2.0416412	1.4288601
34.73282819179208	1.9282131	1.3886012
34.751192506936064	1.7971492	1.340578
34.76955774304408	1.7953912	1.3399221
34.7879239007265	1.8419273	1.3571762
34.80629098059391	1.8345236	1.3544458
34.824658983257194	1.8367465	1.3552662
34.843027909327446	1.8799366	1.3711078
34.86139775941603	1.9092866	1.3817694
34.879768534134534	2.0953426	1.4475298
34.89814023409483	2.006255	1.4164233
34.91651285990901	1.9342995	1.3907909
34.93488641218944	2.0376818	1.4274739
34.95326089154871	2.0096972	1.417638
34.97163629859967	1.8866576	1.3735565
34.99001263395542	1.7415936	1.3196945
35.00838989822934	1.8265855	1.3515123
35.02676809203499	1.9422839	1.3936584
35.04514721598624	1.8530571	1.3612704
35.063527270697215	1.7768611	1.3329896
35.081908256782256	1.8350757	1.3546497
35.10029017485597	1.7881557	1.3372194
35.11867302553321	1.8266904	1.3515512
35.137056809429104	1.933706	1.3905776
35.155441527159006	1.9672371	1.4025823
35.173827179338524	1.992316	1.4114943
35.19221376658354	2.013494	1.4189764
35.21060128951017	2.294341	1.5147083
35.2289897487348	2.4989579	1.5808092
35.24737914487405	2.3440895	1.531042
35.26576947854479	2.2108526	1.4868937
35.28416075036418	2.0646327	1.436883
35.30255296094958	1.7873718	1.3369262
35.32094611091867	1.7499115	1.3228422
35.33934020088932	2.0120478	1.4184667
35.35773523147969	2.391515	1.5464524
35.3761312033082	2.4955204	1.5797216
35.394528116993506	2.46125	1.5688372
35.41292597315452	2.459732	1.5683533
35.431324772410434	2.3103998	1.52
35.449724515380666	2.1598265	1.4696348
35.46812520268491	2.2354395	1.4951386
35.486526834943106	2.4092598	1.5521791
35.504929412775454	2.7057745	1.6449239
35.52333293680242	2.4072838	1.5515424
35.54173740764471	1.9567789	1.3988491
35.560142825923286	2.301631	1.5171127
35.5785491922594	2.3139029	1.5211518
35.59695650727454	2.276551	1.5088243
35.61536477159042	2.2280354	1.4926605
