0.008763373481513119	0.0	0.0
0.026290120649546365	0.0	0.0
0.043816868432600686	0.0	0.0
0.06134361724069026	0.08277691	0.28770977
0.07887036748382949	0.14230978	0.3772397
0.0963971195720331	0.1649997	0.40620154
0.11392387391531617	0.16764887	0.40944946
0.1314506309236943	0.22335915	0.47260886
0.1489773910071836	0.24339555	0.49335134
0.16650415457580078	0.2282559	0.47776133
0.18403092203956356	0.12933627	0.3596335
0.20155769380849	0.06869761	0.26210228
0.2190844702925996	0.026976338	0.16424476
0.2366112519019124	0.014092244	0.11871076
0.2541380390464497	0.052609324	0.22936723
0.27166483213623416	0.056655314	0.23802377
0.28919163158128947	0.0827987	0.28774762
0.3067184377916406	0.12869142	0.35873586
0.324245251177314	0.14696561	0.38336092
0.34177207214833777	0.1774113	0.4212022
0.3592989011147415	0.18846363	0.434124
0.37682573848655654	0.15022802	0.3875926
0.39435258467381573	0.109579675	0.33102822
0.41187944008655414	0.1252532	0.35391128
0.42940630513480854	0.112040944	0.33472517
0.446933180228618	0.10973548	0.33126345
0.4644600657780234	0.09792223	0.31292528
0.48198696219306775	0.11341465	0.33677092
0.49951386988379676	0.14363903	0.3789974
0.5170407892602581	0.1180897	0.34364182
0.5345677207325025	0.16350475	0.4043572
0.5520946647105822	0.15659575	0.39572182
0.5696216216045534	0.22370358	0.47297314
0.5871485918244737	0.19424121	0.44072804
0.6046755757804043	0.23671807	0.48653683
0.6222025738824094	0.17784758	0.4217198
0.6397295865405557	0.1628972	0.40360525
0.6572566141649129	0.12540764	0.3541294
0.6747836571655547	0.11454941	0.3384515
0.6923107159525568	0.100281835	0.31667307
0.7098377909359992	0.0714762	0.26735032
0.7273648825259653	0.06331656	0.25162783
0.7448919911325411	0.09636591	0.3104286
0.762419117165817	0.09503822	0.3082827
0.7799462610358868	0.13966912	0.37372333
0.7974734231528482	0.19198854	0.43816498
0.8150006039268024	0.24490617	0.49487996
0.8325278037678551	0.24243142	0.49237326
0.8500550230861152	0.20903105	0.45719913
0.8675822622916969	0.17110114	0.41364375
0.8851095217947171	0.21245766	0.4609313
0.9026368020052984	0.22887592	0.4784098
0.9201641033335665	0.2175153	0.46638536
0.9376914261896523	0.18901524	0.43475884
0.9552187709836915	0.19659057	0.44338536
0.9727461381258234	0.21263789	0.46112674
0.990273528026193	0.2368251	0.48664677
1.0078009410949496	0.23514748	0.48492008
1.0253283777422473	0.24430586	0.49427307
1.0428558383782454	0.28214258	0.53117096
1.0603833234131086	0.3028309	0.5503007
1.0779108332570058	0.30218259	0.54971135
1.0954383683201119	0.28672737	0.5354693
1.112965929012607	0.32699066	0.571831
1.1304935157446763	0.5423206	0.7364242
1.1480211289265108	0.5629221	0.75028133
1.1655487689683062	1.3701434	1.1705313
1.1830764362802655	1.5900334	1.2609652
1.200604131272596	2.0302997	1.4248859
1.2181318543555117	2.3840075	1.5440232
1.235659605939232	2.4627292	1.5693085
1.253187386433982	3.9948013	1.9986999
1.270715196249994	6.387698	2.5273895
1.2882430357975057	11.790791	3.433772
1.3057709054867608	16.28539	4.0355163
1.3232988057280106	22.184946	4.7100897
1.3408267369315112	27.020288	5.1981044
1.358354699507526	30.589294	5.530759
1.3758826938663256	34.20298	5.8483315
1.3934107204181858	36.13859	6.011538
1.410938779573391	36.511055	6.042438
1.4284668717422309	37.427162	6.1177745
1.4459949973350033	37.19991	6.0991726
1.4635231567620117	37.30626	6.107885
1.4810513504335687	36.31205	6.025948
1.4985795787599925	35.307453	5.9420075
1.5161078421516088	34.877525	5.9057198
1.5336361410187505	34.19241	5.8474274
1.5511644757717598	33.75518	5.809921
1.5686928468209842	34.724964	5.8927894
1.58622125457678	35.607567	5.9672074
1.6037496994495108	36.952755	6.078878
1.621278181849548	36.77053	6.063871
1.6388067021872719	37.323048	6.109259
1.6563352608730693	36.639385	6.0530477
1.673863858317336	35.92375	5.993643
1.6913924949304753	35.10705	5.9251204
1.7089211711228998	34.442245	5.8687515
1.7264498873050296	33.336594	5.773785
1.7439786438872935	32.337772	5.686631
1.7615074412801288	31.470793	5.6098833
1.779036279893981	30.50378	5.5230227
1.796565160139305	29.50741	5.432072
1.814094082426564	28.789297	5.365566
1.8316230471662298	28.188332	5.3092685
1.849152054768784	27.40136	5.2346306
1.8666811056447168	26.707766	5.167956
1.8842102002045273	25.949022	5.0940185
1.901739338858724	25.66428	5.0659924
1.9192685220178245	25.242283	5.02417
1.9367977500923557	24.687044	4.968606
1.9543270234928547	24.317316	4.931259
1.971856342629867	23.984478	4.897395
1.9893857079139496	23.369053	4.8341546
2.006915119755667	22.812914	4.7762866
2.0244445785655945	22.119915	4.7031813
2.0419740847543175	21.508291	4.6377034
2.0595036387324317	21.024288	4.585225
2.0770332409105414	20.719463	4.5518637
2.094562891699263	20.491863	4.526794
2.1120925915092217	19.832134	4.4533286
2.129622340751053	19.498322	4.4156904
2.1471521398354043	187.84225	13.705556
2.1646819891729323	444.22552	21.076658
2.182211889174303	440.39246	20.985529
2.1997418402501974	452.90033	21.281456
2.2172718428113023	432.73248	20.802223
2.234801897268317	320.43088	17.900583
2.2523320040319548	16.679195	4.0840173
2.269862163512935	16.401117	4.0498295
2.287392376121992	16.355936	4.044247
2.304922642269869	15.9652405	3.9956527
2.322452962367322	15.697377	3.9619915
2.3399833368251164	15.202548	3.8990445
2.357513766054032	14.952682	3.8668697
2.3750442504648586	14.614838	3.8229358
2.3925747904683963	14.243252	3.7740233
2.410105386475459	14.228897	3.772121
2.4276360388968707	13.938066	3.733372
2.445166748143469	13.846524	3.7210917
2.4626975146261025	13.503425	3.6747007
2.4802283387556323	13.092815	3.6183996
2.4977592209429305	12.823464	3.5809865
2.5152901615988825	12.570396	3.5454755
2.5328211611343865	12.521942	3.5386357
2.5503522199603523	12.327939	3.5111165
2.5678833384877024	12.192601	3.4917905
2.5854145171273712	12.037096	3.469452
2.6029457562903064	11.871213	3.4454627
2.620477056387469	11.629139	3.4101524
2.6380084178298326	11.458728	3.3850744
2.655539841028383	11.181336	3.3438506
2.673071326394119	10.989135	3.3149865
2.6906028743380523	10.837494	3.2920349
2.708134485271211	10.703497	3.27162
2.7256661596046325	10.58002	3.2526944
2.743197897749369	10.308832	3.210737
2.760729700116486	10.138463	3.1840954
2.778261567117063	9.925909	3.150541
2.795793499162193	9.872415	3.1420398
2.8133254966629817	9.929032	3.1510367
2.830857560030551	9.862722	3.1404972
2.8483896896760337	9.80905	3.1319401
2.865921886010578	9.670269	3.1097057
2.883454149445347	9.539878	3.0886693
2.9009864803915177	9.523952	3.08609
2.91851887926028	9.355425	3.0586638
2.9360513464628384	9.140059	3.0232532
2.953583882410413	8.977752	2.9962897
2.9711164875142373	8.931876	2.9886246
2.9886491621855606	8.9033785	2.9838529
3.0061819068356455	8.825441	2.9707644
3.023714721875769	8.61398	2.9349582
3.041247607717225	8.358979	2.8911898
3.0587805647713213	8.153393	2.8554146
3.0763135934493806	8.021684	2.8322577
3.0938466941627407	7.916059	2.8135493
3.1113798673227544	7.7852793	2.7902114
3.1289131133407904	7.6985855	2.7746325
3.1464464326282315	7.6530447	2.7664137
3.1639798255964786	7.6683125	2.7691717
3.1815132926569443	7.5376916	2.7454858
3.1990468342210603	7.4562736	2.7306178
3.216580450700272	7.355135	2.7120352
3.2341141425060416	7.27305	2.6968594
3.251647910049847	7.1111937	2.6666822
3.2691817537431813	7.032379	2.6518633
3.286715673997555	7.0681825	2.6586053
3.3042496712244938	7.0711927	2.6591713
3.32178374583554	6.9519577	2.6366565
3.339317898242251	6.88943	2.6247723
3.3568521288562034	6.761021	2.6001964
3.3743864380889876	6.7873816	2.6052604
3.3919208263522127	6.6637583	2.5814257
3.4094552940575023	6.5995116	2.5689514
3.4269898416164972	6.54877	2.5590565
3.444524469440858	6.5345864	2.5562837
3.4620591779422587	6.5286303	2.5551186
3.479593967532391	6.513702	2.5521955
3.4971288386229658	6.4346447	2.5366602
3.5146637916257086	6.31444	2.5128548
3.5321988269523628	6.1963196	2.4892406
3.5497339450146903	6.1288505	2.4756515
3.5672691462244708	6.1516204	2.480246
3.5848044309934988	6.084912	2.4667614
3.60233979973359	6.2128935	2.4925675
3.619875252856575	6.2124753	2.4924839
3.6374107907743034	6.170993	2.4841483
3.6549464138986427	6.1116667	2.4721785
3.6724821226414788	6.040455	2.4577336
3.690017917414714	6.148431	2.479603
3.7075537986302702	6.214018	2.492793
3.7250897667000857	6.377257	2.5253232
3.7426258220361235	6.491124	2.5477684
3.7601619650503553	6.771552	2.6022205
3.777698196154779	7.303175	2.7024386
3.7952345157614067	8.339148	2.8877583
3.8127709242822716	9.105346	3.0175066
3.830307422129425	11.309573	3.3629708
3.847844009714936	30.086689	5.4851336
3.8653806874508954	97.58577	9.878551
3.882917455749409	96.69947	9.833589
3.900454315022606	96.335686	9.815074
3.917991265682631	40.866314	6.3926764
3.9355283081416506	10.572233	3.251497
3.9530654428118495	8.548817	2.923836
3.970602670105433	7.4497347	2.7294202
3.9881399904346244	6.5999784	2.5690422
4.005677404211669	6.4556165	2.5407906
4.023214911848827	6.339674	2.517871
4.0407525137583855	6.2959347	2.50917
4.058290210352644	6.3146214	2.512891
4.075828002043927	6.125473	2.4749694
4.0933658892445814	6.1084414	2.4715261
4.110903872366966	6.119569	2.4737763
4.128441951823468	6.1319537	2.4762783
4.145980128026488	6.1821003	2.486383
4.163518401388452	6.2056336	2.491111
4.181056772321807	6.1327443	2.4764378
4.1985952412390155	6.091822	2.4681616
4.216133808552567	6.060755	2.46186
4.233672474674966	6.1706715	2.4840837
4.251211240018741	6.3794513	2.5257576
4.268750104996445	6.5598946	2.5612292
4.286289070020643	7.3970256	2.7197473
4.303828135503928	9.078517	3.0130577
4.3213673018589125	29.274265	5.4105697
4.3389065694982305	90.52672	9.514553
4.356445938834537	165.57394	12.867554
4.3739854102805085	171.17415	13.083354
4.391524984248844	172.24998	13.124404
4.409064661152262	136.3804	11.678202
4.426604441403504	96.666954	9.831936
4.444144325415337	75.90378	8.712277
4.461684313600543	21.84961	4.6743565
4.47922440637193	22.230719	4.7149463
4.496764604142329	20.291912	4.5046544
4.5143049073245916	18.26405	4.273646
4.531845316331589	16.266544	4.03318
4.5493858315762195	13.404597	3.661229
4.566926453471405	11.305853	3.3624177
4.584467182430081	9.215152	3.035647
4.602008018865218	8.101234	2.8462667
4.619548963189798	7.4679804	2.7327607
4.637090015816834	7.0518804	2.6555376
4.654631177159353	6.638974	2.5766206
4.672172447630417	6.344774	2.5188835
4.689713827643102	6.092757	2.4683511
4.7072553176105085	5.947296	2.4387078
4.724796917945764	5.8539147	2.4194865
4.742338629062015	5.7062206	2.3887696
4.759880451372434	5.6001005	2.3664532
4.777422385290215	5.5389714	2.353502
4.794964431228581	5.516242	2.348668
4.812506589600768	5.555091	2.356924
4.830048860820047	5.5411124	2.3539567
4.847591245299709	5.5398283	2.353684
4.8651337434530655	5.523756	2.3502672
4.882676355693457	5.5159955	2.3486156
4.900219082434242	5.472841	2.3394103
4.917761924088813	5.3514695	2.3133245
4.935304881070575	5.299889	2.3021488
4.952847953792969	5.308221	2.3039577
4.970391142669449	5.317292	2.3059254
4.9879344481135055	5.338456	2.31051
5.005477870538642	5.2325892	2.2874854
5.023021410358394	5.1306944	2.2651036
5.040565067986324	5.1851425	2.2770908
5.05810884383601	5.275843	2.2969203
5.075652738321066	5.373544	2.3180907
5.09319675185512	5.3539386	2.313858
5.110740884851836	5.4103084	2.326007
5.128285137724894	5.359547	2.3150697
5.145829510888007	5.307727	2.3038504
5.163374004754908	5.3024883	2.3027132
5.1809186197393595	5.373805	2.318147
5.198463356255145	5.349757	2.3129542
5.216008214716077	5.2718267	2.2960458
5.233553195535998	5.1534824	2.2701283
5.251098299128764	5.1001434	2.2583497
5.268643525908272	5.1440153	2.268042
5.286188876288432	5.165744	2.2728274
5.3037343506831895	5.1726494	2.2743459
5.32127994950651	5.1659236	2.2728667
5.3388256731723915	5.152457	2.2699025
5.356371522094851	5.1550145	2.2704656
5.373917496687938	5.120701	2.2628965
5.391463597365729	5.0520687	2.2476807
5.40900982454232	5.0866795	2.2553668
5.426556178631843	5.1483264	2.2689924
5.444102660048449	5.186995	2.2774975
5.4616492692063225	5.126552	2.264189
5.479196006519669	5.045992	2.2463286
5.496742872402727	5.0274944	2.2422075
5.514289867269756	5.0536256	2.248027
5.531836991535049	5.0866065	2.2553506
5.549384245612924	5.0795836	2.2537932
5.566931629917724	5.0828648	2.254521
5.584479144863822	5.1043	2.2592697
5.6020267908656205	5.0765495	2.25312
5.619574568337545	5.059504	2.249334
5.637122477694054	5.0097933	2.2382567
5.654670519349629	5.078517	2.2535565
5.672218693718784	5.099523	2.2582123
5.689767001216059	5.102587	2.2588906
5.707315442256021	5.1038175	2.259163
5.724864017253266	5.072118	2.2521362
5.7424127266224225	5.050856	2.247411
5.75996157077814	5.0904183	2.2561955
5.777510550135105	5.0442486	2.2459404
5.795059665108022	5.034333	2.243732
5.812608916111639	5.070966	2.2518804
5.830158303560715	5.1752443	2.2749164
5.847707827870055	5.168333	2.2733967
5.86525748945448	5.2051196	2.2814732
5.8828072887288485	5.2723784	2.296166
5.900357226108044	5.346336	2.3122146
5.917907302006979	5.4344745	2.3311958
5.9354575168406	6.111967	2.4722393
5.9530078710238765	6.792412	2.6062255
5.970558364971812	7.376904	2.7160456
5.988108999099438	7.5979276	2.756434
6.005659773821818	8.040846	2.8356385
6.023210689554039	7.676408	2.7706332
6.040761746711227	8.0783615	2.8422458
6.058312945708531	7.51378	2.7411275
6.075864286961132	7.146711	2.6733334
6.093415770884244	6.592368	2.5675607
6.1109673978931065	6.005406	2.450593
6.128519168402993	5.4291716	2.3300583
6.146071082829204	5.2673016	2.2950602
6.163623141587075	5.2162023	2.2839007
6.181175345091969	5.18524	2.2771122
6.198727693759281	5.1374097	2.2665854
6.216280188004435	5.1082854	2.2601516
6.233832828242885	5.126876	2.2642605
6.251385614890126	5.143959	2.2680297
6.268938548361669	5.178635	2.2756615
6.286491629073067	5.1225834	2.2633126
6.304044857439898	5.0710287	2.2518945
6.321598233877777	4.945471	2.2238414
6.339151758802344	4.8528395	2.2029161
6.356705432629277	4.8686585	2.2065036
6.37425925577428	4.8831973	2.2097957
6.391813228653095	4.89386	2.212207
6.409367351681486	4.924896	2.2192106
6.426921625275259	4.915257	2.217038
6.44447604985025	4.9872646	2.2332184
6.46203062582232	4.9435773	2.2234156
6.47958535360737	4.9394484	2.222487
6.497140233621328	4.879356	2.2089264
6.514695266280161	4.842695	2.2006125
6.532250451999859	4.9149156	2.216961
6.549805791196454	4.9808083	2.2317724
6.567361284286002	5.014152	2.2392302
6.584916931684597	4.975646	2.2306156
6.602472733808367	4.921746	2.2185009
6.6200286910734665	4.953869	2.2257288
6.637584803896092	4.9892287	2.233658
6.655141072692462	4.9996076	2.2359803
6.672697497878842	4.964155	2.2280383
6.690254079871514	4.9538636	2.2257276
6.707810819086808	4.9094644	2.2157311
6.725367715941078	4.9165654	2.2173328
6.742924770850719	4.8608427	2.204732
6.760481984232151	4.8241982	2.1964056
6.778039356501836	4.84996	2.2022624
6.795596888076266	4.906698	2.2151067
6.813154579371963	4.9284286	2.2200065
6.830712430805492	4.9907064	2.233989
6.84827044279344	5.0012093	2.2363384
6.865828615752445	4.989398	2.233696
6.883386950099159	4.9173393	2.2175074
6.900945446250287	4.8931775	2.2120528
6.918504104622553	4.928145	2.2199426
6.936062925632727	4.9930773	2.2345195
6.953621909697607	5.0202727	2.2405965
6.971181057234028	5.027764	2.2422676
6.988740368658859	5.066824	2.2509606
7.006299844389007	5.1090665	2.2603245
7.023859484841407	5.1809483	2.2761695
7.041419290433036	5.2509685	2.2914991
7.058979261580902	5.393474	2.3223855
7.0765393987020495	5.577464	2.3616655
7.094099702213559	5.90902	2.4308476
7.111660172532549	6.283463	2.5066836
7.129220810076164	6.6584325	2.5803938
7.146781615261595	7.276696	2.6975353
7.16434258850606	7.4599752	2.7312956
7.181903730226821	7.8465724	2.8011734
7.1994650408411704	7.9145637	2.8132834
7.217026520766437	8.077518	2.8420975
7.234588170419983	8.406735	2.8994372
7.252149990219215	8.475954	2.9113493
7.269711980581568	8.3973255	2.897814
7.2872741419245175	8.138276	2.8527663
7.304836474665574	7.688509	2.7728162
7.322398979222286	7.328908	2.7071955
7.339961656012233	7.0829535	2.661382
7.357524505453039	6.784069	2.6046245
7.375087527962357	6.5154333	2.5525346
7.392650723957886	6.183708	2.4867063
7.410214093857353	5.910639	2.4311805
7.427777638078528	5.674515	2.382124
7.445341357039213	5.509286	2.3471868
7.4629052511572525	5.329384	2.3085458
7.480469320850524	5.198113	2.279937
7.498033566536948	5.1529875	2.2700193
7.5155979886344735	5.1453533	2.268337
7.5331625875610975	5.115257	2.2616932
7.550727363734844	5.1130114	2.2611969
7.568292317573788	5.136298	2.2663403
7.585857449496025	5.1812067	2.2762265
7.603422759919705	5.1132584	2.2612514
7.620988249263007	5.0825458	2.2544503
7.638553917944147	5.0816255	2.254246
7.656119766381391	5.0711865	2.2519295
7.673685794993023	5.144137	2.268069
7.691252004197388	5.149457	2.2692416
7.70881839441285	5.1645913	2.2725737
7.726384966057826	5.091899	2.2565236
7.743951719550762	5.072021	2.2521148
7.761518655310149	5.0697436	2.251609
7.779085773754511	5.0908413	2.2562892
7.796653075302419	5.116706	2.2620137
7.814220560372475	5.16943	2.273638
7.831788229383323	5.2400455	2.2891145
7.8493560827536495	5.329043	2.308472
7.866924120902174	5.316324	2.3057156
7.884492344247663	5.2652864	2.2946212
7.9020607532089135	5.2688613	2.2954001
7.919629348204771	5.215367	2.2837179
7.937198129654115	5.22728	2.2863245
7.954767097975865	5.2285438	2.2866008
7.972336253588986	5.189777	2.2781081
7.989905596912472	5.2770476	2.2971826
8.007475128365371	5.3000245	2.3021781
8.025044848366756	5.3614416	2.3154788
8.042614757335754	5.494854	2.3441105
8.060184855691523	5.5275164	2.351067
8.07775514385327	5.7225966	2.392195
8.095325622240228	5.843326	2.4172974
8.112896291271687	5.8997188	2.4289336
8.130467151366968	5.8178906	2.4120305
8.148038202945436	5.7679496	2.4016557
8.165609446426497	5.8003006	2.4083812
8.183180882229594	5.8878965	2.426499
8.200752510774217	5.915085	2.4320948
8.218324332479893	5.893421	2.4276369
8.235896347766193	5.8650966	2.421796
8.253468557052724	5.8132625	2.4110708
8.27104096075914	5.780116	2.4041872
8.288613559305137	5.8466125	2.4179769
8.306186353110448	5.9036016	2.4297328
8.32375934259485	6.0118685	2.4519112
8.341332528178162	6.1028934	2.4704034
8.358905910280246	6.1582093	2.481574
8.376479489321003	6.138982	2.477697
8.394053265720377	6.0847473	2.466728
8.411627239898356	6.1089716	2.4716334
8.42920141227497	6.1533647	2.4805977
8.44677578327029	6.219978	2.4939883
8.464350353304427	6.1834927	2.4866629
8.48192512279754	6.164765	2.4828944
8.499500092169827	6.190609	2.4880934
8.51707526184153	6.1721606	2.4843833
8.534650632232934	6.158978	2.4817288
8.552226203764365	6.2000084	2.4899817
8.569801976856192	6.197284	2.4894345
8.587377951928834	6.1716895	2.4842885
8.60495412940274	6.1660557	2.4831543
8.622530509698416	6.174466	2.4848473
8.6401070932364	6.3240542	2.5147672
8.657683880437283	6.3879375	2.527437
8.675260871721695	6.515107	2.5524707
8.692838067510303	6.6927304	2.5870311
8.710415468223834	6.8535547	2.6179295
8.727993074283043	6.9982767	2.6454256
8.745570886108737	6.987499	2.6433878
8.763148904121765	7.0697455	2.6588993
8.78072712874302	7.118733	2.6680954
8.798305560393441	7.405932	2.7213843
8.815884199494006	7.462276	2.7317166
8.833463046465745	7.6560307	2.7669532
8.851042101729728	7.7346563	2.781125
8.86862136570707	7.9638433	2.8220282
8.886200838818924	8.122675	2.8500307
8.903780521486505	8.107598	2.8473845
8.921360414131055	8.294962	2.8800976
8.938940517173874	8.421467	2.9019763
8.956520831036297	8.6244335	2.9367385
8.97410135613971	8.940205	2.9900174
8.99168209290554	9.094592	3.0157242
9.009263041755265	9.311588	3.0514896
9.026844203110405	9.490472	3.080661
9.044425577392525	9.723962	3.1183267
9.062007165023239	9.814263	3.1327724
9.079588966424197	10.082015	3.1752188
9.097170982017108	10.138143	3.184045
9.11475321222372	11.12566	3.335515
9.132335657465825	12.040708	3.4699724
9.149918318165264	12.151117	3.4858453
9.167501194743924	12.661802	3.5583427
9.18508428762374	12.290732	3.505814
9.202667597226693	12.267775	3.5025382
9.220251123974803	11.836464	3.4404163
9.237834868290143	11.597551	3.4055178
9.255418830594836	11.5325575	3.395962
9.273003011311046	11.098622	3.3314595
9.290587410860985	10.876515	3.2979562
9.308172029666911	10.250819	3.20169
9.32575686815113	9.981709	3.1593843
9.343341926735997	8.721605	2.9532363
9.360927205843916	8.437265	2.9046972
9.378512705897327	8.235261	2.8697145
9.396098427318728	8.046194	2.8365815
9.413684370530664	7.9389057	2.8176064
9.431270535955722	7.797835	2.7924604
9.448856924016539	7.6633005	2.7682667
9.466443535135806	7.550259	2.7477734
9.484030369736251	7.5856986	2.7542148
9.501617428240658	7.5999193	2.7567952
9.519204711071852	7.624599	2.7612677
9.536792218652714	7.591228	2.7552183
9.55437995140617	7.7365875	2.7814722
9.571967909755191	7.823273	2.7970114
9.589556094122802	7.854485	2.8025854
9.60714450493207	7.7544856	2.7846878
9.624733142606116	7.730051	2.780297
9.642322007568108	7.8072267	2.7941415
9.659911100241267	7.9262104	2.8153527
9.677500421048851	7.9970884	2.8279123
9.695089970414175	8.064398	2.8397884
9.712679748760609	8.060055	2.8390236
9.730269756511557	8.038685	2.8352575
9.747859994090492	8.01403	2.8309064
9.765450461920915	8.122485	2.8499973
9.78304116042639	8.141232	2.8532844
9.800632090030527	8.110422	2.8478804
9.81822325115699	8.071225	2.84099
9.835814644229481	8.125777	2.850575
9.853406269671762	8.192592	2.8622704
9.870998127907646	8.257178	2.8735306
9.888590219360985	8.195137	2.862715
9.906182544455698	8.168312	2.8580258
9.923775103615734	8.099726	2.8460016
9.941367897265108	8.149671	2.8547628
9.958960925827878	8.266474	2.8751476
9.97655418972816	8.311589	2.8829827
9.994147689390106	8.292414	2.8796551
10.011741425237934	8.20042	2.8636377
10.029335397695904	8.132851	2.8518152
10.04692960718833	8.1952095	2.8627276
10.06452405413958	8.221678	2.8673468
10.082118738974064	8.244227	2.8712764
10.099713662116246	8.210218	2.8653479
10.117308823990651	8.163892	2.8572526
10.134904225021844	8.131545	2.8515863
10.152499865634445	8.156424	2.8559453
10.170095746253125	8.204327	2.8643196
10.18769186730261	8.204055	2.864272
10.205288229207675	8.214473	2.86609
10.222884832393145	8.131289	2.8515415
10.2404816772839	8.124107	2.850282
10.258078764304868	8.139119	2.852914
10.275676093881035	8.111901	2.84814
10.293273666437438	7.9995146	2.8283412
10.310871482399158	8.003171	2.8289876
10.32846954219134	8.013052	2.8307335
10.346067846239173	8.044527	2.8362875
10.363666394967908	8.071376	2.8410168
10.38126518880283	8.086081	2.8436034
10.398864228169298	8.06001	2.8390157
10.416463513492713	8.035939	2.8347733
10.434063045198531	7.9461746	2.818896
10.451662823712262	7.9775662	2.8244586
10.469262849459467	8.010992	2.8303697
10.486863122865758	7.981852	2.8252172
10.504463644356806	7.9851837	2.8258069
10.522064414358338	7.9047103	2.8115318
10.539665433296118	7.8694134	2.8052475
10.557266701595987	7.803356	2.7934487
10.574868219683818	7.7288623	2.7800832
10.592469987985552	7.6519732	2.76622
10.610072006927185	7.539083	2.745739
10.627674276934751	7.481017	2.7351449
10.64527679843435	7.358669	2.7126865
10.662879571852143	7.242551	2.6911988
10.680482597614331	7.1042285	2.665376
10.698085876147173	7.0047307	2.646645
10.715689407876988	6.891701	2.625205
10.733293193230146	6.8905945	2.6249943
10.750897232633072	6.760679	2.6001306
10.76850152651225	6.6421785	2.5772424
10.786106075294207	6.5068774	2.5508583
10.803710879405534	6.4596643	2.5415869
10.821315939272877	6.4384537	2.5374107
10.83892125532294	6.3359756	2.5171363
10.856526827982472	6.1787086	2.4857008
10.874132657678285	6.131867	2.4762607
10.891738744837243	6.1345525	2.4768028
10.909345089886271	6.0804377	2.4658544
10.926951693252343	5.9943233	2.4483306
10.944558555362494	5.8910646	2.4271514
10.96216567664381	5.8346925	2.415511
10.979773057523436	5.780924	2.4043553
10.997380698428573	5.760957	2.4001994
11.014988599786477	5.7251964	2.3927383
11.032596762024461	5.689376	2.3852413
11.050205185569892	5.5981383	2.3660386
11.067813870850198	5.5716166	2.3604271
11.085422818292859	5.530445	2.3516898
11.10303202832541	5.467678	2.3383067
11.120641501375454	5.367072	2.3166943
11.138251237870636	5.2581005	2.2930548
11.155861238238671	5.1530156	2.2700255
11.173471502907317	5.1137505	2.2613604
11.191082032304402	5.0456424	2.2462506
11.208692826857805	5.030365	2.2428474
11.226303886995465	4.9729466	2.2300105
11.243915213145371	4.975716	2.2306314
11.261526805735578	4.9591384	2.2269123
11.279138665194196	4.9517717	2.2252576
11.296750791949393	4.871001	2.2070343
11.314363186429393	4.7924647	2.18917
11.331975849062479	4.6824446	2.1638956
11.34958878027699	4.63025	2.1518016
11.36720198050133	4.5872436	2.1417851
11.384815450163948	4.548797	2.132791
11.402429189693366	4.533209	2.1291335
11.420043199518153	4.5249953	2.1272037
11.437657480066942	63.47235	7.9669538
11.455272031768422	85.15598	9.228
11.472886855051353	107.523705	10.369364
11.490501950344528	99.13648	9.956731
11.508117318076819	84.50775	9.19281
11.52573295867715	45.85244	6.771443
11.543348872574514	4.103194	2.0256343
11.560965060197946	4.0919437	2.0228553
11.57858152197655	4.086057	2.0213997
11.59619825833949	4.0422316	2.0105302
11.613815269715985	3.9674807	1.9918536
11.631432556535323	38.482685	6.2034416
11.649050119226837	82.98703	9.109722
11.666667958219929	93.410736	9.664923
11.68428607394406	107.62698	10.374343
11.701904466828756	82.45685	9.080575
11.719523137303586	65.33257	8.082857
11.737142085798196	4.611688	2.147484
11.754761312742286	3.7616768	1.9395043
11.772380818565619	3.7235522	1.9296508
11.790000603698015	3.6670303	1.9149492
11.80762066856935	3.5879745	1.894195
11.825241013609572	3.5515807	1.8845638
11.842861639248683	3.5246744	1.8774116
11.860482545916748	3.4791033	1.8652354
11.878103734043883	3.3868017	1.8403265
11.895725204060282	3.3482819	1.8298311
11.91334695639619	3.3478506	1.8297132
11.930968991481919	3.347083	1.8295035
11.948591309747824	3.3342812	1.8260014
11.966213911624347	3.3341522	1.8259661
11.98383679754198	3.3247895	1.8234005
12.001459967931268	3.2685935	1.8079252
12.019083423222835	3.1991544	1.788618
12.036707163847352	3.2031472	1.7897339
12.05433119023556	3.2252812	1.7959068
12.071955502818259	3.2155638	1.7931993
12.089580102026313	3.1159613	1.7652086
12.107204988290643	3.0707872	1.7523662
12.12483016204224	3.063278	1.7502222
12.142455623712152	3.1085823	1.7631172
12.16008137373149	3.088789	1.757495
12.177707412531431	3.066222	1.7510631
12.19533374054321	3.0600412	1.7492974
12.212960358198126	3.0446703	1.7448983
12.230587265927545	3.0308897	1.7409451
12.248214464162889	3.019362	1.7376311
12.265841953335649	2.9681475	1.7228312
12.283469733877375	2.9607997	1.7206974
12.301097806219685	2.9233043	1.7097673
12.31872617079425	2.9222555	1.7094606
12.336354828032825	2.8972201	1.7021222
12.353983778367205	2.9183176	1.7083083
12.371613022229262	2.9474733	1.7168207
12.389242560050928	2.973098	1.7242674
12.406872392264201	2.9513705	1.7179554
12.424502519301143	2.9052408	1.7044767
12.442132941593874	2.8424742	1.6859639
12.459763659574586	2.8025224	1.6740736
12.477394673675532	2.807158	1.6754576
12.49502598432903	2.8381503	1.684681
12.51265759196746	2.8616905	1.6916531
12.530289497023267	2.8658493	1.692882
12.547921699928967	2.8313265	1.6826546
12.565554201117134	2.8142648	1.677577
12.583187001020404	2.7614613	1.6617645
12.600820100071486	2.7301662	1.6523215
12.618453498703152	2.724814	1.650701
12.636087197348235	2.7522995	1.6590056
12.65372119643964	2.744283	1.6565877
12.671355496410326	2.7663624	1.6632385
12.68899009769333	2.8267064	1.6812812
12.706625000721749	2.8914385	1.700423
12.724260205928752	2.9290664	1.7114515
12.741895713747551	2.9248748	1.7102265
12.759531524611454	2.9608862	1.7207226
12.777167638953818	2.951116	1.7178813
12.794804057208072	2.9434695	1.7156543
12.812440779807702	2.981531	1.726711
12.830077807186271	3.1553614	1.7763337
12.847715139777405	3.1655025	1.7791859
12.865352778014795	3.353863	1.8313555
12.882990722332197	3.4662094	1.8617759
12.90062897316344	3.563955	1.8878441
12.918267530942412	3.6662374	1.9147421
12.935906396103071	3.5567284	1.885929
12.953545569079449	3.7500505	1.9365047
12.971185050305628	3.5309942	1.879094
12.988824840215775	3.5609446	1.8870466
13.006464939244115	3.5993853	1.8972046
13.024105347824943	3.465457	1.8615738
13.041746066392617	3.518818	1.8758513
13.05938709538157	3.2903166	1.813923
13.077028435226296	3.273838	1.809375
13.094670086361363	3.1988204	1.7885246
13.112312049221401	3.1208444	1.7665912
13.129954324241112	3.0612767	1.7496505
13.147596911855258	2.8655124	1.6927824
13.165239812498685	2.8202243	1.6793523
13.182883026606293	2.7256145	1.6509435
13.200526554613058	2.6610992	1.6312876
13.218170396954017	2.6472435	1.6270351
13.235814554064284	2.649238	1.627648
13.253459026379034	2.66143	1.6313889
13.271103814333523	2.6647377	1.6324024
13.288748918363058	2.672729	1.6348484
13.306394338903031	2.662526	1.6317248
13.32404007638889	2.612132	1.6162091
13.341686131256164	2.6334844	1.6228014
13.359332503940449	2.6333	1.6227446
13.376979194877402	2.6476755	1.6271679
13.394626204502751	2.6687863	1.6336421
13.412273533252307	2.700404	1.6432906
13.429921181561937	2.6892319	1.6398878
13.447569149867581	2.6874897	1.6393565
13.465217438605247	2.6963582	1.6420591
13.482866048211022	2.6771634	1.636204
13.500514979121052	2.6532598	1.628883
13.518164231771568	2.6391332	1.6245409
13.535813806598844	2.6341176	1.6229964
13.553463704039254	2.6073737	1.6147364
13.571113924529229	2.5871642	1.6084664
13.588764468505275	2.5932016	1.6103421
13.606415336403956	2.6375551	1.6240551
13.624066528661917	2.6746876	1.6354473
13.641718045715882	2.718575	1.6488101
13.659369888002635	2.770412	1.6644554
13.67702205595903	2.8448792	1.686677
13.694674550021993	2.9629786	1.7213305
13.712327370628532	3.0112934	1.7353078
13.729980518215713	3.0752118	1.7536281
13.747633993220681	3.124746	1.7676952
13.765287796080647	3.1824996	1.7839562
13.7829419272329	3.2316978	1.7976923
13.800596387114801	3.2625983	1.8062664
13.818251176163775	3.2942753	1.8150139
13.835906294817324	3.333576	1.8258083
13.853561743513023	3.3686116	1.8353778
13.871217522688525	3.4056487	1.84544
13.888873632781538	3.4486113	1.8570437
13.906530074229858	3.4586132	1.8597347
13.92418684747135	3.501834	1.8713188
13.941843952943948	3.495196	1.8695444
13.959501391085665	3.4754584	1.8642582
13.977159162334578	3.4161518	1.8482834
13.994817267128846	3.35672	1.8321353
14.012475705906693	3.2613318	1.8059158
14.030134479106424	3.155286	1.7763125
14.047793587166414	3.0505166	1.7465729
14.065453030525108	3.0055535	1.7336532
14.083112809621026	2.9498873	1.7175236
14.100772924892766	2.9228017	1.7096204
14.118433376778997	2.8737164	1.6952039
14.136094165718458	2.8160887	1.6781206
14.153755292149969	2.7394938	1.6551416
14.171416756512416	2.6906323	1.6403147
14.189078559244768	2.636205	1.6236395
14.20674070078606	2.5921028	1.6100008
14.224403181575408	2.5453856	1.5954264
14.242066002051999	2.4995482	1.5809959
14.259729162655093	2.428359	1.5583193
14.277392663824022	2.4032097	1.550229
14.295056505998208	2.377684	1.5419741
14.312720689617128	2.3836205	1.5438979
14.330385215120348	2.399084	1.5488977
14.348050082947497	2.4062142	1.5511976
14.3657152935383	2.4319742	1.5594788
14.383380847332528	2.413078	1.5534085
14.401046744770051	2.401845	1.5497887
14.418712986290798	2.374257	1.5408624
14.436379572334793	2.385311	1.5444452
14.454046503342123	2.384814	1.5442843
14.471713779752946	2.4113965	1.5528672
14.489381402007504	2.4104772	1.5525712
14.507049370546113	2.3989995	1.5488703
14.524717685809168	2.4056284	1.5510088
14.542386348237134	2.4172254	1.5547428
14.560055358270553	2.3947103	1.5474851
14.577724716350051	2.3950007	1.5475789
14.595394422916325	2.3848689	1.5443021
14.61306447841015	2.4172137	1.5547391
14.63073488327237	2.42161	1.5561523
14.648405637943917	2.4698086	1.5715624
14.6660767428658	2.4979622	1.5804943
14.683748198479094	2.4813151	1.575219
14.701420005224954	2.4664207	1.5704842
14.719092163544628	2.5114028	1.5847406
14.73676467387942	2.5763903	1.6051137
14.754437536670727	2.61378	1.6167189
14.772110752360014	2.5961318	1.6112516
14.78978432138882	2.5823374	1.6069653
14.807458244198777	2.6372502	1.6239612
14.82513252123159	2.6539798	1.629104
14.842807152929028	2.68896	1.6398048
14.860482139732962	2.6515987	1.628373
14.87815748208531	2.6267204	1.620716
14.8958331804281	2.6075783	1.6147997
14.91350923520342	2.5934696	1.6104252
14.931185646853438	2.6199489	1.6186256
14.948862415820408	2.62953	1.6215825
14.966539542546656	2.670676	1.6342202
14.98421702747459	2.6745582	1.6354077
15.001894871046696	2.6725261	1.6347862
15.019573073705542	2.6333444	1.6227583
15.037251635893766	2.581807	1.6068002
15.054930558054092	2.6335628	1.6228255
15.072609840629323	2.6817994	1.6376201
15.090289484062351	2.7780995	1.6667632
15.107969488796124	2.89842	1.7024747
15.125649855273691	3.101825	1.7611998
15.14333058393817	3.4862945	1.8671621
15.161011675232768	4.0695834	2.0173209
15.17869312960076	4.7331853	2.1755886
15.196374947485506	5.485898	2.3421993
15.214057129330447	6.846049	2.6164956
15.231739675579114	8.978333	2.9963868
15.249422586675102	13.493016	3.673284
15.267105863062092	17.977873	4.240032
15.284789505183847	25.131516	5.0131345
15.302473513484218	30.12602	5.4887176
15.320157888407127	34.23112	5.8507366
15.337842630396578	33.064396	5.750165
15.355527739896656	30.353184	5.509372
15.37321321735153	23.732262	4.871577
15.39089906320545	16.303522	4.037762
15.408585277902748	10.353933	3.217753
15.42627186188783	6.3816886	2.5262005
15.443958815605198	4.530308	2.128452
15.461646139499424	3.730896	1.9315528
15.479333834015168	3.3088162	1.8190151
15.497021899597165	2.9986675	1.7316661
15.514710336690234	2.7831097	1.6682655
15.53239914573928	2.6547496	1.6293403
15.550088327189297	2.6147914	1.6170317
15.567777881485336	2.6190646	1.6183524
15.58546780907256	2.5947907	1.6108354
15.6031581103962	2.525667	1.5892347
15.620848785901568	2.476032	1.5735413
15.638539836034063	2.455075	1.566868
15.656231261239173	2.4535644	1.5663857
15.673923061962451	2.4428658	1.562967
15.691615238649552	2.4660742	1.5703739
15.709307791746202	2.445858	1.563924
15.727000721698221	2.4319882	1.5594833
15.744694028951498	2.4062104	1.5511965
15.76238771395202	2.3807216	1.5429587
15.780081777145844	2.3735209	1.5406235
15.797776218979125	2.353071	1.5339723
15.815471039898094	2.3609529	1.5365392
15.833166240349064	2.3773065	1.5418516
15.850861820778437	2.3983097	1.5486478
15.868557781632699	2.4046977	1.5507088
15.886254123358412	2.398035	1.5485591
15.903950846402232	2.414533	1.5538768
15.921647951210897	2.4110982	1.5527711
15.939345438231225	2.4346766	1.560345
15.957043307910133	2.4715364	1.5721121
15.974741560694602	2.5059664	1.5830245
15.992440197031714	2.5097187	1.5842092
16.01013921736862	2.480858	1.575074
16.02783862215259	2.4731693	1.5726314
16.045538411830933	2.4415412	1.5625432
16.06323858685107	2.4377563	1.5613316
16.080939147660512	2.398693	1.5487715
16.09864009470684	2.4180021	1.5549927
16.11634142843774	2.418183	1.5550508
16.134043149300954	2.3929696	1.5469227
16.15174525774433	2.3688478	1.5391061
16.169447754215817	2.3480754	1.5323431
16.18715063916342	2.366772	1.5384316
16.204853913035244	2.4086733	1.5519902
16.222557576279478	2.429699	1.5587492
16.240261629344403	22.41181	4.7341113
16.257966072678386	42.956337	6.5541086
16.275670906729868	38.095806	6.17218
16.293376131947387	2.5555391	1.5986054
16.31108174877957	2.5647452	1.6014822
16.328787757675133	2.6065922	1.6144944
16.34649415908287	2.6131477	1.6165234
16.364200953451657	2.6252782	1.6202711
16.38190814123048	2.6080863	1.6149571
16.39961572286839	2.6323538	1.622453
16.41732369881455	2.6888244	1.6397635
16.43503206951817	2.7167163	1.6482464
16.45274083542859	2.7434506	1.6563365
16.47044999699522	2.7754054	1.6659548
16.488159554667558	2.8636765	1.6922401
16.505869508895184	2.8882756	1.6994928
16.523579860127786	2.971332	1.7237552
16.541290608815117	3.044722	1.7449132
16.559001755407035	3.1285923	1.7687827
16.57671330035348	3.1715357	1.7808806
16.59442524410448	3.257715	1.8049141
16.61213758711015	3.4009824	1.8441752
16.629850329820705	3.4771192	1.8647035
16.647563472686436	3.5496657	1.8840556
16.665277016157724	3.499957	1.8708172
16.682990960685053	3.5058832	1.8724004
16.70070530671898	3.478781	1.865149
16.718420054710155	3.5177186	1.8755583
16.736135205109335	3.5697312	1.8893732
16.753850758367335	3.6466863	1.90963
16.771566714935087	3.679569	1.9182203
16.789283075263597	3.7190156	1.9284749
16.80699983980398	3.7413962	1.934269
16.82471700900741	3.795675	1.9482492
16.84243458332518	3.867619	1.9666263
16.860152563208665	3.9638307	1.9909371
16.87787094910932	4.052347	2.0130444
16.89558974147871	4.0878897	2.021853
16.913308940768466	4.099545	2.0247333
16.931028547430333	4.172206	2.0425978
16.94874856191613	4.2373996	2.0584946
16.966468984677785	4.3677554	2.0899177
16.98418981616729	4.377319	2.0922043
17.00191105683676	4.3846483	2.0939553
17.019632707138374	4.4008026	2.097809
17.03735476752442	4.4925823	2.1195712
17.05507723844728	4.5503182	2.1331475
17.072800120359403	4.6021724	2.1452675
17.090523413713353	4.580128	2.1401234
17.108247118961785	4.618513	2.1490726
17.125971236557437	4.6421847	2.154573
17.143695766953133	4.718943	2.1723127
17.161420710601806	4.728806	2.1745818
17.179146067956477	4.7368636	2.1764338
17.19687183947025	4.764394	2.182749
17.21459802559634	4.7458014	2.178486
17.232324626788028	4.7127175	2.1708794
17.25005164349871	4.6133423	2.1478693
17.267779076181863	4.5628886	2.136092
17.285506925291074	4.5050077	2.1225004
17.30323519127999	4.559046	2.1351922
17.320963874602384	4.5931244	2.1431575
17.33869297571211	4.588176	2.1420028
17.356422495063114	4.5318394	2.1288118
17.37415243310944	4.498414	2.1209464
17.391882790305218	4.5181684	2.1255984
17.40961356710468	4.58572	2.1414294
17.42734476396215	4.605749	2.146101
17.445076381332044	4.6307707	2.1519225
17.462808419668868	4.636285	2.1532035
17.48054087942723	4.7639894	2.1826565
17.498273761061835	4.898883	2.213342
17.51600706502747	5.212239	2.283033
17.533740791779024	5.75503	2.3989644
17.551474941771485	6.642532	2.577311
17.56920951545993	8.440667	2.9052827
17.586944513299528	9.687179	3.1124232
17.60467993574556	12.704576	3.5643477
17.622415783253373	15.453264	3.931064
17.64015205627843	18.297413	4.2775474
17.657888755276293	20.675432	4.5470247
17.675625880702604	22.125504	4.7037754
17.69336343301311	20.584883	4.5370564
17.71110141266366	18.477814	4.2985826
17.728839820110178	15.779203	3.9723046
17.746578655808705	12.535082	3.5404918
17.764317920215372	10.370466	3.220321
17.7820576137864	8.702091	2.9499307
17.79979773697811	7.3420053	2.7096136
17.81753829024692	6.005868	2.4506872
17.835279274049356	5.184745	2.2770035
17.85302068884201	4.479303	2.1164365
17.870762535081607	4.0533285	2.013288
17.888504813224934	3.8450084	1.9608693
17.90624752372891	3.7110121	1.9263988
17.923990667050536	3.6710436	1.9159968
17.941734243646895	3.61066	1.9001737
17.959478253975185	3.5388544	1.8811843
17.9772226984927	3.4544687	1.8586202
17.994967577656833	3.400445	1.8440295
18.01271289192506	3.358025	1.8324915
18.030458641754965	3.3309016	1.8250757
18.04820482760425	3.275408	1.8098089
18.06595144993067	3.2686799	1.8079491
18.083698509192125	3.2692618	1.80811
18.101446005846576	3.2728505	1.8091022
18.119193940352105	3.2146454	1.7929432
18.136942313166887	3.1566203	1.776688
18.1546911247492	3.1525562	1.7755439
18.1724403755574	3.1638732	1.778728
18.19019006604997	3.1501849	1.774876
18.207940196685467	3.1049807	1.7620956
18.225690767922575	3.0735047	1.7531414
18.243441780220046	3.043584	1.7445871
18.261193234036764	3.0243266	1.7390591
18.278945129831676	3.0375586	1.7428594
18.29669746806386	3.0276875	1.7400252
18.314450249192483	2.9961925	1.7309513
18.3322034736768	2.984826	1.727665
18.349957141976184	2.9854772	1.7278533
18.3677112545501	2.9842284	1.727492
18.385465811858108	3.0156999	1.736577
18.403220814359884	3.0257218	1.7394602
18.420976262515172	3.0214126	1.738221
18.43873215678387	3.0418506	1.7440902
18.456488497625923	3.06666	1.7511882
18.474245285501407	3.1835897	1.7842617
18.492002520870486	3.2456124	1.8015584
18.50976020419343	3.3137617	1.820374
18.527518335930615	3.6054907	1.898813
18.545276916542516	4.124741	2.0309458
18.563035946489688	4.265687	2.0653539
18.580795426232832	4.6989026	2.1676953
18.598555356232698	4.6769547	2.1626267
18.616315736950185	4.99405	2.2347372
18.63407656884626	4.6087813	2.1468072
18.65183785238201	4.7529163	2.1801183
18.669599588018617	4.599487	2.1446414
18.68736177621737	4.616829	2.1486807
18.705124417439652	4.5552483	2.1343029
18.72288751214696	4.3593125	2.0878966
18.740651060800886	4.541177	2.1310036
18.758415063863115	4.3298264	2.0808234
18.77617952179546	4.4664116	2.1133885
18.793944435059814	4.1583004	2.039191
18.811709804118184	4.1122828	2.0278764
18.829475629432675	4.0984898	2.0244727
18.8472419114655	3.9298663	1.9823891
18.86500865067897	4.0074105	2.0018518
18.88277584753551	3.6941707	1.9220226
18.90054350249763	3.7156112	1.927592
18.918311616027957	3.4029543	1.8447099
18.936080188589226	3.2542539	1.8039551
18.953849220644265	2.9473822	1.7167941
18.971618712656007	2.7908874	1.6705949
18.9893886650875	2.797517	1.672578
19.007159078401887	8.002963	2.828951
19.024929953062408	32.86588	5.7328773
19.042701289532435	32.765743	5.724137
19.060473088275405	25.347284	5.034609
19.07824534975489	2.6501415	1.6279255
19.096018074434568	2.6253295	1.6202868
19.113791262778197	2.5974677	1.6116661
19.13156491524966	2.5900776	1.6093718
19.149339032312945	2.5968015	1.6114595
19.167113614432136	2.597961	1.6118191
19.184888662071433	2.5657637	1.6018002
19.202664175695123	2.5203998	1.5875767
19.220440155767623	2.4996736	1.5810356
19.238216602753447	2.485851	1.5766582
19.2559935171172	2.508288	1.5837575
19.27377089932361	2.4823427	1.5755452
19.291548749837514	2.4838817	1.5760336
19.309327069123835	2.469744	1.5715419
19.32710585764763	2.4987116	1.5807314
19.344885115874032	2.5144365	1.5856975
19.362664844268313	2.5250416	1.5890379
19.380445043295822	2.524558	1.5888858
19.39822571342203	2.5190096	1.5871388
19.41600685511252	2.4998431	1.5810893
19.43378846883297	2.4876242	1.5772204
19.451570555049173	2.479906	1.5747718
19.469353114227037	2.4647799	1.5699618
19.48713614683254	2.4465823	1.5641555
19.50491965333182	2.4494238	1.5650635
19.52270363419109	2.4606428	1.5686436
19.540488089876686	2.4539235	1.5665004
19.55827302085503	2.4449956	1.5636482
19.576058427592674	2.4358351	1.5607163
19.593844310556282	2.4419227	1.5626652
19.611630670212598	2.4578862	1.5677648
19.629417507028506	2.464255	1.5697947
19.64720482147098	2.491881	1.5785693
19.6649926140071	2.494719	1.579468
19.682780885104084	2.4790208	1.5744907
19.70056963522921	2.4460797	1.5639948
19.718358864849908	2.441776	1.5626184
19.7361485744337	2.4480793	1.564634
19.753938764448215	2.4791896	1.5745443
19.771729435361202	2.4750226	1.5732205
19.789520587640506	2.4789553	1.5744698
19.807312221754092	2.4975786	1.5803729
19.825104338170043	2.5407848	1.593984
19.842896937356517	2.5652978	1.6016548
19.860690019781824	2.5321574	1.5912755
19.87848358591436	2.4893515	1.5777678
19.896277636222635	2.4908922	1.578256
19.914072171175278	2.4898515	1.5779263
19.931867191241015	2.4866483	1.576911
19.94966269688869	2.4841862	1.5761302
19.967458688587264	2.4895208	1.5778215
19.985255166805807	2.4971476	1.5802366
20.00305213201348	2.4759185	1.5735052
20.020849584679578	2.465507	1.5701933
20.038647525273507	2.4641867	1.5697728
20.05644595426477	2.4301724	1.5589011
20.07424487212299	2.39556	1.5477597
20.092044279317903	2.4013076	1.5496153
20.109844176319353	2.4193854	1.5554373
20.127644563597304	2.4102528	1.5524989
20.145445441621817	2.4131498	1.5534316
20.16324681086307	2.4017205	1.5497485
20.181048671791373	2.4373348	1.5611966
20.198851024877122	2.439961	1.5620375
20.216653870590836	2.415144	1.5540733
20.234457209403146	2.3784933	1.5422364
20.252261041784802	2.3811147	1.543086
20.270065368206662	2.396635	1.5481069
20.287870189139685	2.4068367	1.5513983
20.305675505054968	2.3894422	1.5457821
20.323481316423702	2.3711307	1.5398476
20.341287623717207	2.3567207	1.5351615
20.359094427406884	2.360282	1.5363209
20.376901727964288	2.3390915	1.5294089
20.39470952586107	2.3654816	1.5380123
20.41251782156899	2.3779747	1.5420684
20.430326615559935	2.3609939	1.5365525
20.448135908305886	2.3188357	1.5227724
20.465945700278965	2.3359873	1.5283937
20.483755991951384	2.3622339	1.5369561
20.50156678379548	2.3568745	1.5352116
20.519378076283708	2.321555	1.523665
20.537189869888635	2.3092225	1.5196126
20.55500216508294	2.3036654	1.517783
20.572814962339415	2.302481	1.5173928
20.59062826213098	2.286973	1.5122741
20.60844206493066	2.2911751	1.5136628
20.626256371211593	2.3418672	1.530316
20.644071181447032	2.3578293	1.5355225
20.66188649611036	2.358825	1.5358467
20.67970231567506	2.3451886	1.5314009
20.697518640614742	2.3341098	1.5277793
20.715335471403122	2.3122795	1.5206181
20.73315280851404	2.2573729	1.5024556
20.750970652421447	2.2545862	1.5015279
20.768789003599412	2.266308	1.5054262
20.786607862522136	2.283222	1.5110334
20.8044272296639	2.286926	1.5122585
20.82224710549913	2.2888184	1.5128841
20.84006749050237	2.2837825	1.5112189
20.857888385148268	3.8062215	1.950954
20.8757097899116	45.897385	6.7747607
20.893531705267254	64.79229	8.049366
20.911354131690224	83.823235	9.155503
20.92917706965566	69.06831	8.310735
20.94700051963877	50.114693	7.079173
20.96482448211493	29.382698	5.420581
20.982648957559622	4.1297727	2.0321841
21.00047394644843	2.2661488	1.5053734
21.01829944925707	2.2568183	1.502271
21.036125466461375	2.2307768	1.4935786
21.053951998537297	2.2286932	1.4928808
21.071779045960906	2.2194536	1.489783
21.089606609208378	2.2027178	1.4841555
21.10743468875603	2.1823294	1.477271
21.12526328508028	2.1819878	1.4771553
21.143092398657675	2.1647582	1.4713117
21.16092202996488	2.1520708	1.4669938
21.17875217947867	2.1507008	1.4665267
21.19658284767596	2.172679	1.474001
21.21441403503377	2.2161853	1.4886857
21.232245742029225	2.221884	1.4905986
21.2500779691396	2.1525865	1.4671695
21.26791071684227	2.141602	1.4634213
21.28574398561475	2.1511831	1.4666913
21.30357777593465	2.1694543	1.4729067
21.321412088279704	2.194112	1.4812535
21.339246923127792	2.2040129	1.4845918
21.357082280956888	2.1939664	1.4812044
21.3749181622451	2.1392517	1.4626181
21.392754567470647	2.1126478	1.453495
21.41059149711187	2.1092556	1.4523276
21.42842895164726	2.0893714	1.4454658
21.446266931555378	2.063042	1.4363294
21.464105437314945	2.0466325	1.4306056
21.481944469404798	2.0582378	1.434656
21.49978402830388	2.0809968	1.442566
21.51762411449127	2.105117	1.4509021
21.53546472844617	2.0792632	1.4419651
21.553305870647876	2.0734167	1.4399364
21.571147541575865	2.067143	1.4377562
21.58898974170967	2.0687249	1.4383062
21.60683247152899	2.0571537	1.4342781
21.62467573151363	2.0350091	1.4265375
21.642519522143523	2.0115376	1.4182868
21.660363843898722	2.0060194	1.4163401
21.6782086972594	2.056948	1.4342064
21.696054082705864	2.1012979	1.4495854
21.713900000718535	2.0839846	1.4436013
21.73174645177795	2.0624306	1.4361165
21.749593436364794	2.0500875	1.4318126
21.767440954959845	2.049419	1.4315791
21.785289008044032	2.0314832	1.4253011
21.803137596098388	2.022575	1.4221725
21.820986719604086	2.003973	1.4156176
21.838836379042412	2.0087702	1.417311
21.85668657489478	2.000121	1.4142563
21.87453730764273	2.01964	1.4211404
21.892388577767914	2.0005474	1.4144071
21.91024038575213	2.0161417	1.419909
21.928092732077285	2.0320466	1.4254987
21.945945617225426	2.0395734	1.4281363
21.963799041678694	2.0042841	1.4157274
21.981653005919398	31.293844	5.59409
21.999507510429943	78.08812	8.836748
22.01736255569286	73.073524	8.5483055
22.035218142190818	4.194789	2.0481184
22.05307427040661	2.0248883	1.4229857
22.07093094082315	1.9880326	1.4099761
22.088788153923474	1.9522394	1.3972256
22.106645910190746	1.9346392	1.3909131
22.12450421010827	1.9502563	1.3965158
22.142363054159464	1.976056	1.4057226
22.16022244282787	1.9738606	1.4049416
22.178082376597164	1.9644887	1.4016021
22.195942855951145	1.9433395	1.3940371
22.213803881373742	1.9084184	1.3814552
22.231665453349002	1.8722454	1.3683002
22.24952757236111	1.9178916	1.3848796
22.26739023889438	1.9864433	1.4094124
22.28525345343323	1.9948281	1.4123838
22.30311721646225	1.9336214	1.3905472
22.320981528466113	1.9403667	1.3929704
22.33884638992964	1.9563204	1.3986852
22.356711801337788	1.962808	1.4010025
22.37457776317561	1.9461232	1.3950353
22.392444275928337	1.9515425	1.3969762
22.410311340081282	1.9679946	1.4028523
22.428178956119904	1.9492946	1.3961715
22.446047124529805	1.9614091	1.4005032
22.46391584579669	1.9703463	1.4036902
22.481785120406414	1.9250866	1.3874749
22.49965494884496	1.877134	1.3700854
22.51752533159841	1.8777082	1.3702949
22.53539626915302	1.938212	1.3921969
22.553267761995137	1.9629409	1.40105
22.571139810611264	1.94335	1.3940408
22.589012415488025	1.9145823	1.3836843
22.60688557711216	1.93755	1.3919591
22.624759295970566	1.9550744	1.3982397
22.642633572550263	1.9380876	1.3921522
22.660508407338362	1.9506384	1.3966526
22.67838380082217	1.9594243	1.3997943
22.696259753489077	1.9535134	1.3976815
22.714136265826614	1.9598316	1.3999399
22.73201333832246	1.959192	1.3997114
22.74989097146439	1.9341391	1.3907334
22.76776916574035	1.9168123	1.3844899
22.785647921638393	1.9165951	1.3844115
22.803527239646712	1.9431701	1.3939763
22.82140712025363	1.9274582	1.3883293
22.839287563947593	1.9087448	1.3815733
22.85716857121719	1.9138156	1.3834072
22.875050142551135	1.9469031	1.3953147
22.892932278438277	1.9377407	1.3920275
22.910814979367604	1.9180822	1.3849485
22.928698245828222	1.9073447	1.3810666
22.946582078309387	1.939462	1.3926457
22.96446647730047	1.9380195	1.3921278
22.98235144329098	1.9129028	1.3830773
23.000236976770562	1.9277343	1.3884287
23.018123078229	1.9275136	1.3883493
23.03600974815619	1.9669935	1.4024954
23.053896987042194	1.9707737	1.4038424
23.071784795377173	1.959201	1.3997146
23.08967317365145	1.962603	1.4009293
23.10756212235546	1.9579455	1.399266
23.125451641979787	1.9366397	1.391632
23.143341733015134	1.9195645	1.3854835
23.161232395952357	1.8990878	1.3780739
23.179123631282426	1.920464	1.3858081
23.197015439496468	1.8917599	1.3754126
23.214907821085717	1.9079311	1.3812788
23.23280077654157	1.934274	1.3907818
23.250694306355538	1.9574	1.3990711
23.268588411019277	1.9333229	1.3904399
23.28648309102458	1.9176915	1.3848073
23.304378346863356	1.9408892	1.393158
23.322274179027676	1.9509742	1.3967727
23.340170588009723	1.9158258	1.3841336
23.358067574301852	1.9076097	1.3811624
23.37596513839651	1.9307238	1.3895049
23.39386328078629	1.9489778	1.396058
23.411762001963947	1.96389	1.4013885
23.429661302422353	1.9380271	1.3921304
23.4475611826545	1.9068013	1.3808697
23.46546164315356	1.9258368	1.3877453
23.48336268441279	1.9391583	1.3925366
23.501264306925638	1.9178277	1.3848566
23.51916651118564	1.9013984	1.3789121
23.537069297686497	1.9068726	1.3808956
23.554972666922037	1.9028711	1.3794459
23.57287661938623	1.8931245	1.3759086
23.59078115557318	1.9318885	1.3899239
23.608686275977128	1.9375829	1.3919709
23.62659198109246	1.9572499	1.3990175
23.6444982714137	1.9459221	1.3949631
23.66240514743549	1.9228615	1.3866729
23.68031260965263	1.8876752	1.3739269
23.698220658560068	1.8545533	1.3618199
23.716129294652845	1.8675295	1.3665758
23.7340385184262	1.9045792	1.380065
23.75194833037546	1.9160855	1.3842274
23.769858730996123	1.8805485	1.3713309
23.78776972078382	1.8940778	1.376255
23.80568130023431	1.9121735	1.3828136
23.823593469843495	1.8944274	1.376382
23.841506230107424	1.8880488	1.3740629
23.859419581522275	1.899517	1.3782297
23.87733352458438	1.9371365	1.3918105
23.89524805979019	1.977587	1.406267
23.913163187636318	1.9592203	1.3997215
23.931078908619508	1.9678713	1.4028083
23.948995223236633	1.9879663	1.4099526
23.966912131984735	1.9946747	1.4123296
23.98482963536096	2.0317554	1.4253966
24.002747733862616	2.0484407	1.4312375
24.020666427987155	2.0611966	1.4356868
24.038585718232156	2.0832849	1.4433589
24.056505605095353	2.0586567	1.4348019
24.074426089074617	2.0177884	1.4204888
24.092347170667946	1.9625645	1.4009156
24.110268850373515	1.9984605	1.4136692
24.128191128689586	2.0461206	1.4304267
24.146114006114626	2.054032	1.4331895
24.164037483147187	2.0559468	1.4338573
24.181961560286005	1.9998153	1.4141483
24.199886238029926	1.9829971	1.4081893
24.21781151687797	1.9929242	1.4117097
24.235737397329274	2.0470307	1.4307448
24.253663879883135	2.081085	1.4425966
24.271590965038975	2.0553224	1.4336395
24.289518653296376	2.006033	1.4163449
24.30744694515505	2.0237134	1.4225729
24.32537584111486	2.0429277	1.4293102
24.34330534167581	2.045856	1.4303342
24.361235447338046	2.0453372	1.4301529
24.379166158601876	2.065709	1.4372575
24.39709747596772	2.0491714	1.4314927
24.41502939993615	2.0206854	1.4215082
24.432961931007917	1.9917878	1.4113071
24.450895069683856	2.0271668	1.423786
24.468828816465	2.0215604	1.4218159
24.4867631718525	1.9829501	1.4081726
24.504698136347656	1.9943849	1.4122269
24.52263371045192	2.0112216	1.4181755
24.540569894666874	1.9905165	1.4108567
24.558506689494266	1.9297913	1.3891693
24.57644409543597	1.9085006	1.3814849
24.594382112994012	1.952988	1.3974935
24.61232074267057	1.9891059	1.4103566
24.630259984967953	2.0125027	1.418627
24.64819984038863	2.0017147	1.4148197
24.66614030943522	1.9786351	1.4066397
24.684081392610462	2.0026321	1.4151438
24.702023090417274	2.0187476	1.4208263
24.7199654033587	2.0215394	1.4218085
24.737908331937927	2.0133698	1.4189327
24.755851876658305	2.0367427	1.4271449
24.773796038023324	1.9720317	1.4042904
24.79174081653661	2.0270047	1.4237292
24.809686212701962	2.0644078	1.4368048
24.827632227023294	2.1143386	1.4540765
24.8455788600047	2.0666637	1.4375895
24.8635261121504	2.062247	1.4360526
24.88147398396475	2.0363116	1.426994
24.899422475952303	2.0874648	1.4448061
24.917371588617698	2.1273468	1.4585427
24.935321322465768	2.1680062	1.4724151
24.953271678001478	2.208633	1.486147
24.97122265572994	2.3819053	1.5433422
24.989174256156414	2.74598	1.6570998
25.00712647978632	3.3204792	1.8222182
25.02507932712521	4.351144	2.0859396
25.043032798678798	5.8966722	2.4283063
25.060986894952933	7.5868664	2.7544267
25.078941616453637	9.08491	3.0141184
25.096896963687055	9.950443	3.1544323
25.114852937159508	10.603148	3.2562475
25.132809537377444	10.364115	3.2193346
25.150766764847468	9.762188	3.12445
25.168724620076347	8.470602	2.91043
25.186683103570985	7.3711867	2.714993
25.204642215838426	5.9283	2.43481
25.222601957385894	4.6692576	2.1608465
25.24056232872074	3.5529964	1.8849393
25.25852333035048	2.8267312	1.6812886
25.276484962782778	2.4443023	1.5634265
25.294447226525435	2.2007065	1.4834778
25.312410122086423	2.0909672	1.4460177
25.330373649973843	2.0251787	1.4230877
25.348337810695988	2.0141852	1.41922
25.366302604761245	2.0071526	1.4167401
25.384268032678207	1.962714	1.4009689
25.40223409495558	1.9450636	1.3946553
25.420200792102257	1.9176248	1.3847833
25.438168124627246	1.9429203	1.3938868
25.45613609303974	1.9287523	1.3887953
25.474104697849057	1.928436	1.3886814
25.492073939564698	1.8720598	1.3682324
25.510043818696285	1.8526558	1.361123
25.528014335753614	1.8410113	1.3568387
25.54598549124664	1.8351622	1.3546816
25.56395728568544	1.832183	1.3535815
25.58192971958028	1.9122056	1.3828253
25.59990279344156	1.9310917	1.3896372
25.617876507779833	1.9055605	1.3804204
25.635850863105826	1.8574781	1.3628933
25.653825859930386	1.8518893	1.3608414
25.671801498764548	1.8302307	1.3528602
25.68977778011949	1.8469481	1.3590248
25.707754704506524	1.8560045	1.3623526
25.725732272437153	1.8857156	1.3732136
25.743710484423012	1.8554376	1.3621445
25.761689340975888	1.8306607	1.3530191
25.77966884260774	1.8108214	1.3456676
25.797648989830662	1.8356462	1.3548602
25.815629783156922	1.8341986	1.3543259
25.83361122309895	1.8662844	1.3661202
25.85159331016929	1.856504	1.3625358
25.869576044880695	1.851345	1.3606414
25.887559427746034	1.8361907	1.3550612
25.90554345927836	1.8376341	1.3555937
25.92352813999086	1.8155437	1.3474212
25.94151347039689	1.8656027	1.3658707
25.959499451009965	1.8895061	1.374593
25.97748608234374	1.8898432	1.3747157
25.995473364912062	1.8664647	1.3661861
26.013461299228904	1.846242	1.3587649
26.03144988580839	1.8469026	1.359008
26.04943912516483	1.8488461	1.3597229
26.067429017812675	1.8253723	1.3510634
26.085419564266537	1.8458366	1.3586158
26.103410765041186	1.8860464	1.373334
26.12140262065155	1.8782462	1.3704913
26.139395131612723	1.8407656	1.3567482
26.157388298439948	1.837487	1.3555393
26.17538212164861	1.8589585	1.3634362
26.193376601754295	1.8699917	1.3674763
26.211371739272714	1.8293674	1.3525411
26.229367534719746	1.818505	1.3485196
26.247363988611433	1.8689826	1.3671074
26.26536110146397	1.864046	1.3653007
26.283358873793727	1.8725747	1.3684205
26.301357306117204	1.8808376	1.3714364
26.319356398951104	1.8559903	1.3623474
26.33735615281224	1.8295151	1.3525957
26.35535656821762	1.8244058	1.3507056
26.373357645684404	1.8625255	1.3647437
26.39135938572991	1.8904338	1.3749305
26.409361788871614	1.866181	1.3660823
26.427364855627165	1.8264128	1.3514484
26.445368586514352	1.8094898	1.3451728
26.46337298205115	1.8100176	1.345369
26.48137804275568	1.8247468	1.3508319
26.499383769146217	1.8286685	1.3522826
26.517390161741215	1.8209885	1.3494401
26.53539722105928	1.8039252	1.3431028
26.553404947619182	1.8420409	1.357218
26.571413341939856	1.827453	1.3518332
26.589422404540397	1.7709972	1.3307881
26.60743213594006	1.7149789	1.3095721
26.62544253665827	1.7814313	1.3347027
26.64345360721459	1.7876883	1.3370446
26.66146534812879	1.8059776	1.3438667
26.679477759920758	1.7803178	1.3342855
26.69749084311057	1.7702925	1.3305234
26.71550459821847	1.7540584	1.3244087
26.733519025764842	1.7791768	1.3338579
26.751534126270258	1.8269454	1.3516455
26.769549900255434	1.8202925	1.3491821
26.787566348241267	1.8208486	1.3493882
26.80558347074881	1.8258215	1.3512297
26.823601268299267	1.8130542	1.346497
26.841619741414036	1.7861862	1.3364828
26.85963889061465	1.7964888	1.3403316
26.877658716422832	1.8378419	1.3556702
26.89567921936045	1.8198712	1.349026
26.913700399949544	1.770426	1.3305736
26.93172225871233	1.7647935	1.3284553
26.949744796171174	1.7860484	1.3364313
26.967768012848605	1.7842636	1.3357633
26.98579190926733	1.7738787	1.3318703
27.003816485950225	1.7997912	1.341563
27.021841743420318	1.7832978	1.3354018
27.039867682200814	1.8219559	1.3497984
27.057894302815072	1.8528666	1.3612005
27.07592160578664	1.8418419	1.3571448
27.0939495916392	1.7948076	1.3397043
27.111978260896635	1.7536818	1.3242666
27.13000761408296	1.7962848	1.3402555
27.148037651722397	1.8249568	1.3509096
27.166068374339304	1.8045464	1.3433341
27.184099782458215	1.8302585	1.3528705
27.20213187660384	1.8638592	1.3652322
27.22016465730105	1.8812798	1.3715975
27.23819812507487	1.8436368	1.3578058
27.256232280450533	1.8018137	1.3423165
27.274267123953383	1.7855533	1.336246
27.292302656108987	1.8258493	1.3512399
27.31033887744306	1.8523722	1.3610188
27.32837578848146	1.8759145	1.3696402
27.34641338975026	1.9071245	1.3809868
27.364451681775673	1.854681	1.3618667
27.382490665084074	1.7971452	1.3405764
27.400530340202046	1.7873884	1.3369324
27.41857070765629	1.8126972	1.3463644
27.436611767973726	1.8294493	1.3525714
27.454653521681404	1.8424855	1.3573818
27.472695969306564	1.8564597	1.3625196
27.490739111376627	1.8084587	1.3447895
27.508782948419153	1.7674859	1.3294683
27.526827480961902	1.7471294	1.3217902
27.54487270953279	1.7901791	1.3379757
27.562918634659898	1.8185512	1.3485367
27.580965256871508	1.8444065	1.3580893
27.599012576696026	1.8623514	1.3646799
27.617060594662068	1.8366812	1.3552421
27.63510931129842	1.8268088	1.3515949
27.65315872713401	1.8732351	1.3686618
27.67120884269797	1.8813761	1.3716327
27.68925965851958	1.8332236	1.3539659
27.707311175128307	1.830948	1.3531252
27.725363393053787	1.8473743	1.3591815
27.74341631282583	1.8922503	1.3755909
27.7614699349744	1.9236634	1.3869619
27.77952426002968	2.1102648	1.452675
27.797579288521973	2.1729019	1.4740766
27.815635020981784	2.6291611	1.6214688
27.83369145793979	2.6275887	1.6209838
27.85174859992682	2.4095707	1.5522792
27.869806447473923	2.3088439	1.519488
27.887865001112267	2.100024	1.4491459
27.905924261373233	1.9395164	1.3926653
27.92398422878836	1.9041145	1.3798965
27.94204490388936	1.8977894	1.3776028
27.96010628720813	1.9311745	1.389667
27.978168379276728	1.9002074	1.3784801
27.9962311806274	1.8606534	1.3640577
28.014294691792568	1.840614	1.3566923
28.0323589133048	1.8670068	1.3663845
28.050423845696887	1.8932515	1.3759547
28.068489489501758	1.9177765	1.3848381
28.086555845252523	1.914506	1.3836567
28.104622913482487	1.890534	1.374967
28.122690694725115	1.8618475	1.3644953
28.14075918951405	1.9164041	1.3843424
28.15882839838312	1.951643	1.3970121
28.176898321866304	1.9162257	1.384278
28.1949689604978	1.8864868	1.3734944
28.213040314811945	1.9046041	1.3800739
28.23111238534327	1.9548684	1.3981661
28.249185172626493	1.9994223	1.4140093
28.267258677196473	1.9827985	1.4081187
28.285332899588294	1.9786394	1.4066411
28.303407840337172	1.9748257	1.4052849
28.321483499978545	1.9383055	1.3922304
28.33955987904799	1.9302026	1.3893173
28.357636978081285	1.9654896	1.4019592
28.37571479761439	2.032336	1.4256002
28.393793338183425	2.0667822	1.4376308
28.41187260032469	2.0338805	1.4261419
28.429952584574686	2.0630393	1.4363284
28.448033291470065	2.085947	1.4442807
28.46611472154769	2.1257029	1.4579791
28.484196875344566	2.096543	1.4479444
28.502279753397914	2.093876	1.4470232
28.52036335624511	2.058753	1.4348356
28.538447684423716	1.9991024	1.4138962
28.556532738471482	1.9262723	1.3879021
28.574618518926325	1.8762844	1.3697753
28.59270502632635	1.8949093	1.376557
28.61079226120985	1.9531163	1.3975394
28.628880224115274	2.0219684	1.4219593
28.646968915581287	2.07716	1.4412355
28.66505833614671	2.075638	1.4407074
28.68314848635055	2.0736482	1.4400167
28.701239366732004	2.1100988	1.4526179
28.71933097783044	2.1283975	1.4589028
28.737423320185403	2.1466823	1.4651561
28.75551639433665	2.139817	1.4628114
28.773610200824074	2.1226666	1.4569374
28.791704740187793	2.1512558	1.466716
28.80980001296809	2.1368828	1.4618081
28.827896019705413	2.0840073	1.4436091
28.845992760940433	2.0896542	1.4455637
28.86409023721397	2.177673	1.4756941
28.88218844906704	2.2318034	1.4939221
28.900287397040845	2.2706301	1.506861
28.918387081676755	2.3114474	1.5203445
28.936487503516343	2.3425856	1.5305507
28.954588663101365	2.3670444	1.5385202
28.97269056097374	2.387521	1.5451605
28.990793197675597	2.4290185	1.5585309
29.00889657374923	2.3795822	1.5425894
29.027000689737125	2.3514106	1.533431
29.04510554618196	2.355657	1.534815
29.06321114362659	2.373319	1.540558
29.08131748261405	2.3883896	1.5454415
29.099424563687567	2.4067593	1.5513734
29.11753238739057	2.4512799	1.5656564
29.13564095426663	2.546256	1.5956992
29.15375026485954	2.5942407	1.6106647
29.171860319713275	2.6385975	1.624376
29.18997111937199	2.6688356	1.6336571
29.20808266438002	2.717658	1.648532
29.226194955281898	2.7707665	1.664562
29.244307992622335	2.8438313	1.6863663
29.26242177694624	2.88164	1.6975393
29.2805363087987	2.8783429	1.696568
29.29865158872498	2.868078	1.6935401
29.316767617270557	2.8356056	1.6839256
29.334884394981064	2.8884716	1.6995504
29.353001922402367	2.983603	1.7273109
29.37112020008047	3.0370784	1.7427216
29.389239228561596	3.1547546	1.7761629
29.407359008392152	3.3599062	1.8330047
29.42547954011872	3.6207397	1.9028242
29.44360082428809	4.0660124	2.0164356
29.46172286144722	4.9612646	2.2273896
29.479845652143283	6.618186	2.5725834
29.497969196923606	9.297065	3.0491087
29.516093496335728	13.136813	3.6244743
29.5342185509274	16.857687	4.1058116
29.55234436124651	20.217018	4.496334
29.570470927841175	21.656128	4.6536145
29.588598251259686	21.328812	4.618313
29.60672633205055	19.625332	4.430049
29.624855170762405	16.557589	4.069102
29.642984767944146	13.016059	3.6077776
29.66111512414481	9.576129	3.094532
29.67924623991366	7.0361342	2.6525712
29.697378115800138	5.185339	2.277134
29.71551075235387	4.3007894	2.0738344
29.733644150124675	3.8747628	1.9684417
29.751778309662576	3.5914543	1.8951132
29.769913231517766	3.4777384	1.8648695
29.78804891624066	3.4695802	1.8626809
29.806185364381818	3.458216	1.859628
29.82432257649206	3.3849368	1.8398198
29.842460553122333	3.4020734	1.844471
29.86059929482382	3.3996577	1.843816
29.878738802147872	3.3299842	1.8248245
29.896879075646048	3.269813	1.8082625
29.915020115870114	3.2344663	1.7984622
29.933161923371976	3.2099	1.7916193
29.951304498703777	3.2621765	1.8061496
29.969447842417857	3.283385	1.8120114
29.987591955066733	3.301473	1.8169956
30.005736837203123	3.2504492	1.8029002
30.023882489379943	3.149531	1.7746918
30.04202891215028	3.1145651	1.7648131
30.060176106067455	3.1425428	1.7727219
30.078324071684946	3.14312	1.7728847
30.09647280955646	3.1412785	1.7723652
30.114622320235863	3.119877	1.7663174
30.132772604277257	3.0818157	1.7555101
30.1509236622349	3.1442564	1.7732052
30.16907549466328	3.1460664	1.7737154
30.18722810211705	3.1158247	1.7651699
30.205381485151097	3.106624	1.7625618
30.22353564432045	3.0644307	1.7505516
30.241690580180403	2.997002	1.7311851
30.25984629328638	2.9771469	1.7254411
30.278002784194037	3.0063314	1.7338775
30.296160053459246	3.0016227	1.7325191
30.314318101638033	2.992434	1.7298653
30.332476929286646	2.9458964	1.7163614
30.35063653696153	2.9774184	1.7255198
30.368796925219307	3.0062253	1.733847
30.386958094616844	2.9529703	1.7184209
30.40512004571115	2.9093065	1.7056689
30.423282779059463	2.912664	1.7066529
30.441446295219233	2.8897402	1.6999236
30.459610594748067	2.8876245	1.6993011
30.47777567820382	2.842468	1.6859621
30.495941546144504	2.843254	1.6861951
30.51410819912835	2.8731015	1.6950226
30.532275637713795	2.8604703	1.6912925
30.55044386245946	2.800933	1.6735988
30.56861287392416	2.8327196	1.6830685
30.586782672666956	2.811197	1.6766624
30.604953259247047	2.770672	1.6645336
30.623124634223885	2.7719924	1.6649301
30.641296798157075	2.7785199	1.6668893
30.659469751606462	2.7525265	1.659074
30.677643495132074	2.7425315	1.656059
30.695818029294152	2.6673093	1.6331899
30.713993354653116	2.691307	1.6405203
30.73216947176962	2.735709	1.6539979
30.75034638120448	2.7172074	1.6483954
30.768524083518756	2.7680106	1.663734
30.786702579273673	2.8167057	1.6783044
30.80488186903069	2.8800673	1.6970761
30.82306195335144	2.9800928	1.7262945
30.841242832797782	3.2892287	1.8136231
30.85942450793176	3.659107	1.9128792
30.877606979315637	3.9644356	1.991089
30.895790247511883	4.289731	2.0711665
30.913974313083134	4.7349706	2.1759987
30.932159176592283	5.1932683	2.2788744
30.95034483860237	5.5409594	2.3539243
30.968531299676698	5.520995	2.3496797
30.98671856037873	5.194496	2.2791438
31.00490662127215	4.8126855	2.1937833
31.023095482920848	4.2979026	2.0731382
31.04128514588892	3.8037138	1.9503112
31.059475610740662	3.2444887	1.8012464
31.07766687804056	2.8668015	1.6931632
31.09585894835335	2.6942017	1.6414024
31.11405182224393	2.5064895	1.5831896
31.132245500277417	2.4017406	1.549755
31.15043998301914	2.4306307	1.559048
31.168635271034628	2.4169173	1.5546438
31.18683136488964	2.3296542	1.5263205
31.20502826515008	2.3689165	1.5391285
31.223225972382135	2.4855886	1.5765749
31.241424487152155	2.4886844	1.5775565
31.259623810026692	2.5020442	1.5817851
31.27782394157253	2.457617	1.5676789
31.296024882356644	2.441729	1.5626034
31.314226632946237	2.4149218	1.5540018
31.332429193908684	2.4714887	1.572097
31.350632565811598	2.4525437	1.56606
31.368836749222787	2.5308206	1.5908554
31.387041744710295	2.486225	1.5767767
31.40524755284232	2.4710395	1.571954
31.423454174187317	2.5487335	1.5964754
31.441661609313922	2.5713022	1.603528
31.459869858791002	2.5286067	1.5901593
31.478078923187628	2.4857113	1.5766139
31.496288803073064	2.4447005	1.5635538
31.514499499016807	2.3934755	1.5470861
31.532711011588546	2.3654025	1.5379865
31.550923341358178	2.3837168	1.543929
31.56913648889584	2.4042392	1.550561
31.587350454771844	2.3297184	1.5263414
31.605565239556732	2.2998817	1.5165361
31.62378084382127	2.3014746	1.5170611
31.641997268136382	2.2663324	1.5054343
31.660214513073274	2.276411	1.508778
31.67843257920331	2.2792923	1.5097325
31.6966514670981	2.246891	1.4989634
31.71487117732944	2.2955356	1.5151025
31.733091710469346	2.2778876	1.5092672
31.751313067090052	2.2448974	1.4982982
31.769535247764008	2.2421045	1.4973658
31.787758253063878	2.2583191	1.5027705
31.805982083562526	2.2242944	1.4914069
31.824206739833024	2.2080393	1.4859473
31.84243222244869	2.30224	1.5173134
31.860658531983013	2.2938	1.5145297
31.878885669009737	2.20221	1.4839845
31.897113634102784	2.1927066	1.480779
31.91534242783632	2.2457695	1.4985892
31.933572050784694	2.2619495	1.5039779
31.951802503522508	2.2618468	1.5039438
31.970033786624548	2.2377417	1.4959084
31.988265900665834	2.2903502	1.5133903
32.006498846221575	2.2985609	1.5161005
32.02473262386724	2.2781246	1.5093458
32.04296723417845	2.2590783	1.503023
32.0612026777311	2.2134836	1.4877781
32.07943895510129	2.2183418	1.4894099
32.097676066865304	2.2546148	1.5015374
32.115914013599685	2.2048843	1.4848853
32.13415279588115	2.1077843	1.451821
32.152392414286666	2.1010177	1.4494888
32.1706328693934	2.1521509	1.4670211
32.18887416177875	2.12809	1.4587975
32.20711629202032	2.076602	1.441042
32.225359260695924	2.0159726	1.4198495
32.243603068383614	2.0501952	1.4318503
32.26184771566166	2.0952587	1.4475008
32.28009320310852	2.173645	1.4743286
32.2983395313029	2.1277933	1.4586958
32.31658670082372	2.0205162	1.4214486
32.33483471225012	2.0323186	1.4255941
32.35308356616143	2.1388466	1.4624796
32.371333263137245	2.1219876	1.4567044
32.38958380375734	2.1056862	1.4510983
32.407835188601744	2.1246533	1.4576191
32.42608741825067	2.1251192	1.4577788
32.444340493284585	2.165288	1.4714917
32.46259441428416	2.2101567	1.4866595
32.48084918183028	2.118483	1.455501
32.49910479650405	2.025323	1.4231384
32.51736125888683	2.0514553	1.4322902
32.53561856956014	2.1275227	1.458603
32.5538767291058	2.197604	1.4824318
32.572135738105764	2.1609716	1.4700243
32.59039559714228	2.0718565	1.4393945
32.608656306797776	1.945827	1.394929
32.62691786765491	1.9498684	1.3963768
32.645180280296586	1.93043	1.3893992
32.663443545305896	2.0220482	1.4219874
32.68170766326619	2.077071	1.4412047
32.69997263476099	2.0631514	1.4363674
32.7182384603741	2.0598612	1.4352217
32.7365051406895	2.1028647	1.4501258
32.75477267629144	2.0612488	1.435705
32.77304106776434	1.9820869	1.4078661
32.79131031569289	1.8899251	1.3747455
32.809580420661966	1.8817859	1.3717821
32.827851383256714	1.9048305	1.3801559
32.84612320406245	1.9804326	1.4072784
32.86439588366476	2.0300033	1.4247818
32.88266942264945	2.0077717	1.4169586
32.9009438216025	1.8657844	1.3659372
32.9192190811102	1.7742269	1.3320011
32.937495201758985	1.907827	1.3812411
32.95577218413556	2.0569901	1.4342211
32.974050028826866	2.0204284	1.4214177
32.992328736420035	1.9263325	1.3879238
33.010608307502444	1.8459222	1.3586472
33.02888874266169	1.8854821	1.3731285
33.047170042485604	1.8721771	1.3682753
33.06545220756225	1.8781937	1.3704721
33.083735238479896	1.9300885	1.3892763
33.10201913582707	1.9206179	1.3858637
33.12030390019248	1.9489739	1.3960565
33.138589532165135	1.9392533	1.3925707
33.15687603233419	1.8823944	1.3720038
33.17516340128909	1.9894302	1.4104717
33.19345163961947	2.043294	1.4294384
33.211740747915215	1.9996115	1.4140762
33.23003072676643	1.9509099	1.3967497
33.248321576763466	1.9552451	1.3983008
33.266613298496885	1.895352	1.3767178
33.28490589255747	1.8488953	1.3597409
33.30319935953626	1.8707306	1.3677466
33.32149370002451	1.9744675	1.4051574
33.339788914613706	2.1027346	1.4500809
33.358085003895575	2.1239471	1.4573768
33.376381968462034	1.9946495	1.4123206
33.39467980890529	1.9142894	1.3835784
33.41297852581774	1.9709375	1.4039009
33.43127811979204	1.9652703	1.401881
33.44957859142105	1.8969928	1.3773136
33.467879941297866	1.9445174	1.3944595
33.486182170015844	2.0798044	1.4421527
33.50448527816853	2.0588188	1.4348584
33.522789266349754	1.9202094	1.3857162
33.541094135153514	1.8886833	1.3742938
33.55939988517411	2.046108	1.4304223
33.57770651700602	2.142332	1.4636707
33.59601403124398	1.9372383	1.3918471
33.61432242848296	1.8827901	1.372148
33.632631709318154	1.9480536	1.3957269
33.650941874344994	1.9061042	1.3806174
33.66925292415916	1.8976408	1.3775488
33.68756485935654	1.8784666	1.3705716
33.70587768053328	1.8094738	1.3451668
33.724191388285746	1.854132	1.3616651
33.74250598321054	2.064833	1.4369527
33.760821465904506	2.1223812	1.4568394
33.77913783696474	2.0133865	1.4189385
33.79745509698852	2.0619392	1.4359454
33.815773246573414	1.9970709	1.4131776
33.8340922863172	1.8731664	1.3686367
33.852412216817896	1.8621143	1.3645931
33.87073303867377	1.8947614	1.3765033
33.889054752483304	1.8710176	1.3678515
33.907377358845245	1.9407357	1.3931029
33.92570085835853	1.928756	1.3887966
33.94402525162239	1.9158505	1.3841425
33.96235053923627	1.7667841	1.3292043
33.980676721799824	1.7506913	1.3231369
33.999003799912984	1.7895615	1.337745
34.01733177417592	1.9830823	1.4082196
34.03566064518901	2.0971477	1.4481533
34.0539904135529	1.9954902	1.4126182
34.07232107986846	1.8604014	1.3639653
34.090652644736785	1.9539351	1.3978323
34.108985108759235	1.9771475	1.4061108
34.12731847253742	1.8402263	1.3565494
34.14565273667313	1.8570162	1.3627238
34.16398790176847	1.8609467	1.3641652
34.18232396842574	1.898186	1.3777467
34.20066093724749	2.014029	1.4191649
34.21899880883651	2.0610044	1.4356198
34.23733758379583	1.9488778	1.3960221
34.25567726272874	1.8685577	1.366952
34.27401784623872	1.8968215	1.3772514
34.29235933492957	1.9763923	1.4058422
34.31070172940526	1.9310627	1.3896269
34.32904503027003	1.9249967	1.3874425
34.347389238128386	1.9278582	1.3884734
34.36573435358502	1.963141	1.4011214
34.38408037724492	1.8556247	1.3622131
34.402427309713296	1.8703425	1.3676046
34.42077515159559	2.0589063	1.434889
34.43912390349752	2.23946	1.4964825
34.45747356602499	2.1520472	1.4669857
34.47582413978423	1.9534788	1.3976691
34.49417562538163	1.8460816	1.3587059
34.51252802342388	1.8488227	1.3597142
34.53088133451789	1.9693189	1.4033242
34.54923555927084	2.0033734	1.4154058
34.567590698290104	1.8556223	1.3622123
34.58594675218336	1.7151688	1.3096446
34.6043037215585	1.7277453	1.3144373
34.62266160702365	1.9817629	1.407751
34.641020409187234	2.133019	1.4604858
34.65938012865785	1.9737765	1.4049115
34.677740766044394	1.9227967	1.3866495
34.69610232195598	1.9208312	1.3859406
34.714464797002016	1.9332968	1.3904305
34.73282819179208	1.8847681	1.3728685
34.751192506936064	1.9033495	1.3796194
34.76955774304408	2.02892	1.4244016
34.7879239007265	2.078995	1.441872
34.80629098059391	2.027215	1.423803
34.824658983257194	2.075406	1.440627
34.843027909327446	2.0627685	1.4362341
34.86139775941603	2.024668	1.4229083
34.879768534134534	2.0263133	1.4234864
34.89814023409483	1.9774742	1.406227
34.91651285990901	1.7175342	1.3105472
34.93488641218944	1.7414769	1.3196503
34.95326089154871	1.9519001	1.3971041
34.97163629859967	2.2037873	1.4845159
34.99001263395542	2.1755333	1.4749689
35.00838989822934	1.9673545	1.4026241
35.02676809203499	2.0490377	1.431446
35.04514721598624	2.1016574	1.4497094
35.063527270697215	1.9237498	1.386993
35.081908256782256	2.1247404	1.4576489
35.10029017485597	2.2670965	1.5056881
35.11867302553321	2.0357845	1.4268092
35.137056809429104	1.930568	1.3894488
35.155441527159006	2.0379357	1.4275628
35.173827179338524	2.1876857	1.4790827
35.19221376658354	1.9231081	1.3867618
35.21060128951017	1.7695125	1.3302302
35.2289897487348	1.9850157	1.4089059
35.24737914487405	2.1432621	1.4639884
35.26576947854479	2.0993752	1.4489222
35.28416075036418	2.1679769	1.4724051
35.30255296094958	2.1544344	1.4677992
35.32094611091867	2.1522996	1.4670718
35.33934020088932	2.1069994	1.4515507
35.35773523147969	1.9434651	1.3940822
35.3761312033082	1.8226237	1.3500458
35.394528116993506	1.7200395	1.3115028
35.41292597315452	1.7820711	1.3349423
35.431324772410434	2.0633605	1.4364402
35.449724515380666	2.385387	1.5444698
35.46812520268491	2.3936534	1.5471436
35.486526834943106	2.2635012	1.5044937
35.504929412775454	2.0052743	1.4160771
35.52333293680242	1.7773795	1.333184
35.54173740764471	1.4601518	1.2083675
35.560142825923286	1.5067177	1.2274843
35.5785491922594	1.8391303	1.3561454
35.59695650727454	2.1569898	1.4686694
35.61536477159042	3.0118735	1.735475
