0.008763373481513119	0.3822274	0.6182454
0.026290120649546365	0.19633481	0.44309685
0.043816868432600686	0.1865037	0.43186074
0.06134361724069026	0.1158588	0.34038037
0.07887036748382949	0.08619281	0.2935861
0.0963971195720331	0.14503187	0.3808305
0.11392387391531617	0.08920523	0.29867244
0.1314506309236943	0.12016919	0.3466543
0.1489773910071836	0.13793102	0.37139064
0.16650415457580078	0.12627709	0.35535488
0.18403092203956356	0.18432076	0.42932594
0.20155769380849	0.21315691	0.4616892
0.2190844702925996	0.2611845	0.51106215
0.2366112519019124	0.24185841	0.491791
0.2541380390464497	0.16378827	0.40470764
0.27166483213623416	0.12574661	0.35460767
0.28919163158128947	0.07617361	0.27599567
0.3067184377916406	0.10655432	0.3264266
0.324245251177314	0.1624365	0.40303412
0.34177207214833777	0.19727334	0.44415465
0.3592989011147415	0.23590101	0.48569643
0.37682573848655654	0.21292204	0.46143475
0.39435258467381573	0.1897513	0.4356045
0.41187944008655414	0.15770583	0.39712194
0.42940630513480854	0.16812281	0.41002783
0.446933180228618	0.16283442	0.40352747
0.4644600657780234	0.17596537	0.41948226
0.48198696219306775	0.18772939	0.4332775
0.49951386988379676	0.17667663	0.42032918
0.5170407892602581	0.16754591	0.40932372
0.5345677207325025	0.18058334	0.424951
0.5520946647105822	0.19502598	0.44161746
0.5696216216045534	0.2259321	0.47532317
0.5871485918244737	0.2030551	0.45061636
0.6046755757804043	0.20861547	0.45674443
0.6222025738824094	0.14992554	0.3872022
0.6397295865405557	0.16052665	0.40065777
0.6572566141649129	0.1779642	0.42185804
0.6747836571655547	0.1652225	0.4064757
0.6923107159525568	0.17302577	0.41596368
0.7098377909359992	0.17030752	0.4126833
0.7273648825259653	0.1922002	0.43840644
0.7448919911325411	0.17423776	0.41741797
0.762419117165817	0.17893727	0.42300978
0.7799462610358868	0.172711	0.41558513
0.7974734231528482	0.21048771	0.4587894
0.8150006039268024	0.2190458	0.4680233
0.8325278037678551	0.21624713	0.4650238
0.8500550230861152	0.18226877	0.42692947
0.8675822622916969	0.16087633	0.40109393
0.8851095217947171	0.15603952	0.39501837
0.9026368020052984	0.20040584	0.4476671
0.9201641033335665	0.23647352	0.48628542
0.9376914261896523	0.24882458	0.4988232
0.9552187709836915	0.23115881	0.48078978
0.9727461381258234	0.25825557	0.50818855
0.990273528026193	0.27457947	0.5240033
1.0078009410949496	0.28967777	0.5382172
1.0253283777422473	0.2705271	0.5201222
1.0428558383782454	0.2747002	0.5241185
1.0603833234131086	0.29033506	0.5388275
1.0779108332570058	0.33728844	0.58076537
1.0954383683201119	0.30916372	0.5560249
1.112965929012607	0.31420156	0.56053686
1.1304935157446763	0.41057447	0.64076084
1.1480211289265108	0.45672622	0.6758152
1.1655487689683062	1.3320062	1.1541257
1.1830764362802655	1.6929044	1.3011166
1.200604131272596	2.0847313	1.4438599
1.2181318543555117	2.4237707	1.5568464
1.235659605939232	2.4455442	1.5638236
1.253187386433982	4.1490955	2.036933
1.270715196249994	6.538665	2.5570812
1.2882430357975057	11.83533	3.4402514
1.3057709054867608	16.56295	4.0697603
1.3232988057280106	22.395676	4.732407
1.3408267369315112	27.60395	5.2539463
1.358354699507526	31.223448	5.5877943
1.3758826938663256	35.701862	5.9751034
1.3934107204181858	37.723415	6.141939
1.410938779573391	38.53752	6.2078595
1.4284668717422309	38.918526	6.2384715
1.4459949973350033	38.36296	6.193784
1.4635231567620117	37.973644	6.162276
1.4810513504335687	37.057747	6.0875072
1.4985795787599925	36.0176	6.0014668
1.5161078421516088	35.345184	5.9451814
1.5336361410187505	34.50739	5.874299
1.5511644757717598	34.481052	5.872057
1.5686928468209842	35.463768	5.9551463
1.58622125457678	36.598633	6.04968
1.6037496994495108	38.06501	6.169685
1.621278181849548	38.04518	6.1680775
1.6388067021872719	38.29855	6.1885824
1.6563352608730693	37.51498	6.1249475
1.673863858317336	36.515263	6.042786
1.6913924949304753	35.686764	5.9738398
1.7089211711228998	34.439358	5.8685055
1.7264498873050296	33.692074	5.804487
1.7439786438872935	32.999294	5.744501
1.7615074412801288	32.082306	5.6641245
1.779036279893981	31.683033	5.6287684
1.796565160139305	30.776007	5.5476127
1.814094082426564	30.593609	5.531149
1.8316230471662298	29.651302	5.445301
1.849152054768784	28.590227	5.346983
1.8666811056447168	27.85551	5.277832
1.8842102002045273	27.22445	5.2177052
1.901739338858724	26.962038	5.192498
1.9192685220178245	26.493387	5.147173
1.9367977500923557	25.75782	5.0752163
1.9543270234928547	25.069715	5.0069666
1.971856342629867	24.33696	4.9332504
1.9893857079139496	23.645296	4.862643
2.006915119755667	23.030588	4.7990193
2.0244445785655945	22.241713	4.716112
2.0419740847543175	21.905298	4.68031
2.0595036387324317	21.45418	4.6318655
2.0770332409105414	21.301054	4.6153064
2.094562891699263	20.945347	4.5766087
2.1120925915092217	20.502356	4.5279527
2.129622340751053	20.12603	4.4862046
2.1471521398354043	188.19122	13.718281
2.1646819891729323	444.5431	21.08419
2.182211889174303	440.91556	20.99799
2.1997418402501974	453.4918	21.295347
2.2172718428113023	433.26907	20.815117
2.234801897268317	321.1052	17.919409
2.2523320040319548	17.44025	4.1761527
2.269862163512935	17.253199	4.153697
2.287392376121992	16.952208	4.1173058
2.304922642269869	16.611282	4.075694
2.322452962367322	16.163969	4.020444
2.3399833368251164	15.7394285	3.967295
2.357513766054032	15.412216	3.9258397
2.3750442504648586	15.166054	3.8943617
2.3925747904683963	14.970319	3.8691497
2.410105386475459	14.8148	3.849
2.4276360388968707	14.526264	3.8113337
2.445166748143469	14.287793	3.7799196
2.4626975146261025	14.074462	3.7515945
2.4802283387556323	13.75799	3.7091765
2.4977592209429305	13.363736	3.6556444
2.5152901615988825	12.825724	3.581302
2.5328211611343865	12.577909	3.5465348
2.5503522199603523	12.637076	3.5548666
2.5678833384877024	12.516461	3.537861
2.5854145171273712	12.342305	3.5131617
2.6029457562903064	12.108007	3.4796562
2.620477056387469	11.888616	3.447987
2.6380084178298326	11.807785	3.4362457
2.655539841028383	11.581861	3.4032133
2.673071326394119	11.434769	3.3815334
2.6906028743380523	11.249518	3.3540301
2.708134485271211	11.029279	3.3210359
2.7256661596046325	10.866274	3.2964032
2.743197897749369	10.614928	3.258056
2.760729700116486	10.561209	3.2498014
2.778261567117063	10.357783	3.2183511
2.795793499162193	10.20924	3.1951902
2.8133254966629817	10.168501	3.1888087
2.830857560030551	10.197097	3.1932893
2.8483896896760337	10.217903	3.1965456
2.865921886010578	9.95288	3.1548185
2.883454149445347	9.755131	3.1233206
2.9009864803915177	9.581964	3.0954747
2.91851887926028	9.393375	3.0648613
2.9360513464628384	9.201369	3.033376
2.953583882410413	9.128409	3.0213258
2.9711164875142373	9.055537	3.009242
2.9886491621855606	9.117505	3.0195208
3.0061819068356455	8.939553	2.9899085
3.023714721875769	8.835987	2.972539
3.041247607717225	8.564568	2.9265282
3.0587805647713213	8.502425	2.915892
3.0763135934493806	8.312051	2.8830628
3.0938466941627407	8.157416	2.8561192
3.1113798673227544	8.059974	2.8390093
3.1289131133407904	7.9781246	2.8245573
3.1464464326282315	7.8990803	2.8105302
3.1639798255964786	7.818976	2.7962432
3.1815132926569443	7.752287	2.784293
3.1990468342210603	7.698277	2.774577
3.216580450700272	7.649231	2.7657244
3.2341141425060416	7.5414095	2.7461627
3.251647910049847	7.4085717	2.7218692
3.2691817537431813	7.195826	2.6825037
3.286715673997555	7.1715693	2.6779785
3.3042496712244938	7.099422	2.664474
3.32178374583554	7.0988555	2.6643677
3.339317898242251	7.010224	2.6476827
3.3568521288562034	6.9432826	2.635011
3.3743864380889876	6.787339	2.6052523
3.3919208263522127	6.6699243	2.5826197
3.4094552940575023	6.627534	2.5743997
3.4269898416164972	6.6811023	2.5847828
3.444524469440858	6.705879	2.5895712
3.4620591779422587	6.6026106	2.5695546
3.479593967532391	6.4576454	2.5411897
3.4971288386229658	6.536015	2.5565631
3.5146637916257086	6.5560613	2.5604806
3.5321988269523628	6.553167	2.5599153
3.5497339450146903	6.4668703	2.5430043
3.5672691462244708	6.34564	2.5190554
3.5848044309934988	6.375545	2.5249841
3.60233979973359	6.353363	2.520588
3.619875252856575	6.311871	2.5123436
3.6374107907743034	6.24565	2.4991298
3.6549464138986427	6.1376853	2.477435
3.6724821226414788	6.1878705	2.487543
3.690017917414714	6.279266	2.5058463
3.7075537986302702	6.4035864	2.530531
3.7250897667000857	6.5573883	2.5607398
3.7426258220361235	6.7052555	2.5894508
3.7601619650503553	7.09102	2.6628969
3.777698196154779	7.526238	2.743399
3.7952345157614067	8.501319	2.915702
3.8127709242822716	9.257524	3.0426178
3.830307422129425	11.54121	3.3972356
3.847844009714936	30.373243	5.5111923
3.8653806874508954	97.88505	9.893687
3.882917455749409	97.17858	9.85792
3.900454315022606	96.85832	9.841662
3.917991265682631	41.37912	6.4326606
3.9355283081416506	11.00294	3.317068
3.9530654428118495	8.709833	2.9512427
3.970602670105433	7.4953427	2.7377625
3.9881399904346244	6.576414	2.564452
4.005677404211669	6.5893316	2.5669694
4.023214911848827	6.4646683	2.5425713
4.0407525137583855	6.3887086	2.5275896
4.058290210352644	6.3262897	2.5152116
4.075828002043927	6.2656865	2.5031354
4.0933658892445814	6.339785	2.517893
4.110903872366966	6.3529058	2.520497
4.128441951823468	6.3235188	2.5146608
4.145980128026488	6.3054276	2.511061
4.163518401388452	6.263655	2.5027297
4.181056772321807	6.179279	2.4858155
4.1985952412390155	6.202129	2.4904075
4.216133808552567	6.2653017	2.5030584
4.233672474674966	6.2874045	2.5074697
4.251211240018741	6.4894133	2.5474327
4.268750104996445	6.732797	2.5947635
4.286289070020643	7.662924	2.7681987
4.303828135503928	9.358059	3.0590944
4.3213673018589125	29.520985	5.4333215
4.3389065694982305	90.70685	9.524014
4.356445938834537	165.95671	12.882419
4.3739854102805085	171.56665	13.098346
4.391524984248844	172.48221	13.133248
4.409064661152262	136.44907	11.681142
4.426604441403504	96.613	9.829191
4.444144325415337	75.7519	8.703557
4.461684313600543	21.883165	4.6779447
4.47922440637193	22.434233	4.736479
4.496764604142329	20.665749	4.5459595
4.5143049073245916	18.79675	4.3355217
4.531845316331589	16.73199	4.0904756
4.5493858315762195	13.7636595	3.7099407
4.566926453471405	11.357065	3.3700244
4.584467182430081	9.229173	3.0379553
4.602008018865218	8.122785	2.85005
4.619548963189798	7.5884295	2.7547104
4.637090015816834	7.102092	2.664975
4.654631177159353	6.838389	2.6150312
4.672172447630417	6.4702787	2.5436742
4.689713827643102	6.2283654	2.4956694
4.7072553176105085	6.0472527	2.4591162
4.724796917945764	5.8316255	2.414876
4.742338629062015	5.802105	2.4087558
4.759880451372434	5.808243	2.4100296
4.777422385290215	5.854706	2.4196498
4.794964431228581	5.881472	2.4251747
4.812506589600768	5.835543	2.4156868
4.830048860820047	5.663654	2.3798432
4.847591245299709	5.5606937	2.3581123
4.8651337434530655	5.5303593	2.3516717
4.882676355693457	5.5198503	2.349436
4.900219082434242	5.512621	2.347897
4.917761924088813	5.5295324	2.3514957
4.935304881070575	5.53748	2.353185
4.952847953792969	5.5281734	2.3512068
4.970391142669449	5.5198545	2.349437
4.9879344481135055	5.4846883	2.341941
5.005477870538642	5.5215425	2.3497963
5.023021410358394	5.547464	2.3553054
5.040565067986324	5.5720415	2.3605173
5.05810884383601	5.550374	2.3559232
5.075652738321066	5.5759873	2.361353
5.09319675185512	5.5539403	2.35668
5.110740884851836	5.4467077	2.3338182
5.128285137724894	5.4360285	2.3315291
5.145829510888007	5.378587	2.319178
5.163374004754908	5.4014893	2.3241105
5.1809186197393595	5.4335113	2.3309894
5.198463356255145	5.548291	2.3554811
5.216008214716077	5.575854	2.3613245
5.233553195535998	5.5074377	2.3467932
5.251098299128764	5.348933	2.312776
5.268643525908272	5.3048778	2.303232
5.286188876288432	5.2290096	2.2867029
5.3037343506831895	5.315079	2.3054457
5.32127994950651	5.233116	2.2876005
5.3388256731723915	5.2414713	2.289426
5.356371522094851	5.2157364	2.2837987
5.373917496687938	5.2534294	2.292036
5.391463597365729	5.2428846	2.2897346
5.40900982454232	5.2896676	2.2999277
5.426556178631843	5.249865	2.2912583
5.444102660048449	5.209079	2.2823405
5.4616492692063225	5.20382	2.2811882
5.479196006519669	5.2698298	2.295611
5.496742872402727	5.365238	2.3162985
5.514289867269756	5.3541093	2.3138947
5.531836991535049	5.317431	2.3059556
5.549384245612924	5.2543397	2.2922347
5.566931629917724	5.275012	2.2967393
5.584479144863822	5.282298	2.298325
5.6020267908656205	5.285346	2.298988
5.619574568337545	5.2605305	2.2935846
5.637122477694054	5.1219487	2.2631724
5.654670519349629	5.132265	2.2654502
5.672218693718784	5.1184783	2.2624054
5.689767001216059	5.1330066	2.265614
5.707315442256021	5.208956	2.2823136
5.724864017253266	5.148975	2.2691352
5.7424127266224225	5.1454105	2.2683496
5.75996157077814	5.1178484	2.2622662
5.777510550135105	5.128005	2.26451
5.795059665108022	5.1455297	2.268376
5.812608916111639	5.2100844	2.2825608
5.830158303560715	5.3328147	2.3092887
5.847707827870055	5.4127336	2.3265283
5.86525748945448	5.4835114	2.3416898
5.8828072887288485	5.608098	2.3681424
5.900357226108044	5.69071	2.385521
5.917907302006979	5.733079	2.3943849
5.9354575168406	6.3004103	2.5100617
5.9530078710238765	6.907806	2.6282706
5.970558364971812	7.419171	2.7238154
5.988108999099438	7.745163	2.7830133
6.005659773821818	8.289827	2.879206
6.023210689554039	7.9829807	2.8254168
6.040761746711227	8.398263	2.8979757
6.058312945708531	7.821718	2.7967334
6.075864286961132	7.339061	2.7090702
6.093415770884244	6.7198386	2.5922651
6.1109673978931065	6.1347904	2.476851
6.128519168402993	5.509702	2.3472755
6.146071082829204	5.419765	2.328039
6.163623141587075	5.3328624	2.309299
6.181175345091969	5.227409	2.2863526
6.198727693759281	5.1993876	2.2802165
6.216280188004435	5.1901793	2.2781966
6.233832828242885	5.189038	2.277946
6.251385614890126	5.1947074	2.27919
6.268938548361669	5.1127	2.261128
6.286491629073067	5.0278316	2.2422826
6.304044857439898	5.11419	2.2614574
6.321598233877777	5.0912905	2.256389
6.339151758802344	5.105333	2.2594984
6.356705432629277	5.0572567	2.2488346
6.37425925577428	4.978197	2.2311873
6.391813228653095	4.9438553	2.223478
6.409367351681486	4.945132	2.2237651
6.426921625275259	4.9479823	2.224406
6.44447604985025	4.9929476	2.2344904
6.46203062582232	5.0578747	2.248972
6.47958535360737	5.1034293	2.259077
6.497140233621328	5.081871	2.2543006
6.514695266280161	5.06981	2.2516239
6.532250451999859	5.070671	2.251815
6.549805791196454	5.194243	2.2790883
6.567361284286002	5.17484	2.2748275
6.584916931684597	5.1068196	2.2598274
6.602472733808367	5.0308733	2.242961
6.6200286910734665	5.016384	2.2397287
6.637584803896092	5.08916	2.2559166
6.655141072692462	5.077977	2.2534368
6.672697497878842	5.060474	2.2495496
6.690254079871514	5.040558	2.2451186
6.707810819086808	5.0418663	2.24541
6.725367715941078	5.0609636	2.2496586
6.742924770850719	4.995817	2.2351325
6.760481984232151	5.0242414	2.241482
6.778039356501836	5.0532174	2.2479362
6.795596888076266	5.0794153	2.2537558
6.813154579371963	5.041284	2.2452805
6.830712430805492	4.9225206	2.2186754
6.84827044279344	4.9086385	2.2155447
6.865828615752445	4.9215527	2.2184572
6.883386950099159	5.03717	2.244364
6.900945446250287	5.0678115	2.25118
6.918504104622553	5.137917	2.2666974
6.936062925632727	5.1681848	2.2733643
6.953621909697607	5.1908717	2.2783484
6.971181057234028	5.186434	2.2773743
6.988740368658859	5.160346	2.2716396
7.006299844389007	5.180047	2.2759717
7.023859484841407	5.2361403	2.2882614
7.041419290433036	5.312985	2.3049912
7.058979261580902	5.4254923	2.3292687
7.0765393987020495	5.677085	2.3826635
7.094099702213559	6.0969353	2.4691973
7.111660172532549	6.511701	2.5518036
7.129220810076164	6.8733177	2.6217012
7.146781615261595	7.4417057	2.727949
7.16434258850606	7.7512255	2.7841022
7.181903730226821	8.212695	2.86578
7.1994650408411704	8.304483	2.88175
7.217026520766437	8.382942	2.8953311
7.234588170419983	8.568988	2.9272833
7.252149990219215	8.618296	2.9356935
7.269711980581568	8.524793	2.9197247
7.2872741419245175	8.319333	2.8843255
7.304836474665574	7.9054523	2.8116636
7.322398979222286	7.5494027	2.7476177
7.339961656012233	7.339742	2.7091959
7.357524505453039	6.9901385	2.643887
7.375087527962357	6.7039857	2.5892055
7.392650723957886	6.3926697	2.528373
7.410214093857353	5.9903283	2.4475148
7.427777638078528	5.8138022	2.4111826
7.445341357039213	5.6399426	2.3748562
7.4629052511572525	5.4730988	2.3394654
7.480469320850524	5.3404474	2.3109407
7.498033566536948	5.308313	2.3039777
7.5155979886344735	5.268216	2.2952595
7.5331625875610975	5.296734	2.3014634
7.550727363734844	5.2284946	2.28659
7.568292317573788	5.242875	2.2897325
7.585857449496025	5.2215066	2.2850616
7.603422759919705	5.241339	2.2893972
7.620988249263007	5.2650576	2.2945714
7.638553917944147	5.2420554	2.2895536
7.656119766381391	5.218342	2.284369
7.673685794993023	5.217216	2.2841227
7.691252004197388	5.2704587	2.295748
7.70881839441285	5.2755775	2.2968626
7.726384966057826	5.2961626	2.3013394
7.743951719550762	5.288696	2.2997165
7.761518655310149	5.327151	2.308062
7.779085773754511	5.3250694	2.3076112
7.796653075302419	5.3079543	2.3038998
7.814220560372475	5.2662115	2.2948227
7.831788229383323	5.2939253	2.3008533
7.8493560827536495	5.3383083	2.310478
7.866924120902174	5.329572	2.3085866
7.884492344247663	5.38263	2.3200495
7.9020607532089135	5.3931565	2.3223171
7.919629348204771	5.404961	2.3248572
7.937198129654115	5.4039874	2.324648
7.954767097975865	5.439505	2.3322747
7.972336253588986	5.435623	2.3314424
7.989905596912472	5.4470744	2.3338969
8.007475128365371	5.4821577	2.3414009
8.025044848366756	5.5606313	2.358099
8.042614757335754	5.705395	2.388597
8.060184855691523	5.7600546	2.4000113
8.07775514385327	5.914109	2.431894
8.095325622240228	5.973636	2.4441023
8.112896291271687	6.007986	2.4511194
8.130467151366968	6.0634203	2.4624014
8.148038202945436	6.04803	2.4592743
8.165609446426497	6.0126877	2.4520783
8.183180882229594	6.044729	2.4586031
8.200752510774217	5.987358	2.4469078
8.218324332479893	6.0637197	2.4624622
8.235896347766193	6.0465326	2.4589698
8.253468557052724	6.0470943	2.459084
8.27104096075914	5.9763	2.444647
8.288613559305137	6.0575423	2.4612074
8.306186353110448	6.0981746	2.4694483
8.32375934259485	6.22911	2.4958184
8.341332528178162	6.211947	2.4923778
8.358905910280246	6.329658	2.515881
8.376479489321003	6.325817	2.5151176
8.394053265720377	6.3742223	2.524722
8.411627239898356	6.334376	2.5168185
8.42920141227497	6.291936	2.5083733
8.44677578327029	6.2889524	2.5077784
8.464350353304427	6.365177	2.5229304
8.48192512279754	6.334128	2.5167694
8.499500092169827	6.336632	2.5172668
8.51707526184153	6.2765527	2.5053048
8.534650632232934	6.2928853	2.5085623
8.552226203764365	6.283335	2.506658
8.569801976856192	6.3246126	2.5148783
8.587377951928834	6.3497133	2.5198638
8.60495412940274	6.4025826	2.5303326
8.622530509698416	6.410334	2.5318637
8.6401070932364	6.5150805	2.5524657
8.657683880437283	6.6112185	2.571229
8.675260871721695	6.698801	2.5882041
8.692838067510303	6.8578563	2.6187508
8.710415468223834	7.0286417	2.6511586
8.727993074283043	7.208863	2.6849325
8.745570886108737	7.219057	2.6868303
8.763148904121765	7.2589006	2.6942346
8.78072712874302	7.254248	2.693371
8.798305560393441	7.522439	2.7427065
8.815884199494006	7.712736	2.7771814
8.833463046465745	7.910332	2.8125312
8.851042101729728	7.9835434	2.8255165
8.86862136570707	8.260341	2.874081
8.886200838818924	8.397603	2.8978617
8.903780521486505	8.404267	2.8990114
8.921360414131055	8.494352	2.9145072
8.938940517173874	8.634388	2.938433
8.956520831036297	8.824781	2.9706533
8.97410135613971	9.084219	3.0140038
8.99168209290554	9.306101	3.0505903
9.009263041755265	9.600721	3.098503
9.026844203110405	9.84054	3.1369636
9.044425577392525	9.981951	3.1594226
9.062007165023239	10.144817	3.185093
9.079588966424197	10.39234	3.2237153
9.097170982017108	10.5285845	3.244778
9.11475321222372	11.464686	3.3859544
9.132335657465825	12.369195	3.5169866
9.149918318165264	12.402644	3.5217388
9.167501194743924	12.913808	3.5935788
9.18508428762374	12.490767	3.5342278
9.202667597226693	12.605084	3.550364
9.220251123974803	12.437837	3.5267317
9.237834868290143	12.16504	3.4878418
9.255418830594836	11.886009	3.4476092
9.273003011311046	11.325643	3.3653593
9.290587410860985	11.101087	3.3318293
9.308172029666911	10.431411	3.2297695
9.32575686815113	10.057497	3.1713557
9.343341926735997	8.765252	2.9606168
9.360927205843916	8.508722	2.9169714
9.378512705897327	8.35737	2.8909116
9.396098427318728	8.246484	2.871669
9.413684370530664	8.173836	2.858992
9.431270535955722	8.052048	2.837613
9.448856924016539	7.8923397	2.809331
9.466443535135806	7.759199	2.785534
9.484030369736251	7.7633243	2.7862742
9.501617428240658	7.7971473	2.7923372
9.519204711071852	7.799692	2.7927928
9.536792218652714	7.7676396	2.7870486
9.55437995140617	7.855098	2.8026948
9.571967909755191	7.957996	2.820992
9.589556094122802	8.037508	2.8350499
9.60714450493207	8.101785	2.8463633
9.624733142606116	8.124762	2.8503966
9.642322007568108	8.110391	2.8478749
9.659911100241267	8.1212845	2.8497868
9.677500421048851	8.1712	2.858531
9.695089970414175	8.20907	2.8651476
9.712679748760609	8.236074	2.869856
9.730269756511557	8.237085	2.8700323
9.747859994090492	8.240385	2.8706071
9.765450461920915	8.283313	2.8780744
9.78304116042639	8.288972	2.8790574
9.800632090030527	8.31462	2.8835082
9.81822325115699	8.360253	2.8914104
9.835814644229481	8.430544	2.90354
9.853406269671762	8.578166	2.9288507
9.870998127907646	8.561072	2.925931
9.888590219360985	8.474525	2.9111037
9.906182544455698	8.427214	2.9029663
9.923775103615734	8.389862	2.8965259
9.941367897265108	8.380403	2.8948925
9.958960925827878	8.457104	2.90811
9.97655418972816	8.3667555	2.8925345
9.994147689390106	8.375909	2.8941162
10.011741425237934	8.324096	2.885151
10.029335397695904	8.36716	2.8926044
10.04692960718833	8.381856	2.8951435
10.06452405413958	8.327488	2.8857386
10.082118738974064	8.324048	2.8851426
10.099713662116246	8.275829	2.876774
10.117308823990651	8.291025	2.879414
10.134904225021844	8.294817	2.8800724
10.152499865634445	8.386197	2.895893
10.170095746253125	8.377954	2.8944695
10.18769186730261	8.316701	2.8838692
10.205288229207675	8.27272	2.8762338
10.222884832393145	8.256778	2.873461
10.2404816772839	8.293709	2.87988
10.258078764304868	8.310617	2.8828142
10.275676093881035	8.290301	2.8792884
10.293273666437438	8.297834	2.8805962
10.310871482399158	8.315832	2.8837185
10.32846954219134	8.300955	2.8811378
10.346067846239173	8.250018	2.8722844
10.363666394967908	8.181803	2.8603852
10.38126518880283	8.178604	2.8598258
10.398864228169298	8.2026205	2.8640218
10.416463513492713	8.259875	2.8739998
10.434063045198531	8.2439165	2.871222
10.451662823712262	8.255624	2.87326
10.469262849459467	8.205011	2.864439
10.486863122865758	8.204082	2.864277
10.504463644356806	8.210685	2.8654292
10.522064414358338	8.213832	2.8659782
10.539665433296118	8.083285	2.843112
10.557266701595987	7.988987	2.8264797
10.574868219683818	7.866889	2.8047974
10.592469987985552	7.8687177	2.8051236
10.610072006927185	7.725565	2.77949
10.627674276934751	7.6339273	2.7629564
10.64527679843435	7.4736614	2.7337997
10.662879571852143	7.340948	2.7094183
10.680482597614331	7.3112116	2.7039251
10.698085876147173	7.2107577	2.6852853
10.715689407876988	7.157139	2.675283
10.733293193230146	6.945723	2.635474
10.750897232633072	6.769547	2.6018353
10.76850152651225	6.6575475	2.5802224
10.786106075294207	6.6345925	2.5757704
10.803710879405534	6.6460423	2.577992
10.821315939272877	6.5277634	2.5549488
10.83892125532294	6.381213	2.5261064
10.856526827982472	6.2961087	2.5092049
10.874132657678285	6.23633	2.4972646
10.891738744837243	6.2481585	2.4996316
10.909345089886271	6.1833982	2.486644
10.926951693252343	6.124191	2.4747102
10.944558555362494	6.0646696	2.462655
10.96216567664381	6.0401726	2.4576762
10.979773057523436	6.042685	2.4581873
10.997380698428573	5.9963217	2.4487388
11.014988599786477	5.966629	2.4426684
11.032596762024461	5.8979273	2.4285648
11.050205185569892	5.824358	2.4133706
11.067813870850198	5.737752	2.3953605
11.085422818292859	5.6335034	2.3735003
11.10303202832541	5.5382457	2.3533478
11.120641501375454	5.503617	2.345979
11.138251237870636	5.3929644	2.3222756
11.155861238238671	5.3310723	2.3089116
11.173471502907317	5.2592664	2.293309
11.191082032304402	5.17203	2.2742097
11.208692826857805	5.1182714	2.2623596
11.226303886995465	5.007208	2.2376792
11.243915213145371	5.0321264	2.24324
11.261526805735578	4.9823427	2.2321162
11.279138665194196	4.895798	2.212645
11.296750791949393	4.8646407	2.205593
11.314363186429393	4.883023	2.2097564
11.331975849062479	4.8426046	2.2005918
11.34958878027699	4.765597	2.1830246
11.36720198050133	4.72691	2.174146
11.384815450163948	4.6826134	2.1639347
11.402429189693366	4.6132507	2.147848
11.420043199518153	4.554035	2.1340187
11.437657480066942	63.50937	7.9692764
11.455272031768422	85.202156	9.230501
11.472886855051353	107.57276	10.371729
11.490501950344528	99.19023	9.95943
11.508117318076819	84.550514	9.195135
11.52573295867715	45.94517	6.778287
11.543348872574514	4.17986	2.0444705
11.560965060197946	4.162868	2.0403109
11.57858152197655	4.1111717	2.0276024
11.59619825833949	4.10129	2.0251644
11.613815269715985	4.038399	2.0095768
11.631432556535323	38.57299	6.210716
11.649050119226837	83.107025	9.116305
11.666667958219929	93.50861	9.669985
11.68428607394406	107.777214	10.38158
11.701904466828756	82.63404	9.090326
11.719523137303586	65.522446	8.094594
11.737142085798196	4.74913	2.1792498
11.754761312742286	3.7988415	1.9490616
11.772380818565619	3.7048805	1.9248066
11.790000603698015	3.6116288	1.9004285
11.80762066856935	3.6094599	1.8998579
11.825241013609572	3.6132104	1.9008447
11.842861639248683	3.6190135	1.9023705
11.860482545916748	3.6173358	1.9019295
11.878103734043883	3.5762458	1.8910965
11.895725204060282	3.4843037	1.866629
11.91334695639619	3.3843658	1.8396646
11.930968991481919	3.3619149	1.8335525
11.948591309747824	3.4322793	1.8526412
11.966213911624347	3.4576278	1.8594698
11.98383679754198	3.4240415	1.8504165
12.001459967931268	3.3380895	1.8270439
12.019083423222835	3.2807963	1.8112968
12.036707163847352	3.22004	1.7944471
12.05433119023556	3.1870775	1.7852387
12.071955502818259	3.1898644	1.7860192
12.089580102026313	3.1927555	1.7868283
12.107204988290643	3.1809106	1.7835108
12.12483016204224	3.1605186	1.7777847
12.142455623712152	3.118085	1.76581
12.16008137373149	3.1001115	1.7607133
12.177707412531431	3.082849	1.7558044
12.19533374054321	3.0987277	1.7603203
12.212960358198126	3.1574373	1.7769179
12.230587265927545	3.1328158	1.7699763
12.248214464162889	3.0931299	1.7587296
12.265841953335649	3.0435638	1.7445812
12.283469733877375	3.0103102	1.7350246
12.301097806219685	3.0113976	1.7353379
12.31872617079425	2.993643	1.7302147
12.336354828032825	2.9847322	1.7276378
12.353983778367205	2.9671228	1.7225338
12.371613022229262	2.9678588	1.7227474
12.389242560050928	2.9452884	1.7161843
12.406872392264201	2.9100504	1.705887
12.424502519301143	2.8949418	1.7014529
12.442132941593874	2.930495	1.7118689
12.459763659574586	2.9375515	1.7139287
12.477394673675532	2.936699	1.7136799
12.49502598432903	2.9139159	1.7070196
12.51265759196746	2.9086902	1.7054882
12.530289497023267	2.8894327	1.6998332
12.547921699928967	2.892603	1.7007654
12.565554201117134	2.8714256	1.6945281
12.583187001020404	2.822295	1.6799687
12.600820100071486	2.8227632	1.6801081
12.618453498703152	2.794216	1.6715908
12.636087197348235	2.787666	1.6696305
12.65372119643964	2.776187	1.6661893
12.671355496410326	2.8160822	1.6781187
12.68899009769333	2.8706343	1.6942947
12.706625000721749	2.8818753	1.6976087
12.724260205928752	2.9506423	1.7177434
12.741895713747551	2.9676468	1.7226859
12.759531524611454	3.0204468	1.7379433
12.777167638953818	3.0699224	1.7521194
12.794804057208072	3.086898	1.756957
12.812440779807702	3.121312	1.7667235
12.830077807186271	3.2570758	1.8047371
12.847715139777405	3.3255029	1.8235961
12.865352778014795	3.5401585	1.8815309
12.882990722332197	3.6318872	1.9057511
12.90062897316344	3.7106178	1.9262964
12.918267530942412	3.8136997	1.9528697
12.935906396103071	3.7169948	1.927951
12.953545569079449	3.8913863	1.9726597
12.971185050305628	3.6741266	1.9168011
12.988824840215775	3.6680121	1.9152055
13.006464939244115	3.6500902	1.9105209
13.024105347824943	3.5001986	1.8708818
13.041746066392617	3.6003942	1.8974705
13.05938709538157	3.38518	1.8398858
13.077028435226296	3.4060445	1.8455472
13.094670086361363	3.3258247	1.8236843
13.112312049221401	3.2279856	1.7966596
13.129954324241112	3.120709	1.7665528
13.147596911855258	2.8816316	1.697537
13.165239812498685	2.8785245	1.6966215
13.182883026606293	2.819626	1.6791742
13.200526554613058	2.7994282	1.6731492
13.218170396954017	2.7584999	1.6608732
13.235814554064284	2.7142417	1.6474956
13.253459026379034	2.7045963	1.6445657
13.271103814333523	2.6352005	1.6233301
13.288748918363058	2.6280925	1.6211393
13.306394338903031	2.6280994	1.6211414
13.32404007638889	2.6556387	1.629613
13.341686131256164	2.7094464	1.6460396
13.359332503940449	2.705011	1.6446917
13.376979194877402	2.6750734	1.6355652
13.394626204502751	2.6902764	1.6402062
13.412273533252307	2.676326	1.6359481
13.429921181561937	2.7057974	1.6449308
13.447569149867581	2.724358	1.650563
13.465217438605247	2.7767742	1.6663655
13.482866048211022	2.7851477	1.6688762
13.500514979121052	2.7862067	1.6691934
13.518164231771568	2.7607071	1.6615375
13.535813806598844	2.742312	1.6559927
13.553463704039254	2.755534	1.65998
13.571113924529229	2.7832417	1.668305
13.588764468505275	2.792002	1.6709285
13.606415336403956	2.7821045	1.6679642
13.624066528661917	2.7732801	1.6653168
13.641718045715882	2.8442695	1.6864963
13.659369888002635	2.9040911	1.7041394
13.67702205595903	2.9739618	1.7245178
13.694674550021993	3.0153546	1.7364776
13.712327370628532	3.0989614	1.7603867
13.729980518215713	3.1836782	1.7842865
13.747633993220681	3.2663116	1.807294
13.765287796080647	3.2983532	1.8161368
13.7829419272329	3.3022845	1.8172189
13.800596387114801	3.3192692	1.8218862
13.818251176163775	3.3248532	1.823418
13.835906294817324	3.354488	1.8315262
13.853561743513023	3.4223201	1.8499514
13.871217522688525	3.4584918	1.8597021
13.888873632781538	3.524661	1.877408
13.906530074229858	3.516448	1.8752195
13.92418684747135	3.5561862	1.8857853
13.941843952943948	3.534654	1.8800675
13.959501391085665	3.5394735	1.8813488
13.977159162334578	3.447356	1.8567057
13.994817267128846	3.402955	1.84471
14.012475705906693	3.3028252	1.8173677
14.030134479106424	3.2320764	1.7977977
14.047793587166414	3.178276	1.7827721
14.065453030525108	3.1259549	1.768037
14.083112809621026	3.0116398	1.7354077
14.100772924892766	2.9514208	1.71797
14.118433376778997	2.9142337	1.7071127
14.136094165718458	2.8936446	1.7010716
14.153755292149969	2.801625	1.6738056
14.171416756512416	2.6945307	1.6415026
14.189078559244768	2.6048534	1.6139559
14.20674070078606	2.5793507	1.6060357
14.224403181575408	2.5557323	1.5986657
14.242066002051999	2.5316434	1.5911139
14.259729162655093	2.4902208	1.5780433
14.277392663824022	2.4519908	1.5658834
14.295056505998208	2.4290276	1.5585338
14.312720689617128	2.4117517	1.5529816
14.330385215120348	2.4279356	1.5581834
14.348050082947497	2.4234202	1.5567338
14.3657152935383	2.4140275	1.553714
14.383380847332528	2.3982651	1.5486333
14.401046744770051	2.4173303	1.5547765
14.418712986290798	2.4361844	1.5608281
14.436379572334793	2.4117908	1.5529941
14.454046503342123	2.3965058	1.5480652
14.471713779752946	2.3547351	1.5345147
14.489381402007504	2.3727424	1.5403708
14.507049370546113	2.4036174	1.5503604
14.524717685809168	2.4271538	1.5579325
14.542386348237134	2.3968804	1.5481862
14.560055358270553	2.3531988	1.534014
14.577724716350051	2.4075985	1.5516438
14.595394422916325	2.4420464	1.5627048
14.61306447841015	2.488011	1.577343
14.63073488327237	2.4990473	1.5808375
14.648405637943917	2.5344274	1.5919886
14.6660767428658	2.5350819	1.5921941
14.683748198479094	2.5930622	1.6102988
14.701420005224954	2.626405	1.6206187
14.719092163544628	2.672434	1.6347581
14.73676467387942	2.6730192	1.634937
14.754437536670727	2.656026	1.6297319
14.772110752360014	2.6351268	1.6233073
14.78978432138882	2.6485825	1.6274467
14.807458244198777	2.6451607	1.626395
14.82513252123159	2.6983788	1.6426743
14.842807152929028	2.760087	1.661351
14.860482139732962	2.7697413	1.664254
14.87815748208531	2.7344596	1.6536201
14.8958331804281	2.6908937	1.6403943
14.91350923520342	2.6772108	1.6362184
14.931185646853438	2.6939485	1.6413252
14.948862415820408	2.6984468	1.642695
14.966539542546656	2.719977	1.6492352
14.98421702747459	2.7247171	1.6506717
15.001894871046696	2.7179544	1.6486219
15.019573073705542	2.6912043	1.6404891
15.037251635893766	2.6568027	1.6299702
15.054930558054092	2.646938	1.6269413
15.072609840629323	2.692649	1.6409292
15.090289484062351	2.8221254	1.6799183
15.107969488796124	3.130795	1.7694052
15.125649855273691	3.5473394	1.8834382
15.14333058393817	4.0372505	2.009291
15.161011675232768	5.034546	2.2437794
15.17869312960076	6.359429	2.5217907
15.196374947485506	8.341711	2.888202
15.214057129330447	11.483247	3.388694
15.231739675579114	16.210236	4.0261936
15.249422586675102	21.309084	4.616176
15.267105863062092	24.499403	4.949687
15.284789505183847	24.8673	4.9867125
15.302473513484218	22.670834	4.7613897
15.320157888407127	18.939919	4.3520017
15.337842630396578	14.619799	3.8235846
15.355527739896656	11.425554	3.3801708
15.37321321735153	8.922345	2.9870296
15.39089906320545	6.5405617	2.5574522
15.408585277902748	4.899368	2.2134516
15.42627186188783	3.756385	1.9381396
15.443958815605198	3.2503135	1.8028626
15.461646139499424	2.9801717	1.7263174
15.479333834015168	2.8479722	1.6875936
15.497021899597165	2.7215507	1.6497123
15.514710336690234	2.6524472	1.6286335
15.53239914573928	2.617361	1.617826
15.550088327189297	2.5837755	1.6074127
15.567777881485336	2.5480692	1.5962673
15.58546780907256	2.5173895	1.5866283
15.6031581103962	2.4897408	1.5778912
15.620848785901568	2.4751794	1.5732703
15.638539836034063	2.4716835	1.5721588
15.656231261239173	2.463098	1.5694261
15.673923061962451	2.5004692	1.5812871
15.691615238649552	2.5092282	1.5840544
15.709307791746202	2.505172	1.5827736
15.727000721698221	2.4744933	1.5730522
15.744694028951498	2.4772303	1.5739219
15.76238771395202	2.4615016	1.5689173
15.780081777145844	2.4249644	1.5572298
15.797776218979125	2.3675835	1.5386953
15.815471039898094	2.347046	1.5320071
15.833166240349064	2.323463	1.5242909
15.850861820778437	2.323941	1.5244478
15.868557781632699	2.3777072	1.5419816
15.886254123358412	2.4326112	1.5596831
15.903950846402232	2.4962378	1.5799487
15.921647951210897	2.4814034	1.575247
15.939345438231225	2.4648807	1.5699939
15.957043307910133	2.440443	1.5621917
15.974741560694602	2.4625072	1.5692378
15.992440197031714	2.4751735	1.5732684
16.01013921736862	2.469388	1.5714287
16.02783862215259	2.4752676	1.5732983
16.045538411830933	2.5016751	1.5816685
16.06323858685107	2.4780047	1.574168
16.080939147660512	2.4339318	1.5601064
16.09864009470684	2.4188125	1.5552531
16.11634142843774	2.4061596	1.5511801
16.134043149300954	2.4060743	1.5511526
16.15174525774433	2.4243827	1.557043
16.169447754215817	2.455607	1.5670376
16.18715063916342	2.4613729	1.5688763
16.204853913035244	2.4330213	1.5598145
16.222557576279478	2.4389904	1.5617267
16.240261629344403	22.424938	4.7354975
16.257966072678386	43.00169	6.5575676
16.275670906729868	38.08974	6.1716886
16.293376131947387	2.5058875	1.5829996
16.31108174877957	2.5259902	1.5893364
16.328787757675133	2.5421686	1.5944179
16.34649415908287	2.5449903	1.5953026
16.364200953451657	2.566815	1.6021283
16.38190814123048	2.6241715	1.6199294
16.39961572286839	2.6616664	1.6314614
16.41732369881455	2.6713016	1.6344117
16.43503206951817	2.721478	1.6496903
16.45274083542859	2.7962945	1.6722125
16.47044999699522	2.8107965	1.676543
16.488159554667558	2.8746517	1.6954798
16.505869508895184	2.9192996	1.7085958
16.523579860127786	2.9283276	1.7112356
16.541290608815117	2.9555562	1.7191731
16.559001755407035	2.9797437	1.7261934
16.57671330035348	3.0548723	1.7478193
16.59442524410448	3.1036265	1.7617112
16.61213758711015	3.1874316	1.7853379
16.629850329820705	3.2410192	1.8002831
16.647563472686436	3.3696504	1.8356607
16.665277016157724	3.4432847	1.8556089
16.682990960685053	3.4840736	1.8665674
16.70070530671898	3.4689531	1.8625126
16.718420054710155	3.4804444	1.865595
16.736135205109335	3.55623	1.8857969
16.753850758367335	3.6038587	1.8983831
16.771566714935087	3.6579607	1.9125795
16.789283075263597	3.7184021	1.9283159
16.80699983980398	3.8223171	1.9550747
16.82471700900741	3.8734024	1.9680961
16.84243458332518	3.9563897	1.9890676
16.860152563208665	4.029286	2.007308
16.87787094910932	4.098625	2.024506
16.89558974147871	4.1499786	2.0371497
16.913308940768466	4.183444	2.045347
16.931028547430333	4.2395844	2.059025
16.94874856191613	4.328189	2.08043
16.966468984677785	4.3834047	2.0936582
16.98418981616729	4.3972955	2.096973
17.00191105683676	4.4322653	2.1052945
17.019632707138374	4.4762564	2.1157165
17.03735476752442	4.5554423	2.1343482
17.05507723844728	4.6089587	2.1468484
17.072800120359403	4.649725	2.156322
17.090523413713353	4.6508994	2.1565945
17.108247118961785	4.6630588	2.1594117
17.125971236557437	4.6857214	2.1646528
17.143695766953133	4.6976542	2.1674073
17.161420710601806	4.734821	2.1759644
17.179146067956477	4.7221284	2.1730459
17.19687183947025	4.705025	2.169107
17.21459802559634	4.735781	2.176185
17.232324626788028	4.7665014	2.1832318
17.25005164349871	4.761305	2.1820414
17.267779076181863	4.7007527	2.168122
17.285506925291074	4.661109	2.15896
17.30323519127999	4.628748	2.1514525
17.320963874602384	4.5822725	2.1406243
17.33869297571211	4.5636683	2.1362743
17.356422495063114	4.527431	2.1277761
17.37415243310944	4.537311	2.1300964
17.391882790305218	4.543626	2.1315782
17.40961356710468	4.5363564	2.1298723
17.42734476396215	4.556341	2.1345587
17.445076381332044	4.552971	2.1337693
17.462808419668868	4.6579294	2.1582236
17.48054087942723	4.786067	2.1877081
17.498273761061835	5.029251	2.2425992
17.51600706502747	5.499566	2.3451154
17.533740791779024	6.255706	2.5011408
17.551474941771485	7.781806	2.789589
17.56920951545993	8.899549	2.983211
17.586944513299528	11.06576	3.3265235
17.60467993574556	12.749463	3.5706391
17.622415783253373	14.531717	3.812049
17.64015205627843	15.933107	3.9916296
17.657888755276293	16.983944	4.121158
17.675625880702604	17.452911	4.177668
17.69336343301311	17.306658	4.160127
17.71110141266366	16.530361	4.065755
17.728839820110178	15.5556755	3.9440684
17.746578655808705	14.535096	3.8124921
17.764317920215372	13.012838	3.6073313
17.7820576137864	11.582449	3.4032998
17.79979773697811	9.5812435	3.0953584
17.81753829024692	7.6150694	2.7595415
17.835279274049356	5.83076	2.4146967
17.85302068884201	4.7584023	2.1813762
17.870762535081607	4.146139	2.036207
17.888504813224934	3.871842	1.9676996
17.90624752372891	3.7026587	1.9242294
17.923990667050536	3.6097472	1.8999335
17.941734243646895	3.5445967	1.88271
17.959478253975185	3.498024	1.8703005
17.9772226984927	3.4886215	1.8677852
17.994967577656833	3.4755843	1.8642919
18.01271289192506	3.4311314	1.8523313
18.030458641754965	3.374439	1.8369646
18.04820482760425	3.3588026	1.8327036
18.06595144993067	3.3658352	1.8346213
18.083698509192125	3.3715398	1.8361753
18.101446005846576	3.338538	1.8271667
18.119193940352105	3.3108182	1.8195654
18.136942313166887	3.2926316	1.814561
18.1546911247492	3.2544177	1.8040005
18.1724403755574	3.2385736	1.7996037
18.19019006604997	3.2080433	1.7911011
18.207940196685467	3.200547	1.7890073
18.225690767922575	3.1732264	1.7813553
18.243441780220046	3.1224585	1.767048
18.261193234036764	3.0935023	1.7588354
18.278945129831676	3.046186	1.7453326
18.29669746806386	3.050538	1.7465789
18.314450249192483	3.0518782	1.7469625
18.3322034736768	3.0929604	1.7586814
18.349957141976184	3.0882952	1.7573546
18.3677112545501	3.1259563	1.7680374
18.385465811858108	3.1430237	1.7728575
18.403220814359884	3.188277	1.7855747
18.420976262515172	3.1811433	1.783576
18.43873215678387	3.1942868	1.7872568
18.456488497625923	3.2095976	1.791535
18.474245285501407	3.2776694	1.8104335
18.492002520870486	3.3499475	1.8302861
18.50976020419343	3.4325101	1.8527035
18.527518335930615	3.7594178	1.9389218
18.545276916542516	4.319888	2.078434
18.563035946489688	4.449086	2.1092856
18.580795426232832	4.8649096	2.205654
18.598555356232698	4.778208	2.1859112
18.616315736950185	5.1306634	2.2650967
18.63407656884626	4.777279	2.1856987
18.65183785238201	4.9447236	2.2236733
18.669599588018617	4.6408415	2.1542614
18.68736177621737	4.626232	2.1508677
18.705124417439652	4.5524464	2.1336462
18.72288751214696	4.40603	2.0990546
18.740651060800886	4.582527	2.140684
18.758415063863115	4.351422	2.0860062
18.77617952179546	4.5195055	2.125913
18.793944435059814	4.286944	2.0704937
18.811709804118184	4.315647	2.0774136
18.829475629432675	4.27745	2.0681996
18.8472419114655	4.069919	2.017404
18.86500865067897	4.12151	2.0301502
18.88277584753551	3.8275826	1.9564209
18.90054350249763	3.848696	1.9618094
18.918311616027957	3.5100374	1.8735094
18.936080188589226	3.4004457	1.8440298
18.953849220644265	3.0968862	1.7597972
18.971618712656007	2.9585857	1.720054
18.9893886650875	2.8628535	1.6919969
19.007159078401887	8.070246	2.8408177
19.024929953062408	32.918262	5.737444
19.042701289532435	32.86398	5.7327113
19.060473088275405	25.429377	5.0427547
19.07824534975489	2.7128727	1.6470801
19.096018074434568	2.6683838	1.6335188
19.113791262778197	2.64124	1.6251892
19.13156491524966	2.6021588	1.6131208
19.149339032312945	2.604214	1.6137577
19.167113614432136	2.6084106	1.6150575
19.184888662071433	2.6128757	1.6164392
19.202664175695123	2.5990252	1.6121492
19.220440155767623	2.5728726	1.6040176
19.238216602753447	2.579478	1.6060754
19.2559935171172	2.571437	1.60357
19.27377089932361	2.5593176	1.5997868
19.291548749837514	2.5715473	1.6036044
19.309327069123835	2.577212	1.6053698
19.32710585764763	2.5919533	1.6099545
19.344885115874032	2.567437	1.6023223
19.362664844268313	2.523931	1.5886885
19.380445043295822	2.5130396	1.5852569
19.39822571342203	2.5298698	1.5905564
19.41600685511252	2.572235	1.6038189
19.43378846883297	2.5546978	1.5983422
19.451570555049173	2.5543418	1.5982308
19.469353114227037	2.5247056	1.5889323
19.48713614683254	2.483673	1.5759673
19.50491965333182	2.4529424	1.5661873
19.52270363419109	2.4643736	1.5698323
19.540488089876686	2.478941	1.5744653
19.55827302085503	2.5031257	1.582127
19.576058427592674	2.514672	1.5857718
19.593844310556282	2.5317514	1.5911478
19.611630670212598	2.5500984	1.5969027
19.629417507028506	2.571171	1.6034871
19.64720482147098	2.59267	1.610177
19.6649926140071	2.6003256	1.6125525
19.682780885104084	2.5755424	1.6048497
19.70056963522921	2.5477054	1.5961533
19.718358864849908	2.5343268	1.5919569
19.7361485744337	2.537745	1.5930301
19.753938764448215	2.5059319	1.5830135
19.771729435361202	2.5173018	1.5866007
19.789520587640506	2.527137	1.5896971
19.807312221754092	2.547129	1.5959728
19.825104338170043	2.564167	1.6013017
19.842896937356517	2.5698233	1.6030668
19.860690019781824	2.5611293	1.6003529
19.87848358591436	2.558212	1.5994412
19.896277636222635	2.549369	1.5966744
19.914072171175278	2.5500183	1.5968777
19.931867191241015	2.5082858	1.5837568
19.94966269688869	2.4953642	1.5796722
19.967458688587264	2.4621696	1.5691302
19.985255166805807	2.4544036	1.5666536
20.00305213201348	2.4627433	1.569313
20.020849584679578	2.4720545	1.5722768
20.038647525273507	2.488833	1.5776036
20.05644595426477	2.473937	1.5728754
20.07424487212299	2.47308	1.5726029
20.092044279317903	2.4775698	1.5740298
20.109844176319353	2.475551	1.5733883
20.127644563597304	2.4358585	1.5607237
20.145445441621817	2.3947527	1.5474988
20.16324681086307	2.4201934	1.5556971
20.181048671791373	2.4190764	1.555338
20.198851024877122	2.4178374	1.5549396
20.216653870590836	2.390643	1.5461704
20.234457209403146	2.4265907	1.5577518
20.252261041784802	2.4809978	1.5751183
20.270065368206662	2.443958	1.5633163
20.287870189139685	2.4387228	1.5616411
20.305675505054968	2.414024	1.553713
20.323481316423702	2.4375749	1.5612735
20.341287623717207	2.391467	1.5464369
20.359094427406884	2.3784318	1.5422165
20.376901727964288	2.3578796	1.5355389
20.39470952586107	2.397115	1.5482619
20.41251782156899	2.3917074	1.5465146
20.430326615559935	2.373081	1.5404807
20.448135908305886	2.359344	1.5360156
20.465945700278965	2.3907778	1.546214
20.483755991951384	2.3955965	1.5477715
20.50156678379548	2.372799	1.5403892
20.519378076283708	2.3664129	1.5383149
20.537189869888635	2.3738532	1.5407314
20.55500216508294	2.3576686	1.5354701
20.572814962339415	2.3464231	1.5318038
20.59062826213098	2.3475528	1.5321726
20.60844206493066	2.3517594	1.5335448
20.626256371211593	2.3134553	1.5210047
20.644071181447032	2.2735045	1.5078145
20.66188649611036	2.2717977	1.5072484
20.67970231567506	2.2984667	1.5160695
20.697518640614742	2.326635	1.525331
20.715335471403122	2.3445246	1.5311841
20.73315280851404	2.3059115	1.5185229
20.750970652421447	2.278559	1.5094897
20.768789003599412	2.2677317	1.505899
20.786607862522136	2.275028	1.5083196
20.8044272296639	2.2899494	1.5132579
20.82224710549913	2.3265846	1.5253146
20.84006749050237	2.3054457	1.5183694
20.857888385148268	3.8172824	1.9537867
20.8757097899116	45.937305	6.7777066
20.893531705267254	64.79985	8.049835
20.911354131690224	83.81959	9.155304
20.92917706965566	69.03963	8.309009
20.94700051963877	50.100883	7.078198
20.96482448211493	29.39392	5.421616
20.982648957559622	4.15148	2.0375183
21.00047394644843	2.2739713	1.5079693
21.01829944925707	2.2632153	1.5043987
21.036125466461375	2.256258	1.5020846
21.053951998537297	2.241484	1.4971586
21.071779045960906	2.2485676	1.4995224
21.089606609208378	2.2495556	1.4998518
21.10743468875603	2.229083	1.4930114
21.12526328508028	2.2168348	1.4889039
21.143092398657675	2.2383177	1.4961008
21.16092202996488	2.257803	1.5025988
21.17875217947867	2.2437282	1.4979079
21.19658284767596	2.2318158	1.4939263
21.21441403503377	2.2367806	1.4955871
21.232245742029225	2.2461152	1.4987046
21.2500779691396	2.212272	1.4873708
21.26791071684227	2.193394	1.4810112
21.28574398561475	2.2218843	1.4905987
21.30357777593465	2.2104962	1.4867737
21.321412088279704	2.192435	1.4806874
21.339246923127792	2.1409914	1.4632127
21.357082280956888	2.1468205	1.4652033
21.3749181622451	2.1378298	1.462132
21.392754567470647	2.1353781	1.4612933
21.41059149711187	2.128495	1.4589362
21.42842895164726	2.163988	1.47105
21.446266931555378	2.199679	1.4831314
21.464105437314945	2.185746	1.4784268
21.481944469404798	2.1426225	1.4637699
21.49978402830388	2.1277256	1.4586725
21.51762411449127	2.1199703	1.4560118
21.53546472844617	2.1343923	1.460956
21.553305870647876	2.1423554	1.4636787
21.571147541575865	2.1188478	1.4556262
21.58898974170967	2.0963135	1.4478651
21.60683247152899	2.1263766	1.4582101
21.62467573151363	2.1374464	1.4620008
21.642519522143523	2.1268811	1.4583831
21.660363843898722	2.1140492	1.453977
21.6782086972594	2.0951912	1.4474776
21.696054082705864	2.071543	1.4392856
21.713900000718535	2.0271358	1.4237752
21.73174645177795	2.030147	1.4248323
21.749593436364794	2.0470474	1.4307506
21.767440954959845	2.0505657	1.4319797
21.785289008044032	2.0497365	1.4316901
21.803137596098388	2.057431	1.4343748
21.820986719604086	2.0518284	1.4324205
21.838836379042412	2.029227	1.4245094
21.85668657489478	2.043805	1.429617
21.87453730764273	2.0518637	1.4324328
21.892388577767914	2.0513592	1.4322567
21.91024038575213	2.029274	1.4245259
21.928092732077285	2.0109208	1.4180694
21.945945617225426	2.0052137	1.4160557
21.963799041678694	1.9862775	1.4093536
21.981653005919398	31.312311	5.5957403
21.999507510429943	78.12148	8.838635
22.01736255569286	73.02375	8.545394
22.035218142190818	4.131756	2.0326722
22.05307427040661	1.9890684	1.4103434
22.07093094082315	2.0111125	1.418137
22.088788153923474	2.0010684	1.4145912
22.106645910190746	2.008316	1.4171507
22.12450421010827	2.009617	1.4176097
22.142363054159464	2.0283196	1.4241909
22.16022244282787	2.0365064	1.4270622
22.178082376597164	2.0214431	1.4217746
22.195942855951145	2.0026376	1.4151458
22.213803881373742	2.004343	1.4157482
22.231665453349002	1.9797946	1.4070518
22.24952757236111	1.9525793	1.3973472
22.26739023889438	1.9399644	1.3928261
22.28525345343323	1.9615818	1.4005648
22.30311721646225	1.9540273	1.3978653
22.320981528466113	1.9633511	1.4011964
22.33884638992964	1.9466006	1.3952063
22.356711801337788	1.9723636	1.4044086
22.37457776317561	1.9869986	1.4096093
22.392444275928337	1.9900005	1.4106737
22.410311340081282	1.9535666	1.3977004
22.428178956119904	1.9525989	1.3973542
22.446047124529805	1.9608272	1.4002954
22.46391584579669	1.9544611	1.3980204
22.481785120406414	1.977856	1.4063627
22.49965494884496	2.0018845	1.4148797
22.51752533159841	1.9792778	1.4068681
22.53539626915302	1.976198	1.405773
22.553267761995137	2.0080035	1.4170403
22.571139810611264	2.0178545	1.4205121
22.589012415488025	1.9692307	1.4032928
22.60688557711216	1.9635804	1.4012781
22.624759295970566	1.9493513	1.3961917
22.642633572550263	1.9498043	1.396354
22.660508407338362	1.9238966	1.387046
22.67838380082217	1.9318843	1.3899224
22.696259753489077	1.9743102	1.4051014
22.714136265826614	1.9721812	1.4043437
22.73201333832246	1.9539337	1.3978318
22.74989097146439	1.9356213	1.3912661
22.76776916574035	1.9538236	1.3977923
22.785647921638393	1.9468795	1.3953062
22.803527239646712	1.9334005	1.3904678
22.82140712025363	1.9529113	1.3974661
22.839287563947593	1.935279	1.3911431
22.85716857121719	1.9283766	1.38866
22.875050142551135	1.9624151	1.4008622
22.892932278438277	1.9918782	1.4113392
22.910814979367604	1.9679248	1.4028275
22.928698245828222	1.9423919	1.3936971
22.946582078309387	1.9263442	1.387928
22.96446647730047	1.901293	1.3788738
22.98235144329098	1.9319503	1.3899461
23.000236976770562	1.9234205	1.3868744
23.018123078229	1.9152255	1.3839167
23.03600974815619	1.9086355	1.3815337
23.053896987042194	1.9147375	1.3837404
23.071784795377173	1.921846	1.3863066
23.08967317365145	1.8987608	1.3779553
23.10756212235546	1.8705548	1.3676822
23.125451641979787	1.8310994	1.3531812
23.143341733015134	1.8451214	1.3583524
23.161232395952357	1.8832341	1.3723098
23.179123631282426	1.9432293	1.3939976
23.197015439496468	1.956476	1.3987409
23.214907821085717	1.9575939	1.3991405
23.23280077654157	1.9410083	1.3932008
23.250694306355538	1.9515432	1.3969765
23.268588411019277	1.9679062	1.4028208
23.28648309102458	1.9892874	1.410421
23.304378346863356	1.9817615	1.4077505
23.322274179027676	1.979941	1.4071038
23.340170588009723	1.9659544	1.402125
23.358067574301852	1.946076	1.3950183
23.37596513839651	1.9478056	1.3956381
23.39386328078629	1.9160157	1.3842022
23.411762001963947	1.9102116	1.382104
23.429661302422353	1.9445217	1.394461
23.4475611826545	1.9403106	1.3929503
23.46546164315356	1.9103782	1.3821644
23.48336268441279	1.9114318	1.3825454
23.501264306925638	1.9519049	1.3971059
23.51916651118564	1.9934078	1.411881
23.537069297686497	2.0033205	1.415387
23.554972666922037	1.9788686	1.4067227
23.57287661938623	1.9512744	1.3968803
23.59078115557318	1.9616866	1.4006022
23.608686275977128	1.9664316	1.4022951
23.62659198109246	1.9328381	1.3902655
23.6444982714137	1.9532492	1.397587
23.66240514743549	1.9587793	1.399564
23.68031260965263	2.0137448	1.4190648
23.698220658560068	1.959414	1.3997906
23.716129294652845	1.9432577	1.3940078
23.7340385184262	1.8941913	1.3762962
23.75194833037546	1.9272294	1.3882469
23.769858730996123	1.9334273	1.3904774
23.78776972078382	1.9343375	1.3908046
23.80568130023431	1.9341798	1.3907479
23.823593469843495	1.9488754	1.3960212
23.841506230107424	1.9536808	1.3977413
23.859419581522275	1.9635712	1.4012748
23.87733352458438	1.9310316	1.3896157
23.89524805979019	1.9207277	1.3859032
23.913163187636318	1.9139667	1.3834618
23.931078908619508	1.952186	1.3972065
23.948995223236633	2.0029771	1.4152658
23.966912131984735	2.0016198	1.4147861
23.98482963536096	2.0284984	1.4242536
24.002747733862616	1.9790529	1.4067881
24.020666427987155	2.001414	1.4147134
24.038585718232156	2.0319154	1.4254527
24.056505605095353	2.0449786	1.4300275
24.074426089074617	2.0909688	1.4460182
24.092347170667946	2.0540476	1.4331949
24.110268850373515	2.061793	1.4358945
24.128191128689586	2.066164	1.4374157
24.146114006114626	2.0759993	1.4408329
24.164037483147187	2.075873	1.440789
24.181961560286005	2.0758069	1.4407661
24.199886238029926	2.0849295	1.4439285
24.21781151687797	2.0804503	1.4423766
24.235737397329274	2.0509176	1.4321026
24.253663879883135	2.0373309	1.427351
24.271590965038975	1.994934	1.4124213
24.289518653296376	1.9975812	1.4133581
24.30744694515505	2.0210483	1.4216357
24.32537584111486	2.0051115	1.4160196
24.34330534167581	1.9813118	1.4075907
24.361235447338046	1.9384134	1.3922691
24.379166158601876	1.9861125	1.4092951
24.39709747596772	1.9869273	1.409584
24.41502939993615	1.9614724	1.4005258
24.432961931007917	1.9407555	1.39311
24.450895069683856	1.9803698	1.4072561
24.468828816465	2.0296512	1.4246583
24.4867631718525	2.0205894	1.4214743
24.504698136347656	2.0414639	1.4287981
24.52263371045192	2.0201159	1.4213078
24.540569894666874	1.9906999	1.4109217
24.558506689494266	1.9452742	1.3947309
24.57644409543597	1.9833944	1.4083303
24.594382112994012	1.975823	1.4056398
24.61232074267057	1.9516623	1.397019
24.630259984967953	1.9623994	1.4008566
24.64819984038863	1.93387	1.3906366
24.66614030943522	1.9134655	1.3832808
24.684081392610462	1.9147114	1.383731
24.702023090417274	1.9311209	1.3896477
24.7199654033587	1.972696	1.404527
24.737908331937927	2.0074852	1.4168575
24.755851876658305	2.050813	1.432066
24.773796038023324	2.0643876	1.4367976
24.79174081653661	2.1082232	1.4519721
24.809686212701962	2.132282	1.4602336
24.827632227023294	2.165154	1.4714463
24.8455788600047	2.1635106	1.4708877
24.8635261121504	2.1819417	1.4771397
24.88147398396475	2.1414218	1.4633597
24.899422475952303	2.0813856	1.4427009
24.917371588617698	2.0766625	1.441063
24.935321322465768	2.158396	1.469148
24.953271678001478	2.302991	1.5175608
24.97122265572994	2.5117106	1.5848377
24.989174256156414	2.867366	1.6933299
25.00712647978632	3.3727224	1.8364973
25.02507932712521	3.9331455	1.9832159
25.043032798678798	4.4023	2.0981658
25.060986894952933	5.026036	2.241882
25.078941616453637	5.724534	2.3925998
25.096896963687055	6.677153	2.5840187
25.114852937159508	7.845282	2.8009431
25.132809537377444	8.364743	2.8921866
25.150766764847468	8.403645	2.898904
25.168724620076347	7.7930818	2.7916093
25.186683103570985	6.7859287	2.6049814
25.204642215838426	5.6347284	2.3737583
25.222601957385894	4.2705326	2.0665267
25.24056232872074	3.218049	1.7938921
25.25852333035048	2.6115057	1.6160154
25.276484962782778	2.2793565	1.5097538
25.294447226525435	2.1058447	1.4511529
25.312410122086423	1.9958857	1.4127582
25.330373649973843	1.9502858	1.3965263
25.348337810695988	1.9781302	1.4064602
25.366302604761245	1.986801	1.4095393
25.384268032678207	1.9640492	1.4014454
25.40223409495558	1.9536126	1.3977169
25.420200792102257	1.9273219	1.3882802
25.438168124627246	1.9107533	1.3823
25.45613609303974	1.9074645	1.3811098
25.474104697849057	1.9091325	1.3817136
25.492073939564698	1.8973018	1.3774258
25.510043818696285	1.8926241	1.3757268
25.528014335753614	1.8807013	1.3713866
25.54598549124664	1.8713127	1.3679594
25.56395728568544	1.8751291	1.3693535
25.58192971958028	1.8838762	1.3725437
25.59990279344156	1.9117659	1.3826662
25.617876507779833	1.9311316	1.3896517
25.635850863105826	1.8846953	1.3728421
25.653825859930386	1.8352927	1.3547298
25.671801498764548	1.8292729	1.3525062
25.68977778011949	1.8769321	1.3700117
25.707754704506524	1.9064076	1.3807272
25.725732272437153	1.8766643	1.3699139
25.743710484423012	1.8651848	1.3657176
25.761689340975888	1.8657259	1.3659158
25.77966884260774	1.8347664	1.3545355
25.797648989830662	1.7873483	1.3369174
25.815629783156922	1.7622352	1.327492
25.83361122309895	1.8129078	1.3464427
25.85159331016929	1.8542117	1.3616945
25.869576044880695	1.8685222	1.366939
25.887559427746034	1.8360533	1.3550104
25.90554345927836	1.881711	1.3717548
25.92352813999086	1.8671238	1.3664274
25.94151347039689	1.8790247	1.3707752
25.959499451009965	1.8906789	1.3750196
25.97748608234374	1.9086388	1.3815349
25.995473364912062	1.848181	1.3594782
26.013461299228904	1.8263168	1.3514129
26.03144988580839	1.861422	1.3643394
26.04943912516483	1.884075	1.3726162
26.067429017812675	1.893569	1.3760701
26.085419564266537	1.9132327	1.3831966
26.103410765041186	1.8584601	1.3632535
26.12140262065155	1.7866998	1.3366749
26.139395131612723	1.8407602	1.3567462
26.157388298439948	1.932253	1.3900551
26.17538212164861	1.8934819	1.3760384
26.193376601754295	1.8371382	1.3554107
26.211371739272714	1.8256272	1.3511578
26.229367534719746	1.8370726	1.3553865
26.247363988611433	1.865593	1.3658671
26.26536110146397	1.8653082	1.3657628
26.283358873793727	1.8630717	1.3649439
26.301357306117204	1.8594005	1.3635983
26.319356398951104	1.8355091	1.3548096
26.33735615281224	1.8123568	1.346238
26.35535656821762	1.8156254	1.3474514
26.373357645684404	1.8228947	1.3501462
26.39135938572991	1.8218968	1.3497766
26.409361788871614	1.8235741	1.3503977
26.427364855627165	1.8067106	1.3441393
26.445368586514352	1.785144	1.3360928
26.46337298205115	1.8071488	1.3443023
26.48137804275568	1.7979146	1.3408633
26.499383769146217	1.8081895	1.3446894
26.517390161741215	1.8018247	1.3423207
26.53539722105928	1.8223748	1.3499537
26.553404947619182	1.8002189	1.3417224
26.571413341939856	1.8167741	1.3478776
26.589422404540397	1.8291149	1.3524477
26.60743213594006	1.8623326	1.364673
26.62544253665827	1.8391085	1.3561373
26.64345360721459	1.8349276	1.354595
26.66146534812879	1.868836	1.3670537
26.679477759920758	1.8753444	1.3694321
26.69749084311057	1.8745208	1.3691314
26.71550459821847	1.8422279	1.3572869
26.733519025764842	1.7882849	1.3372678
26.751534126270258	1.7739544	1.3318988
26.769549900255434	1.8410276	1.3568448
26.787566348241267	1.8427409	1.3574759
26.80558347074881	1.8126309	1.3463398
26.823601268299267	1.8315688	1.3533547
26.841619741414036	1.8387741	1.356014
26.85963889061465	1.8409967	1.3568333
26.877658716422832	1.8318931	1.3534745
26.89567921936045	1.820253	1.3491676
26.913700399949544	1.8306154	1.3530023
26.93172225871233	1.7717199	1.3310597
26.949744796171174	1.7664437	1.3290763
26.967768012848605	1.7663522	1.3290418
26.98579190926733	1.8141544	1.3469055
27.003816485950225	1.8289027	1.3523693
27.021841743420318	1.8241676	1.3506175
27.039867682200814	1.7841552	1.3357227
27.057894302815072	1.8100445	1.345379
27.07592160578664	1.7606815	1.3269068
27.0939495916392	1.741322	1.3195916
27.111978260896635	1.7299697	1.3152832
27.13000761408296	1.7375745	1.3181709
27.148037651722397	1.7577974	1.3258195
27.166068374339304	1.7761191	1.3327112
27.184099782458215	1.832533	1.3537108
27.20213187660384	1.8404244	1.3566225
27.22016465730105	1.8333346	1.3540069
27.23819812507487	1.8137922	1.346771
27.256232280450533	1.8422395	1.3572912
27.274267123953383	1.8383927	1.3558735
27.292302656108987	1.8235053	1.3503723
27.31033887744306	1.8298333	1.3527133
27.32837578848146	1.827844	1.3519778
27.34641338975026	1.8518081	1.3608116
27.364451681775673	1.8519098	1.3608489
27.382490665084074	1.8536984	1.3615059
27.400530340202046	1.8409667	1.3568223
27.41857070765629	1.8772182	1.3701161
27.436611767973726	1.8790963	1.3708013
27.454653521681404	1.8767154	1.3699327
27.472695969306564	1.8898369	1.3747134
27.490739111376627	1.8782905	1.3705074
27.508782948419153	1.8678007	1.366675
27.526827480961902	1.8328772	1.353838
27.54487270953279	1.8438741	1.3578932
27.562918634659898	1.8620307	1.3645625
27.580965256871508	1.8483374	1.3595357
27.599012576696026	1.8397137	1.3563604
27.617060594662068	1.815109	1.3472598
27.63510931129842	1.7830802	1.3353202
27.65315872713401	1.7915229	1.3384778
27.67120884269797	1.8093519	1.3451215
27.68925965851958	1.8521019	1.3609195
27.707311175128307	1.8918531	1.3754466
27.725363393053787	1.8701652	1.3675399
27.74341631282583	1.8669096	1.366349
27.7614699349744	1.870258	1.3675737
27.77952426002968	2.0415227	1.4288187
27.797579288521973	2.0730195	1.4397985
27.815635020981784	2.5047808	1.58265
27.83369145793979	2.5727203	1.6039702
27.85174859992682	2.4059515	1.551113
27.869806447473923	2.2979846	1.5159105
27.887865001112267	2.044188	1.429751
27.905924261373233	1.9505432	1.3966185
27.92398422878836	1.9002234	1.3784859
27.94204490388936	1.8462634	1.3587728
27.96010628720813	1.8090512	1.3450097
27.978168379276728	1.8081887	1.344689
27.9962311806274	1.7917538	1.338564
28.014294691792568	1.8015691	1.3422254
28.0323589133048	1.8031932	1.3428303
28.050423845696887	1.7974955	1.3407071
28.068489489501758	1.8200217	1.3490819
28.086555845252523	1.8501999	1.3602206
28.104622913482487	1.8189131	1.3486708
28.122690694725115	1.8255222	1.3511189
28.14075918951405	1.880112	1.3711718
28.15882839838312	1.9425255	1.3937452
28.176898321866304	1.939316	1.3925933
28.1949689604978	1.9056618	1.3804572
28.213040314811945	1.919833	1.3855804
28.23111238534327	1.9418768	1.3935124
28.249185172626493	1.9480389	1.3957217
28.267258677196473	1.949943	1.3964036
28.285332899588294	1.9748574	1.4052962
28.303407840337172	1.9824167	1.4079832
28.321483499978545	1.9549214	1.398185
28.33955987904799	2.0034604	1.4154365
28.357636978081285	2.0360334	1.4268965
28.37571479761439	2.013916	1.4191251
28.393793338183425	1.9502649	1.3965188
28.41187260032469	1.9614965	1.4005344
28.429952584574686	2.0055113	1.4161607
28.448033291470065	1.9991652	1.4139184
28.46611472154769	2.0399716	1.4282757
28.484196875344566	2.039765	1.4282033
28.502279753397914	2.0490139	1.4314377
28.52036335624511	2.0179574	1.4205483
28.538447684423716	1.985845	1.4092001
28.556532738471482	2.002938	1.415252
28.574618518926325	2.0706666	1.438981
28.59270502632635	2.06918	1.4384645
28.61079226120985	2.030738	1.4250396
28.628880224115274	1.9736308	1.4048597
28.646968915581287	2.004349	1.4157504
28.66505833614671	2.0748446	1.4404321
28.68314848635055	2.086015	1.4443043
28.701239366732004	2.0839555	1.4435912
28.71933097783044	2.045774	1.4303056
28.737423320185403	2.0483158	1.4311938
28.75551639433665	2.0753644	1.4406124
28.773610200824074	2.108286	1.4519938
28.791704740187793	2.1152852	1.454402
28.80980001296809	2.1140997	1.4539944
28.827896019705413	2.1047637	1.4507804
28.845992760940433	2.1426733	1.4637873
28.86409023721397	2.1626947	1.4706103
28.88218844906704	2.2279937	1.4926466
28.900287397040845	2.2742362	1.5080571
28.918387081676755	2.3025112	1.5174028
28.936487503516343	2.2794056	1.50977
28.954588663101365	2.2372632	1.4957484
28.97269056097374	2.2615108	1.5038321
28.990793197675597	2.3538144	1.5342146
29.00889657374923	2.4147203	1.5539371
29.027000689737125	2.4003146	1.5492948
29.04510554618196	2.3927572	1.546854
29.06321114362659	2.405893	1.5510942
29.08131748261405	2.4976146	1.5803844
29.099424563687567	2.5486119	1.5964372
29.11753238739057	2.5903983	1.6094714
29.13564095426663	2.591761	1.6098948
29.15375026485954	2.6501868	1.6279395
29.171860319713275	2.6725698	1.6347996
29.18997111937199	2.656907	1.6300021
29.20808266438002	2.689773	1.6400528
29.226194955281898	2.780158	1.6673806
29.244307992622335	2.870318	1.6942012
29.26242177694624	2.9173703	1.7080312
29.2805363087987	2.9114857	1.7063076
29.29865158872498	2.9214935	1.7092377
29.316767617270557	2.9266815	1.7107546
29.334884394981064	2.9838192	1.7273735
29.353001922402367	3.0718486	1.752669
29.37112020008047	3.1205359	1.7665038
29.389239228561596	3.2367606	1.7990999
29.407359008392152	3.3900516	1.8412093
29.42547954011872	3.6515806	1.910911
29.44360082428809	4.3109717	2.076288
29.46172286144722	5.4127073	2.3265226
29.479845652143283	6.9727287	2.6405926
29.497969196923606	9.092144	3.0153182
29.516093496335728	11.625242	3.409581
29.5342185509274	14.420991	3.797498
29.55234436124651	16.747972	4.0924287
29.570470927841175	18.19968	4.2661085
29.588598251259686	18.081938	4.252286
29.60672633205055	16.780428	4.096392
29.624855170762405	14.495519	3.8072982
29.642984767944146	11.67042	3.4161997
29.66111512414481	8.973189	2.9955282
29.67924623991366	6.752338	2.598526
29.697378115800138	5.1620455	2.2720134
29.71551075235387	4.2827024	2.0694692
29.733644150124675	3.8163052	1.9535366
29.751778309662576	3.4925303	1.8688313
29.769913231517766	3.4181824	1.8488327
29.78804891624066	3.476311	1.8644868
29.806185364381818	3.4448502	1.8560308
29.82432257649206	3.4108448	1.8468473
29.842460553122333	3.3926775	1.8419223
29.86059929482382	3.330973	1.8250953
29.878738802147872	3.289333	1.8136519
29.896879075646048	3.2421067	1.8005852
29.915020115870114	3.2812128	1.8114119
29.933161923371976	3.3236272	1.8230819
29.951304498703777	3.345587	1.8290946
29.969447842417857	3.3171587	1.8213068
29.987591955066733	3.2618008	1.8060457
30.005736837203123	3.2413273	1.8003687
30.023882489379943	3.2783544	1.8106227
30.04202891215028	3.2827764	1.8118434
30.060176106067455	3.3051662	1.8180116
30.078324071684946	3.2466388	1.8018432
30.09647280955646	3.267947	1.8077464
30.114622320235863	3.235221	1.798672
30.132772604277257	3.2051246	1.7902862
30.1509236622349	3.1473424	1.7740752
30.16907549466328	3.1281083	1.7686459
30.18722810211705	3.0737343	1.7532068
30.205381485151097	3.0505104	1.7465711
30.22353564432045	3.1010427	1.7609777
30.241690580180403	3.0963073	1.7596327
30.25984629328638	3.004675	1.7333999
30.278002784194037	3.0359793	1.7424061
30.296160053459246	3.0540192	1.7475753
30.314318101638033	3.0113997	1.7353386
30.332476929286646	2.963836	1.7215796
30.35063653696153	2.953165	1.7184775
30.368796925219307	2.9886205	1.7287627
30.386958094616844	2.910417	1.7059945
30.40512004571115	2.8656626	1.6928267
30.423282779059463	2.8654456	1.6927627
30.441446295219233	2.910951	1.7061509
30.459610594748067	2.9112294	1.7062325
30.47777567820382	2.8956845	1.7016711
30.495941546144504	2.843019	1.6861254
30.51410819912835	2.799936	1.673301
30.532275637713795	2.803649	1.67441
30.55044386245946	2.8786378	1.6966549
30.56861287392416	2.8745618	1.6954533
30.586782672666956	2.8024175	1.6740422
30.604953259247047	2.828329	1.6817636
30.623124634223885	2.8696663	1.694009
30.641296798157075	2.8842385	1.6983045
30.659469751606462	2.8756397	1.6957711
30.677643495132074	2.8440378	1.6864275
30.695818029294152	2.7706099	1.6645149
30.713993354653116	2.7332397	1.6532513
30.73216947176962	2.7176802	1.6485388
30.75034638120448	2.730831	1.6525226
30.768524083518756	2.7268765	1.6513257
30.786702579273673	2.8225164	1.6800346
30.80488186903069	2.9173684	1.7080306
30.82306195335144	2.9804397	1.726395
30.841242832797782	3.130647	1.7693634
30.85942450793176	3.458448	1.8596903
30.877606979315637	3.7893672	1.9466296
30.895790247511883	4.116599	2.0289404
30.913974313083134	4.5262647	2.127502
30.932159176592283	4.847492	2.201702
30.95034483860237	4.9356074	2.2216227
30.968531299676698	4.768457	2.1836796
30.98671856037873	4.4552364	2.110743
31.00490662127215	4.022128	2.0055244
31.023095482920848	3.4988012	1.8705083
31.04128514588892	3.1207547	1.7665658
31.059475610740662	2.8310318	1.682567
31.07766687804056	2.6955361	1.6418087
31.09585894835335	2.5734694	1.6042037
31.11405182224393	2.4995205	1.5809872
31.132245500277417	2.4218369	1.5562252
31.15043998301914	2.4674454	1.5708104
31.168635271034628	2.5288014	1.5902206
31.18683136488964	2.5727413	1.6039767
31.20502826515008	2.5237596	1.5886345
31.223225972382135	2.4723144	1.5723594
31.241424487152155	2.4502912	1.5653406
31.259623810026692	2.424064	1.5569406
31.27782394157253	2.4383137	1.5615101
31.296024882356644	2.3900628	1.5459828
31.314226632946237	2.3784716	1.5422294
31.332429193908684	2.4399104	1.5620213
31.350632565811598	2.4993522	1.5809339
31.368836749222787	2.5316272	1.5911088
31.387041744710295	2.5348947	1.5921353
31.40524755284232	2.5263178	1.5894395
31.423454174187317	2.580987	1.6065451
31.441661609313922	2.621703	1.6191673
31.459869858791002	2.5811934	1.6066093
31.478078923187628	2.5070627	1.5833707
31.496288803073064	2.4542432	1.5666025
31.514499499016807	2.4425137	1.5628543
31.532711011588546	2.3966563	1.5481138
31.550923341358178	2.3526928	1.533849
31.56913648889584	2.350462	1.5331216
31.587350454771844	2.3735342	1.5406278
31.605565239556732	2.3884392	1.5454576
31.62378084382127	2.396791	1.5481573
31.641997268136382	2.3403974	1.5298357
31.660214513073274	2.347989	1.5323149
31.67843257920331	2.3106294	1.5200754
31.6966514670981	2.3258977	1.5250894
31.71487117732944	2.3428912	1.5306506
31.733091710469346	2.3920503	1.5466255
31.751313067090052	2.39311	1.546968
31.769535247764008	2.4020877	1.549867
31.787758253063878	2.3763924	1.5415552
31.805982083562526	2.319438	1.5229701
31.824206739833024	2.2784326	1.5094478
31.84243222244869	2.3432877	1.5307801
31.860658531983013	2.3318124	1.5270272
31.878885669009737	2.2264614	1.4921331
31.897113634102784	2.220439	1.4901137
31.91534242783632	2.2914793	1.5137633
31.933572050784694	2.239443	1.4964769
31.951802503522508	2.2244232	1.4914501
31.970033786624548	2.2040572	1.4846067
31.988265900665834	2.2660604	1.5053439
32.006498846221575	2.2675314	1.5058324
32.02473262386724	2.2385657	1.4961838
32.04296723417845	2.1818311	1.4771023
32.0612026777311	2.281715	1.5105346
32.07943895510129	2.2816513	1.5105135
32.097676066865304	2.2289777	1.4929761
32.115914013599685	2.16171	1.4702755
32.13415279588115	2.1549687	1.4679812
32.152392414286666	2.218401	1.4894297
32.1706328693934	2.2480216	1.4993404
32.18887416177875	2.2403204	1.49677
32.20711629202032	2.2876318	1.512492
32.225359260695924	2.2897096	1.5131786
32.243603068383614	2.2359986	1.4953256
32.26184771566166	2.1777961	1.4757358
32.28009320310852	2.1465878	1.4651239
32.2983395313029	2.114433	1.4541091
32.31658670082372	2.1758628	1.4750806
32.33483471225012	2.154357	1.4677728
32.35308356616143	2.1326723	1.4603672
32.371333263137245	2.1279755	1.4587582
32.38958380375734	2.1589448	1.4693348
32.407835188601744	2.177308	1.4755704
32.42608741825067	2.1348476	1.4611118
32.444340493284585	2.0405777	1.4284879
32.46259441428416	2.0565019	1.4340509
32.48084918183028	2.0026355	1.415145
32.49910479650405	1.9694567	1.4033734
32.51736125888683	2.00013	1.4142596
32.53561856956014	2.0944605	1.4472251
32.5538767291058	2.1323195	1.4602463
32.572135738105764	2.064898	1.4369754
32.59039559714228	2.0065124	1.4165142
32.608656306797776	2.0498123	1.4317166
32.62691786765491	2.099104	1.4488285
32.645180280296586	2.0155542	1.4197022
32.663443545305896	1.989812	1.410607
32.68170766326619	2.098344	1.4485662
32.69997263476099	2.1751235	1.47483
32.7182384603741	2.1169155	1.4549624
32.7365051406895	1.9979867	1.4135016
32.75477267629144	1.9496783	1.3963088
32.77304106776434	1.9766216	1.4059237
32.79131031569289	2.0019712	1.4149103
32.809580420661966	2.0300267	1.42479
32.827851383256714	2.069501	1.438576
32.84612320406245	2.0154355	1.4196603
32.86439588366476	1.9997058	1.4141096
32.88266942264945	2.0657535	1.4372729
32.9009438216025	2.0059507	1.4163159
32.9192190811102	1.8640596	1.3653057
32.937495201758985	1.8497189	1.3600438
32.95577218413556	1.9925114	1.4115635
32.974050028826866	2.0558195	1.433813
32.992328736420035	2.0506184	1.431998
33.010608307502444	1.9453012	1.3947406
33.02888874266169	1.8861966	1.3733888
33.047170042485604	1.9180725	1.3849449
33.06545220756225	1.9868802	1.4095674
33.083735238479896	2.0226433	1.4221966
33.10201913582707	2.0675712	1.4379051
33.12030390019248	2.1060917	1.451238
33.138589532165135	2.0460768	1.4304115
33.15687603233419	1.8663116	1.3661301
33.17516340128909	1.8048446	1.3434451
33.19345163961947	1.8411939	1.356906
33.211740747915215	1.9770057	1.4060603
33.23003072676643	2.0052693	1.4160753
33.248321576763466	1.9842749	1.4086429
33.266613298496885	2.0286207	1.4242966
33.28490589255747	1.9703434	1.4036891
33.30319935953626	1.9142116	1.3835504
33.32149370002451	1.985778	1.4091763
33.339788914613706	2.0501666	1.4318403
33.358085003895575	2.1059966	1.4512053
33.376381968462034	2.0779464	1.4415084
33.39467980890529	1.9419127	1.3935252
33.41297852581774	1.9263593	1.3879335
33.43127811979204	1.8933713	1.3759983
33.44957859142105	1.890264	1.3748688
33.467879941297866	1.9547666	1.3981297
33.486182170015844	2.0382595	1.4276763
33.50448527816853	2.038532	1.4277717
33.522789266349754	2.0074236	1.4168358
33.541094135153514	2.0810814	1.4425954
33.55939988517411	2.140367	1.4629993
33.57770651700602	2.079102	1.4419092
33.59601403124398	1.9631499	1.4011245
33.61432242848296	1.9266931	1.3880537
33.632631709318154	1.9664614	1.4023057
33.650941874344994	2.088202	1.4450612
33.66925292415916	2.0714047	1.4392376
33.68756485935654	1.9802691	1.4072204
33.70587768053328	1.9493636	1.3961961
33.724191388285746	1.9422879	1.39366
33.74250598321054	1.8415588	1.3570404
33.760821465904506	1.8171962	1.3480343
33.77913783696474	1.8449162	1.358277
33.79745509698852	1.9571365	1.3989769
33.815773246573414	2.0206952	1.4215117
33.8340922863172	2.0696328	1.4386219
33.852412216817896	2.0157537	1.4197724
33.87073303867377	1.8139704	1.3468372
33.889054752483304	1.739519	1.3189082
33.907377358845245	1.8861126	1.3733581
33.92570085835853	1.8519597	1.3608673
33.94402525162239	1.8133572	1.3466096
33.96235053923627	1.7201812	1.3115568
33.980676721799824	1.793208	1.3391072
33.999003799912984	1.8945236	1.3764169
34.01733177417592	1.9238162	1.387017
34.03566064518901	1.9138887	1.3834337
34.0539904135529	1.9163473	1.3843219
34.07232107986846	1.9072517	1.3810328
34.090652644736785	1.9725659	1.4044807
34.108985108759235	2.0267873	1.4236528
34.12731847253742	1.9876983	1.4098575
34.14565273667313	1.9356203	1.3912657
34.16398790176847	1.9467998	1.3952776
34.18232396842574	1.9528629	1.3974487
34.20066093724749	1.9353187	1.3911573
34.21899880883651	2.0245953	1.4228827
34.23733758379583	1.9417472	1.3934659
34.25567726272874	1.8723787	1.368349
34.27401784623872	1.9559748	1.3985617
34.29235933492957	2.047262	1.4308256
34.31070172940526	2.1078997	1.4518608
34.32904503027003	2.0441005	1.4297204
34.347389238128386	1.9362588	1.3914951
34.36573435358502	2.0489247	1.4314065
34.38408037724492	2.2281165	1.4926877
34.402427309713296	2.2470095	1.4990028
34.42077515159559	2.0136595	1.4190347
34.43912390349752	1.9011855	1.3788348
34.45747356602499	1.9702852	1.4036685
34.47582413978423	2.0042346	1.4157099
34.49417562538163	1.9705185	1.4037516
34.51252802342388	2.0543306	1.4332936
34.53088133451789	2.0492954	1.4315361
34.54923555927084	1.9784987	1.4065912
34.567590698290104	1.998167	1.4135654
34.58594675218336	2.0204144	1.4214128
34.6043037215585	2.0338387	1.4261272
34.62266160702365	2.0243244	1.4227875
34.641020409187234	2.0855124	1.4441303
34.65938012865785	2.0154068	1.4196502
34.677740766044394	1.8648286	1.3655872
34.69610232195598	1.867293	1.3664893
34.714464797002016	1.9461683	1.3950514
34.73282819179208	1.9769032	1.4060239
34.751192506936064	2.1609848	1.4700289
34.76955774304408	2.2250583	1.491663
34.7879239007265	2.0897505	1.4455969
34.80629098059391	2.0295851	1.424635
34.824658983257194	2.0708594	1.439048
34.843027909327446	2.0105913	1.4179533
34.86139775941603	2.0837774	1.4435295
34.879768534134534	2.1482346	1.4656857
34.89814023409483	2.239736	1.4965748
34.91651285990901	2.2473578	1.499119
34.93488641218944	2.1425374	1.4637408
34.95326089154871	2.0711346	1.4391437
34.97163629859967	2.1234612	1.4572101
34.99001263395542	1.7986127	1.3411237
35.00838989822934	1.584544	1.2587867
35.02676809203499	1.9328803	1.3902806
35.04514721598624	2.2403758	1.4967885
35.063527270697215	2.1954882	1.481718
35.081908256782256	1.8882053	1.3741199
35.10029017485597	1.6976825	1.3029515
35.11867302553321	1.7838708	1.3356162
35.137056809429104	1.7256466	1.3136387
35.155441527159006	1.7415013	1.3196596
35.173827179338524	1.6222969	1.2736942
35.19221376658354	1.4324394	1.1968457
35.21060128951017	1.6347388	1.2785691
35.2289897487348	1.8918263	1.3754368
35.24737914487405	1.893191	1.3759328
35.26576947854479	1.6449436	1.2825536
35.28416075036418	1.7225809	1.3124713
35.30255296094958	2.102542	1.4500145
35.32094611091867	2.2783785	1.5094298
35.33934020088932	2.0588682	1.4348756
35.35773523147969	1.9667891	1.4024225
35.3761312033082	1.8734689	1.3687472
35.394528116993506	1.702892	1.304949
35.41292597315452	1.694385	1.3016855
35.431324772410434	2.037361	1.4273615
35.449724515380666	1.9962488	1.4128867
35.46812520268491	1.8817189	1.3717576
35.486526834943106	2.0462155	1.4304599
35.504929412775454	1.7221917	1.312323
35.52333293680242	1.5468588	1.2437278
35.54173740764471	1.8930947	1.3758978
35.560142825923286	1.6514604	1.2850916
35.5785491922594	1.8905036	1.3749559
35.59695650727454	2.6140938	1.6168159
35.61536477159042	3.08676	1.7569177
