0.008763373481513119	0.0	0.0
0.026290120649546365	0.0	0.0
0.043816868432600686	0.054749444	0.23398599
0.06134361724069026	0.17028639	0.4126577
0.07887036748382949	0.22487263	0.47420737
0.0963971195720331	0.15717228	0.3964496
0.11392387391531617	0.11824211	0.3438635
0.1314506309236943	0.098012336	0.31306922
0.1489773910071836	0.1162913	0.3410151
0.16650415457580078	0.10259343	0.3203021
0.18403092203956356	0.059868738	0.2446809
0.20155769380849	0.07630664	0.27623656
0.2190844702925996	0.1326407	0.3641987
0.2366112519019124	0.15965761	0.39957178
0.2541380390464497	0.17126639	0.41384345
0.27166483213623416	0.13838279	0.37199837
0.28919163158128947	0.09926154	0.315058
0.3067184377916406	0.077655755	0.2786678
0.324245251177314	0.040241115	0.20060188
0.34177207214833777	0.07237694	0.26902962
0.3592989011147415	0.15543668	0.3942546
0.37682573848655654	0.16908301	0.41119704
0.39435258467381573	0.25245166	0.5024457
0.41187944008655414	0.23062883	0.48023832
0.42940630513480854	0.22508779	0.47443417
0.446933180228618	0.18638235	0.43172023
0.4644600657780234	0.14116925	0.37572497
0.48198696219306775	0.13766472	0.37103197
0.49951386988379676	0.14950088	0.38665342
0.5170407892602581	0.14409992	0.37960497
0.5345677207325025	0.1751594	0.41852048
0.5520946647105822	0.2004652	0.4477334
0.5696216216045534	0.22486	0.47419405
0.5871485918244737	0.20022155	0.44746122
0.6046755757804043	0.15811868	0.3976414
0.6222025738824094	0.1378774	0.37131846
0.6397295865405557	0.17242469	0.41524053
0.6572566141649129	0.16008958	0.40011197
0.6747836571655547	0.14168386	0.37640917
0.6923107159525568	0.11704335	0.342116
0.7098377909359992	0.16298641	0.40371576
0.7273648825259653	0.17411411	0.41726983
0.7448919911325411	0.18053916	0.424899
0.762419117165817	0.16580667	0.40719366
0.7799462610358868	0.15826535	0.39782578
0.7974734231528482	0.15537336	0.39417428
0.8150006039268024	0.16945557	0.41164982
0.8325278037678551	0.19219421	0.4383996
0.8500550230861152	0.2491754	0.4991747
0.8675822622916969	0.26219285	0.5120477
0.8851095217947171	0.2321079	0.48177576
0.9026368020052984	0.2120162	0.46045217
0.9201641033335665	0.19249725	0.43874508
0.9376914261896523	0.22209065	0.47126493
0.9552187709836915	0.24308603	0.49303755
0.9727461381258234	0.25101465	0.50101364
0.990273528026193	0.23018087	0.4797717
1.0078009410949496	0.23366582	0.48338994
1.0253283777422473	0.25362194	0.5036089
1.0428558383782454	0.28772235	0.5363976
1.0603833234131086	0.28513202	0.53397757
1.0779108332570058	0.29882807	0.54665166
1.0954383683201119	0.30929634	0.5561442
1.112965929012607	0.39426163	0.62790257
1.1304935157446763	0.48972195	0.6998014
1.1480211289265108	0.543628	0.7373113
1.1655487689683062	1.4402419	1.2001008
1.1830764362802655	1.7321545	1.3161134
1.200604131272596	2.1200745	1.4560475
1.2181318543555117	2.3949685	1.5475686
1.235659605939232	2.4453797	1.563771
1.253187386433982	3.9807317	1.9951771
1.270715196249994	6.24462	2.4989238
1.2882430357975057	11.334002	3.366601
1.3057709054867608	16.007055	4.0008817
1.3232988057280106	21.783554	4.6672854
1.3408267369315112	27.194763	5.21486
1.358354699507526	31.30156	5.5947795
1.3758826938663256	35.796047	5.98298
1.3934107204181858	37.931343	6.1588426
1.410938779573391	38.09194	6.171867
1.4284668717422309	38.333313	6.19139
1.4459949973350033	37.71124	6.140948
1.4635231567620117	37.447746	6.1194563
1.4810513504335687	36.332428	6.0276384
1.4985795787599925	35.533543	5.961002
1.5161078421516088	35.294117	5.940885
1.5336361410187505	34.794586	5.8986936
1.5511644757717598	35.13435	5.9274235
1.5686928468209842	35.46069	5.954888
1.58622125457678	35.770313	5.980829
1.6037496994495108	36.48872	6.0405893
1.621278181849548	36.398003	6.033076
1.6388067021872719	37.133385	6.0937166
1.6563352608730693	36.837955	6.069428
1.673863858317336	35.799908	5.9833026
1.6913924949304753	35.219395	5.934593
1.7089211711228998	33.902668	5.8226
1.7264498873050296	33.498016	5.787747
1.7439786438872935	33.12214	5.7551837
1.7615074412801288	32.164234	5.671352
1.779036279893981	31.607939	5.6220937
1.796565160139305	30.33795	5.5079894
1.814094082426564	29.597273	5.4403377
1.8316230471662298	28.858986	5.372056
1.849152054768784	27.822098	5.274666
1.8666811056447168	27.63007	5.256431
1.8842102002045273	26.612236	5.1587048
1.901739338858724	26.188423	5.1174626
1.9192685220178245	25.653534	5.064932
1.9367977500923557	25.004572	5.0004573
1.9543270234928547	24.38366	4.937981
1.971856342629867	23.516092	4.8493395
1.9893857079139496	22.858915	4.7811
2.006915119755667	22.097517	4.7007995
2.0244445785655945	21.24778	4.6095314
2.0419740847543175	20.92117	4.5739665
2.0595036387324317	20.990929	4.581586
2.0770332409105414	20.758493	4.556149
2.094562891699263	20.565191	4.534886
2.1120925915092217	19.91506	4.4626293
2.129622340751053	19.518305	4.4179525
2.1471521398354043	187.49869	13.693016
2.1646819891729323	443.7148	21.064539
2.182211889174303	439.98367	20.975788
2.1997418402501974	452.42688	21.270329
2.2172718428113023	432.5451	20.797718
2.234801897268317	320.31778	17.897425
2.2523320040319548	16.948483	4.116853
2.269862163512935	16.740417	4.0915055
2.287392376121992	16.565529	4.0700774
2.304922642269869	16.215899	4.026897
2.322452962367322	15.960031	3.9950006
2.3399833368251164	15.559716	3.9445806
2.357513766054032	15.455356	3.93133
2.3750442504648586	15.308886	3.912657
2.3925747904683963	15.087195	3.884224
2.410105386475459	14.74203	3.8395352
2.4276360388968707	14.341484	3.7870152
2.445166748143469	13.961187	3.7364671
2.4626975146261025	13.735223	3.7061062
2.4802283387556323	13.407814	3.6616683
2.4977592209429305	12.922222	3.5947492
2.5152901615988825	12.484888	3.533396
2.5328211611343865	12.221559	3.4959345
2.5503522199603523	12.087729	3.4767413
2.5678833384877024	12.013961	3.4661162
2.5854145171273712	11.934793	3.454677
2.6029457562903064	11.883278	3.4472132
2.620477056387469	11.730246	3.4249446
2.6380084178298326	11.547281	3.398129
2.655539841028383	11.371799	3.3722098
2.673071326394119	11.15241	3.3395224
2.6906028743380523	11.028	3.3208432
2.708134485271211	10.804137	3.2869647
2.7256661596046325	10.748518	3.2784932
2.743197897749369	10.724059	3.274761
2.760729700116486	10.734604	3.2763705
2.778261567117063	10.467472	3.2353473
2.795793499162193	10.094087	3.1771193
2.8133254966629817	9.8100605	3.1321015
2.830857560030551	9.670052	3.1096706
2.8483896896760337	9.57408	3.094201
2.865921886010578	9.550022	3.090311
2.883454149445347	9.463904	3.076346
2.9009864803915177	9.388001	3.0639846
2.91851887926028	9.082905	3.0137858
2.9360513464628384	8.904683	2.9840715
2.953583882410413	8.766693	2.9608603
2.9711164875142373	8.692049	2.9482281
2.9886491621855606	8.683745	2.9468195
3.0061819068356455	8.628601	2.937448
3.023714721875769	8.545409	2.9232533
3.041247607717225	8.340599	2.8880095
3.0587805647713213	8.3988695	2.8980803
3.0763135934493806	8.49662	2.9148962
3.0938466941627407	8.485443	2.9129784
3.1113798673227544	8.291852	2.8795576
3.1289131133407904	8.086357	2.843652
3.1464464326282315	7.8038597	2.7935388
3.1639798255964786	7.627364	2.7617683
3.1815132926569443	7.4400983	2.7276545
3.1990468342210603	7.391023	2.7186437
3.216580450700272	7.362607	2.7134125
3.2341141425060416	7.351931	2.7114444
3.251647910049847	7.298388	2.7015529
3.2691817537431813	7.3209543	2.7057261
3.286715673997555	7.206299	2.684455
3.3042496712244938	7.0710483	2.6591442
3.32178374583554	6.876396	2.6222885
3.339317898242251	6.7203984	2.5923731
3.3568521288562034	6.7002163	2.5884776
3.3743864380889876	6.6553435	2.5797954
3.3919208263522127	6.5910845	2.5673108
3.4094552940575023	6.5414476	2.5576253
3.4269898416164972	6.4936495	2.548264
3.444524469440858	6.495648	2.548656
3.4620591779422587	6.384052	2.526668
3.479593967532391	6.284714	2.5069332
3.4971288386229658	6.235783	2.497155
3.5146637916257086	6.2100043	2.491988
3.5321988269523628	6.1939845	2.4887717
3.5497339450146903	6.1736994	2.484693
3.5672691462244708	6.270013	2.5039995
3.5848044309934988	6.36412	2.5227208
3.60233979973359	6.316347	2.5132344
3.619875252856575	6.2963505	2.509253
3.6374107907743034	6.1648326	2.482908
3.6549464138986427	6.2184954	2.4936912
3.6724821226414788	6.22091	2.4941752
3.690017917414714	6.1742325	2.4848003
3.7075537986302702	6.1782804	2.4856148
3.7250897667000857	6.287862	2.507561
3.7426258220361235	6.477244	2.545043
3.7601619650503553	6.7560596	2.5992422
3.777698196154779	7.34501	2.710168
3.7952345157614067	8.59083	2.9310117
3.8127709242822716	9.504001	3.082856
3.830307422129425	11.840871	3.4410567
3.847844009714936	30.484797	5.5213037
3.8653806874508954	97.86979	9.892916
3.882917455749409	96.908	9.844186
3.900454315022606	96.51335	9.8241205
3.917991265682631	40.940163	6.39845
3.9355283081416506	10.503544	3.2409172
3.9530654428118495	8.4302635	2.9034915
3.970602670105433	7.285959	2.6992514
3.9881399904346244	6.438604	2.5374403
4.005677404211669	6.4408393	2.537881
4.023214911848827	6.408992	2.5315986
4.0407525137583855	6.4402766	2.53777
4.058290210352644	6.3374047	2.5174203
4.075828002043927	6.2467465	2.499349
4.0933658892445814	6.160849	2.4821057
4.110903872366966	6.074482	2.4646463
4.128441951823468	6.09506	2.4688175
4.145980128026488	6.0648165	2.4626849
4.163518401388452	6.0243316	2.4544513
4.181056772321807	5.9701743	2.443394
4.1985952412390155	5.9783463	2.4450657
4.216133808552567	6.0227165	2.4541223
4.233672474674966	6.102178	2.4702587
4.251211240018741	6.268281	2.5036535
4.268750104996445	6.537943	2.55694
4.286289070020643	7.5176454	2.7418325
4.303828135503928	9.146401	3.0243018
4.3213673018589125	29.533403	5.4344645
4.3389065694982305	90.686554	9.522949
4.356445938834537	165.9126	12.880707
4.3739854102805085	171.04758	13.078516
4.391524984248844	171.9039	13.111213
4.409064661152262	135.87645	11.656606
4.426604441403504	96.13412	9.804801
4.444144325415337	75.44063	8.685657
4.461684313600543	21.607723	4.648411
4.47922440637193	22.129305	4.7041793
4.496764604142329	20.414036	4.5181894
4.5143049073245916	18.46034	4.29655
4.531845316331589	16.399336	4.049609
4.5493858315762195	13.634908	3.6925476
4.566926453471405	11.368419	3.3717086
4.584467182430081	9.232289	3.0384684
4.602008018865218	8.071982	2.8411233
4.619548963189798	7.50278	2.7391202
4.637090015816834	6.951213	2.6365154
4.654631177159353	6.6407905	2.5769732
4.672172447630417	6.333885	2.516721
4.689713827643102	6.1868243	2.4873328
4.7072553176105085	5.994613	2.44839
4.724796917945764	5.803573	2.4090607
4.742338629062015	5.736979	2.395199
4.759880451372434	5.7573843	2.399455
4.777422385290215	5.7026615	2.3880246
4.794964431228581	5.720713	2.391801
4.812506589600768	5.685658	2.3844619
4.830048860820047	5.6433716	2.3755782
4.847591245299709	5.6395845	2.374781
4.8651337434530655	5.5896964	2.364254
4.882676355693457	5.5854654	2.363359
4.900219082434242	5.5684967	2.3597662
4.917761924088813	5.5026264	2.3457677
4.935304881070575	5.4585056	2.3363445
4.952847953792969	5.3607874	2.3153374
4.970391142669449	5.367332	2.3167503
4.9879344481135055	5.376348	2.3186953
5.005477870538642	5.360596	2.3152962
5.023021410358394	5.42873	2.3299634
5.040565067986324	5.4249816	2.329159
5.05810884383601	5.3943863	2.3225818
5.075652738321066	5.3721313	2.317786
5.09319675185512	5.4225125	2.3286288
5.110740884851836	5.408389	2.3255944
5.128285137724894	5.3616943	2.3155332
5.145829510888007	5.288552	2.2996852
5.163374004754908	5.2772055	2.297217
5.1809186197393595	5.3294787	2.3085663
5.198463356255145	5.3204837	2.3066173
5.216008214716077	5.3042583	2.3030975
5.233553195535998	5.25225	2.2917788
5.251098299128764	5.1982408	2.2799652
5.268643525908272	5.185426	2.277153
5.286188876288432	5.220197	2.284775
5.3037343506831895	5.27758	2.2972984
5.32127994950651	5.325697	2.3077471
5.3388256731723915	5.355068	2.314102
5.356371522094851	5.3207145	2.3066673
5.373917496687938	5.273803	2.2964764
5.391463597365729	5.149121	2.2691674
5.40900982454232	5.0076737	2.2377832
5.426556178631843	5.0158367	2.2396064
5.444102660048449	5.0675645	2.251125
5.4616492692063225	5.211262	2.282819
5.479196006519669	5.2717957	2.296039
5.496742872402727	5.2311687	2.287175
5.514289867269756	5.15834	2.271198
5.531836991535049	5.0897665	2.256051
5.549384245612924	5.0685854	2.2513518
5.566931629917724	5.053689	2.2480412
5.584479144863822	5.1255226	2.2639618
5.6020267908656205	5.066456	2.2508788
5.619574568337545	5.0247927	2.241605
5.637122477694054	4.9854755	2.232818
5.654670519349629	4.9838953	2.2324638
5.672218693718784	4.9866004	2.2330697
5.689767001216059	5.0216255	2.2408984
5.707315442256021	5.057761	2.2489467
5.724864017253266	5.100293	2.2583828
5.7424127266224225	5.0930223	2.2567725
5.75996157077814	5.0244765	2.2415345
5.777510550135105	4.9750686	2.2304862
5.795059665108022	4.999966	2.2360604
5.812608916111639	5.1460853	2.2684984
5.830158303560715	5.289358	2.2998605
5.847707827870055	5.2745466	2.296638
5.86525748945448	5.2825475	2.2983794
5.8828072887288485	5.3883886	2.3212903
5.900357226108044	5.5261564	2.3507779
5.917907302006979	5.6573706	2.3785229
5.9354575168406	6.3307557	2.5160992
5.9530078710238765	7.0068207	2.64704
5.970558364971812	7.60307	2.7573664
5.988108999099438	7.934218	2.8167744
6.005659773821818	8.494067	2.9144583
6.023210689554039	8.146169	2.8541493
6.040761746711227	8.474341	2.9110723
6.058312945708531	7.805884	2.7939012
6.075864286961132	7.286571	2.699365
6.093415770884244	6.619724	2.5728824
6.1109673978931065	6.028793	2.45536
6.128519168402993	5.403449	2.324532
6.146071082829204	5.257885	2.2930079
6.163623141587075	5.149883	2.2693353
6.181175345091969	5.1362214	2.2663233
6.198727693759281	5.082984	2.2545474
6.216280188004435	5.0859776	2.255211
6.233832828242885	5.036609	2.244239
6.251385614890126	5.063197	2.250155
6.268938548361669	5.0943484	2.2570662
6.286491629073067	5.131386	2.2652562
6.304044857439898	5.1509676	2.2695744
6.321598233877777	5.0462794	2.2463925
6.339151758802344	4.9961615	2.2352095
6.356705432629277	4.930493	2.2204714
6.37425925577428	4.925754	2.219404
6.391813228653095	4.8612475	2.2048237
6.409367351681486	4.9141707	2.2167928
6.426921625275259	4.911142	2.2161095
6.44447604985025	4.940406	2.2227023
6.46203062582232	4.9460936	2.2239814
6.47958535360737	4.9861836	2.2329764
6.497140233621328	5.0150256	2.2394252
6.514695266280161	5.034853	2.2438478
6.532250451999859	5.0686426	2.2513647
6.549805791196454	5.04498	2.2461033
6.567361284286002	4.9932184	2.234551
6.584916931684597	4.9784718	2.2312489
6.602472733808367	4.9304047	2.2204514
6.6200286910734665	4.8717585	2.207206
6.637584803896092	4.928189	2.2199523
6.655141072692462	4.9556413	2.226127
6.672697497878842	4.963367	2.2278616
6.690254079871514	4.915012	2.2169826
6.707810819086808	4.8919578	2.211777
6.725367715941078	4.895102	2.2124877
6.742924770850719	4.8844748	2.2100847
6.760481984232151	4.8693895	2.2066693
6.778039356501836	4.866114	2.2059271
6.795596888076266	4.861753	2.2049384
6.813154579371963	4.860781	2.2047179
6.830712430805492	4.9276495	2.219831
6.84827044279344	4.929418	2.2202294
6.865828615752445	4.9072437	2.21523
6.883386950099159	4.936772	2.2218847
6.900945446250287	4.9767046	2.2308528
6.918504104622553	5.00853	2.2379746
6.936062925632727	5.0849257	2.254978
6.953621909697607	5.1418576	2.2675664
6.971181057234028	5.177909	2.275502
6.988740368658859	5.1802354	2.2760131
7.006299844389007	5.1794915	2.2758496
7.023859484841407	5.203074	2.2810247
7.041419290433036	5.349978	2.3130019
7.058979261580902	5.4749055	2.3398516
7.0765393987020495	5.673724	2.381958
7.094099702213559	5.9981074	2.4491034
7.111660172532549	6.307694	2.5115123
7.129220810076164	6.6396956	2.5767608
7.146781615261595	7.1894407	2.6813133
7.16434258850606	7.4225345	2.724433
7.181903730226821	7.845766	2.8010294
7.1994650408411704	7.9506216	2.8196847
7.217026520766437	8.066544	2.840166
7.234588170419983	8.289088	2.8790777
7.252149990219215	8.324027	2.885139
7.269711980581568	8.285945	2.8785317
7.2872741419245175	8.139093	2.8529096
7.304836474665574	7.761938	2.7860255
7.322398979222286	7.4295535	2.7257206
7.339961656012233	7.172743	2.6781976
7.357524505453039	6.828364	2.6131139
7.375087527962357	6.5110564	2.5516772
7.392650723957886	6.1878667	2.4875424
7.410214093857353	5.840324	2.4166763
7.427777638078528	5.6297183	2.3727028
7.445341357039213	5.484707	2.3419452
7.4629052511572525	5.3726625	2.3179004
7.480469320850524	5.2528095	2.2919009
7.498033566536948	5.1660504	2.2728946
7.5155979886344735	5.097195	2.2576969
7.5331625875610975	5.0805774	2.2540135
7.550727363734844	5.130561	2.2650743
7.568292317573788	5.1248612	2.2638156
7.585857449496025	5.1715484	2.2741039
7.603422759919705	5.1720805	2.274221
7.620988249263007	5.151558	2.2697043
7.638553917944147	5.073445	2.252431
7.656119766381391	5.0471654	2.2465897
7.673685794993023	5.1214547	2.2630632
7.691252004197388	5.148489	2.2690282
7.70881839441285	5.1950536	2.279266
7.726384966057826	5.2272897	2.2863266
7.743951719550762	5.233311	2.2876432
7.761518655310149	5.2574024	2.2929027
7.779085773754511	5.2276344	2.286402
7.796653075302419	5.172674	2.2743514
7.814220560372475	5.156607	2.2708163
7.831788229383323	5.187861	2.2776875
7.8493560827536495	5.2245493	2.2857273
7.866924120902174	5.2856655	2.2990575
7.884492344247663	5.373555	2.318093
7.9020607532089135	5.365637	2.3163843
7.919629348204771	5.3216233	2.3068645
7.937198129654115	5.332435	2.3092065
7.954767097975865	5.3323927	2.3091974
7.972336253588986	5.3556204	2.3142214
7.989905596912472	5.3184786	2.3061826
8.007475128365371	5.3245487	2.3074985
8.025044848366756	5.3355064	2.3098714
8.042614757335754	5.479599	2.3408544
8.060184855691523	5.5200076	2.3494697
8.07775514385327	5.6614466	2.3793795
8.095325622240228	5.678115	2.3828795
8.112896291271687	5.777914	2.4037292
8.130467151366968	5.877522	2.42436
8.148038202945436	5.8761992	2.4240873
8.165609446426497	5.880306	2.4249341
8.183180882229594	5.8947883	2.4279184
8.200752510774217	5.9318595	2.435541
8.218324332479893	5.9479113	2.438834
8.235896347766193	5.9337187	2.4359226
8.253468557052724	5.8942823	2.4278142
8.27104096075914	5.90701	2.4304342
8.288613559305137	5.90582	2.4301894
8.306186353110448	5.992004	2.447857
8.32375934259485	6.167748	2.483495
8.341332528178162	6.2965517	2.509293
8.358905910280246	6.363195	2.5225375
8.376479489321003	6.269384	2.5038738
8.394053265720377	6.230045	2.4960058
8.411627239898356	6.2260127	2.495198
8.42920141227497	6.231908	2.496379
8.44677578327029	6.2027907	2.4905403
8.464350353304427	6.075658	2.464885
8.48192512279754	6.044379	2.4585319
8.499500092169827	5.9850416	2.4464345
8.51707526184153	5.9889507	2.4472332
8.534650632232934	5.989342	2.4473133
8.552226203764365	6.0636477	2.4624474
8.569801976856192	6.1400747	2.4779174
8.587377951928834	6.1957145	2.4891193
8.60495412940274	6.1930017	2.4885743
8.622530509698416	6.1719637	2.4843438
8.6401070932364	6.294948	2.5089736
8.657683880437283	6.4047527	2.5307612
8.675260871721695	6.612216	2.571423
8.692838067510303	6.8429976	2.6159124
8.710415468223834	7.040195	2.6533365
8.727993074283043	7.1524343	2.6744037
8.745570886108737	7.068079	2.6585858
8.763148904121765	7.1212087	2.6685593
8.78072712874302	7.070516	2.6590443
8.798305560393441	7.32409	2.7063055
8.815884199494006	7.4898825	2.736765
8.833463046465745	7.6721053	2.7698565
8.851042101729728	7.806985	2.7940981
8.86862136570707	8.145966	2.8541138
8.886200838818924	8.290819	2.8793783
8.903780521486505	8.283445	2.8780975
8.921360414131055	8.335186	2.8870723
8.938940517173874	8.472795	2.9108064
8.956520831036297	8.689289	2.94776
8.97410135613971	9.001332	3.000222
8.99168209290554	9.178307	3.029572
9.009263041755265	9.340291	3.056189
9.026844203110405	9.501059	3.0823786
9.044425577392525	9.722564	3.1181026
9.062007165023239	9.860671	3.1401706
9.079588966424197	10.117496	3.1808012
9.097170982017108	10.140256	3.184377
9.11475321222372	11.266248	3.3565233
9.132335657465825	12.324769	3.510665
9.149918318165264	12.451654	3.52869
9.167501194743924	12.994311	3.6047623
9.18508428762374	12.542703	3.5415678
9.202667597226693	12.598357	3.5494165
9.220251123974803	12.369681	3.5170557
9.237834868290143	12.057937	3.472454
9.255418830594836	11.840179	3.440956
9.273003011311046	11.34755	3.3686125
9.290587410860985	11.13064	3.3362613
9.308172029666911	10.419374	3.2279055
9.32575686815113	9.970082	3.1575437
9.343341926735997	8.574584	2.928239
9.360927205843916	8.3411455	2.8881042
9.378512705897327	8.2097025	2.8652577
9.396098427318728	7.9567847	2.8207774
9.413684370530664	7.8121686	2.7950256
9.431270535955722	7.796746	2.7922654
9.448856924016539	7.776007	2.7885492
9.466443535135806	7.718463	2.778212
9.484030369736251	7.6698213	2.7694442
9.501617428240658	7.6502786	2.7659137
9.519204711071852	7.66982	2.769444
9.536792218652714	7.7013392	2.7751286
9.55437995140617	7.750645	2.783998
9.571967909755191	7.7868724	2.7904968
9.589556094122802	7.814033	2.7953591
9.60714450493207	7.7986393	2.7926044
9.624733142606116	7.8197584	2.7963831
9.642322007568108	7.8200884	2.796442
9.659911100241267	7.86093	2.803735
9.677500421048851	7.8278265	2.7978253
9.695089970414175	7.916283	2.813589
9.712679748760609	7.968551	2.8228621
9.730269756511557	7.9957967	2.827684
9.747859994090492	8.034679	2.834551
9.765450461920915	8.0658455	2.8400433
9.78304116042639	8.111192	2.8480153
9.800632090030527	8.129453	2.8512194
9.81822325115699	8.168468	2.8580532
9.835814644229481	8.137246	2.8525858
9.853406269671762	8.113185	2.8483653
9.870998127907646	8.10202	2.8464048
9.888590219360985	8.1374035	2.8526134
9.906182544455698	8.191284	2.862042
9.923775103615734	8.212669	2.8657756
9.941367897265108	8.303092	2.8815086
9.958960925827878	8.336008	2.8872147
9.97655418972816	8.393753	2.8971975
9.994147689390106	8.313214	2.8832645
10.011741425237934	8.243417	2.871135
10.029335397695904	8.128364	2.8510284
10.04692960718833	8.070568	2.8408744
10.06452405413958	8.068915	2.8405836
10.082118738974064	8.109349	2.847692
10.099713662116246	8.1560545	2.8558807
10.117308823990651	8.096208	2.8453836
10.134904225021844	8.098727	2.8458264
10.152499865634445	8.089044	2.8441243
10.170095746253125	8.10295	2.846568
10.18769186730261	8.049455	2.837156
10.205288229207675	8.012205	2.8305838
10.222884832393145	8.037259	2.835006
10.2404816772839	8.064135	2.839742
10.258078764304868	8.093386	2.8448877
10.275676093881035	8.015907	2.8312378
10.293273666437438	8.042798	2.8359828
10.310871482399158	8.090866	2.8444448
10.32846954219134	8.126663	2.8507302
10.346067846239173	8.162856	2.8570712
10.363666394967908	8.157396	2.8561156
10.38126518880283	8.145695	2.8540664
10.398864228169298	8.159581	2.856498
10.416463513492713	8.1717	2.8586185
10.434063045198531	8.1013155	2.846281
10.451662823712262	8.088183	2.8439732
10.469262849459467	8.097373	2.8455884
10.486863122865758	8.130627	2.8514254
10.504463644356806	8.068255	2.8404675
10.522064414358338	7.987591	2.8262327
10.539665433296118	7.900878	2.8108501
10.557266701595987	7.8235903	2.797068
10.574868219683818	7.7572203	2.7851787
10.592469987985552	7.6803594	2.771346
10.610072006927185	7.667618	2.7690463
10.627674276934751	7.550248	2.7477715
10.64527679843435	7.3711905	2.7149937
10.662879571852143	7.187872	2.6810207
10.680482597614331	7.0632205	2.657672
10.698085876147173	7.0345335	2.6522696
10.715689407876988	6.9776106	2.6415167
10.733293193230146	6.864981	2.620111
10.750897232633072	6.7439046	2.5969028
10.76850152651225	6.650565	2.5788689
10.786106075294207	6.6575766	2.580228
10.803710879405534	6.530675	2.5555186
10.821315939272877	6.4055734	2.5309234
10.83892125532294	6.361082	2.5221186
10.856526827982472	6.3184094	2.5136447
10.874132657678285	6.2877235	2.5075333
10.891738744837243	6.205505	2.491085
10.909345089886271	6.137001	2.477297
10.926951693252343	6.078182	2.465397
10.944558555362494	5.9602933	2.4413712
10.96216567664381	5.8714137	2.4231
10.979773057523436	5.807004	2.4097726
10.997380698428573	5.8150434	2.4114401
11.014988599786477	5.7452874	2.3969328
11.032596762024461	5.7039747	2.3882995
11.050205185569892	5.6279073	2.3723211
11.067813870850198	5.530774	2.35176
11.085422818292859	5.4408765	2.3325686
11.10303202832541	5.3219123	2.306927
11.120641501375454	5.282075	2.2982764
11.138251237870636	5.3176403	2.306001
11.155861238238671	5.255119	2.2924047
11.173471502907317	5.1245656	2.2637503
11.191082032304402	5.0033765	2.2368228
11.208692826857805	4.938362	2.2222426
11.226303886995465	4.894823	2.2124248
11.243915213145371	4.858299	2.204155
11.261526805735578	4.8502893	2.2023373
11.279138665194196	4.8768177	2.2083519
11.296750791949393	4.8108606	2.1933675
11.314363186429393	4.7889323	2.1883628
11.331975849062479	4.702059	2.1684232
11.34958878027699	4.63055	2.1518712
11.36720198050133	4.564421	2.1364505
11.384815450163948	4.5332484	2.1291428
11.402429189693366	4.540328	2.1308045
11.420043199518153	4.4867253	2.118189
11.437657480066942	63.459908	7.9661727
11.455272031768422	85.16994	9.228756
11.472886855051353	107.545906	10.370434
11.490501950344528	99.12116	9.955961
11.508117318076819	84.467285	9.190609
11.52573295867715	45.87005	6.772743
11.543348872574514	4.2124014	2.0524135
11.560965060197946	4.1752386	2.04334
11.57858152197655	4.1437883	2.0356297
11.59619825833949	4.044746	2.0111554
11.613815269715985	3.9969673	1.9992417
11.631432556535323	38.46339	6.201886
11.649050119226837	83.07377	9.114481
11.666667958219929	93.50138	9.669611
11.68428607394406	107.75089	10.380313
11.701904466828756	82.5185	9.083969
11.719523137303586	65.31608	8.081837
11.737142085798196	4.520606	2.1261716
11.754761312742286	3.6314225	1.9056292
11.772380818565619	3.5923474	1.8953489
11.790000603698015	3.597045	1.8965877
11.80762066856935	3.5854948	1.8935403
11.825241013609572	3.5453603	1.8829128
11.842861639248683	3.5047593	1.8721002
11.860482545916748	3.4395533	1.8546033
11.878103734043883	3.441174	1.8550402
11.895725204060282	3.408188	1.8461279
11.91334695639619	3.386395	1.840216
11.930968991481919	3.3590827	1.83278
11.948591309747824	3.3246772	1.8233697
11.966213911624347	3.336578	1.8266302
11.98383679754198	3.3454635	1.8290608
12.001459967931268	3.345657	1.8291137
12.019083423222835	3.3105748	1.8194985
12.036707163847352	3.256425	1.8045567
12.05433119023556	3.2084951	1.7912272
12.071955502818259	3.170318	1.7805387
12.089580102026313	3.147205	1.7740364
12.107204988290643	3.127645	1.7685149
12.12483016204224	3.105319	1.7621915
12.142455623712152	3.054755	1.7477857
12.16008137373149	3.0352714	1.742203
12.177707412531431	3.0248568	1.7392116
12.19533374054321	3.0405335	1.7437125
12.212960358198126	3.0244632	1.7390984
12.230587265927545	3.0429764	1.7444129
12.248214464162889	3.0458198	1.7452277
12.265841953335649	3.0498514	1.7463824
12.283469733877375	3.0552933	1.7479397
12.301097806219685	3.0176687	1.7371439
12.31872617079425	2.9616456	1.7209432
12.336354828032825	2.9212704	1.7091724
12.353983778367205	2.9271958	1.710905
12.371613022229262	2.94348	1.7156574
12.389242560050928	2.9172432	1.7079939
12.406872392264201	2.8757336	1.6957988
12.424502519301143	2.839837	1.6851816
12.442132941593874	2.8030682	1.6742365
12.459763659574586	2.8282511	1.6817405
12.477394673675532	2.8628724	1.6920024
12.49502598432903	2.8914063	1.7004136
12.51265759196746	2.842682	1.6860255
12.530289497023267	2.8046002	1.6746941
12.547921699928967	2.81148	1.6767468
12.565554201117134	2.839311	1.6850255
12.583187001020404	2.8088677	1.6759677
12.600820100071486	2.7703063	1.6644237
12.618453498703152	2.7355537	1.6539509
12.636087197348235	2.735832	1.6540351
12.65372119643964	2.7695918	1.664209
12.671355496410326	2.8065512	1.6752765
12.68899009769333	2.8409297	1.6855057
12.706625000721749	2.8596375	1.6910462
12.724260205928752	2.9246457	1.7101595
12.741895713747551	2.9378998	1.7140303
12.759531524611454	2.9469988	1.7166826
12.777167638953818	2.916327	1.7077256
12.794804057208072	2.9542544	1.7187945
12.812440779807702	3.0332277	1.7416164
12.830077807186271	3.217353	1.7936982
12.847715139777405	3.262044	1.8061129
12.865352778014795	3.467809	1.8622054
12.882990722332197	3.579985	1.8920848
12.90062897316344	3.6435573	1.9088105
12.918267530942412	3.7375197	1.9332666
12.935906396103071	3.6202576	1.9026974
12.953545569079449	3.7623541	1.9396789
12.971185050305628	3.5524518	1.884795
12.988824840215775	3.577757	1.891496
13.006464939244115	3.613993	1.9010504
13.024105347824943	3.4908588	1.868384
13.041746066392617	3.5575929	1.8861582
13.05938709538157	3.3578084	1.8324324
13.077028435226296	3.3312078	1.8251597
13.094670086361363	3.2452312	1.8014525
13.112312049221401	3.1783223	1.7827849
13.129954324241112	3.0881171	1.757304
13.147596911855258	2.8828588	1.6978984
13.165239812498685	2.8342252	1.6835157
13.182883026606293	2.7888706	1.6699911
13.200526554613058	2.7358677	1.6540458
13.218170396954017	2.7087584	1.6458306
13.235814554064284	2.7037568	1.6443105
13.253459026379034	2.7024398	1.6439099
13.271103814333523	2.73012	1.6523075
13.288748918363058	2.715484	1.6478726
13.306394338903031	2.70386	1.6443418
13.32404007638889	2.665376	1.6325979
13.341686131256164	2.6625116	1.6317204
13.359332503940449	2.6867685	1.6391366
13.376979194877402	2.6511805	1.6282446
13.394626204502751	2.6788375	1.6367155
13.412273533252307	2.673366	1.6350431
13.429921181561937	2.6608737	1.6312184
13.447569149867581	2.6914802	1.6405731
13.465217438605247	2.6758018	1.6357878
13.482866048211022	2.6984537	1.6426971
13.500514979121052	2.6593273	1.6307443
13.518164231771568	2.639608	1.6246871
13.535813806598844	2.5927198	1.6101924
13.553463704039254	2.6076934	1.6148354
13.571113924529229	2.6404495	1.624946
13.588764468505275	2.6938047	1.6412815
13.606415336403956	2.679395	1.6368858
13.624066528661917	2.6767557	1.6360793
13.641718045715882	2.7240252	1.6504622
13.659369888002635	2.8134737	1.6773412
13.67702205595903	2.877923	1.6964443
13.694674550021993	2.9564285	1.7194268
13.712327370628532	3.0316315	1.7411581
13.729980518215713	3.1555054	1.7763742
13.747633993220681	3.185958	1.7849252
13.765287796080647	3.2351398	1.7986494
13.7829419272329	3.2510824	1.8030758
13.800596387114801	3.2981951	1.8160933
13.818251176163775	3.3179796	1.8215322
13.835906294817324	3.3778238	1.8378857
13.853561743513023	3.4091527	1.846389
13.871217522688525	3.4625638	1.8607966
13.888873632781538	3.5142682	1.8746382
13.906530074229858	3.5410979	1.8817805
13.92418684747135	3.5536976	1.8851254
13.941843952943948	3.5028565	1.8715919
13.959501391085665	3.4687133	1.8624482
13.977159162334578	3.3874273	1.8404965
13.994817267128846	3.3478844	1.8297225
14.012475705906693	3.2950718	1.8152332
14.030134479106424	3.2491724	1.8025461
14.047793587166414	3.164696	1.7789593
14.065453030525108	3.0642655	1.7505044
14.083112809621026	2.9819114	1.7268212
14.100772924892766	2.8980994	1.7023805
14.118433376778997	2.874968	1.6955731
14.136094165718458	2.7944815	1.6716703
14.153755292149969	2.7383432	1.654794
14.171416756512416	2.6768477	1.6361074
14.189078559244768	2.632898	1.6226207
14.20674070078606	2.598504	1.6119876
14.224403181575408	2.5461376	1.5956621
14.242066002051999	2.513808	1.5854993
14.259729162655093	2.4551876	1.5669038
14.277392663824022	2.3958092	1.5478401
14.295056505998208	2.3435876	1.5308781
14.312720689617128	2.3453002	1.5314373
14.330385215120348	2.3826087	1.54357
14.348050082947497	2.389443	1.5457823
14.3657152935383	2.403133	1.5502042
14.383380847332528	2.3845732	1.5442064
14.401046744770051	2.3772721	1.5418406
14.418712986290798	2.378642	1.5422847
14.436379572334793	2.3813462	1.5431612
14.454046503342123	2.378548	1.5422542
14.471713779752946	2.377448	1.5418975
14.489381402007504	2.3723733	1.540251
14.507049370546113	2.3725326	1.5403028
14.524717685809168	2.3654246	1.5379937
14.542386348237134	2.358238	1.5356555
14.560055358270553	2.395401	1.5477083
14.577724716350051	2.4183898	1.5551172
14.595394422916325	2.4352386	1.5605251
14.61306447841015	2.4684713	1.571137
14.63073488327237	2.485245	1.576466
14.648405637943917	2.5118825	1.5848919
14.6660767428658	2.505764	1.5829605
14.683748198479094	2.5047495	1.58264
14.701420005224954	2.5339353	1.591834
14.719092163544628	2.6275556	1.6209737
14.73676467387942	2.6947649	1.6415739
14.754437536670727	2.6954713	1.6417891
14.772110752360014	2.645328	1.6264465
14.78978432138882	2.6511323	1.6282299
14.807458244198777	2.708724	1.6458201
14.82513252123159	2.725435	1.6508892
14.842807152929028	2.7061338	1.6450331
14.860482139732962	2.645703	1.6265618
14.87815748208531	2.6427586	1.6256564
14.8958331804281	2.6933892	1.6411549
14.91350923520342	2.6791923	1.6368239
14.931185646853438	2.6848166	1.638541
14.948862415820408	2.6743522	1.6353446
14.966539542546656	2.6493733	1.6276896
14.98421702747459	2.6024938	1.6132246
15.001894871046696	2.5856252	1.6079879
15.019573073705542	2.5850146	1.6077981
15.037251635893766	2.5684993	1.6026539
15.054930558054092	2.5678058	1.6024375
15.072609840629323	2.6424024	1.6255468
15.090289484062351	2.7811553	1.6676797
15.107969488796124	2.9970155	1.731189
15.125649855273691	3.320779	1.8223004
15.14333058393817	3.8375168	1.958958
15.161011675232768	4.8638496	2.2054138
15.17869312960076	6.319681	2.5138977
15.196374947485506	8.306971	2.8821816
15.214057129330447	11.511913	3.392921
15.231739675579114	16.50267	4.062348
15.249422586675102	21.853003	4.6747193
15.267105863062092	24.960726	4.996071
15.284789505183847	24.982016	4.9982014
15.302473513484218	22.64832	4.759025
15.320157888407127	19.032589	4.3626356
15.337842630396578	14.819702	3.8496366
15.355527739896656	11.483843	3.388782
15.37321321735153	8.7741785	2.9621239
15.39089906320545	6.282738	2.506539
15.408585277902748	4.6479087	2.155901
15.42627186188783	3.5838363	1.8931023
15.443958815605198	3.057491	1.7485683
15.461646139499424	2.8112772	1.6766864
15.479333834015168	2.6837595	1.6382184
15.497021899597165	2.6790278	1.6367736
15.514710336690234	2.5948713	1.6108605
15.53239914573928	2.5671887	1.6022449
15.550088327189297	2.4916725	1.5785033
15.567777881485336	2.454073	1.5665481
15.58546780907256	2.428828	1.5584698
15.6031581103962	2.429655	1.5587351
15.620848785901568	2.4335365	1.5599797
15.638539836034063	2.4598832	1.5684015
15.656231261239173	2.4966857	1.5800904
15.673923061962451	2.4702754	1.571711
15.691615238649552	2.4236362	1.5568032
15.709307791746202	2.3594432	1.5360479
15.727000721698221	2.340763	1.5299553
15.744694028951498	2.3249223	1.5247695
15.76238771395202	2.3423681	1.5304797
15.780081777145844	2.356059	1.534946
15.797776218979125	2.3696306	1.5393604
15.815471039898094	2.375176	1.5411606
15.833166240349064	2.409911	1.5523888
15.850861820778437	2.3827095	1.5436028
15.868557781632699	2.345645	1.5315498
15.886254123358412	2.3403413	1.5298175
15.903950846402232	2.358721	1.5358129
15.921647951210897	2.4258084	1.5575007
15.939345438231225	2.4525523	1.5660627
15.957043307910133	2.4477665	1.564534
15.974741560694602	2.4002569	1.5492762
15.992440197031714	2.366195	1.5382441
16.01013921736862	2.3646128	1.5377297
16.02783862215259	2.3766277	1.5416315
16.045538411830933	2.3777776	1.5420043
16.06323858685107	2.3934672	1.5470835
16.080939147660512	2.392181	1.5466677
16.09864009470684	2.3860047	1.5446697
16.11634142843774	2.373166	1.5405084
16.134043149300954	2.3925192	1.546777
16.15174525774433	2.4025083	1.5500027
16.169447754215817	2.4100785	1.5524428
16.18715063916342	2.4308352	1.5591136
16.204853913035244	2.434264	1.5602127
16.222557576279478	2.4578323	1.5677476
16.240261629344403	22.430794	4.736116
16.257966072678386	42.969585	6.555119
16.275670906729868	38.050846	6.1685367
16.293376131947387	2.5017312	1.5816861
16.31108174877957	2.5393846	1.5935447
16.328787757675133	2.5429823	1.5946732
16.34649415908287	2.5664365	1.6020101
16.364200953451657	2.6022162	1.6131387
16.38190814123048	2.633075	1.6226753
16.39961572286839	2.6739936	1.6352351
16.41732369881455	2.6772544	1.6362318
16.43503206951817	2.7104213	1.6463357
16.45274083542859	2.7426722	1.6561015
16.47044999699522	2.7996044	1.6732018
16.488159554667558	2.836634	1.6842309
16.505869508895184	2.8621433	1.691787
16.523579860127786	2.9012706	1.7033117
16.541290608815117	2.9867604	1.7282246
16.559001755407035	3.0164447	1.7367915
16.57671330035348	3.0251021	1.7392821
16.59442524410448	3.0669472	1.7512702
16.61213758711015	3.14189	1.7725377
16.629850329820705	3.2278094	1.7966106
16.647563472686436	3.27907	1.8108202
16.665277016157724	3.3259792	1.8237268
16.682990960685053	3.3546946	1.8315825
16.70070530671898	3.3987207	1.843562
16.718420054710155	3.4431	1.8555592
16.736135205109335	3.545366	1.8829142
16.753850758367335	3.6262205	1.9042637
16.771566714935087	3.6559312	1.9120489
16.789283075263597	3.6904726	1.9210603
16.80699983980398	3.6997988	1.9234861
16.82471700900741	3.7690005	1.9413913
16.84243458332518	3.8356693	1.9584864
16.860152563208665	3.9356747	1.9838535
16.87787094910932	3.9880776	1.9970171
16.89558974147871	4.0794277	2.0197594
16.913308940768466	4.1293573	2.032082
16.931028547430333	4.1840854	2.0455036
16.94874856191613	4.2165275	2.0534184
16.966468984677785	4.2871585	2.0705454
16.98418981616729	4.3803334	2.0929246
17.00191105683676	4.412612	2.1006217
17.019632707138374	4.4429016	2.107819
17.03735476752442	4.4521484	2.1100116
17.05507723844728	4.4979477	2.1208365
17.072800120359403	4.5247254	2.1271403
17.090523413713353	4.6141357	2.148054
17.108247118961785	4.6494923	2.1562681
17.125971236557437	4.690397	2.1657324
17.143695766953133	4.627407	2.151141
17.161420710601806	4.6009064	2.1449723
17.179146067956477	4.595181	2.1436374
17.19687183947025	4.5879602	2.1419525
17.21459802559634	4.617102	2.1487443
17.232324626788028	4.611759	2.1475008
17.25005164349871	4.544732	2.1318378
17.267779076181863	4.52198	2.1264946
17.285506925291074	4.500942	2.1215425
17.30323519127999	4.509887	2.1236496
17.320963874602384	4.4851804	2.1178246
17.33869297571211	4.499215	2.1211352
17.356422495063114	4.4672217	2.1135802
17.37415243310944	4.4819055	2.1170511
17.391882790305218	4.46819	2.1138093
17.40961356710468	4.4451838	2.1083605
17.42734476396215	4.4800153	2.1166046
17.445076381332044	4.4659734	2.113285
17.462808419668868	4.5149574	2.124843
17.48054087942723	4.600685	2.1449208
17.498273761061835	4.87642	2.2082617
17.51600706502747	5.358799	2.314908
17.533740791779024	6.1485424	2.4796255
17.551474941771485	7.7196493	2.7784257
17.56920951545993	8.857575	2.976168
17.586944513299528	11.168822	3.3419788
17.60467993574556	12.953058	3.5990357
17.622415783253373	14.933851	3.8644342
17.64015205627843	16.53895	4.0668106
17.657888755276293	17.639408	4.1999297
17.675625880702604	18.167831	4.262374
17.69336343301311	17.96469	4.238477
17.71110141266366	17.104948	4.1358128
17.728839820110178	16.05249	4.006556
17.746578655808705	14.955853	3.8672798
17.764317920215372	13.300359	3.6469657
17.7820576137864	11.535274	3.3963618
17.79979773697811	9.314574	3.0519788
17.81753829024692	7.231157	2.689081
17.835279274049356	5.5244346	2.3504117
17.85302068884201	4.565414	2.136683
17.870762535081607	4.037248	2.0092905
17.888504813224934	3.7988846	1.9490727
17.90624752372891	3.6720364	1.9162558
17.923990667050536	3.6196535	1.9025387
17.941734243646895	3.5380433	1.8809687
17.959478253975185	3.4449036	1.8560451
17.9772226984927	3.3734422	1.8366933
17.994967577656833	3.3871257	1.8404145
18.01271289192506	3.3598762	1.8329965
18.030458641754965	3.279172	1.8108484
18.04820482760425	3.2060268	1.7905381
18.06595144993067	3.2028954	1.7896634
18.083698509192125	3.2207725	1.794651
18.101446005846576	3.250235	1.8028408
18.119193940352105	3.2618852	1.806069
18.136942313166887	3.2668836	1.8074522
18.1546911247492	3.2334535	1.7981806
18.1724403755574	3.163708	1.7786815
18.19019006604997	3.1140392	1.764664
18.207940196685467	3.1450584	1.7734313
18.225690767922575	3.1943984	1.787288
18.243441780220046	3.174188	1.781625
18.261193234036764	3.1090417	1.7632475
18.278945129831676	3.0700314	1.7521505
18.29669746806386	3.0626347	1.7500385
18.314450249192483	3.0625298	1.7500085
18.3322034736768	3.013363	1.7359041
18.349957141976184	2.9901235	1.7291974
18.3677112545501	3.009071	1.7346674
18.385465811858108	3.02181	1.7383354
18.403220814359884	3.0844927	1.7562724
18.420976262515172	3.142713	1.7727699
18.43873215678387	3.2086637	1.7912743
18.456488497625923	3.2040675	1.7899909
18.474245285501407	3.2478433	1.8021773
18.492002520870486	3.294324	1.8150272
18.50976020419343	3.3558438	1.8318962
18.527518335930615	3.5971909	1.8966262
18.545276916542516	4.173098	2.0428162
18.563035946489688	4.3224616	2.0790532
18.580795426232832	4.768667	2.1837277
18.598555356232698	4.663105	2.1594224
18.616315736950185	4.981506	2.2319288
18.63407656884626	4.6401315	2.1540964
18.65183785238201	4.777187	2.1856778
18.669599588018617	4.536037	2.1297975
18.68736177621737	4.5274005	2.127769
18.705124417439652	4.5601997	2.1354625
18.72288751214696	4.403738	2.0985086
18.740651060800886	4.54797	2.132597
18.758415063863115	4.29979	2.0735934
18.77617952179546	4.4113183	2.100314
18.793944435059814	4.130342	2.0323243
18.811709804118184	4.1374946	2.0340831
18.829475629432675	4.0893865	2.0222232
18.8472419114655	3.889173	1.9720986
18.86500865067897	3.990704	1.9976747
18.88277584753551	3.7385228	1.933526
18.90054350249763	3.709474	1.9259995
18.918311616027957	3.387388	1.8404858
18.936080188589226	3.2999084	1.816565
18.953849220644265	2.9874814	1.7284333
18.971618712656007	2.798033	1.6727322
18.9893886650875	2.767719	1.6636463
19.007159078401887	7.9902754	2.8267076
19.024929953062408	32.88441	5.7344933
19.042701289532435	32.826912	5.7294774
19.060473088275405	25.374048	5.037266
19.07824534975489	2.6526651	1.6287005
19.096018074434568	2.6882865	1.6395996
19.113791262778197	2.650179	1.627937
19.13156491524966	2.6061	1.614342
19.149339032312945	2.5624175	1.6007553
19.167113614432136	2.5471718	1.5959861
19.184888662071433	2.5155337	1.5860434
19.202664175695123	2.510127	1.5843381
19.220440155767623	2.5138705	1.585519
19.238216602753447	2.544404	1.5951188
19.2559935171172	2.5369992	1.5927961
19.27377089932361	2.5296066	1.5904737
19.291548749837514	2.4877682	1.5772661
19.309327069123835	2.4633386	1.5695027
19.32710585764763	2.46996	1.5716107
19.344885115874032	2.4752598	1.5732958
19.362664844268313	2.4739537	1.5728807
19.380445043295822	2.4720116	1.5722632
19.39822571342203	2.496729	1.5801041
19.41600685511252	2.5163212	1.5862917
19.43378846883297	2.537224	1.5928667
19.451570555049173	2.4832873	1.575845
19.469353114227037	2.455359	1.5669585
19.48713614683254	2.4469924	1.5642866
19.50491965333182	2.477209	1.5739152
19.52270363419109	2.5071056	1.5833843
19.540488089876686	2.5009599	1.5814424
19.55827302085503	2.4931338	1.578966
19.576058427592674	2.4951797	1.5796138
19.593844310556282	2.501759	1.581695
19.611630670212598	2.4978604	1.5804621
19.629417507028506	2.512101	1.5849608
19.64720482147098	2.5250323	1.589035
19.6649926140071	2.4864354	1.5768435
19.682780885104084	2.465525	1.570199
19.70056963522921	2.4653566	1.5701454
19.718358864849908	2.472204	1.5723244
19.7361485744337	2.4187193	1.5552232
19.753938764448215	2.3902993	1.5460593
19.771729435361202	2.3783317	1.5421841
19.789520587640506	2.417612	1.5548673
19.807312221754092	2.4409573	1.5623564
19.825104338170043	2.4553354	1.566951
19.842896937356517	2.5130541	1.5852616
19.860690019781824	2.5315735	1.591092
19.87848358591436	2.5107236	1.5845263
19.896277636222635	2.4727492	1.5724977
19.914072171175278	2.486706	1.5769293
19.931867191241015	2.500921	1.5814301
19.94966269688869	2.475035	1.5732244
19.967458688587264	2.4417257	1.5626023
19.985255166805807	2.447507	1.564451
20.00305213201348	2.4479542	1.5645939
20.020849584679578	2.4099033	1.5523863
20.038647525273507	2.4122345	1.553137
20.05644595426477	2.4130304	1.5533931
20.07424487212299	2.4290485	1.5585405
20.092044279317903	2.4284518	1.558349
20.109844176319353	2.4427779	1.5629388
20.127644563597304	2.439698	1.5619533
20.145445441621817	2.4024372	1.5499797
20.16324681086307	2.3535511	1.5341288
20.181048671791373	2.3659596	1.5381676
20.198851024877122	2.380656	1.5429375
20.216653870590836	2.4053514	1.5509195
20.234457209403146	2.3880024	1.5453162
20.252261041784802	2.4173815	1.5547931
20.270065368206662	2.397394	1.548352
20.287870189139685	2.3514037	1.5334288
20.305675505054968	2.3294704	1.5262603
20.323481316423702	2.3659875	1.5381767
20.341287623717207	2.3646781	1.537751
20.359094427406884	2.3600419	1.5362427
20.376901727964288	2.3460555	1.5316839
20.39470952586107	2.345377	1.5314623
20.41251782156899	2.3179054	1.5224669
20.430326615559935	2.3085976	1.519407
20.448135908305886	2.3167403	1.5220842
20.465945700278965	2.3436394	1.530895
20.483755991951384	2.3261898	1.5251851
20.50156678379548	2.3361783	1.5284562
20.519378076283708	2.343925	1.5309882
20.537189869888635	2.3724964	1.540291
20.55500216508294	2.325398	1.5249256
20.572814962339415	2.302972	1.5175546
20.59062826213098	2.2795782	1.5098273
20.60844206493066	2.2916002	1.5138032
20.626256371211593	2.2831292	1.5110027
20.644071181447032	2.3099189	1.5198417
20.66188649611036	2.3176973	1.5223985
20.67970231567506	2.311945	1.5205082
20.697518640614742	2.283904	1.5112591
20.715335471403122	2.3023455	1.5173482
20.73315280851404	2.30975	1.5197862
20.750970652421447	2.2881427	1.5126607
20.768789003599412	2.2599592	1.503316
20.786607862522136	2.2491884	1.4997294
20.8044272296639	2.2595623	1.5031841
20.82224710549913	2.2915823	1.5137973
20.84006749050237	2.2683284	1.5060971
20.857888385148268	3.8375714	1.958972
20.8757097899116	45.926838	6.776934
20.893531705267254	64.7896	8.049198
20.911354131690224	83.778465	9.153058
20.92917706965566	69.00549	8.306954
20.94700051963877	50.077923	7.0765758
20.96482448211493	29.393986	5.4216223
20.982648957559622	4.1379414	2.034193
21.00047394644843	2.2555425	1.5018463
21.01829944925707	2.2543278	1.501442
21.036125466461375	2.2589386	1.5029765
21.053951998537297	2.2621121	1.504032
21.071779045960906	2.2251377	1.4916896
21.089606609208378	2.165802	1.4716665
21.10743468875603	2.1483989	1.4657418
21.12526328508028	2.1670065	1.4720756
21.143092398657675	2.1859698	1.4785025
21.16092202996488	2.1617224	1.4702797
21.17875217947867	2.1474154	1.4654062
21.19658284767596	2.140692	1.4631103
21.21441403503377	2.1696472	1.4729723
21.232245742029225	2.1800845	1.4765109
21.2500779691396	2.2009113	1.4835469
21.26791071684227	2.1820304	1.4771698
21.28574398561475	2.1887085	1.4794284
21.30357777593465	2.1675591	1.4722632
21.321412088279704	2.1741738	1.474508
21.339246923127792	2.1564372	1.4684812
21.357082280956888	2.1153934	1.4544392
21.3749181622451	2.0962622	1.4478475
21.392754567470647	2.1184492	1.4554893
21.41059149711187	2.1465466	1.4651097
21.42842895164726	2.1464503	1.4650769
21.446266931555378	2.1314888	1.4599619
21.464105437314945	2.1121643	1.4533287
21.481944469404798	2.1195388	1.4558636
21.49978402830388	2.103989	1.4505134
21.51762411449127	2.0742733	1.4402338
21.53546472844617	2.1129	1.4535818
21.553305870647876	2.1405506	1.463062
21.571147541575865	2.1511953	1.4666953
21.58898974170967	2.1014147	1.4496257
21.60683247152899	2.093735	1.4469744
21.62467573151363	2.0580823	1.4346018
21.642519522143523	2.06078	1.4355417
21.660363843898722	2.0688806	1.4383603
21.6782086972594	2.07795	1.4415096
21.696054082705864	2.046416	1.43053
21.713900000718535	2.0033467	1.4153963
21.73174645177795	1.9660784	1.4021692
21.749593436364794	1.9765481	1.4058976
21.767440954959845	2.0097666	1.4176624
21.785289008044032	2.036662	1.4271168
21.803137596098388	2.0538392	1.4331222
21.820986719604086	2.0460908	1.4304163
21.838836379042412	2.014016	1.4191602
21.85668657489478	1.9921846	1.4114478
21.87453730764273	2.0032785	1.4153723
21.892388577767914	2.0024128	1.4150664
21.91024038575213	1.9954506	1.4126042
21.928092732077285	1.9836452	1.4084194
21.945945617225426	1.9951547	1.4124994
21.963799041678694	2.0198045	1.4211982
21.981653005919398	31.353516	5.599421
21.999507510429943	78.12135	8.838629
22.01736255569286	73.073135	8.548283
22.035218142190818	4.1792336	2.0443175
22.05307427040661	2.0118377	1.4183927
22.07093094082315	2.011253	1.4181865
22.088788153923474	1.9784867	1.4065869
22.106645910190746	1.9734052	1.4047794
22.12450421010827	1.987081	1.4096386
22.142363054159464	1.9982401	1.4135913
22.16022244282787	1.9578052	1.3992159
22.178082376597164	1.9367633	1.3916764
22.195942855951145	1.9026479	1.379365
22.213803881373742	1.8752471	1.3693966
22.231665453349002	1.8763182	1.3697877
22.24952757236111	1.9197166	1.3855383
22.26739023889438	1.9392767	1.3925792
22.28525345343323	1.9664158	1.4022895
22.30311721646225	1.9657539	1.4020535
22.320981528466113	1.9450052	1.3946344
22.33884638992964	1.9289804	1.3888774
22.356711801337788	1.900174	1.378468
22.37457776317561	1.9285158	1.3887101
22.392444275928337	1.901135	1.3788165
22.410311340081282	1.9089192	1.3816364
22.428178956119904	1.9189789	1.3852721
22.446047124529805	1.9432688	1.3940117
22.46391584579669	1.9415618	1.3933994
22.481785120406414	1.9078337	1.3812436
22.49965494884496	1.8990135	1.378047
22.51752533159841	1.9361957	1.3914725
22.53539626915302	1.9678746	1.4028095
22.553267761995137	1.9723188	1.4043927
22.571139810611264	1.954822	1.3981495
22.589012415488025	1.9345168	1.390869
22.60688557711216	1.9296727	1.3891267
22.624759295970566	1.9464529	1.3951534
22.642633572550263	1.9441729	1.394336
22.660508407338362	1.950707	1.3966771
22.67838380082217	1.9508841	1.3967406
22.696259753489077	1.9543363	1.3979758
22.714136265826614	1.955879	1.3985274
22.73201333832246	1.9493797	1.3962018
22.74989097146439	1.948439	1.395865
22.76776916574035	1.9615384	1.4005493
22.785647921638393	1.9542663	1.3979508
22.803527239646712	1.9599367	1.3999774
22.82140712025363	1.9561008	1.3986068
22.839287563947593	1.9341891	1.3907512
22.85716857121719	1.8791527	1.3708218
22.875050142551135	1.8915632	1.375341
22.892932278438277	1.9196016	1.3854969
22.910814979367604	1.9278183	1.388459
22.928698245828222	1.918069	1.3849437
22.946582078309387	1.9013358	1.3788893
22.96446647730047	1.9212575	1.3860943
22.98235144329098	1.9150497	1.3838532
23.000236976770562	1.9106127	1.3822491
23.018123078229	1.9086499	1.381539
23.03600974815619	1.8961803	1.3770186
23.053896987042194	1.8857177	1.3732144
23.071784795377173	1.9177322	1.3848221
23.08967317365145	1.9424393	1.3937142
23.10756212235546	1.921754	1.3862734
23.125451641979787	1.8907102	1.375031
23.143341733015134	1.9277456	1.3884327
23.161232395952357	1.9312651	1.3896997
23.179123631282426	1.9075491	1.3811405
23.197015439496468	1.8617691	1.3644665
23.214907821085717	1.8690308	1.367125
23.23280077654157	1.8848363	1.3728935
23.250694306355538	1.9110053	1.3823911
23.268588411019277	1.9441417	1.3943248
23.28648309102458	1.9739119	1.4049598
23.304378346863356	1.9527537	1.3974097
23.322274179027676	1.9414306	1.3933523
23.340170588009723	1.9208292	1.3859398
23.358067574301852	1.9495358	1.3962578
23.37596513839651	1.9751762	1.4054096
23.39386328078629	1.9778718	1.4063683
23.411762001963947	1.9358802	1.3913591
23.429661302422353	1.9009945	1.3787656
23.4475611826545	1.8975776	1.3775259
23.46546164315356	1.8905774	1.3749827
23.48336268441279	1.9091083	1.3817048
23.501264306925638	1.941706	1.3934511
23.51916651118564	1.9424834	1.39373
23.537069297686497	1.9252114	1.3875198
23.554972666922037	1.9291363	1.3889335
23.57287661938623	1.9212503	1.3860917
23.59078115557318	1.928061	1.3885463
23.608686275977128	1.8976512	1.3775526
23.62659198109246	1.9090201	1.381673
23.6444982714137	1.9306074	1.389463
23.66240514743549	1.9184301	1.385074
23.68031260965263	1.8791529	1.370822
23.698220658560068	1.8884166	1.3741968
23.716129294652845	1.8984472	1.3778415
23.7340385184262	1.8996408	1.3782746
23.75194833037546	1.9155544	1.3840356
23.769858730996123	1.8875796	1.3738921
23.78776972078382	1.8788961	1.3707284
23.80568130023431	1.8617157	1.364447
23.823593469843495	1.9082444	1.3813922
23.841506230107424	1.9163842	1.3843353
23.859419581522275	1.8893853	1.3745492
23.87733352458438	1.9062028	1.380653
23.89524805979019	1.916165	1.3842561
23.913163187636318	1.913449	1.3832748
23.931078908619508	1.9146833	1.3837209
23.948995223236633	1.9440893	1.3943061
23.966912131984735	1.9829285	1.408165
23.98482963536096	2.0234797	1.4224907
24.002747733862616	2.0540705	1.4332029
24.020666427987155	2.0416157	1.4288512
24.038585718232156	2.0413575	1.4287609
24.056505605095353	2.0081322	1.4170858
24.074426089074617	2.029513	1.4246098
24.092347170667946	2.008029	1.4170494
24.110268850373515	2.0178053	1.4204948
24.128191128689586	2.059908	1.4352379
24.146114006114626	2.0476115	1.4309478
24.164037483147187	2.0222933	1.4220736
24.181961560286005	1.967248	1.4025862
24.199886238029926	1.9649458	1.4017652
24.21781151687797	2.0198336	1.4212085
24.235737397329274	2.0003176	1.4143258
24.253663879883135	2.0158305	1.4197994
24.271590965038975	2.008005	1.417041
24.289518653296376	2.0173297	1.4203273
24.30744694515505	2.0404844	1.4284552
24.32537584111486	2.0413604	1.4287618
24.34330534167581	2.038213	1.42766
24.361235447338046	2.021874	1.4219261
24.379166158601876	1.9913868	1.411165
24.39709747596772	1.967065	1.4025209
24.41502939993615	1.9714179	1.4040719
24.432961931007917	1.9569696	1.3989173
24.450895069683856	1.9373221	1.3918772
24.468828816465	1.953633	1.3977242
24.4867631718525	2.0109417	1.4180768
24.504698136347656	2.0577998	1.4345033
24.52263371045192	2.0418968	1.4289496
24.540569894666874	1.9958298	1.4127384
24.558506689494266	1.9479762	1.3956991
24.57644409543597	1.9360263	1.3914117
24.594382112994012	1.9196128	1.3855009
24.61232074267057	1.926906	1.3881304
24.630259984967953	1.9369549	1.3917452
24.64819984038863	1.9253796	1.3875805
24.66614030943522	1.9292862	1.3889875
24.684081392610462	1.9269185	1.388135
24.702023090417274	1.9310186	1.389611
24.7199654033587	1.9638674	1.4013805
24.737908331937927	1.9999456	1.4141943
24.755851876658305	2.026988	1.4237233
24.773796038023324	2.0474281	1.4308836
24.79174081653661	2.046284	1.4304838
24.809686212701962	2.079469	1.4420364
24.827632227023294	2.048382	1.431217
24.8455788600047	2.0339537	1.4261675
24.8635261121504	2.0610125	1.4356227
24.88147398396475	2.124345	1.4575133
24.899422475952303	2.1345398	1.4610064
24.917371588617698	2.088173	1.4450512
24.935321322465768	2.137479	1.4620119
24.953271678001478	2.2561436	1.5020465
24.97122265572994	2.5317175	1.5911372
24.989174256156414	2.908282	1.7053686
25.00712647978632	3.4128318	1.8473852
25.02507932712521	3.9682922	1.9920573
25.043032798678798	4.475049	2.115431
25.060986894952933	5.170951	2.2739725
25.078941616453637	6.032546	2.4561243
25.096896963687055	7.0381	2.6529417
25.114852937159508	8.183351	2.8606555
25.132809537377444	8.514069	2.9178877
25.150766764847468	8.401096	2.8984644
25.168724620076347	7.590747	2.755131
25.186683103570985	6.442217	2.5381522
25.204642215838426	5.220758	2.2848978
25.222601957385894	3.9050388	1.9761171
25.24056232872074	2.9827669	1.7270689
25.25852333035048	2.4731176	1.5726149
25.276484962782778	2.1701403	1.4731396
25.294447226525435	2.0272117	1.4238018
25.312410122086423	1.9611547	1.4004123
25.330373649973843	1.9510938	1.3968155
25.348337810695988	1.9731119	1.404675
25.366302604761245	1.9821492	1.4078882
25.384268032678207	1.9602058	1.4000735
25.40223409495558	1.9581785	1.3993493
25.420200792102257	1.9428598	1.393865
25.438168124627246	1.8844509	1.372753
25.45613609303974	1.8206997	1.349333
25.474104697849057	1.7963792	1.3402907
25.492073939564698	1.8296478	1.3526447
25.510043818696285	1.8983971	1.3778234
25.528014335753614	1.9007106	1.3786626
25.54598549124664	1.8398724	1.356419
25.56395728568544	1.8196764	1.3489538
25.58192971958028	1.8254405	1.3510886
25.59990279344156	1.8127205	1.3463731
25.617876507779833	1.8340725	1.3542793
25.635850863105826	1.8455696	1.3585174
25.653825859930386	1.8389076	1.3560632
25.671801498764548	1.8258467	1.351239
25.68977778011949	1.8474389	1.3592052
25.707754704506524	1.8574687	1.3628899
25.725732272437153	1.8829068	1.3721905
25.743710484423012	1.8610963	1.36422
25.761689340975888	1.8895303	1.3746018
25.77966884260774	1.8449926	1.3583051
25.797648989830662	1.8094288	1.3451501
25.815629783156922	1.7978817	1.3408511
25.83361122309895	1.8268176	1.3515981
25.85159331016929	1.8402028	1.3565408
25.869576044880695	1.8302559	1.3528695
25.887559427746034	1.8286465	1.3522745
25.90554345927836	1.8493243	1.3598987
25.92352813999086	1.8681419	1.3667998
25.94151347039689	1.843326	1.3576914
25.959499451009965	1.8194352	1.3488644
25.97748608234374	1.8236586	1.350429
25.995473364912062	1.8375895	1.3555772
26.013461299228904	1.8602504	1.36391
26.03144988580839	1.8371794	1.355426
26.04943912516483	1.8114376	1.3458966
26.067429017812675	1.7930408	1.3390447
26.085419564266537	1.8040118	1.3431351
26.103410765041186	1.8056632	1.3437496
26.12140262065155	1.8363181	1.3551081
26.139395131612723	1.8685827	1.3669611
26.157388298439948	1.8613487	1.3643125
26.17538212164861	1.8074349	1.3444088
26.193376601754295	1.7729186	1.3315098
26.211371739272714	1.7641546	1.3282148
26.229367534719746	1.7885072	1.3373508
26.247363988611433	1.7780694	1.3334427
26.26536110146397	1.7753644	1.332428
26.283358873793727	1.7995917	1.3414886
26.301357306117204	1.8446789	1.3581896
26.319356398951104	1.892778	1.3757827
26.33735615281224	1.9345605	1.3908848
26.35535656821762	1.8869262	1.3736544
26.373357645684404	1.8466864	1.3589284
26.39135938572991	1.8366969	1.3552479
26.409361788871614	1.8247402	1.3508295
26.427364855627165	1.791845	1.3385981
26.445368586514352	1.7919817	1.3386492
26.46337298205115	1.8170669	1.3479862
26.48137804275568	1.8599797	1.3638108
26.499383769146217	1.8011874	1.3420832
26.517390161741215	1.7667177	1.3291793
26.53539722105928	1.7840561	1.3356856
26.553404947619182	1.831993	1.3535113
26.571413341939856	1.8147426	1.3471239
26.589422404540397	1.8047991	1.3434281
26.60743213594006	1.8178455	1.348275
26.62544253665827	1.8149123	1.3471868
26.64345360721459	1.8489714	1.3597689
26.66146534812879	1.8885977	1.3742626
26.679477759920758	1.8683939	1.3668921
26.69749084311057	1.8495151	1.3599688
26.71550459821847	1.7997136	1.341534
26.733519025764842	1.8022313	1.3424721
26.751534126270258	1.8324757	1.3536897
26.769549900255434	1.8637235	1.3651826
26.787566348241267	1.848828	1.3597162
26.80558347074881	1.8479558	1.3593954
26.823601268299267	1.8393135	1.356213
26.841619741414036	1.8493334	1.359902
26.85963889061465	1.838473	1.355903
26.877658716422832	1.8028208	1.3426917
26.89567921936045	1.7824343	1.3350784
26.913700399949544	1.8140674	1.3468732
26.93172225871233	1.7868192	1.3367196
26.949744796171174	1.7772683	1.3331423
26.967768012848605	1.7795452	1.3339959
26.98579190926733	1.8113104	1.3458493
27.003816485950225	1.8402628	1.3565629
27.021841743420318	1.866011	1.3660201
27.039867682200814	1.8431813	1.3576381
27.057894302815072	1.7865223	1.3366085
27.07592160578664	1.7586465	1.3261397
27.0939495916392	1.7634057	1.3279328
27.111978260896635	1.7894199	1.337692
27.13000761408296	1.7657056	1.3287985
27.148037651722397	1.7502806	1.3229817
27.166068374339304	1.7640761	1.3281853
27.184099782458215	1.7829044	1.3352544
27.20213187660384	1.8202593	1.3491699
27.22016465730105	1.8539934	1.3616142
27.23819812507487	1.8516858	1.3607666
27.256232280450533	1.8260432	1.3513117
27.274267123953383	1.8339633	1.354239
27.292302656108987	1.8418672	1.3571541
27.31033887744306	1.840735	1.3567369
27.32837578848146	1.8579	1.3630481
27.34641338975026	1.8183986	1.3484801
27.364451681775673	1.7711697	1.330853
27.382490665084074	1.7776041	1.3332682
27.400530340202046	1.8295634	1.3526136
27.41857070765629	1.8197197	1.3489698
27.436611767973726	1.7586396	1.3261371
27.454653521681404	1.698639	1.3033185
27.472695969306564	1.6844285	1.2978554
27.490739111376627	1.7249726	1.3133821
27.508782948419153	1.7798164	1.3340976
27.526827480961902	1.8140582	1.3468698
27.54487270953279	1.8174663	1.3481344
27.562918634659898	1.8373691	1.3554959
27.580965256871508	1.8200876	1.3491062
27.599012576696026	1.801226	1.3420976
27.617060594662068	1.7781161	1.3334602
27.63510931129842	1.7928914	1.3389889
27.65315872713401	1.8086131	1.3448468
27.67120884269797	1.8430482	1.3575891
27.68925965851958	1.8260654	1.3513199
27.707311175128307	1.8644456	1.365447
27.725363393053787	1.9378257	1.392058
27.74341631282583	1.9507611	1.3966964
27.7614699349744	1.9177959	1.3848451
27.77952426002968	1.9882976	1.4100701
27.797579288521973	2.0739577	1.4401242
27.815635020981784	2.4337497	1.560048
27.83369145793979	2.4741306	1.5729369
27.85174859992682	2.3876688	1.5452083
27.869806447473923	2.2468536	1.4989508
27.887865001112267	1.975841	1.4056461
27.905924261373233	1.8953065	1.3767014
27.92398422878836	1.9325463	1.3901606
27.94204490388936	1.9420223	1.3935646
27.96010628720813	1.8777262	1.3703015
27.978168379276728	1.8375686	1.3555695
27.9962311806274	1.8203328	1.349197
28.014294691792568	1.8052969	1.3436134
28.0323589133048	1.8650956	1.365685
28.050423845696887	1.9249088	1.3874108
28.068489489501758	1.9106605	1.3822664
28.086555845252523	1.8686521	1.3669865
28.104622913482487	1.8370657	1.355384
28.122690694725115	1.8559893	1.362347
28.14075918951405	1.9079362	1.3812807
28.15882839838312	1.8994665	1.3782114
28.176898321866304	1.9280127	1.388529
28.1949689604978	1.9460689	1.3950157
28.213040314811945	1.9749179	1.4053177
28.23111238534327	1.9608873	1.4003168
28.249185172626493	1.9328649	1.3902751
28.267258677196473	1.8947123	1.3764855
28.285332899588294	1.9207414	1.3859081
28.303407840337172	1.9389807	1.3924729
28.321483499978545	1.9437164	1.3941723
28.33955987904799	1.9130163	1.3831184
28.357636978081285	1.9103643	1.3821592
28.37571479761439	1.906518	1.3807672
28.393793338183425	1.9088581	1.3816143
28.41187260032469	1.9152482	1.383925
28.429952584574686	1.9234686	1.3868917
28.448033291470065	1.9079847	1.3812982
28.46611472154769	1.9033957	1.379636
28.484196875344566	1.9451241	1.394677
28.502279753397914	1.9513344	1.3969017
28.52036335624511	1.9117112	1.3826464
28.538447684423716	1.9742455	1.4050785
28.556532738471482	2.0247982	1.4229541
28.574618518926325	1.9642276	1.401509
28.59270502632635	1.9398688	1.3927917
28.61079226120985	1.9934114	1.4118823
28.628880224115274	2.012093	1.4184827
28.646968915581287	1.9958372	1.4127411
28.66505833614671	1.9896927	1.4105647
28.68314848635055	2.0213056	1.4217262
28.701239366732004	2.0310159	1.4251372
28.71933097783044	2.0361729	1.4269453
28.737423320185403	2.082728	1.4431659
28.75551639433665	2.0644603	1.436823
28.773610200824074	2.0598724	1.4352256
28.791704740187793	2.07042	1.4388955
28.80980001296809	2.1407177	1.4631191
28.827896019705413	2.1422246	1.463634
28.845992760940433	2.1476889	1.4654995
28.86409023721397	2.1514065	1.4667674
28.88218844906704	2.1455421	1.464767
28.900287397040845	2.1508372	1.4665732
28.918387081676755	2.2088737	1.486228
28.936487503516343	2.2707002	1.5068842
28.954588663101365	2.2873106	1.5123857
28.97269056097374	2.2789786	1.5096287
28.990793197675597	2.330178	1.5264921
29.00889657374923	2.3790398	1.5424136
29.027000689737125	2.3861308	1.5447106
29.04510554618196	2.4111948	1.5528022
29.06321114362659	2.4659424	1.5703319
29.08131748261405	2.4897604	1.5778974
29.099424563687567	2.4526093	1.5660809
29.11753238739057	2.443314	1.5631104
29.13564095426663	2.4527302	1.5661194
29.15375026485954	2.5006092	1.5813315
29.171860319713275	2.6015093	1.6129194
29.18997111937199	2.6946352	1.6415344
29.20808266438002	2.7456923	1.657013
29.226194955281898	2.760449	1.6614599
29.244307992622335	2.7114992	1.6466631
29.26242177694624	2.71226	1.6468941
29.2805363087987	2.7716947	1.6648407
29.29865158872498	2.8800538	1.6970721
29.316767617270557	2.961168	1.7208045
29.334884394981064	2.9604251	1.7205886
29.353001922402367	2.9646506	1.7218161
29.37112020008047	3.092992	1.7586905
29.389239228561596	3.2053058	1.7903368
29.407359008392152	3.3942986	1.8423622
29.42547954011872	3.7594981	1.9389426
29.44360082428809	4.420595	2.1025212
29.46172286144722	5.668766	2.380917
29.479845652143283	7.4554553	2.730468
29.497969196923606	9.727099	3.1188297
29.516093496335728	12.574297	3.5460255
29.5342185509274	15.65834	3.957062
29.55234436124651	17.93665	4.235168
29.570470927841175	19.106508	4.371099
29.588598251259686	18.71739	4.3263597
29.60672633205055	17.162806	4.142802
29.624855170762405	14.434001	3.7992105
29.642984767944146	11.230279	3.3511608
29.66111512414481	8.452185	2.9072642
29.67924623991366	6.254564	2.5009127
29.697378115800138	4.7912116	2.1888835
29.71551075235387	4.0710397	2.0176818
29.733644150124675	3.764061	1.9401188
29.751778309662576	3.6021187	1.8979249
29.769913231517766	3.441006	1.8549949
29.78804891624066	3.3403056	1.8276503
29.806185364381818	3.3288083	1.8245022
29.82432257649206	3.3044946	1.8178269
29.842460553122333	3.3015606	1.8170197
29.86059929482382	3.3493555	1.8301245
29.878738802147872	3.3525662	1.8310014
29.896879075646048	3.3006423	1.816767
29.915020115870114	3.2764003	1.8100829
29.933161923371976	3.2835605	1.8120598
29.951304498703777	3.2875023	1.8131471
29.969447842417857	3.2602046	1.8056036
29.987591955066733	3.2310922	1.7975239
30.005736837203123	3.2041306	1.7900085
30.023882489379943	3.1928604	1.7868577
30.04202891215028	3.1366754	1.7710662
30.060176106067455	3.1122565	1.7641588
30.078324071684946	3.1714394	1.7808535
30.09647280955646	3.289658	1.8137414
30.114622320235863	3.2646089	1.8068229
30.132772604277257	3.1604247	1.7777584
30.1509236622349	3.1358628	1.7708367
30.16907549466328	3.1149952	1.7649349
30.18722810211705	3.0890713	1.7575754
30.205381485151097	3.0109692	1.7352145
30.22353564432045	2.9759188	1.7250851
30.241690580180403	2.9770908	1.7254249
30.25984629328638	2.9629416	1.7213198
30.278002784194037	2.899996	1.7029375
30.296160053459246	2.9595323	1.7203292
30.314318101638033	3.049763	1.7463571
30.332476929286646	3.0377188	1.7429053
30.35063653696153	3.002684	1.7328255
30.368796925219307	2.9735665	1.7244033
30.386958094616844	2.8941655	1.7012247
30.40512004571115	2.887592	1.6992916
30.423282779059463	2.879665	1.6969576
30.441446295219233	2.883433	1.6980674
30.459610594748067	2.8018494	1.6738726
30.47777567820382	2.7619188	1.6619022
30.495941546144504	2.8188055	1.6789298
30.51410819912835	2.8392081	1.6849949
30.532275637713795	2.886988	1.6991138
30.55044386245946	2.932163	1.712356
30.56861287392416	2.8756762	1.6957818
30.586782672666956	2.804326	1.6746122
30.604953259247047	2.7798336	1.6672833
30.623124634223885	2.812027	1.6769099
30.641296798157075	2.77449	1.66568
30.659469751606462	2.7209344	1.6495255
30.677643495132074	2.72591	1.651033
30.695818029294152	2.710855	1.6464674
30.713993354653116	2.6978648	1.6425178
30.73216947176962	2.707348	1.6454021
30.75034638120448	2.7259018	1.6510305
30.768524083518756	2.765288	1.6629156
30.786702579273673	2.746844	1.6573606
30.80488186903069	2.7596328	1.6612142
30.82306195335144	2.9343429	1.7129924
30.841242832797782	3.1488016	1.7744863
30.85942450793176	3.496086	1.8697823
30.877606979315637	3.8982732	1.9744046
30.895790247511883	4.2367125	2.0583277
30.913974313083134	4.6205883	2.1495554
30.932159176592283	4.9444604	2.2236142
30.95034483860237	4.9527793	2.2254841
30.968531299676698	4.709437	2.1701238
30.98671856037873	4.27485	2.067571
31.00490662127215	3.7820535	1.9447502
31.023095482920848	3.3872702	1.8404539
31.04128514588892	3.0307126	1.7408942
31.059475610740662	2.716181	1.648084
31.07766687804056	2.5681393	1.6025416
31.09585894835335	2.4370005	1.5610895
31.11405182224393	2.4361446	1.5608153
31.132245500277417	2.4457626	1.5638934
31.15043998301914	2.4403481	1.5621613
31.168635271034628	2.4190211	1.5553203
31.18683136488964	2.4291291	1.5585663
31.20502826515008	2.3552814	1.5346926
31.223225972382135	2.2880318	1.5126241
31.241424487152155	2.304161	1.5179464
31.259623810026692	2.3662634	1.5382663
31.27782394157253	2.3794842	1.5425577
31.296024882356644	2.3423133	1.5304618
31.314226632946237	2.3248267	1.5247382
31.332429193908684	2.3696432	1.5393646
31.350632565811598	2.4003956	1.549321
31.368836749222787	2.4633224	1.5694975
31.387041744710295	2.519139	1.5871795
31.40524755284232	2.543706	1.5949
31.423454174187317	2.535007	1.5921705
31.441661609313922	2.504422	1.5825366
31.459869858791002	2.5255666	1.5892031
31.478078923187628	2.4778395	1.5741155
31.496288803073064	2.427808	1.5581425
31.514499499016807	2.393609	1.5471293
31.532711011588546	2.3933744	1.5470535
31.550923341358178	2.3464177	1.531802
31.56913648889584	2.3493488	1.5327586
31.587350454771844	2.3479211	1.5322927
31.605565239556732	2.3378065	1.5289887
31.62378084382127	2.3340814	1.52777
31.641997268136382	2.2917688	1.5138589
31.660214513073274	2.2372777	1.4957533
31.67843257920331	2.2380176	1.4960005
31.6966514670981	2.2771728	1.5090305
31.71487117732944	2.2156672	1.4885118
31.733091710469346	2.2381299	1.4960381
31.751313067090052	2.2692702	1.5064096
31.769535247764008	2.330635	1.5266417
31.787758253063878	2.363977	1.537523
31.805982083562526	2.3650634	1.5378762
31.824206739833024	2.306771	1.5188057
31.84243222244869	2.2777574	1.509224
31.860658531983013	2.2866795	1.5121771
31.878885669009737	2.3579693	1.5355681
31.897113634102784	2.2973104	1.5156881
31.91534242783632	2.2612722	1.5037527
31.933572050784694	2.3343053	1.5278434
31.951802503522508	2.3657265	1.5380918
31.970033786624548	2.281385	1.5104254
31.988265900665834	2.165884	1.4716942
32.006498846221575	2.1226745	1.45694
32.02473262386724	2.2314537	1.493805
32.04296723417845	2.2375567	1.4958465
32.0612026777311	2.1712773	1.4735254
32.07943895510129	2.1711893	1.4734956
32.097676066865304	2.177226	1.4755427
32.115914013599685	2.1264074	1.4582206
32.13415279588115	2.1237652	1.4573144
32.152392414286666	2.0977006	1.4483441
32.1706328693934	2.0428405	1.4292797
32.18887416177875	2.061553	1.4358109
32.20711629202032	2.1400764	1.4629
32.225359260695924	2.156284	1.4684291
32.243603068383614	2.1674867	1.4722387
32.26184771566166	2.1310124	1.4597988
32.28009320310852	2.1127532	1.4535313
32.2983395313029	2.0460498	1.430402
32.31658670082372	2.0412505	1.4287233
32.33483471225012	2.0146608	1.4193875
32.35308356616143	2.0133073	1.4189106
32.371333263137245	2.0363166	1.4269956
32.38958380375734	2.064482	1.4368305
32.407835188601744	2.0752804	1.4405833
32.42608741825067	2.0392513	1.4280236
32.444340493284585	2.0069225	1.4166589
32.46259441428416	2.0027459	1.415184
32.48084918183028	2.1278806	1.4587257
32.49910479650405	2.0929403	1.4466999
32.51736125888683	2.0452344	1.4301169
32.53561856956014	2.036517	1.4270658
32.5538767291058	2.0672348	1.4377881
32.572135738105764	2.0693622	1.4385278
32.59039559714228	2.0791814	1.4419367
32.608656306797776	2.0930643	1.4467427
32.62691786765491	2.1451347	1.4646279
32.645180280296586	2.156536	1.4685149
32.663443545305896	2.1140788	1.4539872
32.68170766326619	2.0388722	1.4278908
32.69997263476099	2.0335839	1.4260378
32.7182384603741	1.9813545	1.4076059
32.7365051406895	1.9914616	1.4111916
32.75477267629144	2.0595975	1.4351298
32.77304106776434	2.0629752	1.4363061
32.79131031569289	2.012101	1.4184854
32.809580420661966	1.9957975	1.412727
32.827851383256714	1.9926976	1.4116294
32.84612320406245	2.0117893	1.4183756
32.86439588366476	1.9808192	1.4074157
32.88266942264945	1.9700873	1.403598
32.9009438216025	1.9790585	1.4067901
32.9192190811102	1.9713911	1.4040624
32.937495201758985	2.0219517	1.4219534
32.95577218413556	2.0229027	1.4222878
32.974050028826866	1.9591496	1.3996962
32.992328736420035	1.8595803	1.3636643
33.010608307502444	1.8385892	1.3559458
33.02888874266169	1.9262279	1.3878862
33.047170042485604	1.9804896	1.4072987
33.06545220756225	1.9880596	1.4099857
33.083735238479896	1.9693817	1.4033467
33.10201913582707	1.8763024	1.3697819
33.12030390019248	1.8744714	1.3691133
33.138589532165135	1.878026	1.3704109
33.15687603233419	1.9301307	1.3892914
33.17516340128909	1.9140037	1.3834752
33.19345163961947	1.8528388	1.3611902
33.211740747915215	1.861622	1.3644127
33.23003072676643	1.902629	1.3793582
33.248321576763466	1.8685294	1.3669417
33.266613298496885	1.9117742	1.3826692
33.28490589255747	1.9034892	1.37967
33.30319935953626	1.867199	1.3664548
33.32149370002451	1.8515081	1.3607013
33.339788914613706	1.9147693	1.3837519
33.358085003895575	1.9931588	1.4117928
33.376381968462034	1.9127113	1.383008
33.39467980890529	1.9543558	1.3979827
33.41297852581774	2.0329137	1.4258028
33.43127811979204	1.9628628	1.4010221
33.44957859142105	1.8287755	1.3523222
33.467879941297866	1.8326048	1.3537374
33.486182170015844	1.9276744	1.3884071
33.50448527816853	1.977935	1.4063908
33.522789266349754	1.9199638	1.3856276
33.541094135153514	1.9144771	1.3836464
33.55939988517411	1.9241774	1.3871472
33.57770651700602	1.8395348	1.3562945
33.59601403124398	1.9114059	1.382536
33.61432242848296	1.9609969	1.4003559
33.632631709318154	1.9286891	1.3887725
33.650941874344994	1.867251	1.3664739
33.66925292415916	1.9128503	1.3830583
33.68756485935654	1.9614245	1.4005086
33.70587768053328	1.9540077	1.3978583
33.724191388285746	1.9375594	1.3919624
33.74250598321054	1.9225867	1.3865737
33.760821465904506	1.9919417	1.4113617
33.77913783696474	2.0009992	1.4145668
33.79745509698852	1.9367898	1.391686
33.815773246573414	1.8892089	1.374485
33.8340922863172	1.884679	1.3728361
33.852412216817896	1.8142768	1.3469509
33.87073303867377	1.9173391	1.3846802
33.889054752483304	2.1559474	1.4683145
33.907377358845245	2.209948	1.4865894
33.92570085835853	2.0092325	1.417474
33.94402525162239	1.8298748	1.3527286
33.96235053923627	1.9001157	1.3784468
33.980676721799824	2.0248146	1.4229598
33.999003799912984	2.0144126	1.4193001
34.01733177417592	1.990428	1.4108253
34.03566064518901	1.9641021	1.4014643
34.0539904135529	1.833953	1.3542352
34.07232107986846	1.810185	1.3454311
34.090652644736785	1.8846816	1.3728371
34.108985108759235	1.9245373	1.3872769
34.12731847253742	1.9663165	1.4022541
34.14565273667313	1.9457643	1.3949065
34.16398790176847	1.9852946	1.4090048
34.18232396842574	1.9673551	1.4026244
34.20066093724749	1.9587375	1.399549
34.21899880883651	2.0326648	1.4257156
34.23733758379583	1.9947212	1.412346
34.25567726272874	1.9300817	1.3892738
34.27401784623872	2.008495	1.4172138
34.29235933492957	2.0061724	1.4163941
34.31070172940526	1.9162754	1.384296
34.32904503027003	1.8884746	1.3742177
34.347389238128386	1.8899229	1.3747447
34.36573435358502	1.8230054	1.3501872
34.38408037724492	1.8266864	1.3515496
34.402427309713296	1.8576269	1.3629478
34.42077515159559	1.957258	1.3990203
34.43912390349752	1.9167348	1.3844619
34.45747356602499	1.9030576	1.3795135
34.47582413978423	1.928813	1.3888171
34.49417562538163	1.8951931	1.3766601
34.51252802342388	1.9091812	1.3817313
34.53088133451789	1.9432234	1.3939955
34.54923555927084	2.0031898	1.4153409
34.567590698290104	1.9409752	1.3931888
34.58594675218336	1.9412078	1.3932723
34.6043037215585	2.0083222	1.4171529
34.62266160702365	1.985246	1.4089875
34.641020409187234	2.0858862	1.4442598
34.65938012865785	2.1836863	1.4777302
34.677740766044394	2.1733556	1.4742305
34.69610232195598	2.1718595	1.473723
34.714464797002016	2.05976	1.4351864
34.73282819179208	1.9367907	1.3916863
34.751192506936064	1.8973521	1.377444
34.76955774304408	1.9302733	1.3893428
34.7879239007265	1.9699645	1.4035542
34.80629098059391	1.9621689	1.4007744
34.824658983257194	2.0588305	1.4348625
34.843027909327446	1.9300125	1.3892488
34.86139775941603	1.8143193	1.3469667
34.879768534134534	1.8924941	1.3756795
34.89814023409483	1.8902409	1.3748603
34.91651285990901	1.8916011	1.3753549
34.93488641218944	2.009924	1.4177178
34.95326089154871	1.9245243	1.3872722
34.97163629859967	1.8428327	1.3575097
34.99001263395542	1.8986189	1.3779038
35.00838989822934	1.7506016	1.3231031
35.02676809203499	1.8663865	1.3661575
35.04514721598624	2.19922	1.4829767
35.063527270697215	2.14436	1.4643633
35.081908256782256	1.9776938	1.4063051
35.10029017485597	1.9392103	1.3925554
35.11867302553321	2.1057413	1.4511173
35.137056809429104	2.1597855	1.4696208
35.155441527159006	1.9563954	1.398712
35.173827179338524	1.7803836	1.3343102
35.19221376658354	1.8025727	1.3425993
35.21060128951017	1.8532611	1.3613453
35.2289897487348	1.9895538	1.4105154
35.24737914487405	2.0772898	1.4412806
35.26576947854479	2.0182831	1.4206629
35.28416075036418	1.7258314	1.313709
35.30255296094958	1.6976887	1.3029538
35.32094611091867	1.8045815	1.3433472
35.33934020088932	1.9537956	1.3977823
35.35773523147969	2.0151408	1.4195565
35.3761312033082	1.8973051	1.377427
35.394528116993506	2.108528	1.4520772
35.41292597315452	2.2742357	1.5080569
35.431324772410434	2.058347	1.434694
35.449724515380666	2.0429692	1.4293247
35.46812520268491	2.2412312	1.4970742
35.486526834943106	2.2799826	1.5099611
35.504929412775454	2.3625422	1.5370563
35.52333293680242	2.168253	1.4724989
35.54173740764471	1.703148	1.3050472
35.560142825923286	1.6127808	1.2699531
35.5785491922594	2.2671406	1.5057027
35.59695650727454	2.6824465	1.6378176
35.61536477159042	2.0066895	1.4165767
