0.008763373481513119	0.051685803	0.22734512
0.026290120649546365	0.18429624	0.4292974
0.043816868432600686	0.12367553	0.35167533
0.06134361724069026	0.08536854	0.29217896
0.07887036748382949	0.01998222	0.14135848
0.0963971195720331	0.0	0.0
0.11392387391531617	0.070066296	0.26470038
0.1314506309236943	0.08367529	0.28926682
0.1489773910071836	0.11941903	0.3455706
0.16650415457580078	0.10237891	0.31996706
0.18403092203956356	0.13133617	0.36240333
0.20155769380849	0.18755911	0.43308094
0.2190844702925996	0.16761771	0.40941143
0.2366112519019124	0.15277283	0.39086166
0.2541380390464497	0.16712983	0.40881515
0.27166483213623416	0.1506212	0.3880995
0.28919163158128947	0.19536567	0.44200188
0.3067184377916406	0.16779831	0.4096319
0.324245251177314	0.19204131	0.43822518
0.34177207214833777	0.24668379	0.49667272
0.3592989011147415	0.20118743	0.44853923
0.37682573848655654	0.21340857	0.46196166
0.39435258467381573	0.17617358	0.41973037
0.41187944008655414	0.12534437	0.35404006
0.42940630513480854	0.10843514	0.32929492
0.446933180228618	0.09440004	0.3072459
0.4644600657780234	0.10954971	0.33098295
0.48198696219306775	0.14847699	0.38532713
0.49951386988379676	0.20351386	0.45112512
0.5170407892602581	0.22438739	0.47369546
0.5345677207325025	0.20246221	0.449958
0.5520946647105822	0.1732634	0.41624922
0.5696216216045534	0.14599806	0.38209692
0.5871485918244737	0.15226114	0.39020655
0.6046755757804043	0.15887092	0.39858615
0.6222025738824094	0.14575613	0.3817802
0.6397295865405557	0.12999061	0.3605421
0.6572566141649129	0.13486524	0.36724004
0.6747836571655547	0.1709462	0.4134564
0.6923107159525568	0.16826217	0.4101977
0.7098377909359992	0.13580342	0.36851516
0.7273648825259653	0.13991868	0.37405705
0.7448919911325411	0.12753206	0.3571163
0.762419117165817	0.1347454	0.36707684
0.7799462610358868	0.13543272	0.36801186
0.7974734231528482	0.14096954	0.3754591
0.8150006039268024	0.15329581	0.3915301
0.8325278037678551	0.18225437	0.4269126
0.8500550230861152	0.19044895	0.4364046
0.8675822622916969	0.19045214	0.43640822
0.8851095217947171	0.2100321	0.4582926
0.9026368020052984	0.23079315	0.48040935
0.9201641033335665	0.23434663	0.4840936
0.9376914261896523	0.22634844	0.4757609
0.9552187709836915	0.1979374	0.44490156
0.9727461381258234	0.2044987	0.4522153
0.990273528026193	0.2127802	0.46128106
1.0078009410949496	0.21770673	0.46659052
1.0253283777422473	0.24358387	0.49354216
1.0428558383782454	0.26514453	0.51492184
1.0603833234131086	0.26798594	0.5176736
1.0779108332570058	0.32064855	0.5662584
1.0954383683201119	0.30626228	0.5534097
1.112965929012607	0.3669196	0.6057389
1.1304935157446763	0.48604214	0.6971672
1.1480211289265108	0.55828947	0.74718773
1.1655487689683062	1.4000784	1.1832491
1.1830764362802655	1.7029066	1.3049546
1.200604131272596	2.1224234	1.456854
1.2181318543555117	2.4853299	1.5764929
1.235659605939232	2.4663064	1.5704478
1.253187386433982	3.7296789	1.9312377
1.270715196249994	5.7559667	2.3991597
1.2882430357975057	11.06732	3.3267581
1.3057709054867608	15.930681	3.9913259
1.3232988057280106	22.005655	4.6910186
1.3408267369315112	27.094944	5.2052803
1.358354699507526	30.803484	5.550089
1.3758826938663256	34.992374	5.9154353
1.3934107204181858	37.147995	6.0949154
1.410938779573391	37.718685	6.141554
1.4284668717422309	38.120632	6.174191
1.4459949973350033	37.82683	6.150352
1.4635231567620117	37.692314	6.1394067
1.4810513504335687	36.8027	6.066523
1.4985795787599925	35.94869	5.9957223
1.5161078421516088	35.03133	5.918727
1.5336361410187505	34.33307	5.8594427
1.5511644757717598	34.250774	5.852416
1.5686928468209842	34.914806	5.908875
1.58622125457678	35.412556	5.950845
1.6037496994495108	36.21369	6.0177813
1.621278181849548	36.06601	6.0054984
1.6388067021872719	36.598385	6.0496597
1.6563352608730693	36.231667	6.0192747
1.673863858317336	35.583305	5.965174
1.6913924949304753	35.02706	5.9183664
1.7089211711228998	33.913845	5.8235593
1.7264498873050296	32.653866	5.714356
1.7439786438872935	31.824091	5.6412845
1.7615074412801288	31.22688	5.5881014
1.779036279893981	31.007639	5.5684505
1.796565160139305	30.332531	5.507498
1.814094082426564	29.330364	5.4157515
1.8316230471662298	28.480928	5.3367524
1.849152054768784	27.66548	5.2597985
1.8666811056447168	26.806507	5.1775002
1.8842102002045273	26.037588	5.102704
1.901739338858724	25.45635	5.0454288
1.9192685220178245	25.098421	5.0098324
1.9367977500923557	24.734398	4.9733686
1.9543270234928547	24.47479	4.9472003
1.971856342629867	23.589306	4.856882
1.9893857079139496	23.141787	4.810591
2.006915119755667	22.508816	4.7443457
2.0244445785655945	21.93611	4.6836
2.0419740847543175	21.315601	4.6168823
2.0595036387324317	20.745226	4.5546927
2.0770332409105414	20.198196	4.4942403
2.094562891699263	19.85308	4.4556794
2.1120925915092217	19.365871	4.400667
2.129622340751053	19.317898	4.395213
2.1471521398354043	187.51534	13.693624
2.1646819891729323	444.07803	21.073158
2.182211889174303	440.28632	20.983
2.1997418402501974	452.80246	21.279156
2.2172718428113023	432.6423	20.800055
2.234801897268317	320.72656	17.90884
2.2523320040319548	17.12137	4.137798
2.269862163512935	16.66035	4.0817094
2.287392376121992	16.35835	4.0445457
2.304922642269869	16.083244	4.010392
2.322452962367322	15.831085	3.9788296
2.3399833368251164	15.344136	3.9171593
2.357513766054032	15.054797	3.8800511
2.3750442504648586	14.692926	3.8331354
2.3925747904683963	14.50523	3.8085732
2.410105386475459	14.33646	3.786352
2.4276360388968707	14.013623	3.7434773
2.445166748143469	13.943458	3.734094
2.4626975146261025	13.5942745	3.6870415
2.4802283387556323	13.534782	3.6789649
2.4977592209429305	13.075839	3.6160529
2.5152901615988825	12.706415	3.564606
2.5328211611343865	12.2724285	3.5032027
2.5503522199603523	11.983215	3.461678
2.5678833384877024	11.86787	3.4449775
2.5854145171273712	11.736839	3.4259071
2.6029457562903064	11.539763	3.3970227
2.620477056387469	11.483119	3.3886752
2.6380084178298326	11.329258	3.3658962
2.655539841028383	11.235042	3.3518713
2.673071326394119	11.095286	3.3309588
2.6906028743380523	11.001796	3.3168955
2.708134485271211	10.881516	3.2987144
2.7256661596046325	10.708754	3.2724233
2.743197897749369	10.373834	3.2208436
2.760729700116486	10.170814	3.1891713
2.778261567117063	9.948147	3.1540682
2.795793499162193	9.86645	3.1410906
2.8133254966629817	9.834851	3.1360567
2.830857560030551	9.894432	3.1455417
2.8483896896760337	9.762609	3.1245174
2.865921886010578	9.490402	3.0806496
2.883454149445347	9.210259	3.0348408
2.9009864803915177	9.010034	3.0016718
2.91851887926028	8.879952	2.979925
2.9360513464628384	8.773723	2.962047
2.953583882410413	8.621155	2.9361804
2.9711164875142373	8.503356	2.9160514
2.9886491621855606	8.3999195	2.8982615
3.0061819068356455	8.32731	2.8857079
3.023714721875769	8.417049	2.901215
3.041247607717225	8.271129	2.875957
3.0587805647713213	8.17108	2.85851
3.0763135934493806	7.997659	2.8280132
3.0938466941627407	7.8642316	2.8043237
3.1113798673227544	7.791275	2.7912855
3.1289131133407904	7.6674485	2.7690158
3.1464464326282315	7.658272	2.7673583
3.1639798255964786	7.547816	2.7473288
3.1815132926569443	7.4831305	2.735531
3.1990468342210603	7.3361297	2.708529
3.216580450700272	7.170379	2.6777563
3.2341141425060416	7.0700574	2.658958
3.251647910049847	7.054803	2.6560879
3.2691817537431813	7.0225554	2.6500103
3.286715673997555	7.029596	2.6513386
3.3042496712244938	6.9737244	2.640781
3.32178374583554	6.8973217	2.6262753
3.339317898242251	6.9104433	2.6287723
3.3568521288562034	6.852709	2.6177678
3.3743864380889876	6.7288494	2.5940025
3.3919208263522127	6.565263	2.5622768
3.4094552940575023	6.4194865	2.5336707
3.4269898416164972	6.3998065	2.529784
3.444524469440858	6.2475185	2.4995036
3.4620591779422587	6.1988835	2.4897556
3.479593967532391	6.1111183	2.4720676
3.4971288386229658	6.100243	2.469867
3.5146637916257086	6.240375	2.4980743
3.5321988269523628	6.257564	2.5015123
3.5497339450146903	6.205281	2.49104
3.5672691462244708	6.1272464	2.4753275
3.5848044309934988	6.1200275	2.4738688
3.60233979973359	6.1128078	2.4724092
3.619875252856575	6.0462713	2.4589167
3.6374107907743034	5.9715514	2.4436758
3.6549464138986427	6.049562	2.4595857
3.6724821226414788	6.1569834	2.481327
3.690017917414714	6.1316714	2.476221
3.7075537986302702	6.068955	2.4635248
3.7250897667000857	6.0929365	2.4683874
3.7426258220361235	6.4216156	2.5340908
3.7601619650503553	6.807325	2.609085
3.777698196154779	7.3500686	2.711101
3.7952345157614067	8.231133	2.8689952
3.8127709242822716	9.034382	3.005725
3.830307422129425	11.271113	3.3572478
3.847844009714936	30.202085	5.495642
3.8653806874508954	97.77108	9.887926
3.882917455749409	96.89445	9.843497
3.900454315022606	96.53251	9.825096
3.917991265682631	40.9877	6.402164
3.9355283081416506	10.561778	3.249889
3.9530654428118495	8.554571	2.92482
3.970602670105433	7.3868737	2.7178805
3.9881399904346244	6.5527835	2.5598404
4.005677404211669	6.417152	2.5332098
4.023214911848827	6.3628473	2.5224686
4.0407525137583855	6.3948603	2.5288062
4.058290210352644	6.4001393	2.5298498
4.075828002043927	6.236624	2.4973233
4.0933658892445814	6.0893273	2.4676561
4.110903872366966	6.045627	2.4587858
4.128441951823468	6.038696	2.4573758
4.145980128026488	6.0756903	2.4648914
4.163518401388452	6.122517	2.4743721
4.181056772321807	6.1661496	2.4831734
4.1985952412390155	6.103535	2.4705334
4.216133808552567	6.1360517	2.4771056
4.233672474674966	6.2263956	2.4952745
4.251211240018741	6.4680533	2.5432367
4.268750104996445	6.7001967	2.5884738
4.286289070020643	7.5546246	2.7485678
4.303828135503928	9.1335535	3.022177
4.3213673018589125	29.37055	5.4194603
4.3389065694982305	90.49295	9.512778
4.356445938834537	165.60313	12.868689
4.3739854102805085	170.80533	13.069251
4.391524984248844	171.7223	13.104286
4.409064661152262	135.87222	11.6564245
4.426604441403504	96.38817	9.817748
4.444144325415337	75.54141	8.691456
4.461684313600543	21.308416	4.616104
4.47922440637193	21.684443	4.656656
4.496764604142329	19.904177	4.4614096
4.5143049073245916	18.103525	4.2548237
4.531845316331589	15.950532	3.9938116
4.5493858315762195	13.106086	3.6202328
4.566926453471405	10.981893	3.3138938
4.584467182430081	8.967526	2.994583
4.602008018865218	7.890304	2.8089685
4.619548963189798	7.2113614	2.6853979
4.637090015816834	6.7926893	2.606279
4.654631177159353	6.6107545	2.5711389
4.672172447630417	6.429656	2.5356767
4.689713827643102	6.2194715	2.4938867
4.7072553176105085	5.957256	2.440749
4.724796917945764	5.8216434	2.4128082
4.742338629062015	5.7352424	2.3948367
4.759880451372434	5.7298245	2.3937051
4.777422385290215	5.667043	2.3805552
4.794964431228581	5.5703354	2.3601558
4.812506589600768	5.487811	2.3426077
4.830048860820047	5.4091053	2.3257484
4.847591245299709	5.368177	2.3169327
4.8651337434530655	5.3655643	2.3163688
4.882676355693457	5.3385053	2.3105206
4.900219082434242	5.3880973	2.3212276
4.917761924088813	5.353492	2.3137615
4.935304881070575	5.3452153	2.3119721
4.952847953792969	5.2835574	2.298599
4.970391142669449	5.261644	2.2938273
4.9879344481135055	5.324175	2.3074174
5.005477870538642	5.394524	2.3226116
5.023021410358394	5.3690395	2.317119
5.040565067986324	5.3200245	2.3065178
5.05810884383601	5.395464	2.3228137
5.075652738321066	5.4248743	2.329136
5.09319675185512	5.393191	2.3223245
5.110740884851836	5.4370775	2.3317542
5.128285137724894	5.463738	2.337464
5.145829510888007	5.4810667	2.341168
5.163374004754908	5.3789067	2.319247
5.1809186197393595	5.277737	2.2973325
5.198463356255145	5.232236	2.287408
5.216008214716077	5.243045	2.2897696
5.233553195535998	5.2855024	2.299022
5.251098299128764	5.2477794	2.2908032
5.268643525908272	5.191598	2.278508
5.286188876288432	5.0800695	2.253901
5.3037343506831895	5.0155206	2.2395358
5.32127994950651	4.968547	2.2290237
5.3388256731723915	4.9986567	2.2357676
5.356371522094851	5.054629	2.2482502
5.373917496687938	5.1107965	2.2607071
5.391463597365729	5.147609	2.2688344
5.40900982454232	5.1477275	2.2688603
5.426556178631843	5.155084	2.270481
5.444102660048449	5.1233435	2.2634804
5.4616492692063225	5.221408	2.28504
5.479196006519669	5.2422757	2.2896016
5.496742872402727	5.190399	2.2782447
5.514289867269756	5.122795	2.2633593
5.531836991535049	4.9924765	2.234385
5.549384245612924	4.9571905	2.226475
5.566931629917724	4.9568806	2.2264054
5.584479144863822	4.952389	2.2253964
5.6020267908656205	5.039014	2.2447748
5.619574568337545	4.98984	2.233795
5.637122477694054	4.982898	2.2322407
5.654670519349629	4.9692845	2.2291892
5.672218693718784	5.048695	2.2469301
5.689767001216059	5.0625253	2.2500057
5.707315442256021	5.0535145	2.2480023
5.724864017253266	5.0177503	2.2400336
5.7424127266224225	5.043941	2.245872
5.75996157077814	5.121418	2.263055
5.777510550135105	5.1689506	2.2735326
5.795059665108022	5.203115	2.2810338
5.812608916111639	5.16127	2.271843
5.830158303560715	5.248733	2.2910113
5.847707827870055	5.267513	2.2951062
5.86525748945448	5.3112	2.304604
5.8828072887288485	5.3743286	2.3182597
5.900357226108044	5.5111837	2.3475912
5.917907302006979	5.5619445	2.3583775
5.9354575168406	6.155538	2.4810357
5.9530078710238765	6.795193	2.606759
5.970558364971812	7.396037	2.7195656
5.988108999099438	7.745454	2.7830656
6.005659773821818	8.197456	2.86312
6.023210689554039	7.864569	2.804384
6.040761746711227	8.285437	2.8784435
6.058312945708531	7.6502466	2.765908
6.075864286961132	7.182413	2.6800025
6.093415770884244	6.5652094	2.5622663
6.1109673978931065	6.1071258	2.47126
6.128519168402993	5.5391955	2.3535495
6.146071082829204	5.445046	2.3334622
6.163623141587075	5.186433	2.277374
6.181175345091969	5.1075335	2.2599852
6.198727693759281	5.098995	2.2580955
6.216280188004435	5.125303	2.2639132
6.233832828242885	5.153431	2.270117
6.251385614890126	5.095266	2.2572696
6.268938548361669	5.045729	2.24627
6.286491629073067	5.03588	2.2440767
6.304044857439898	5.0461464	2.246363
6.321598233877777	4.9420977	2.223083
6.339151758802344	4.8961506	2.2127247
6.356705432629277	4.8787804	2.208796
6.37425925577428	4.926928	2.2196684
6.391813228653095	4.95103	2.225091
6.409367351681486	4.9398413	2.2225754
6.426921625275259	4.8773603	2.2084746
6.44447604985025	4.871903	2.2072387
6.46203062582232	4.8854513	2.2103057
6.47958535360737	4.878274	2.2086816
6.497140233621328	4.8650866	2.2056942
6.514695266280161	4.915306	2.217049
6.532250451999859	4.968216	2.2289495
6.549805791196454	4.990245	2.2338855
6.567361284286002	4.971328	2.2296474
6.584916931684597	4.956974	2.2264264
6.602472733808367	4.9529204	2.2255158
6.6200286910734665	4.9334736	2.2211423
6.637584803896092	4.9538527	2.2257252
6.655141072692462	4.967841	2.2288654
6.672697497878842	4.9925904	2.2344105
6.690254079871514	4.918977	2.2178767
6.707810819086808	4.9030366	2.2142801
6.725367715941078	4.8232126	2.1961813
6.742924770850719	4.8139615	2.1940742
6.760481984232151	4.8365445	2.1992145
6.778039356501836	4.8529468	2.2029405
6.795596888076266	4.833683	2.1985638
6.813154579371963	4.7969284	2.1901891
6.830712430805492	4.759765	2.1816885
6.84827044279344	4.845403	2.2012277
6.865828615752445	4.924744	2.2191765
6.883386950099159	4.98093	2.2317996
6.900945446250287	5.0016904	2.236446
6.918504104622553	4.8681097	2.2063794
6.936062925632727	4.9066615	2.2150986
6.953621909697607	4.918587	2.2177887
6.971181057234028	5.0067225	2.2375708
6.988740368658859	5.0496526	2.2471433
7.006299844389007	5.1091557	2.260344
7.023859484841407	5.124977	2.2638412
7.041419290433036	5.1385446	2.2668357
7.058979261580902	5.237102	2.2884715
7.0765393987020495	5.5069084	2.3466804
7.094099702213559	5.896963	2.4283664
7.111660172532549	6.214998	2.4929898
7.129220810076164	6.533267	2.5560257
7.146781615261595	7.04492	2.6542268
7.16434258850606	7.2839446	2.6988783
7.181903730226821	7.6273594	2.7617674
7.1994650408411704	7.79034	2.7911181
7.217026520766437	7.981993	2.825242
7.234588170419983	8.205981	2.8646083
7.252149990219215	8.186942	2.8612833
7.269711980581568	8.099073	2.8458872
7.2872741419245175	8.040565	2.835589
7.304836474665574	7.702266	2.7752957
7.322398979222286	7.424711	2.7248323
7.339961656012233	7.109499	2.6663644
7.357524505453039	6.7366467	2.595505
7.375087527962357	6.4657803	2.54279
7.392650723957886	6.208881	2.4917626
7.410214093857353	5.905801	2.4301853
7.427777638078528	5.652462	2.3774908
7.445341357039213	5.4590783	2.336467
7.4629052511572525	5.2736454	2.2964418
7.480469320850524	5.210417	2.2826338
7.498033566536948	5.162365	2.2720838
7.5155979886344735	5.146682	2.26863
7.5331625875610975	5.104918	2.2594066
7.550727363734844	5.1009164	2.2585208
7.568292317573788	5.098996	2.2580957
7.585857449496025	5.0821466	2.2543616
7.603422759919705	5.095706	2.2573671
7.620988249263007	5.1083074	2.2601564
7.638553917944147	5.102318	2.258831
7.656119766381391	5.0811934	2.2541504
7.673685794993023	5.114962	2.2616282
7.691252004197388	5.197619	2.2798288
7.70881839441285	5.243095	2.2897806
7.726384966057826	5.2353477	2.2880883
7.743951719550762	5.1782966	2.275587
7.761518655310149	5.1677723	2.2732735
7.779085773754511	5.176954	2.275292
7.796653075302419	5.1440606	2.268052
7.814220560372475	5.223879	2.2855806
7.831788229383323	5.183191	2.276662
7.8493560827536495	5.2751455	2.2967684
7.866924120902174	5.292788	2.300606
7.884492344247663	5.2995815	2.302082
7.9020607532089135	5.3366146	2.3101113
7.919629348204771	5.3060627	2.3034892
7.937198129654115	5.326946	2.3080177
7.954767097975865	5.3151374	2.305458
7.972336253588986	5.377645	2.318975
7.989905596912472	5.370565	2.317448
8.007475128365371	5.3069024	2.3036716
8.025044848366756	5.2688584	2.2953994
8.042614757335754	5.3905773	2.3217616
8.060184855691523	5.4839125	2.3417754
8.07775514385327	5.6236453	2.3714225
8.095325622240228	5.672211	2.3816404
8.112896291271687	5.663773	2.3798683
8.130467151366968	5.748737	2.3976524
8.148038202945436	5.7406287	2.3959608
8.165609446426497	5.8017926	2.4086912
8.183180882229594	5.826946	2.4139068
8.200752510774217	5.8438215	2.4173996
8.218324332479893	5.9159307	2.4322686
8.235896347766193	5.9254527	2.4342253
8.253468557052724	5.9882607	2.4470923
8.27104096075914	5.9514	2.4395492
8.288613559305137	5.9953713	2.4485447
8.306186353110448	6.0302396	2.4556546
8.32375934259485	6.0768003	2.4651167
8.341332528178162	6.05798	2.4612963
8.358905910280246	6.049851	2.4596446
8.376479489321003	6.048974	2.4594662
8.394053265720377	6.1973786	2.4894536
8.411627239898356	6.207361	2.4914577
8.42920141227497	6.1877227	2.4875133
8.44677578327029	6.101228	2.4700665
8.464350353304427	6.0562816	2.4609513
8.48192512279754	6.0593624	2.4615772
8.499500092169827	6.0390124	2.4574401
8.51707526184153	6.060562	2.4618208
8.534650632232934	6.084881	2.4667552
8.552226203764365	6.13605	2.4771051
8.569801976856192	6.161442	2.4822252
8.587377951928834	6.15102	2.480125
8.60495412940274	6.166743	2.4832928
8.622530509698416	6.2360168	2.4972017
8.6401070932364	6.346118	2.5191503
8.657683880437283	6.422729	2.5343103
8.675260871721695	6.5479455	2.5588953
8.692838067510303	6.6676774	2.5821846
8.710415468223834	6.850733	2.6173904
8.727993074283043	6.8974624	2.626302
8.745570886108737	6.900037	2.6267922
8.763148904121765	6.955471	2.6373227
8.78072712874302	7.0167623	2.6489172
8.798305560393441	7.273544	2.696951
8.815884199494006	7.4082136	2.7218034
8.833463046465745	7.5794153	2.7530737
8.851042101729728	7.7955856	2.7920575
8.86862136570707	8.1194935	2.8494725
8.886200838818924	8.289696	2.879183
8.903780521486505	8.3411	2.8880963
8.921360414131055	8.446523	2.9062903
8.938940517173874	8.558274	2.925453
8.956520831036297	8.699188	2.9494386
8.97410135613971	8.938415	2.9897182
8.99168209290554	9.076991	3.0128045
9.009263041755265	9.383742	3.0632894
9.026844203110405	9.640151	3.1048594
9.044425577392525	9.859051	3.1399126
9.062007165023239	10.002889	3.1627343
9.079588966424197	10.1976795	3.1933806
9.097170982017108	10.207012	3.1948414
9.11475321222372	11.143599	3.338203
9.132335657465825	12.007445	3.465176
9.149918318165264	12.125711	3.4821992
9.167501194743924	12.740523	3.569387
9.18508428762374	12.441144	3.5272007
9.202667597226693	12.412606	3.5231528
9.220251123974803	12.055351	3.4720817
9.237834868290143	11.7146	3.4226596
9.255418830594836	11.546301	3.3979847
9.273003011311046	11.010976	3.318279
9.290587410860985	10.755805	3.2796044
9.308172029666911	10.1147785	3.180374
9.32575686815113	9.880787	3.1433718
9.343341926735997	8.557021	2.9252386
9.360927205843916	8.330605	2.8862786
9.378512705897327	8.133048	2.85185
9.396098427318728	7.9620514	2.8217108
9.413684370530664	7.92985	2.815999
9.431270535955722	7.859346	2.8034525
9.448856924016539	7.7708497	2.7876244
9.466443535135806	7.612006	2.7589865
9.484030369736251	7.5995474	2.7567277
9.501617428240658	7.604791	2.7576785
9.519204711071852	7.6261	2.7615395
9.536792218652714	7.540504	2.745998
9.55437995140617	7.5699654	2.751357
9.571967909755191	7.618298	2.7601264
9.589556094122802	7.720194	2.7785237
9.60714450493207	7.7574725	2.785224
9.624733142606116	7.7830935	2.7898197
9.642322007568108	7.802844	2.7933571
9.659911100241267	7.8450284	2.8008978
9.677500421048851	7.8519893	2.8021402
9.695089970414175	7.9373	2.8173215
9.712679748760609	8.005275	2.8293595
9.730269756511557	8.114011	2.8485103
9.747859994090492	8.118645	2.8493235
9.765450461920915	8.205437	2.8645134
9.78304116042639	8.256718	2.8734505
9.800632090030527	8.335434	2.8871152
9.81822325115699	8.363577	2.891985
9.835814644229481	8.2886	2.8789928
9.853406269671762	8.195624	2.8628001
9.870998127907646	8.143392	2.8536627
9.888590219360985	8.17221	2.8587077
9.906182544455698	8.222744	2.8675327
9.923775103615734	8.181839	2.8603914
9.941367897265108	8.171564	2.858595
9.958960925827878	8.102591	2.846505
9.97655418972816	8.115157	2.8487115
9.994147689390106	8.182003	2.86042
10.011741425237934	8.221156	2.867256
10.029335397695904	8.190331	2.8618755
10.04692960718833	8.134426	2.8520916
10.06452405413958	8.066773	2.8402066
10.082118738974064	8.043356	2.836081
10.099713662116246	8.030677	2.833845
10.117308823990651	8.027036	2.8332024
10.134904225021844	8.003982	2.829131
10.152499865634445	8.024079	2.8326807
10.170095746253125	8.000077	2.8284407
10.18769186730261	8.016823	2.8313994
10.205288229207675	7.9772477	2.824402
10.222884832393145	7.997109	2.827916
10.2404816772839	7.984836	2.8257453
10.258078764304868	7.9350743	2.8169265
10.275676093881035	7.8266478	2.7976146
10.293273666437438	7.860049	2.803578
10.310871482399158	7.957781	2.8209538
10.32846954219134	7.9959393	2.8277092
10.346067846239173	8.091035	2.8444746
10.363666394967908	8.050922	2.8374147
10.38126518880283	8.072786	2.841265
10.398864228169298	8.06942	2.8406725
10.416463513492713	8.0491705	2.837106
10.434063045198531	7.9838147	2.8255644
10.451662823712262	7.944986	2.818685
10.469262849459467	8.04204	2.835849
10.486863122865758	8.060603	2.8391201
10.504463644356806	8.003786	2.8290963
10.522064414358338	7.943736	2.8184633
10.539665433296118	7.8467836	2.801211
10.557266701595987	7.808548	2.7943778
10.574868219683818	7.683175	2.7718542
10.592469987985552	7.600138	2.7568347
10.610072006927185	7.5209513	2.7424352
10.627674276934751	7.4644313	2.7321112
10.64527679843435	7.3655367	2.7139523
10.662879571852143	7.2299676	2.68886
10.680482597614331	7.078165	2.6604822
10.698085876147173	6.906646	2.6280499
10.715689407876988	6.8051386	2.608666
10.733293193230146	6.7435703	2.5968385
10.750897232633072	6.700007	2.588437
10.76850152651225	6.624171	2.5737464
10.786106075294207	6.5041103	2.5503156
10.803710879405534	6.425365	2.5348303
10.821315939272877	6.3699417	2.5238743
10.83892125532294	6.3200326	2.5139675
10.856526827982472	6.19378	2.4887307
10.874132657678285	6.089312	2.467653
10.891738744837243	6.0085716	2.4512389
10.909345089886271	5.9608216	2.4414794
10.926951693252343	5.9402328	2.4372592
10.944558555362494	5.852313	2.4191554
10.96216567664381	5.7705555	2.402198
10.979773057523436	5.7009926	2.387675
10.997380698428573	5.673872	2.381989
11.014988599786477	5.6375146	2.374345
11.032596762024461	5.5503325	2.3559144
11.050205185569892	5.4800525	2.3409512
11.067813870850198	5.4805303	2.3410532
11.085422818292859	5.46201	2.3370943
11.10303202832541	5.390136	2.3216665
11.120641501375454	5.3576684	2.314664
11.138251237870636	5.331931	2.3090975
11.155861238238671	5.247835	2.2908154
11.173471502907317	5.1065416	2.2597659
11.191082032304402	5.064937	2.2505414
11.208692826857805	5.036033	2.2441108
11.226303886995465	5.0329533	2.2434244
11.243915213145371	4.990151	2.2338645
11.261526805735578	4.946358	2.224041
11.279138665194196	4.922914	2.218764
11.296750791949393	4.8660345	2.205909
11.314363186429393	4.78029	2.1863875
11.331975849062479	4.692499	2.1662178
11.34958878027699	4.606527	2.1462822
11.36720198050133	4.545502	2.1320183
11.384815450163948	4.515332	2.124931
11.402429189693366	4.4802265	2.1166546
11.420043199518153	4.409403	2.0998578
11.437657480066942	63.354137	7.9595313
11.455272031768422	85.1055	9.225265
11.472886855051353	107.51795	10.369086
11.490501950344528	99.125336	9.956171
11.508117318076819	84.46197	9.190319
11.52573295867715	45.850803	6.7713223
11.543348872574514	4.1442757	2.0357494
11.560965060197946	4.0787544	2.0195925
11.57858152197655	4.05721	2.0142517
11.59619825833949	4.0042157	2.0010536
11.613815269715985	4.005178	2.0012941
11.631432556535323	38.480545	6.203269
11.649050119226837	83.018456	9.111446
11.666667958219929	93.38418	9.663548
11.68428607394406	107.62793	10.374388
11.701904466828756	82.41706	9.078384
11.719523137303586	65.26166	8.078468
11.737142085798196	4.4871616	2.118292
11.754761312742286	3.6326368	1.9059477
11.772380818565619	3.613151	1.9008291
11.790000603698015	3.618537	1.9022453
11.80762066856935	3.5577788	1.8862076
11.825241013609572	3.532764	1.8795649
11.842861639248683	3.4941504	1.8692647
11.860482545916748	3.4637496	1.8611152
11.878103734043883	3.4546297	1.8586634
11.895725204060282	3.3875256	1.8405231
11.91334695639619	3.356384	1.8320436
11.930968991481919	3.3171341	1.8213001
11.948591309747824	3.2776682	1.8104331
11.966213911624347	3.2542064	1.803942
11.98383679754198	3.2289207	1.7969198
12.001459967931268	3.1928902	1.7868661
12.019083423222835	3.1864846	1.7850727
12.036707163847352	3.182303	1.7839011
12.05433119023556	3.1727886	1.7812324
12.071955502818259	3.1313746	1.769569
12.089580102026313	3.0953038	1.7593476
12.107204988290643	3.0868878	1.7569542
12.12483016204224	3.1041682	1.761865
12.142455623712152	3.110923	1.763781
12.16008137373149	3.0783296	1.754517
12.177707412531431	3.0865219	1.75685
12.19533374054321	3.0470698	1.7455858
12.212960358198126	3.03516	1.742171
12.230587265927545	2.9567163	1.7195104
12.248214464162889	2.9700575	1.7233855
12.265841953335649	2.9780126	1.7256919
12.283469733877375	3.011698	1.7354244
12.301097806219685	2.9764998	1.7252536
12.31872617079425	2.9194577	1.708642
12.336354828032825	2.8883862	1.6995254
12.353983778367205	2.9124303	1.7065843
12.371613022229262	2.9417164	1.7151433
12.389242560050928	2.9084544	1.7054192
12.406872392264201	2.840237	1.6853002
12.424502519301143	2.828708	1.6818763
12.442132941593874	2.8397934	1.6851686
12.459763659574586	2.826244	1.6811436
12.477394673675532	2.854752	1.6896012
12.49502598432903	2.8317032	1.6827666
12.51265759196746	2.8175375	1.6785523
12.530289497023267	2.7861032	1.6691624
12.547921699928967	2.768032	1.6637404
12.565554201117134	2.759568	1.6611948
12.583187001020404	2.7566392	1.660313
12.600820100071486	2.759725	1.661242
12.618453498703152	2.753539	1.6593791
12.636087197348235	2.739602	1.6551744
12.65372119643964	2.7463725	1.6572183
12.671355496410326	2.7608585	1.6615832
12.68899009769333	2.7754366	1.6659641
12.706625000721749	2.804202	1.6745752
12.724260205928752	2.8614335	1.6915772
12.741895713747551	2.8909924	1.7002919
12.759531524611454	2.958413	1.7200037
12.777167638953818	2.9748468	1.7247745
12.794804057208072	2.9936988	1.7302308
12.812440779807702	3.025499	1.7393962
12.830077807186271	3.1949923	1.7874541
12.847715139777405	3.221111	1.7947454
12.865352778014795	3.4204354	1.8494419
12.882990722332197	3.5011263	1.8711296
12.90062897316344	3.5811927	1.892404
12.918267530942412	3.6528022	1.9112306
12.935906396103071	3.5648196	1.888073
12.953545569079449	3.7439482	1.9349285
12.971185050305628	3.5454934	1.882948
12.988824840215775	3.518132	1.8756684
13.006464939244115	3.4955745	1.8696456
13.024105347824943	3.38041	1.8385891
13.041746066392617	3.4992452	1.8706269
13.05938709538157	3.3015893	1.8170276
13.077028435226296	3.2731943	1.8091972
13.094670086361363	3.184541	1.7845283
13.112312049221401	3.0977907	1.7600542
13.129954324241112	3.0466475	1.7454648
13.147596911855258	2.8806272	1.6972411
13.165239812498685	2.8298657	1.6822205
13.182883026606293	2.767939	1.6637125
13.200526554613058	2.677713	1.6363719
13.218170396954017	2.666376	1.6329042
13.235814554064284	2.6735425	1.6350971
13.253459026379034	2.6944115	1.6414663
13.271103814333523	2.6654842	1.6326311
13.288748918363058	2.6251986	1.6202464
13.306394338903031	2.6174786	1.6178623
13.32404007638889	2.6151812	1.6171522
13.341686131256164	2.62582	1.6204382
13.359332503940449	2.593809	1.6105306
13.376979194877402	2.614231	1.6168584
13.394626204502751	2.650427	1.6280133
13.412273533252307	2.685844	1.6388545
13.429921181561937	2.6801527	1.6371171
13.447569149867581	2.693566	1.6412088
13.465217438605247	2.7003121	1.6432626
13.482866048211022	2.640654	1.625009
13.500514979121052	2.6276135	1.6209916
13.518164231771568	2.6082957	1.6150218
13.535813806598844	2.6544216	1.6292396
13.553463704039254	2.6709387	1.6343007
13.571113924529229	2.6523945	1.6286174
13.588764468505275	2.6509004	1.6281586
13.606415336403956	2.675728	1.6357653
13.624066528661917	2.7100105	1.6462109
13.641718045715882	2.762276	1.6620096
13.659369888002635	2.7853851	1.6689473
13.67702205595903	2.86813	1.6935555
13.694674550021993	2.9352396	1.7132541
13.712327370628532	3.0088036	1.7345903
13.729980518215713	3.079596	1.7548778
13.747633993220681	3.1655443	1.7791977
13.765287796080647	3.238438	1.799566
13.7829419272329	3.2933128	1.8147486
13.800596387114801	3.318736	1.8217398
13.818251176163775	3.3013933	1.8169737
13.835906294817324	3.3459597	1.8291965
13.853561743513023	3.3879006	1.840625
13.871217522688525	3.4129622	1.8474205
13.888873632781538	3.4505136	1.8575559
13.906530074229858	3.467819	1.8622081
13.92418684747135	3.5195923	1.8760576
13.941843952943948	3.5219584	1.8766881
13.959501391085665	3.5152493	1.8748997
13.977159162334578	3.4688194	1.8624767
13.994817267128846	3.3773959	1.8377693
14.012475705906693	3.2485733	1.8023798
14.030134479106424	3.135797	1.7708182
14.047793587166414	3.0834765	1.7559831
14.065453030525108	3.0506182	1.7466019
14.083112809621026	3.0025876	1.7327976
14.100772924892766	2.93122	1.7120806
14.118433376778997	2.8970351	1.7020679
14.136094165718458	2.8387725	1.6848657
14.153755292149969	2.7780623	1.666752
14.171416756512416	2.7045503	1.6445516
14.189078559244768	2.6013248	1.6128623
14.20674070078606	2.5393229	1.5935253
14.224403181575408	2.5081592	1.5837169
14.242066002051999	2.5241058	1.5887434
14.259729162655093	2.5026379	1.5819727
14.277392663824022	2.433119	1.5598458
14.295056505998208	2.3848398	1.5442927
14.312720689617128	2.3681672	1.538885
14.330385215120348	2.3748522	1.5410556
14.348050082947497	2.3624187	1.5370162
14.3657152935383	2.3352876	1.5281647
14.383380847332528	2.3350155	1.5280758
14.401046744770051	2.3221197	1.5238503
14.418712986290798	2.3364668	1.5285505
14.436379572334793	2.347275	1.532082
14.454046503342123	2.377915	1.5420489
14.471713779752946	2.3927996	1.5468677
14.489381402007504	2.3854654	1.5444952
14.507049370546113	2.4033842	1.5502852
14.524717685809168	2.4120138	1.5530659
14.542386348237134	2.4126062	1.5532566
14.560055358270553	2.3698525	1.5394325
14.577724716350051	2.417063	1.5546906
14.595394422916325	2.4572556	1.5675635
14.61306447841015	2.5260577	1.5893576
14.63073488327237	2.5206082	1.5876423
14.648405637943917	2.5148368	1.5858237
14.6660767428658	2.4624023	1.5692043
14.683748198479094	2.456043	1.5671768
14.701420005224954	2.5054042	1.5828469
14.719092163544628	2.5691538	1.602858
14.73676467387942	2.5522742	1.5975839
14.754437536670727	2.5414138	1.5941812
14.772110752360014	2.6027749	1.6133118
14.78978432138882	2.6483893	1.6273873
14.807458244198777	2.6590374	1.6306555
14.82513252123159	2.6137938	1.6167232
14.842807152929028	2.6532469	1.6288791
14.860482139732962	2.6671257	1.6331336
14.87815748208531	2.6943572	1.6414497
14.8958331804281	2.7079127	1.6455736
14.91350923520342	2.6460521	1.626669
14.931185646853438	2.6280463	1.621125
14.948862415820408	2.5886052	1.6089143
14.966539542546656	2.6180825	1.618049
14.98421702747459	2.627609	1.6209902
15.001894871046696	2.6443093	1.6261332
15.019573073705542	2.634143	1.6230043
15.037251635893766	2.5864577	1.6082468
15.054930558054092	2.588288	1.6088158
15.072609840629323	2.652684	1.6287062
15.090289484062351	2.7565198	1.660277
15.107969488796124	2.8828096	1.6978838
15.125649855273691	3.0711012	1.7524557
15.14333058393817	3.4396648	1.8546333
15.161011675232768	3.9917517	1.9979368
15.17869312960076	4.581603	2.140468
15.196374947485506	5.276572	2.297079
15.214057129330447	6.6319523	2.5752578
15.231739675579114	8.732933	2.9551537
15.249422586675102	13.374692	3.6571426
15.267105863062092	18.042267	4.247619
15.284789505183847	25.562431	5.05593
15.302473513484218	30.825615	5.552082
15.320157888407127	35.039326	5.9194026
15.337842630396578	33.61195	5.797581
15.355527739896656	30.472607	5.5202
15.37321321735153	23.593454	4.8573093
15.39089906320545	16.043022	4.005374
15.408585277902748	10.280404	3.206307
15.42627186188783	6.3515744	2.520233
15.443958815605198	4.532684	2.12901
15.461646139499424	3.7190313	1.9284791
15.479333834015168	3.2680488	1.8077745
15.497021899597165	2.9632595	1.7214121
15.514710336690234	2.7369316	1.6543674
15.53239914573928	2.5974145	1.6116496
15.550088327189297	2.5350606	1.5921874
15.567777881485336	2.5114725	1.5847626
15.58546780907256	2.5257597	1.5892639
15.6031581103962	2.5550568	1.5984545
15.620848785901568	2.5179117	1.586793
15.638539836034063	2.488175	1.577395
15.656231261239173	2.448067	1.56463
15.673923061962451	2.4369068	1.5610595
15.691615238649552	2.4651785	1.5700887
15.709307791746202	2.451727	1.5657991
15.727000721698221	2.4392674	1.5618154
15.744694028951498	2.4360948	1.5607994
15.76238771395202	2.4336092	1.5600029
15.780081777145844	2.418298	1.5550878
15.797776218979125	2.3845186	1.5441886
15.815471039898094	2.35031	1.5330721
15.833166240349064	2.3687687	1.5390805
15.850861820778437	2.394079	1.5472811
15.868557781632699	2.4252565	1.5573235
15.886254123358412	2.4593127	1.5682195
15.903950846402232	2.480641	1.575005
15.921647951210897	2.4956408	1.5797597
15.939345438231225	2.482883	1.5757166
15.957043307910133	2.4989474	1.5808059
15.974741560694602	2.4918272	1.5785522
15.992440197031714	2.4916172	1.5784857
16.01013921736862	2.4474583	1.5644355
16.02783862215259	2.4266646	1.5577755
16.045538411830933	2.4370563	1.5611074
16.06323858685107	2.4480681	1.5646304
16.080939147660512	2.4571476	1.5675291
16.09864009470684	2.4414697	1.5625203
16.11634142843774	2.430097	1.5588769
16.134043149300954	2.359848	1.5361797
16.15174525774433	2.3502476	1.5330517
16.169447754215817	2.3648794	1.5378164
16.18715063916342	2.407964	1.5517616
16.204853913035244	2.3872979	1.5450883
16.222557576279478	2.3639042	1.5374993
16.240261629344403	22.333973	4.7258835
16.257966072678386	42.89894	6.5497284
16.275670906729868	38.063335	6.169549
16.293376131947387	2.5248237	1.5889693
16.31108174877957	2.563606	1.6011264
16.328787757675133	2.5770485	1.6053188
16.34649415908287	2.583805	1.6074219
16.364200953451657	2.5935676	1.6104558
16.38190814123048	2.5994148	1.6122701
16.39961572286839	2.6282525	1.6211886
16.41732369881455	2.6608007	1.6311961
16.43503206951817	2.732364	1.6529864
16.45274083542859	2.7957585	1.6720521
16.47044999699522	2.8117497	1.6768273
16.488159554667558	2.8377972	1.6845763
16.505869508895184	2.890731	1.700215
16.523579860127786	2.9390037	1.7143523
16.541290608815117	2.9692867	1.7231618
16.559001755407035	3.0380056	1.7429875
16.57671330035348	3.1501198	1.7748576
16.59442524410448	3.272894	1.8091141
16.61213758711015	3.4390419	1.8544654
16.629850329820705	3.4792402	1.8652722
16.647563472686436	3.5301707	1.8788749
16.665277016157724	3.4371111	1.8539448
16.682990960685053	3.4289832	1.8517514
16.70070530671898	3.45466	1.8586715
16.718420054710155	3.536881	1.8806597
16.736135205109335	3.595254	1.8961155
16.753850758367335	3.5967913	1.8965209
16.771566714935087	3.62565	1.904114
16.789283075263597	3.6142693	1.9011232
16.80699983980398	3.6452947	1.9092655
16.82471700900741	3.7140975	1.9271994
16.84243458332518	3.79229	1.9473803
16.860152563208665	3.8546574	1.9633281
16.87787094910932	3.9143124	1.9784621
16.89558974147871	4.0202713	2.0050614
16.913308940768466	4.1444316	2.0357878
16.931028547430333	4.2234545	2.0551045
16.94874856191613	4.302684	2.0742912
16.966468984677785	4.315615	2.077406
16.98418981616729	4.3329926	2.0815842
17.00191105683676	4.3637357	2.0889556
17.019632707138374	4.3925033	2.09583
17.03735476752442	4.4891963	2.1187723
17.05507723844728	4.5401597	2.130765
17.072800120359403	4.6072474	2.14645
17.090523413713353	4.6220236	2.1498892
17.108247118961785	4.624816	2.1505384
17.125971236557437	4.6454477	2.1553302
17.143695766953133	4.6291966	2.1515567
17.161420710601806	4.6022854	2.1452937
17.179146067956477	4.596203	2.1438756
17.19687183947025	4.6029024	2.1454375
17.21459802559634	4.5848246	2.1412203
17.232324626788028	4.613445	2.1478932
17.25005164349871	4.625082	2.1506004
17.267779076181863	4.635909	2.1531162
17.285506925291074	4.6105866	2.1472278
17.30323519127999	4.659568	2.1586032
17.320963874602384	4.6187835	2.1491356
17.33869297571211	4.5877256	2.1418977
17.356422495063114	4.5188737	2.1257644
17.37415243310944	4.4779224	2.1161103
17.391882790305218	4.4484863	2.1091435
17.40961356710468	4.427212	2.1040943
17.42734476396215	4.4459295	2.1085372
17.445076381332044	4.532744	2.1290243
17.462808419668868	4.623525	2.1502383
17.48054087942723	4.7080274	2.1697989
17.498273761061835	4.8149633	2.1943026
17.51600706502747	5.1474113	2.2687907
17.533740791779024	5.767444	2.4015503
17.551474941771485	6.627582	2.574409
17.56920951545993	8.525442	2.919836
17.586944513299528	9.77174	3.1259782
17.60467993574556	12.779084	3.5747845
17.622415783253373	15.615315	3.9516218
17.64015205627843	18.518225	4.303281
17.657888755276293	20.908909	4.572626
17.675625880702604	22.458023	4.73899
17.69336343301311	20.875513	4.568973
17.71110141266366	18.707966	4.3252707
17.728839820110178	16.010904	4.001363
17.746578655808705	12.79109	3.5764632
17.764317920215372	10.522875	3.2438982
17.7820576137864	8.702638	2.9500234
17.79979773697811	7.317979	2.7051764
17.81753829024692	5.9483037	2.4389145
17.835279274049356	5.1571274	2.270931
17.85302068884201	4.4454517	2.108424
17.870762535081607	4.0885186	2.0220087
17.888504813224934	3.8785536	1.9694043
17.90624752372891	3.7471552	1.935757
17.923990667050536	3.6477852	1.9099176
17.941734243646895	3.5871372	1.893974
17.959478253975185	3.5864918	1.8938035
17.9772226984927	3.5257657	1.8777022
17.994967577656833	3.444501	1.8559366
18.01271289192506	3.3362775	1.826548
18.030458641754965	3.2573266	1.8048065
18.04820482760425	3.234808	1.7985572
18.06595144993067	3.2296412	1.7971202
18.083698509192125	3.2458184	1.8016155
18.101446005846576	3.2289505	1.796928
18.119193940352105	3.2182558	1.7939497
18.136942313166887	3.1887343	1.7857027
18.1546911247492	3.1880422	1.785509
18.1724403755574	3.1569998	1.7767948
18.19019006604997	3.1522362	1.7754538
18.207940196685467	3.1264107	1.768166
18.225690767922575	3.106085	1.7624089
18.243441780220046	3.0778058	1.7543676
18.261193234036764	3.050404	1.7465405
18.278945129831676	3.0456188	1.7451701
18.29669746806386	3.0469472	1.7455508
18.314450249192483	3.0504549	1.7465551
18.3322034736768	3.0111094	1.7352549
18.349957141976184	2.995622	1.7307866
18.3677112545501	2.979354	1.7260805
18.385465811858108	2.9876993	1.7284962
18.403220814359884	3.0213096	1.7381915
18.420976262515172	3.090141	1.7578797
18.43873215678387	3.1234758	1.7673358
18.456488497625923	3.1598577	1.7775989
18.474245285501407	3.202312	1.7895005
18.492002520870486	3.215684	1.7932328
18.50976020419343	3.3221216	1.8226688
18.527518335930615	3.6394267	1.9077282
18.545276916542516	4.1910033	2.047194
18.563035946489688	4.291123	2.0715027
18.580795426232832	4.715934	2.1716201
18.598555356232698	4.668812	2.1607432
18.616315736950185	5.0429125	2.245643
18.63407656884626	4.7360463	2.176246
18.65183785238201	4.916814	2.2173889
18.669599588018617	4.6473804	2.1557784
18.68736177621737	4.5900707	2.142445
18.705124417439652	4.585101	2.141285
18.72288751214696	4.4040203	2.0985758
18.740651060800886	4.556019	2.1344833
18.758415063863115	4.285184	2.0700686
18.77617952179546	4.4239306	2.1033142
18.793944435059814	4.182031	2.0450015
18.811709804118184	4.1941075	2.047952
18.829475629432675	4.129315	2.0320716
18.8472419114655	3.9250088	1.9811635
18.86500865067897	4.002852	2.0007129
18.88277584753551	3.7155204	1.9275686
18.90054350249763	3.725598	1.9301808
18.918311616027957	3.4463708	1.8564404
18.936080188589226	3.3619456	1.833561
18.953849220644265	3.0307333	1.7409002
18.971618712656007	2.81247	1.677042
18.9893886650875	2.7466168	1.657292
19.007159078401887	7.942555	2.818254
19.024929953062408	32.85586	5.732003
19.042701289532435	32.79575	5.7267575
19.060473088275405	25.327448	5.032638
19.07824534975489	2.5976887	1.6117346
19.096018074434568	2.6154163	1.6172249
19.113791262778197	2.5849726	1.607785
19.13156491524966	2.513814	1.5855012
19.149339032312945	2.4900312	1.5779833
19.167113614432136	2.5112145	1.5846812
19.184888662071433	2.5176325	1.586705
19.202664175695123	2.5477822	1.5961773
19.220440155767623	2.5370703	1.5928184
19.238216602753447	2.5170913	1.5865344
19.2559935171172	2.5026212	1.5819675
19.27377089932361	2.5058584	1.5829903
19.291548749837514	2.5431514	1.5947261
19.309327069123835	2.5251923	1.5890853
19.32710585764763	2.4923327	1.5787123
19.344885115874032	2.4893882	1.5777795
19.362664844268313	2.5165093	1.5863509
19.380445043295822	2.5042143	1.5824709
19.39822571342203	2.4881089	1.5773741
19.41600685511252	2.4678066	1.5709254
19.43378846883297	2.4814696	1.5752681
19.451570555049173	2.453738	1.5664412
19.469353114227037	2.4402494	1.5621297
19.48713614683254	2.4221697	1.5563321
19.50491965333182	2.4419024	1.5626588
19.52270363419109	2.4450276	1.5636584
19.540488089876686	2.4477284	1.5645218
19.55827302085503	2.467932	1.5709653
19.576058427592674	2.4550107	1.5668473
19.593844310556282	2.4620917	1.5691054
19.611630670212598	2.4150906	1.5540562
19.629417507028506	2.4195082	1.5554769
19.64720482147098	2.4022448	1.5499177
19.6649926140071	2.4335046	1.5599694
19.682780885104084	2.4712157	1.57201
19.70056963522921	2.4805505	1.5749763
19.718358864849908	2.5038104	1.5823433
19.7361485744337	2.4960754	1.5798973
19.753938764448215	2.4844887	1.5762261
19.771729435361202	2.4739726	1.5728867
19.789520587640506	2.492257	1.5786884
19.807312221754092	2.47941	1.5746142
19.825104338170043	2.4742148	1.5729637
19.842896937356517	2.486352	1.576817
19.860690019781824	2.4692233	1.5713762
19.87848358591436	2.4647803	1.5699619
19.896277636222635	2.4637322	1.569628
19.914072171175278	2.4832795	1.5758425
19.931867191241015	2.4693625	1.5714206
19.94966269688869	2.4631011	1.569427
19.967458688587264	2.456527	1.5673312
19.985255166805807	2.4381447	1.561456
20.00305213201348	2.4268506	1.5578352
20.020849584679578	2.4408262	1.5623144
20.038647525273507	2.458742	1.5680376
20.05644595426477	2.4286406	1.5584097
20.07424487212299	2.4366024	1.560962
20.092044279317903	2.4387515	1.5616503
20.109844176319353	2.4369254	1.5610654
20.127644563597304	2.4180088	1.5549948
20.145445441621817	2.4003632	1.5493106
20.16324681086307	2.3740482	1.5407947
20.181048671791373	2.3735263	1.5406253
20.198851024877122	2.3529336	1.5339276
20.216653870590836	2.3834834	1.5438534
20.234457209403146	2.393456	1.5470798
20.252261041784802	2.3678765	1.5387906
20.270065368206662	2.3559375	1.5349064
20.287870189139685	2.3444602	1.5311631
20.305675505054968	2.3519495	1.5336066
20.323481316423702	2.335241	1.5281496
20.341287623717207	2.3454463	1.531485
20.359094427406884	2.352174	1.53368
20.376901727964288	2.3526187	1.5338248
20.39470952586107	2.3249521	1.5247793
20.41251782156899	2.3376205	1.5289279
20.430326615559935	2.3438296	1.5309571
20.448135908305886	2.3458488	1.5316164
20.465945700278965	2.3260376	1.5251353
20.483755991951384	2.2912045	1.5136725
20.50156678379548	2.3290226	1.5261136
20.519378076283708	2.3292308	1.5261818
20.537189869888635	2.2988744	1.5162039
20.55500216508294	2.2661297	1.5053669
20.572814962339415	2.3215106	1.5236504
20.59062826213098	2.3270583	1.5254699
20.60844206493066	2.3567927	1.5351849
20.626256371211593	2.3387797	1.5293069
20.644071181447032	2.3470025	1.531993
20.66188649611036	2.351134	1.5333408
20.67970231567506	2.3312542	1.5268445
20.697518640614742	2.3296647	1.5263239
20.715335471403122	2.3000464	1.5165904
20.73315280851404	2.2818263	1.5105715
20.750970652421447	2.2791746	1.5096935
20.768789003599412	2.3122697	1.5206149
20.786607862522136	2.3352134	1.5281405
20.8044272296639	2.310061	1.5198885
20.82224710549913	2.3071454	1.518929
20.84006749050237	2.2581706	1.5027211
20.857888385148268	3.7818925	1.9447088
20.8757097899116	45.897545	6.7747726
20.893531705267254	64.78285	8.0487795
20.911354131690224	83.832306	9.155998
20.92917706965566	69.06388	8.310468
20.94700051963877	50.102753	7.0783296
20.96482448211493	29.3936	5.4215865
20.982648957559622	4.1312475	2.032547
21.00047394644843	2.260942	1.5036429
21.01829944925707	2.2586625	1.5028847
21.036125466461375	2.2561533	1.5020497
21.053951998537297	2.2502432	1.5000811
21.071779045960906	2.2477343	1.4992446
21.089606609208378	2.2441552	1.4980505
21.10743468875603	2.245977	1.4986584
21.12526328508028	2.2326846	1.494217
21.143092398657675	2.2019196	1.4838866
21.16092202996488	2.1679697	1.4724027
21.17875217947867	2.1823285	1.4772706
21.19658284767596	2.199609	1.4831079
21.21441403503377	2.2217054	1.4905386
21.232245742029225	2.1948721	1.48151
21.2500779691396	2.1604471	1.469846
21.26791071684227	2.1289568	1.4590945
21.28574398561475	2.138137	1.462237
21.30357777593465	2.1459715	1.4649135
21.321412088279704	2.134623	1.4610349
21.339246923127792	2.1392393	1.4626138
21.357082280956888	2.12676	1.4583415
21.3749181622451	2.1472602	1.4653533
21.392754567470647	2.1456757	1.4648125
21.41059149711187	2.1546042	1.467857
21.42842895164726	2.1154985	1.4544754
21.446266931555378	2.0945237	1.4472469
21.464105437314945	2.0843406	1.4437245
21.481944469404798	2.1014373	1.4496335
21.49978402830388	2.1341698	1.4608798
21.51762411449127	2.113802	1.453892
21.53546472844617	2.055923	1.433849
21.553305870647876	2.0411332	1.4286823
21.571147541575865	2.0228105	1.4222554
21.58898974170967	2.0120757	1.4184766
21.60683247152899	2.0205007	1.4214431
21.62467573151363	2.048671	1.4313179
21.642519522143523	2.0463016	1.43049
21.660363843898722	2.0491621	1.4314895
21.6782086972594	2.0251012	1.4230605
21.696054082705864	2.0055826	1.416186
21.713900000718535	1.9890292	1.4103295
21.73174645177795	1.9930385	1.4117502
21.749593436364794	2.0018976	1.4148843
21.767440954959845	2.0061948	1.4164021
21.785289008044032	1.9834363	1.4083452
21.803137596098388	1.9750606	1.4053684
21.820986719604086	1.9499277	1.3963981
21.838836379042412	1.9609237	1.4003298
21.85668657489478	1.9590566	1.3996631
21.87453730764273	1.9985442	1.4136988
21.892388577767914	2.018284	1.4206632
21.91024038575213	2.0075228	1.4168708
21.928092732077285	1.985677	1.4091405
21.945945617225426	1.9585	1.3994642
21.963799041678694	1.9735461	1.4048296
21.981653005919398	31.283218	5.59314
21.999507510429943	78.09121	8.836923
22.01736255569286	73.063	8.54769
22.035218142190818	4.1854267	2.0458314
22.05307427040661	2.0086145	1.417256
22.07093094082315	1.9695679	1.4034129
22.088788153923474	1.9614767	1.4005272
22.106645910190746	1.98091	1.407448
22.12450421010827	2.0248103	1.4229583
22.142363054159464	2.0313432	1.425252
22.16022244282787	2.0575268	1.4344082
22.178082376597164	2.0363472	1.4270064
22.195942855951145	1.9952356	1.412528
22.213803881373742	1.956974	1.3989189
22.231665453349002	1.9429916	1.3939123
22.24952757236111	1.9438738	1.3942287
22.26739023889438	1.963382	1.4012073
22.28525345343323	1.9541234	1.3978996
22.30311721646225	1.9492605	1.3961592
22.320981528466113	1.9446226	1.3944973
22.33884638992964	1.9663585	1.4022691
22.356711801337788	1.9585834	1.3994939
22.37457776317561	1.9437449	1.3941826
22.392444275928337	1.9298488	1.38919
22.410311340081282	1.9274312	1.3883196
22.428178956119904	1.9153608	1.3839656
22.446047124529805	1.9027363	1.379397
22.46391584579669	1.9384955	1.3922987
22.481785120406414	1.9933847	1.4118727
22.49965494884496	1.997632	1.4133761
22.51752533159841	1.9654166	1.4019332
22.53539626915302	1.9285688	1.3887292
22.553267761995137	1.913377	1.3832487
22.571139810611264	1.9490788	1.3960941
22.589012415488025	1.9805413	1.407317
22.60688557711216	1.9756812	1.4055892
22.624759295970566	1.9385761	1.3923275
22.642633572550263	1.9498926	1.3963856
22.660508407338362	1.9825519	1.4080312
22.67838380082217	1.9873036	1.4097176
22.696259753489077	1.9507673	1.3966987
22.714136265826614	1.9424691	1.3937249
22.73201333832246	1.9368674	1.3917139
22.74989097146439	1.9374665	1.391929
22.76776916574035	1.9374913	1.391938
22.785647921638393	1.9436206	1.394138
22.803527239646712	1.9205686	1.3858458
22.82140712025363	1.9225109	1.3865464
22.839287563947593	1.909984	1.3820217
22.85716857121719	1.9235164	1.3869089
22.875050142551135	1.9267901	1.3880887
22.892932278438277	1.9352819	1.391144
22.910814979367604	1.9273213	1.38828
22.928698245828222	1.9179633	1.3849055
22.946582078309387	1.9280837	1.3885546
22.96446647730047	1.9427861	1.3938386
22.98235144329098	1.9200613	1.3856628
23.000236976770562	1.9178367	1.3848598
23.018123078229	1.9072056	1.3810161
23.03600974815619	1.8962823	1.3770556
23.053896987042194	1.89118	1.3752018
23.071784795377173	1.9168509	1.3845038
23.08967317365145	1.8681949	1.3668193
23.10756212235546	1.8530575	1.3612705
23.125451641979787	1.8559264	1.3623239
23.143341733015134	1.8794212	1.3709198
23.161232395952357	1.9054786	1.3803908
23.179123631282426	1.9379406	1.3920994
23.197015439496468	1.9425247	1.3937448
23.214907821085717	1.9499557	1.3964082
23.23280077654157	1.9519566	1.3971244
23.250694306355538	1.9485687	1.3959115
23.268588411019277	1.938129	1.392167
23.28648309102458	1.9357388	1.3913083
23.304378346863356	1.943413	1.3940635
23.322274179027676	1.9508619	1.3967326
23.340170588009723	1.9376563	1.3919972
23.358067574301852	1.9420104	1.3935603
23.37596513839651	1.9393451	1.3926038
23.39386328078629	1.894006	1.3762289
23.411762001963947	1.8861791	1.3733823
23.429661302422353	1.8831867	1.3722925
23.4475611826545	1.8643535	1.3654133
23.46546164315356	1.8090975	1.345027
23.48336268441279	1.8313377	1.3532692
23.501264306925638	1.8928592	1.3758122
23.51916651118564	1.9276634	1.3884032
23.537069297686497	1.8709993	1.3678448
23.554972666922037	1.883085	1.3722554
23.57287661938623	1.8840605	1.3726108
23.59078115557318	1.8957009	1.3768445
23.608686275977128	1.8764155	1.3698232
23.62659198109246	1.874481	1.3691169
23.6444982714137	1.9084473	1.3814657
23.66240514743549	1.9339634	1.3906702
23.68031260965263	1.9689386	1.4031887
23.698220658560068	1.9749484	1.4053286
23.716129294652845	1.9320064	1.3899664
23.7340385184262	1.8794209	1.3709197
23.75194833037546	1.8690149	1.3671192
23.769858730996123	1.8879457	1.3740253
23.78776972078382	1.888328	1.3741645
23.80568130023431	1.8507634	1.3604276
23.823593469843495	1.8178486	1.3482761
23.841506230107424	1.8684657	1.3669183
23.859419581522275	1.9433612	1.3940449
23.87733352458438	1.9744976	1.4051682
23.89524805979019	1.9471757	1.3954124
23.913163187636318	1.9060704	1.3806051
23.931078908619508	1.9015192	1.3789558
23.948995223236633	1.9707977	1.403851
23.966912131984735	2.0063505	1.416457
23.98482963536096	2.0061727	1.4163942
24.002747733862616	1.9985874	1.413714
24.020666427987155	2.0306194	1.424998
24.038585718232156	2.0391057	1.4279726
24.056505605095353	2.0163863	1.4199952
24.074426089074617	2.0358434	1.4268298
24.092347170667946	2.0671246	1.4377499
24.110268850373515	2.1159348	1.4546254
24.128191128689586	2.1195805	1.4558779
24.146114006114626	2.073207	1.4398634
24.164037483147187	2.0398948	1.4282489
24.181961560286005	2.033389	1.4259695
24.199886238029926	2.052201	1.4325505
24.21781151687797	2.0753229	1.4405981
24.235737397329274	2.0694802	1.4385688
24.253663879883135	2.0047264	1.4158837
24.271590965038975	2.0267186	1.4236287
24.289518653296376	2.0470927	1.4307665
24.30744694515505	2.0785809	1.4417285
24.32537584111486	2.0864587	1.4444579
24.34330534167581	2.0952387	1.4474939
24.361235447338046	2.0445232	1.4298682
24.379166158601876	1.9712999	1.4040298
24.39709747596772	1.9761481	1.4057554
24.41502939993615	1.9882861	1.410066
24.432961931007917	1.9586946	1.3995337
24.450895069683856	1.9544252	1.3980076
24.468828816465	1.9727327	1.4045401
24.4867631718525	1.9724202	1.4044288
24.504698136347656	1.9589164	1.3996129
24.52263371045192	1.9644642	1.4015934
24.540569894666874	1.9286423	1.3887557
24.558506689494266	1.9333935	1.3904653
24.57644409543597	1.9412433	1.393285
24.594382112994012	1.9654775	1.4019549
24.61232074267057	1.9590812	1.3996718
24.630259984967953	1.9381053	1.3921585
24.64819984038863	1.9510553	1.3968018
24.66614030943522	1.9553953	1.3983545
24.684081392610462	1.9685193	1.4030393
24.702023090417274	1.9848986	1.4088643
24.7199654033587	1.981076	1.4075071
24.737908331937927	1.9740729	1.405017
24.755851876658305	1.9511458	1.3968343
24.773796038023324	1.9612925	1.4004616
24.79174081653661	2.0250611	1.4230465
24.809686212701962	2.0624633	1.4361279
24.827632227023294	2.0181057	1.4206005
24.8455788600047	2.0738044	1.440071
24.8635261121504	2.1580904	1.469044
24.88147398396475	2.149336	1.4660615
24.899422475952303	2.146485	1.4650887
24.917371588617698	2.1565242	1.4685109
24.935321322465768	2.2425773	1.4975238
24.953271678001478	2.301505	1.5170712
24.97122265572994	2.4391463	1.5617766
24.989174256156414	2.7187932	1.6488763
25.00712647978632	3.2935894	1.8148249
25.02507932712521	4.3556943	2.08703
25.043032798678798	5.9858623	2.446602
25.060986894952933	7.7510033	2.7840624
25.078941616453637	9.29822	3.0492983
25.096896963687055	10.149507	3.185829
25.114852937159508	10.645395	3.2627282
25.132809537377444	10.302954	3.2098215
25.150766764847468	9.624066	3.102268
25.168724620076347	8.379983	2.89482
25.186683103570985	7.167585	2.6772346
25.204642215838426	5.6947465	2.3863668
25.222601957385894	4.6049366	2.1459117
25.24056232872074	3.5654836	1.8882488
25.25852333035048	2.8754942	1.6957282
25.276484962782778	2.404458	1.5506315
25.294447226525435	2.1555903	1.4681928
25.312410122086423	2.0509245	1.432105
25.330373649973843	1.9913677	1.4111583
25.348337810695988	1.9751397	1.4053967
25.366302604761245	1.9680448	1.4028702
25.384268032678207	1.9747214	1.4052478
25.40223409495558	1.9689152	1.4031804
25.420200792102257	1.9539315	1.397831
25.438168124627246	1.8998605	1.3783543
25.45613609303974	1.8799651	1.3711182
25.474104697849057	1.9202993	1.3857486
25.492073939564698	1.9537826	1.3977777
25.510043818696285	1.9308918	1.3895653
25.528014335753614	1.8961031	1.3769906
25.54598549124664	1.8618573	1.364499
25.56395728568544	1.8683025	1.3668586
25.58192971958028	1.852269	1.3609809
25.59990279344156	1.8111783	1.3458003
25.617876507779833	1.7952813	1.3398811
25.635850863105826	1.8023704	1.3425239
25.653825859930386	1.8330818	1.3539135
25.671801498764548	1.8668302	1.36632
25.68977778011949	1.8967171	1.3772135
25.707754704506524	1.897057	1.377337
25.725732272437153	1.8199717	1.3490633
25.743710484423012	1.855032	1.3619956
25.761689340975888	1.8679992	1.3667476
25.77966884260774	1.8893112	1.3745222
25.797648989830662	1.9009463	1.378748
25.815629783156922	1.9107863	1.3823119
25.83361122309895	1.8905032	1.3749557
25.85159331016929	1.8628173	1.3648506
25.869576044880695	1.9004496	1.3785679
25.887559427746034	1.9112561	1.3824818
25.90554345927836	1.8751954	1.3693777
25.92352813999086	1.8397049	1.3563572
25.94151347039689	1.8080292	1.3446298
25.959499451009965	1.8115306	1.3459312
25.97748608234374	1.7999653	1.3416278
25.995473364912062	1.818407	1.3484832
26.013461299228904	1.8107074	1.3456253
26.03144988580839	1.7875499	1.3369929
26.04943912516483	1.8249668	1.3509133
26.067429017812675	1.8751875	1.3693749
26.085419564266537	1.8819597	1.3718454
26.103410765041186	1.8542774	1.3617185
26.12140262065155	1.8362714	1.355091
26.139395131612723	1.8213804	1.3495853
26.157388298439948	1.8096707	1.34524
26.17538212164861	1.8144226	1.347005
26.193376601754295	1.8190184	1.34871
26.211371739272714	1.8376386	1.3555954
26.229367534719746	1.8679368	1.3667248
26.247363988611433	1.8598515	1.3637637
26.26536110146397	1.8009975	1.3420125
26.283358873793727	1.7878609	1.3371091
26.301357306117204	1.8281529	1.352092
26.319356398951104	1.8276362	1.3519009
26.33735615281224	1.8203906	1.3492185
26.35535656821762	1.8708024	1.3677728
26.373357645684404	1.859696	1.3637067
26.39135938572991	1.838951	1.3560792
26.409361788871614	1.8346083	1.3544772
26.427364855627165	1.8354846	1.3548006
26.445368586514352	1.8088143	1.3449217
26.46337298205115	1.8066993	1.3441352
26.48137804275568	1.8247746	1.3508422
26.499383769146217	1.8562237	1.362433
26.517390161741215	1.8386785	1.3559788
26.53539722105928	1.8428389	1.357512
26.553404947619182	1.8179696	1.348321
26.571413341939856	1.8515986	1.3607346
26.589422404540397	1.8167747	1.3478779
26.60743213594006	1.7780157	1.3334225
26.62544253665827	1.7792789	1.3338962
26.64345360721459	1.8053237	1.3436234
26.66146534812879	1.8148725	1.347172
26.679477759920758	1.8071532	1.344304
26.69749084311057	1.8191532	1.3487599
26.71550459821847	1.863226	1.3650004
26.733519025764842	1.8414017	1.3569826
26.751534126270258	1.7819803	1.3349084
26.769549900255434	1.7885303	1.3373594
26.787566348241267	1.8123797	1.3462465
26.80558347074881	1.8016666	1.3422618
26.823601268299267	1.8040915	1.3431647
26.841619741414036	1.8147129	1.3471128
26.85963889061465	1.8130484	1.3464948
26.877658716422832	1.7770627	1.3330652
26.89567921936045	1.7952994	1.3398879
26.913700399949544	1.8327311	1.353784
26.93172225871233	1.7908927	1.3382424
26.949744796171174	1.7928418	1.3389704
26.967768012848605	1.7985046	1.3410834
26.98579190926733	1.8219122	1.3497822
27.003816485950225	1.8079846	1.3446132
27.021841743420318	1.7770996	1.333079
27.039867682200814	1.7861873	1.3364831
27.057894302815072	1.8218371	1.3497545
27.07592160578664	1.8490499	1.3597977
27.0939495916392	1.8340336	1.354265
27.111978260896635	1.7649335	1.328508
27.13000761408296	1.7924814	1.3388358
27.148037651722397	1.7815083	1.3347316
27.166068374339304	1.793011	1.3390336
27.184099782458215	1.8179997	1.3483322
27.20213187660384	1.8223675	1.3499509
27.22016465730105	1.8060235	1.3438838
27.23819812507487	1.7949994	1.3397759
27.256232280450533	1.8158941	1.3475511
27.274267123953383	1.848211	1.3594892
27.292302656108987	1.8357193	1.3548872
27.31033887744306	1.8088776	1.3449452
27.32837578848146	1.8078167	1.3445507
27.34641338975026	1.8242049	1.3506314
27.364451681775673	1.8391066	1.3561367
27.382490665084074	1.8329993	1.353883
27.400530340202046	1.7665614	1.3291205
27.41857070765629	1.7218844	1.3122059
27.436611767973726	1.7793558	1.3339249
27.454653521681404	1.8198007	1.3489999
27.472695969306564	1.8306074	1.3529994
27.490739111376627	1.8353508	1.3547512
27.508782948419153	1.8302816	1.352879
27.526827480961902	1.8401725	1.3565296
27.54487270953279	1.8784999	1.3705838
27.562918634659898	1.8770955	1.3700713
27.580965256871508	1.8140277	1.3468585
27.599012576696026	1.8013736	1.3421526
27.617060594662068	1.7916534	1.3385266
27.63510931129842	1.818625	1.348564
27.65315872713401	1.8490022	1.3597802
27.67120884269797	1.827398	1.3518128
27.68925965851958	1.8095832	1.3452075
27.707311175128307	1.8366863	1.355244
27.725363393053787	1.835882	1.3549472
27.74341631282583	1.8943094	1.3763391
27.7614699349744	1.92791	1.388492
27.77952426002968	2.1217294	1.4566157
27.797579288521973	2.1749558	1.4747732
27.815635020981784	2.508245	1.5837439
27.83369145793979	2.5423052	1.5944608
27.85174859992682	2.4656727	1.5702461
27.869806447473923	2.3853657	1.5444629
27.887865001112267	2.1072166	1.4516255
27.905924261373233	1.9592458	1.3997306
27.92398422878836	1.9143523	1.3836012
27.94204490388936	1.8975437	1.3775135
27.96010628720813	1.9125625	1.3829542
27.978168379276728	1.8663595	1.3661476
27.9962311806274	1.8564838	1.3625284
28.014294691792568	1.7999897	1.3416369
28.0323589133048	1.7919797	1.3386484
28.050423845696887	1.8194375	1.3488653
28.068489489501758	1.8323925	1.3536589
28.086555845252523	1.8513114	1.3606291
28.104622913482487	1.8591989	1.3635244
28.122690694725115	1.8604755	1.3639925
28.14075918951405	1.8628623	1.3648672
28.15882839838312	1.8932164	1.375942
28.176898321866304	1.8680316	1.3667595
28.1949689604978	1.8757054	1.3695639
28.213040314811945	1.8973793	1.3774539
28.23111238534327	1.906527	1.3807704
28.249185172626493	1.9229821	1.3867162
28.267258677196473	1.9924738	1.4115502
28.285332899588294	2.0102444	1.4178308
28.303407840337172	1.9375541	1.3919605
28.321483499978545	1.8792721	1.3708655
28.33955987904799	1.8898307	1.3747112
28.357636978081285	1.9678669	1.4028068
28.37571479761439	2.008262	1.4171315
28.393793338183425	2.0208046	1.42155
28.41187260032469	1.9741892	1.4050584
28.429952584574686	1.9625895	1.4009246
28.448033291470065	1.9772962	1.4061637
28.46611472154769	2.0141966	1.4192239
28.484196875344566	1.9963218	1.4129125
28.502279753397914	1.9751166	1.4053885
28.52036335624511	1.9531183	1.3975401
28.538447684423716	1.9550925	1.3982463
28.556532738471482	1.933664	1.3905624
28.574618518926325	1.9429593	1.3939008
28.59270502632635	1.9982326	1.4135885
28.61079226120985	2.0346723	1.4264194
28.628880224115274	2.0888166	1.4452739
28.646968915581287	2.0794444	1.4420279
28.66505833614671	2.0724375	1.4395963
28.68314848635055	2.0935674	1.4469165
28.701239366732004	2.0983803	1.4485787
28.71933097783044	2.1083846	1.4520278
28.737423320185403	2.0823798	1.4430454
28.75551639433665	2.0973885	1.4482363
28.773610200824074	2.090558	1.4458762
28.791704740187793	2.1067908	1.4514788
28.80980001296809	2.1100843	1.4526129
28.827896019705413	2.08025	1.4423072
28.845992760940433	2.1404057	1.4630126
28.86409023721397	2.2163754	1.4887496
28.88218844906704	2.2464864	1.4988283
28.900287397040845	2.224422	1.4914496
28.918387081676755	2.1812172	1.4768945
28.936487503516343	2.2451766	1.4983913
28.954588663101365	2.2998874	1.516538
28.97269056097374	2.283616	1.5111638
28.990793197675597	2.2836025	1.5111593
29.00889657374923	2.2840064	1.5112929
29.027000689737125	2.2634346	1.5044715
29.04510554618196	2.2944584	1.514747
29.06321114362659	2.3205698	1.5233417
29.08131748261405	2.3923316	1.5467165
29.099424563687567	2.475226	1.5732851
29.11753238739057	2.51241	1.5850583
29.13564095426663	2.5474167	1.5960629
29.15375026485954	2.560168	1.6000525
29.171860319713275	2.622301	1.6193521
29.18997111937199	2.7011306	1.6435117
29.20808266438002	2.7580178	1.6607281
29.226194955281898	2.7924259	1.6710553
29.244307992622335	2.8731616	1.6950402
29.26242177694624	2.8639705	1.6923269
29.2805363087987	2.867842	1.6934704
29.29865158872498	2.8953247	1.7015654
29.316767617270557	2.8981013	1.7023811
29.334884394981064	2.9454875	1.7162423
29.353001922402367	3.040796	1.7437879
29.37112020008047	3.0624018	1.749972
29.389239228561596	3.132757	1.7699596
29.407359008392152	3.3526678	1.8310292
29.42547954011872	3.6589026	1.9128258
29.44360082428809	4.0947185	2.023541
29.46172286144722	4.858713	2.204249
29.479845652143283	6.50492	2.5504744
29.497969196923606	9.262648	3.04346
29.516093496335728	12.92094	3.5945709
29.5342185509274	16.547506	4.0678625
29.55234436124651	19.731146	4.4419756
29.570470927841175	21.189322	4.603186
29.588598251259686	20.805414	4.561295
29.60672633205055	19.132526	4.3740745
29.624855170762405	16.12604	4.015724
29.642984767944146	12.863047	3.586509
29.66111512414481	9.467137	3.0768714
29.67924623991366	6.959518	2.63809
29.697378115800138	5.247256	2.290689
29.71551075235387	4.35644	2.0872087
29.733644150124675	3.8427062	1.9602822
29.751778309662576	3.665739	1.9146119
29.769913231517766	3.552639	1.8848445
29.78804891624066	3.3711905	1.8360802
29.806185364381818	3.3355467	1.826348
29.82432257649206	3.3107357	1.8195428
29.842460553122333	3.338597	1.8271828
29.86059929482382	3.3885512	1.8408018
29.878738802147872	3.3954756	1.8426816
29.896879075646048	3.3448846	1.8289026
29.915020115870114	3.2635531	1.8065307
29.933161923371976	3.2503233	1.8028653
29.951304498703777	3.3127031	1.8200833
29.969447842417857	3.3091552	1.8191084
29.987591955066733	3.2766695	1.8101573
30.005736837203123	3.2491317	1.8025348
30.023882489379943	3.1630447	1.7784951
30.04202891215028	3.1586714	1.7772652
30.060176106067455	3.2166414	1.7934998
30.078324071684946	3.1725924	1.7811773
30.09647280955646	3.1449747	1.7734077
30.114622320235863	3.1191998	1.7661257
30.132772604277257	3.1017056	1.761166
30.1509236622349	3.0775263	1.754288
30.16907549466328	3.0578053	1.7486582
30.18722810211705	3.084016	1.7561367
30.205381485151097	3.1375103	1.7713019
30.22353564432045	3.1324384	1.7698696
30.241690580180403	3.1717973	1.780954
30.25984629328638	3.1501935	1.7748784
30.278002784194037	3.1062973	1.762469
30.296160053459246	3.0319002	1.7412353
30.314318101638033	2.9468331	1.7166343
30.332476929286646	2.9298382	1.711677
30.35063653696153	2.897421	1.7021812
30.368796925219307	2.8621666	1.6917939
30.386958094616844	2.835336	1.6838456
30.40512004571115	2.8927073	1.7007961
30.423282779059463	2.934328	1.712988
30.441446295219233	2.9109824	1.7061601
30.459610594748067	2.8263736	1.6811821
30.47777567820382	2.7474334	1.6575384
30.495941546144504	2.8265498	1.6812346
30.51410819912835	2.8397484	1.6851553
30.532275637713795	2.852521	1.6889408
30.55044386245946	2.846259	1.687086
30.56861287392416	2.8651862	1.6926861
30.586782672666956	2.873103	1.695023
30.604953259247047	2.8673038	1.6933115
30.623124634223885	2.8116624	1.6768012
30.641296798157075	2.8110225	1.6766105
30.659469751606462	2.8705904	1.6942817
30.677643495132074	2.8458388	1.6869614
30.695818029294152	2.8164783	1.6782366
30.713993354653116	2.7923853	1.6710432
30.73216947176962	2.7105048	1.6463611
30.75034638120448	2.6818295	1.6376293
30.768524083518756	2.706073	1.6450146
30.786702579273673	2.7289376	1.6519496
30.80488186903069	2.8290749	1.6819854
30.82306195335144	3.0382807	1.7430664
30.841242832797782	3.3346894	1.8261132
30.85942450793176	3.6099775	1.899994
30.877606979315637	3.9914634	1.9978647
30.895790247511883	4.4260154	2.1038098
30.913974313083134	4.8383317	2.1996207
30.932159176592283	5.144828	2.2682214
30.95034483860237	5.4611583	2.3369122
30.968531299676698	5.5837045	2.3629863
30.98671856037873	5.3820443	2.3199234
31.00490662127215	4.9134774	2.2166364
31.023095482920848	4.367404	2.0898335
31.04128514588892	3.7596376	1.9389784
31.059475610740662	3.237011	1.7991695
31.07766687804056	2.8347058	1.6836585
31.09585894835335	2.681123	1.6374135
31.11405182224393	2.6015935	1.6129456
31.132245500277417	2.5254004	1.5891508
31.15043998301914	2.5033364	1.5821935
31.168635271034628	2.4845865	1.5762571
31.18683136488964	2.5610013	1.6003128
31.20502826515008	2.594324	1.6106906
31.223225972382135	2.5061793	1.5830917
31.241424487152155	2.3726795	1.5403504
31.259623810026692	2.3735955	1.5406477
31.27782394157253	2.4836652	1.5759648
31.296024882356644	2.5134516	1.5853869
31.314226632946237	2.468261	1.5710701
31.332429193908684	2.3764565	1.541576
31.350632565811598	2.3839636	1.544009
31.368836749222787	2.4361045	1.5608026
31.387041744710295	2.4730103	1.5725808
31.40524755284232	2.456479	1.5673159
31.423454174187317	2.4765074	1.5736923
31.441661609313922	2.4965932	1.5800612
31.459869858791002	2.4927237	1.5788362
31.478078923187628	2.3838677	1.5439779
31.496288803073064	2.3615818	1.5367439
31.514499499016807	2.3974323	1.5483644
31.532711011588546	2.40008	1.5492191
31.550923341358178	2.40449	1.5506418
31.56913648889584	2.4035635	1.550343
31.587350454771844	2.3475876	1.5321839
31.605565239556732	2.3212278	1.5235577
31.62378084382127	2.2910297	1.5136148
31.641997268136382	2.2593796	1.5031233
31.660214513073274	2.3431966	1.5307504
31.67843257920331	2.386644	1.5448767
31.6966514670981	2.3431895	1.530748
31.71487117732944	2.3098178	1.5198085
31.733091710469346	2.2872112	1.5123528
31.751313067090052	2.3065467	1.518732
31.769535247764008	2.3320105	1.5270922
31.787758253063878	2.2272606	1.492401
31.805982083562526	2.21088	1.4869028
31.824206739833024	2.229395	1.4931158
31.84243222244869	2.184444	1.4779865
31.860658531983013	2.163717	1.4709579
31.878885669009737	2.2179172	1.4892673
31.897113634102784	2.280743	1.5102129
31.91534242783632	2.2460127	1.4986703
31.933572050784694	2.2442787	1.4980917
31.951802503522508	2.29351	1.5144339
31.970033786624548	2.2532187	1.5010725
31.988265900665834	2.2241368	1.491354
32.006498846221575	2.20483	1.484867
32.02473262386724	2.2299283	1.4932945
32.04296723417845	2.2681952	1.5060529
32.0612026777311	2.292552	1.5141176
32.07943895510129	2.1638916	1.4710172
32.097676066865304	2.1876318	1.4790645
32.115914013599685	2.279758	1.5098867
32.13415279588115	2.3129761	1.5208472
32.152392414286666	2.2734923	1.5078105
32.1706328693934	2.2226417	1.4908527
32.18887416177875	2.2484627	1.4994875
32.20711629202032	2.2205594	1.4901541
32.225359260695924	2.2166727	1.4888494
32.243603068383614	2.175831	1.4750699
32.26184771566166	2.1397815	1.4627992
32.28009320310852	2.1422045	1.4636272
32.2983395313029	2.1555164	1.4681677
32.31658670082372	2.1579225	1.4689869
32.33483471225012	2.128335	1.4588814
32.35308356616143	2.192578	1.4807357
32.371333263137245	2.2131348	1.4876609
32.38958380375734	2.120803	1.4562978
32.407835188601744	2.0393932	1.4280733
32.42608741825067	2.0333045	1.4259398
32.444340493284585	2.0429814	1.429329
32.46259441428416	2.001475	1.414735
32.48084918183028	2.0049224	1.4159528
32.49910479650405	2.041948	1.4289675
32.51736125888683	1.9831282	1.4082358
32.53561856956014	1.9419546	1.3935403
32.5538767291058	1.9726746	1.4045193
32.572135738105764	2.0196874	1.4211571
32.59039559714228	1.9696547	1.4034438
32.608656306797776	2.0229769	1.4223139
32.62691786765491	2.0718892	1.4394058
32.645180280296586	2.1049883	1.4508578
32.663443545305896	2.0957172	1.4476593
32.68170766326619	2.0996318	1.4490106
32.69997263476099	2.020396	1.4214064
32.7182384603741	2.0075014	1.4168632
32.7365051406895	2.018453	1.4207226
32.75477267629144	2.0335586	1.426029
32.77304106776434	1.9647772	1.4017051
32.79131031569289	2.0037727	1.4155468
32.809580420661966	2.0188355	1.4208573
32.827851383256714	1.9448295	1.3945714
32.84612320406245	1.991662	1.4112625
32.86439588366476	2.0794878	1.442043
32.88266942264945	2.0457194	1.4302865
32.9009438216025	2.0269492	1.4237096
32.9192190811102	2.1038713	1.4504728
32.937495201758985	2.089462	1.4454972
32.95577218413556	2.0452802	1.430133
32.974050028826866	2.0139859	1.4191498
32.992328736420035	2.0381143	1.4276254
33.010608307502444	1.954338	1.3979764
33.02888874266169	1.9109739	1.3823798
33.047170042485604	1.9307598	1.3895178
33.06545220756225	2.000683	1.414455
33.083735238479896	1.9995146	1.4140419
33.10201913582707	2.0348198	1.4264711
33.12030390019248	1.9805051	1.4073042
33.138589532165135	2.0036845	1.4155157
33.15687603233419	2.0203524	1.421391
33.17516340128909	1.9773302	1.4061757
33.19345163961947	1.9023	1.379239
33.211740747915215	1.8486985	1.3596685
33.23003072676643	1.8918157	1.3754328
33.248321576763466	1.91353	1.383304
33.266613298496885	1.9038165	1.3797885
33.28490589255747	1.8805463	1.3713301
33.30319935953626	1.8471096	1.3590841
33.32149370002451	1.8059491	1.3438561
33.339788914613706	1.7835125	1.3354821
33.358085003895575	1.8842062	1.3726639
33.376381968462034	1.9534832	1.3976706
33.39467980890529	1.9120995	1.3827869
33.41297852581774	1.8396443	1.3563349
33.43127811979204	1.8816493	1.3717322
33.44957859142105	1.9227805	1.3866436
33.467879941297866	1.9115474	1.3825872
33.486182170015844	1.8458171	1.3586085
33.50448527816853	1.8210584	1.349466
33.522789266349754	1.9258307	1.387743
33.541094135153514	2.0486157	1.4312986
33.55939988517411	2.1406798	1.4631063
33.57770651700602	2.054279	1.4332757
33.59601403124398	2.0121555	1.4185047
33.61432242848296	2.0321164	1.4255232
33.632631709318154	1.9234118	1.3868712
33.650941874344994	1.9507579	1.3966954
33.66925292415916	1.9823011	1.4079422
33.68756485935654	1.946926	1.3953229
33.70587768053328	1.9747442	1.4052559
33.724191388285746	2.046462	1.430546
33.74250598321054	1.9723996	1.4044214
33.760821465904506	1.981324	1.407595
33.77913783696474	1.9562265	1.3986517
33.79745509698852	1.8993336	1.3781631
33.815773246573414	1.8738685	1.3688931
33.8340922863172	1.9059004	1.3805435
33.852412216817896	2.0300694	1.424805
33.87073303867377	2.0353208	1.4266467
33.889054752483304	2.0504992	1.4319564
33.907377358845245	2.0228388	1.4222654
33.92570085835853	2.0145996	1.4193659
33.94402525162239	2.0306733	1.4250169
33.96235053923627	2.038235	1.4276676
33.980676721799824	2.0262036	1.4234478
33.999003799912984	2.0355985	1.426744
34.01733177417592	1.9519838	1.3971342
34.03566064518901	1.9658604	1.4020914
34.0539904135529	2.0432258	1.4294145
34.07232107986846	2.033636	1.4260561
34.090652644736785	1.8858443	1.3732605
34.108985108759235	1.9479866	1.395703
34.12731847253742	1.928676	1.3887678
34.14565273667313	2.0118704	1.4184042
34.16398790176847	2.0613601	1.4357438
34.18232396842574	2.112085	1.4533014
34.20066093724749	2.1679728	1.4724038
34.21899880883651	2.134148	1.4608723
34.23733758379583	2.066136	1.437406
34.25567726272874	2.1103344	1.452699
34.27401784623872	2.1488714	1.4659029
34.29235933492957	2.135451	1.4613183
34.31070172940526	2.1228056	1.4569851
34.32904503027003	2.007291	1.416789
34.347389238128386	1.8370476	1.3553773
34.36573435358502	1.8670819	1.366412
34.38408037724492	1.9344671	1.3908513
34.402427309713296	1.99258	1.4115878
34.42077515159559	2.0535362	1.4330164
34.43912390349752	2.0368884	1.427196
34.45747356602499	2.0717254	1.4393489
34.47582413978423	2.1831038	1.477533
34.49417562538163	2.0789735	1.4418646
34.51252802342388	1.9832425	1.4082764
34.53088133451789	1.9761215	1.4057459
34.54923555927084	1.8689901	1.3671101
34.567590698290104	1.6405896	1.2808551
34.58594675218336	1.6572235	1.2873319
34.6043037215585	1.8607132	1.3640796
34.62266160702365	1.9330537	1.3903431
34.641020409187234	1.9559292	1.3985454
34.65938012865785	2.0536087	1.4330417
34.677740766044394	2.067095	1.4377396
34.69610232195598	1.9283311	1.3886436
34.714464797002016	1.8919077	1.3754663
34.73282819179208	1.8885399	1.3742416
34.751192506936064	1.8590217	1.3634595
34.76955774304408	1.9872651	1.4097039
34.7879239007265	2.0239751	1.4226648
34.80629098059391	2.041932	1.4289619
34.824658983257194	2.010692	1.4179887
34.843027909327446	1.9215732	1.3862082
34.86139775941603	1.8233744	1.3503238
34.879768534134534	1.537231	1.2398512
34.89814023409483	1.5173042	1.231789
34.91651285990901	1.8802385	1.3712178
34.93488641218944	2.1052313	1.4509416
34.95326089154871	1.8686767	1.3669955
34.97163629859967	1.9674987	1.4026755
34.99001263395542	1.9468427	1.395293
35.00838989822934	1.8861312	1.3733649
35.02676809203499	1.9740844	1.4050211
35.04514721598624	2.1041548	1.4505705
35.063527270697215	2.0021749	1.4149823
35.081908256782256	2.0100372	1.4177577
35.10029017485597	2.052643	1.4327048
35.11867302553321	2.0701268	1.4387935
35.137056809429104	2.159242	1.4694359
35.155441527159006	2.0362656	1.4269778
35.173827179338524	1.9631472	1.4011235
35.19221376658354	2.0762346	1.4409145
35.21060128951017	2.010509	1.4179242
35.2289897487348	1.980251	1.4072139
35.24737914487405	1.8847731	1.3728704
35.26576947854479	1.6943705	1.3016798
35.28416075036418	1.7902532	1.3380034
35.30255296094958	2.1088102	1.4521743
35.32094611091867	2.1337137	1.4607236
35.33934020088932	1.940464	1.3930054
35.35773523147969	1.7982473	1.3409874
35.3761312033082	1.9333637	1.3904545
35.394528116993506	1.9038572	1.3798033
35.41292597315452	2.1083398	1.4520123
35.431324772410434	2.305465	1.5183758
35.449724515380666	2.171434	1.4735786
35.46812520268491	2.3331614	1.5274689
35.486526834943106	2.419474	1.5554658
35.504929412775454	2.0152555	1.4195969
35.52333293680242	1.50184	1.2254958
35.54173740764471	1.9072429	1.3810296
35.560142825923286	2.2782056	1.5093726
35.5785491922594	1.9365891	1.3916138
35.59695650727454	1.5085123	1.2282151
35.61536477159042	1.7820303	1.3349271
