0.008763373481513119	0.0	0.0
0.026290120649546365	0.0	0.0
0.043816868432600686	0.0	0.0
0.06134361724069026	0.052548494	0.22923458
0.07887036748382949	0.07282483	0.26986074
0.0963971195720331	0.060210463	0.2453782
0.11392387391531617	0.057919465	0.24066463
0.1314506309236943	0.08091526	0.28445607
0.1489773910071836	0.14103761	0.37554973
0.16650415457580078	0.18580106	0.43104646
0.18403092203956356	0.2020761	0.44952875
0.20155769380849	0.18386605	0.42879605
0.2190844702925996	0.13978569	0.37387925
0.2366112519019124	0.13872413	0.37245688
0.2541380390464497	0.16615543	0.40762168
0.27166483213623416	0.16511819	0.40634736
0.28919163158128947	0.1113574	0.33370256
0.3067184377916406	0.08308287	0.288241
0.324245251177314	0.07764624	0.27865076
0.34177207214833777	0.1544505	0.3930019
0.3592989011147415	0.19860144	0.4456472
0.37682573848655654	0.2200689	0.46911502
0.39435258467381573	0.17404889	0.41719165
0.41187944008655414	0.13596103	0.36872894
0.42940630513480854	0.14451544	0.38015187
0.446933180228618	0.17200737	0.4147377
0.4644600657780234	0.18091445	0.42534038
0.48198696219306775	0.15815128	0.3976824
0.49951386988379676	0.1504339	0.3878581
0.5170407892602581	0.16296336	0.4036872
0.5345677207325025	0.21292675	0.46143985
0.5520946647105822	0.2151711	0.4638654
0.5696216216045534	0.19564866	0.4423219
0.5871485918244737	0.147281	0.38377208
0.6046755757804043	0.14621668	0.3823829
0.6222025738824094	0.16230878	0.40287563
0.6397295865405557	0.1596463	0.39955762
0.6572566141649129	0.1502257	0.3875896
0.6747836571655547	0.15935308	0.39919052
0.6923107159525568	0.16323057	0.404018
0.7098377909359992	0.17963773	0.42383692
0.7273648825259653	0.16859585	0.41060424
0.7448919911325411	0.17139004	0.4139928
0.762419117165817	0.23361759	0.48334002
0.7799462610358868	0.2484869	0.4984846
0.7974734231528482	0.30047378	0.5481549
0.8150006039268024	0.2590046	0.50892496
0.8325278037678551	0.2288516	0.47838438
0.8500550230861152	0.23506764	0.48483774
0.8675822622916969	0.24397522	0.49393848
0.8851095217947171	0.26741123	0.5171182
0.9026368020052984	0.27508086	0.52448153
0.9201641033335665	0.24707201	0.4970634
0.9376914261896523	0.24017213	0.4900736
0.9552187709836915	0.21765885	0.46653923
0.9727461381258234	0.23419608	0.4839381
0.990273528026193	0.22433954	0.47364494
1.0078009410949496	0.2340609	0.4837984
1.0253283777422473	0.23534717	0.48512593
1.0428558383782454	0.24963823	0.4996381
1.0603833234131086	0.26118737	0.51106495
1.0779108332570058	0.30246386	0.54996717
1.0954383683201119	0.33360833	0.5775884
1.112965929012607	0.43553513	0.65995085
1.1304935157446763	0.5064776	0.71167237
1.1480211289265108	0.49689224	0.70490587
1.1655487689683062	1.2000334	1.0954604
1.1830764362802655	1.5130507	1.2300613
1.200604131272596	1.987232	1.4096922
1.2181318543555117	2.4792933	1.5745772
1.235659605939232	2.4962733	1.5799599
1.253187386433982	4.0548725	2.0136714
1.270715196249994	6.4580383	2.5412672
1.2882430357975057	11.868451	3.445062
1.3057709054867608	16.588531	4.072902
1.3232988057280106	22.495361	4.7429276
1.3408267369315112	27.36845	5.2314863
1.358354699507526	31.273865	5.592304
1.3758826938663256	35.4368	5.9528813
1.3934107204181858	37.575626	6.129896
1.410938779573391	37.9043	6.1566467
1.4284668717422309	38.38694	6.1957197
1.4459949973350033	37.66153	6.136899
1.4635231567620117	37.45237	6.119834
1.4810513504335687	36.415657	6.0345387
1.4985795787599925	35.658447	5.9714694
1.5161078421516088	35.259056	5.9379334
1.5336361410187505	34.69191	5.8899837
1.5511644757717598	34.732162	5.8933997
1.5686928468209842	35.59461	5.9661217
1.58622125457678	36.54541	6.04528
1.6037496994495108	37.807793	6.148804
1.621278181849548	37.747883	6.1439304
1.6388067021872719	38.635696	6.215762
1.6563352608730693	37.789738	6.147336
1.673863858317336	36.855637	6.070884
1.6913924949304753	35.92138	5.9934444
1.7089211711228998	34.542286	5.877269
1.7264498873050296	33.604362	5.796927
1.7439786438872935	32.906025	5.7363772
1.7615074412801288	32.29779	5.6831145
1.779036279893981	31.820002	5.640922
1.796565160139305	30.59607	5.5313716
1.814094082426564	30.114914	5.4877057
1.8316230471662298	29.21302	5.404907
1.849152054768784	28.237316	5.3138795
1.8666811056447168	27.37954	5.2325463
1.8842102002045273	26.697994	5.1670103
1.901739338858724	26.420279	5.140066
1.9192685220178245	25.932632	5.092409
1.9367977500923557	25.06801	5.0067964
1.9543270234928547	24.743872	4.9743214
1.971856342629867	23.966381	4.895547
1.9893857079139496	23.509624	4.8486724
2.006915119755667	22.798002	4.7747254
2.0244445785655945	22.193735	4.711023
2.0419740847543175	21.854675	4.6748986
2.0595036387324317	21.14072	4.5979037
2.0770332409105414	20.736767	4.553764
2.094562891699263	20.313244	4.5070214
2.1120925915092217	20.071785	4.4801545
2.129622340751053	19.848986	4.45522
2.1471521398354043	188.20386	13.718741
2.1646819891729323	444.47278	21.082523
2.182211889174303	440.77963	20.994753
2.1997418402501974	453.0229	21.284334
2.2172718428113023	432.90875	20.80646
2.234801897268317	320.74985	17.90949
2.2523320040319548	17.162996	4.1428246
2.269862163512935	16.94303	4.116191
2.287392376121992	16.858168	4.10587
2.304922642269869	16.558989	4.069274
2.322452962367322	16.268688	4.0334463
2.3399833368251164	15.7691555	3.9710395
2.357513766054032	15.514509	3.938846
2.3750442504648586	15.18897	3.8973029
2.3925747904683963	14.915464	3.8620543
2.410105386475459	14.74094	3.8393931
2.4276360388968707	14.480781	3.805362
2.445166748143469	14.272221	3.7778592
2.4626975146261025	14.016636	3.7438798
2.4802283387556323	13.79209	3.7137704
2.4977592209429305	13.428154	3.6644447
2.5152901615988825	13.185447	3.631177
2.5328211611343865	13.08266	3.616996
2.5503522199603523	12.970053	3.6013958
2.5678833384877024	12.841515	3.5835059
2.5854145171273712	12.501154	3.535697
2.6029457562903064	12.175119	3.4892864
2.620477056387469	11.889363	3.4480956
2.6380084178298326	11.874753	3.4459763
2.655539841028383	11.757081	3.42886
2.673071326394119	11.525523	3.394926
2.6906028743380523	11.242381	3.352966
2.708134485271211	10.988768	3.314931
2.7256661596046325	10.858929	3.2952888
2.743197897749369	10.781207	3.283475
2.760729700116486	10.6246195	3.259543
2.778261567117063	10.400562	3.2249904
2.795793499162193	10.16005	3.1874833
2.8133254966629817	10.035508	3.167887
2.830857560030551	9.815683	3.1329992
2.8483896896760337	9.581866	3.095459
2.865921886010578	9.537902	3.0883493
2.883454149445347	9.459746	3.07567
2.9009864803915177	9.528688	3.0868573
2.91851887926028	9.432519	3.0712407
2.9360513464628384	9.283347	3.0468585
2.953583882410413	9.061239	3.0101893
2.9711164875142373	8.939656	2.9899259
2.9886491621855606	8.779526	2.9630265
3.0061819068356455	8.619312	2.9358666
3.023714721875769	8.523724	2.9195416
3.041247607717225	8.536335	2.9217007
3.0587805647713213	8.579683	2.9291096
3.0763135934493806	8.527759	2.9202325
3.0938466941627407	8.418778	2.901513
3.1113798673227544	8.207188	2.864819
3.1289131133407904	7.967642	2.8227012
3.1464464326282315	7.8582053	2.8032491
3.1639798255964786	7.7549047	2.7847629
3.1815132926569443	7.767708	2.7870607
3.1990468342210603	7.6954546	2.7740684
3.216580450700272	7.619643	2.76037
3.2341141425060416	7.500828	2.7387638
3.251647910049847	7.430066	2.7258148
3.2691817537431813	7.3085117	2.703426
3.286715673997555	7.1525745	2.6744297
3.3042496712244938	7.1033773	2.6652162
3.32178374583554	6.981368	2.642228
3.339317898242251	7.0573764	2.6565723
3.3568521288562034	6.932267	2.6329198
3.3743864380889876	6.7968707	2.607081
3.3919208263522127	6.735411	2.595267
3.4094552940575023	6.7023487	2.5888894
3.4269898416164972	6.7232723	2.5929275
3.444524469440858	6.64874	2.578515
3.4620591779422587	6.55236	2.5597577
3.479593967532391	6.503264	2.5501497
3.4971288386229658	6.4768343	2.5449626
3.5146637916257086	6.4487457	2.539438
3.5321988269523628	6.5011373	2.5497327
3.5497339450146903	6.449145	2.5395167
3.5672691462244708	6.4249024	2.534739
3.5848044309934988	6.434363	2.5366046
3.60233979973359	6.3621407	2.5223284
3.619875252856575	6.34405	2.5187397
3.6374107907743034	6.283506	2.5066922
3.6549464138986427	6.3587956	2.5216653
3.6724821226414788	6.414854	2.5327563
3.690017917414714	6.4623227	2.54211
3.7075537986302702	6.380255	2.5259168
3.7250897667000857	6.4603944	2.5417306
3.7426258220361235	6.5695734	2.563118
3.7601619650503553	6.823317	2.612148
3.777698196154779	7.4786534	2.7347126
3.7952345157614067	8.662975	2.9432933
3.8127709242822716	9.558145	3.091625
3.830307422129425	11.797284	3.4347174
3.847844009714936	30.470644	5.520022
3.8653806874508954	97.955734	9.897259
3.882917455749409	97.21347	9.859689
3.900454315022606	97.0809	9.852964
3.917991265682631	41.59359	6.4493093
3.9355283081416506	11.031331	3.3213449
3.9530654428118495	8.776244	2.9624727
3.970602670105433	7.4016237	2.7205925
3.9881399904346244	6.563053	2.5618455
4.005677404211669	6.4658694	2.5428073
4.023214911848827	6.42259	2.534283
4.0407525137583855	6.4666862	2.542968
4.058290210352644	6.4604874	2.5417488
4.075828002043927	6.3741837	2.5247145
4.0933658892445814	6.385458	2.5269463
4.110903872366966	6.36054	2.522011
4.128441951823468	6.277018	2.5053978
4.145980128026488	6.2540965	2.5008192
4.163518401388452	6.2684436	2.503686
4.181056772321807	6.3048286	2.5109417
4.1985952412390155	6.2991123	2.5098033
4.216133808552567	6.2248955	2.4949741
4.233672474674966	6.2235904	2.4947126
4.251211240018741	6.3795075	2.5257688
4.268750104996445	6.594913	2.5680563
4.286289070020643	7.68554	2.7722807
4.303828135503928	9.494748	3.0813549
4.3213673018589125	29.924604	5.470339
4.3389065694982305	91.057304	9.542395
4.356445938834537	166.23074	12.89305
4.3739854102805085	171.56299	13.098206
4.391524984248844	172.33249	13.127547
4.409064661152262	136.18552	11.669855
4.426604441403504	96.4628	9.8215475
4.444144325415337	75.86241	8.709903
4.461684313600543	22.135363	4.7048235
4.47922440637193	22.688747	4.763271
4.496764604142329	20.967768	4.5790577
4.5143049073245916	19.0529	4.3649626
4.531845316331589	16.879623	4.108482
4.5493858315762195	14.044192	3.747558
4.566926453471405	11.62146	3.4090261
4.584467182430081	9.375447	3.0619352
4.602008018865218	8.12569	2.8505597
4.619548963189798	7.4115705	2.72242
4.637090015816834	6.982417	2.6424263
4.654631177159353	6.7381964	2.5958035
4.672172447630417	6.54909	2.559119
4.689713827643102	6.418628	2.5335011
4.7072553176105085	6.130854	2.476056
4.724796917945764	5.975321	2.444447
4.742338629062015	5.868766	2.4225535
4.759880451372434	5.9462833	2.4385002
4.777422385290215	5.9145327	2.4319813
4.794964431228581	5.8359084	2.4157624
4.812506589600768	5.6986465	2.387184
4.830048860820047	5.656126	2.378261
4.847591245299709	5.690435	2.3854632
4.8651337434530655	5.707968	2.3891354
4.882676355693457	5.6648345	2.3800912
4.900219082434242	5.617641	2.3701563
4.917761924088813	5.557768	2.357492
4.935304881070575	5.5523357	2.3563395
4.952847953792969	5.5596185	2.3578844
4.970391142669449	5.5447655	2.3547325
4.9879344481135055	5.5022473	2.345687
5.005477870538642	5.4376893	2.3318853
5.023021410358394	5.3433285	2.311564
5.040565067986324	5.3029833	2.3028207
5.05810884383601	5.3162494	2.3056993
5.075652738321066	5.376998	2.3188355
5.09319675185512	5.392789	2.322238
5.110740884851836	5.34488	2.3118997
5.128285137724894	5.3492084	2.3128355
5.145829510888007	5.337488	2.3103004
5.163374004754908	5.392794	2.322239
5.1809186197393595	5.379542	2.3193839
5.198463356255145	5.409724	2.3258815
5.216008214716077	5.4036875	2.3245833
5.233553195535998	5.401406	2.3240924
5.251098299128764	5.3785534	2.319171
5.268643525908272	5.2895823	2.299909
5.286188876288432	5.2871275	2.2993755
5.3037343506831895	5.263955	2.294331
5.32127994950651	5.263278	2.2941835
5.3388256731723915	5.3383923	2.310496
5.356371522094851	5.371642	2.3176804
5.373917496687938	5.3588214	2.3149128
5.391463597365729	5.294065	2.3008835
5.40900982454232	5.3326144	2.3092453
5.426556178631843	5.2970805	2.3015387
5.444102660048449	5.2999763	2.3021677
5.4616492692063225	5.2340183	2.2877977
5.479196006519669	5.2006435	2.280492
5.496742872402727	5.230504	2.2870295
5.514289867269756	5.241292	2.2893867
5.531836991535049	5.2655616	2.294681
5.549384245612924	5.2674646	2.2950957
5.566931629917724	5.263485	2.2942286
5.584479144863822	5.265492	2.294666
5.6020267908656205	5.2403464	2.2891803
5.619574568337545	5.187177	2.2775376
5.637122477694054	5.247052	2.2906444
5.654670519349629	5.245698	2.2903488
5.672218693718784	5.291982	2.3004308
5.689767001216059	5.2581115	2.2930572
5.707315442256021	5.1949983	2.279254
5.724864017253266	5.1288056	2.2646866
5.7424127266224225	5.101277	2.2586007
5.75996157077814	5.130111	2.2649748
5.777510550135105	5.218212	2.2843406
5.795059665108022	5.299345	2.3020306
5.812608916111639	5.3063917	2.3035607
5.830158303560715	5.367791	2.3168495
5.847707827870055	5.4346633	2.3312364
5.86525748945448	5.5142326	2.3482404
5.8828072887288485	5.611044	2.3687642
5.900357226108044	5.6384306	2.374538
5.917907302006979	5.674514	2.3821237
5.9354575168406	6.3608894	2.5220804
5.9530078710238765	6.988605	2.643597
5.970558364971812	7.47222	2.7335362
5.988108999099438	7.795052	2.7919621
6.005659773821818	8.262889	2.874524
6.023210689554039	8.002829	2.828927
6.040761746711227	8.40383	2.898936
6.058312945708531	7.763393	2.7862866
6.075864286961132	7.303544	2.702507
6.093415770884244	6.651306	2.5790126
6.1109673978931065	6.2033906	2.4906607
6.128519168402993	5.6099916	2.368542
6.146071082829204	5.4145527	2.326919
6.163623141587075	5.2752614	2.2967937
6.181175345091969	5.2482247	2.2909005
6.198727693759281	5.298574	2.3018632
6.216280188004435	5.2860684	2.2991452
6.233832828242885	5.231148	2.2871702
6.251385614890126	5.22442	2.2856991
6.268938548361669	5.1829867	2.2766173
6.286491629073067	5.131067	2.2651858
6.304044857439898	5.0879927	2.255658
6.321598233877777	5.01596	2.239634
6.339151758802344	4.967139	2.2287078
6.356705432629277	4.9611	2.2273526
6.37425925577428	4.9839334	2.2324724
6.391813228653095	5.0248775	2.2416239
6.409367351681486	5.116396	2.2619452
6.426921625275259	5.0835843	2.2546806
6.44447604985025	5.0672393	2.2510529
6.46203062582232	5.0537176	2.2480476
6.47958535360737	5.101494	2.2586486
6.497140233621328	5.093877	2.2569618
6.514695266280161	5.078589	2.2535725
6.532250451999859	5.0363965	2.2441916
6.549805791196454	5.1324477	2.2654905
6.567361284286002	5.1853733	2.2771416
6.584916931684597	5.1107993	2.2607076
6.602472733808367	5.038646	2.2446928
6.6200286910734665	5.012577	2.2388785
6.637584803896092	5.003292	2.236804
6.655141072692462	5.0098057	2.2382596
6.672697497878842	4.9553647	2.226065
6.690254079871514	4.9874167	2.2332525
6.707810819086808	4.9795833	2.231498
6.725367715941078	5.0390463	2.244782
6.742924770850719	5.039176	2.2448108
6.760481984232151	5.057123	2.2488048
6.778039356501836	5.0681195	2.2512484
6.795596888076266	5.069171	2.251482
6.813154579371963	5.072857	2.2523003
6.830712430805492	5.047735	2.2467165
6.84827044279344	5.031337	2.2430642
6.865828615752445	5.0317864	2.2431643
6.883386950099159	5.043943	2.2458725
6.900945446250287	5.028923	2.242526
6.918504104622553	4.9713974	2.2296631
6.936062925632727	4.975949	2.2306836
6.953621909697607	5.0777154	2.2533786
6.971181057234028	5.116313	2.261927
6.988740368658859	5.15064	2.2695022
7.006299844389007	5.193405	2.2789044
7.023859484841407	5.2363424	2.2883055
7.041419290433036	5.366606	2.3165936
7.058979261580902	5.52457	2.3504403
7.0765393987020495	5.770203	2.4021246
7.094099702213559	6.1515565	2.4802332
7.111660172532549	6.4967513	2.5488725
7.129220810076164	6.902053	2.6271758
7.146781615261595	7.5464835	2.7470863
7.16434258850606	7.81858	2.7961724
7.181903730226821	8.230468	2.868879
7.1994650408411704	8.204845	2.8644102
7.217026520766437	8.283547	2.8781152
7.234588170419983	8.56356	2.926356
7.252149990219215	8.606035	2.9336045
7.269711980581568	8.540473	2.9224088
7.2872741419245175	8.316521	2.883838
7.304836474665574	7.8986516	2.810454
7.322398979222286	7.595088	2.7559187
7.339961656012233	7.2302284	2.6889083
7.357524505453039	6.837497	2.6148608
7.375087527962357	6.507349	2.5509505
7.392650723957886	6.1632648	2.4825923
7.410214093857353	5.915631	2.4322069
7.427777638078528	5.7223907	2.3921518
7.445341357039213	5.575467	2.3612428
7.4629052511572525	5.4683332	2.3384469
7.480469320850524	5.3417716	2.3112273
7.498033566536948	5.2955904	2.301215
7.5155979886344735	5.245889	2.2903907
7.5331625875610975	5.2356925	2.2881637
7.550727363734844	5.2561	2.2926185
7.568292317573788	5.2797627	2.2977734
7.585857449496025	5.274978	2.296732
7.603422759919705	5.2706866	2.2957976
7.620988249263007	5.3006806	2.3023207
7.638553917944147	5.278995	2.2976065
7.656119766381391	5.252016	2.2917278
7.673685794993023	5.313872	2.3051836
7.691252004197388	5.4240828	2.3289661
7.70881839441285	5.488232	2.3426976
7.726384966057826	5.4103856	2.3260236
7.743951719550762	5.352247	2.3134925
7.761518655310149	5.3245945	2.3075082
7.779085773754511	5.334675	2.3096914
7.796653075302419	5.328597	2.3083754
7.814220560372475	5.2691407	2.295461
7.831788229383323	5.2724304	2.2961774
7.8493560827536495	5.3517766	2.3133907
7.866924120902174	5.4366164	2.3316553
7.884492344247663	5.445676	2.3335972
7.9020607532089135	5.3983026	2.3234248
7.919629348204771	5.334134	2.3095744
7.937198129654115	5.3549733	2.3140814
7.954767097975865	5.4080477	2.325521
7.972336253588986	5.41874	2.3278186
7.989905596912472	5.41337	2.326665
8.007475128365371	5.42205	2.3285296
8.025044848366756	5.549126	2.3556583
8.042614757335754	5.6858745	2.3845072
8.060184855691523	5.731633	2.394083
8.07775514385327	5.815488	2.4115322
8.095325622240228	5.773444	2.4027991
8.112896291271687	5.812967	2.4110096
8.130467151366968	5.8383327	2.4162643
8.148038202945436	5.9578447	2.4408696
8.165609446426497	6.025249	2.4546382
8.183180882229594	6.0549674	2.4606843
8.200752510774217	5.982047	2.4458225
8.218324332479893	5.8935475	2.427663
8.235896347766193	5.8752894	2.4238997
8.253468557052724	5.9772916	2.44485
8.27104096075914	6.0523324	2.4601488
8.288613559305137	6.0899844	2.4677894
8.306186353110448	6.129693	2.4758217
8.32375934259485	6.1928935	2.4885526
8.341332528178162	6.205142	2.4910123
8.358905910280246	6.268212	2.5036397
8.376479489321003	6.3216004	2.5142794
8.394053265720377	6.4132404	2.5324376
8.411627239898356	6.4156914	2.5329216
8.42920141227497	6.342524	2.518437
8.44677578327029	6.3325996	2.5164657
8.464350353304427	6.2416215	2.4983237
8.48192512279754	6.3076396	2.5115016
8.499500092169827	6.3060193	2.511179
8.51707526184153	6.3056083	2.511097
8.534650632232934	6.2746396	2.504923
8.552226203764365	6.252958	2.5005915
8.569801976856192	6.355559	2.5210233
8.587377951928834	6.352693	2.520455
8.60495412940274	6.3500004	2.5199208
8.622530509698416	6.358429	2.5215926
8.6401070932364	6.452235	2.5401251
8.657683880437283	6.604387	2.5699
8.675260871721695	6.756236	2.599276
8.692838067510303	6.9581323	2.6378272
8.710415468223834	7.0843663	2.6616473
8.727993074283043	7.230902	2.6890337
8.745570886108737	7.226925	2.688294
8.763148904121765	7.2971888	2.701331
8.78072712874302	7.249653	2.692518
8.798305560393441	7.4026628	2.7207835
8.815884199494006	7.5950317	2.7559085
8.833463046465745	7.7672276	2.7869747
8.851042101729728	7.863854	2.8042564
8.86862136570707	8.172623	2.85878
8.886200838818924	8.277521	2.877068
8.903780521486505	8.264864	2.8748677
8.921360414131055	8.368919	2.8929086
8.938940517173874	8.623844	2.9366384
8.956520831036297	8.862432	2.9769835
8.97410135613971	9.1268215	3.021063
8.99168209290554	9.193367	3.0320566
9.009263041755265	9.483326	3.079501
9.026844203110405	9.744952	3.1216905
9.044425577392525	10.007253	3.1634243
9.062007165023239	10.105443	3.178906
9.079588966424197	10.387854	3.2230194
9.097170982017108	10.550083	3.248089
9.11475321222372	11.466217	3.3861804
9.132335657465825	12.372969	3.517523
9.149918318165264	12.440456	3.5271032
9.167501194743924	13.080072	3.6166382
9.18508428762374	12.73313	3.5683513
9.202667597226693	12.832516	3.58225
9.220251123974803	12.545555	3.5419705
9.237834868290143	12.230174	3.4971666
9.255418830594836	11.99627	3.4635632
9.273003011311046	11.432064	3.3811336
9.290587410860985	11.154142	3.3397818
9.308172029666911	10.539051	3.2463906
9.32575686815113	10.239828	3.199973
9.343341926735997	8.915965	2.9859614
9.360927205843916	8.660618	2.9428928
9.378512705897327	8.421346	2.9019556
9.396098427318728	8.224504	2.8678396
9.413684370530664	8.178744	2.8598504
9.431270535955722	8.119931	2.8495493
9.448856924016539	8.049729	2.8372045
9.466443535135806	7.9358435	2.8170629
9.484030369736251	7.9391274	2.8176458
9.501617428240658	7.8923006	2.8093238
9.519204711071852	7.8845854	2.8079505
9.536792218652714	7.901379	2.810939
9.55437995140617	7.959709	2.8212957
9.571967909755191	7.9999766	2.828423
9.589556094122802	8.07472	2.8416052
9.60714450493207	8.124465	2.8503447
9.624733142606116	8.075447	2.8417332
9.642322007568108	8.06423	2.8397589
9.659911100241267	8.080264	2.8425806
9.677500421048851	8.206645	2.8647242
9.695089970414175	8.244732	2.871364
9.712679748760609	8.267557	2.875336
9.730269756511557	8.236686	2.8699627
9.747859994090492	8.290561	2.8793335
9.765450461920915	8.311783	2.8830163
9.78304116042639	8.339765	2.887865
9.800632090030527	8.368519	2.8928392
9.81822325115699	8.378177	2.8945081
9.835814644229481	8.414961	2.9008553
9.853406269671762	8.414477	2.9007719
9.870998127907646	8.36229	2.8917625
9.888590219360985	8.361907	2.8916962
9.906182544455698	8.329715	2.8861246
9.923775103615734	8.362113	2.8917317
9.941367897265108	8.343771	2.8885586
9.958960925827878	8.351995	2.889982
9.97655418972816	8.302899	2.8814752
9.994147689390106	8.342392	2.88832
10.011741425237934	8.37155	2.893363
10.029335397695904	8.371627	2.8933764
10.04692960718833	8.4137535	2.9006472
10.06452405413958	8.486781	2.913208
10.082118738974064	8.497643	2.9150717
10.099713662116246	8.389063	2.8963878
10.117308823990651	8.324287	2.885184
10.134904225021844	8.295102	2.880122
10.152499865634445	8.298242	2.880667
10.170095746253125	8.257157	2.873527
10.18769186730261	8.210428	2.8653846
10.205288229207675	8.164139	2.8572958
10.222884832393145	8.168171	2.8580012
10.2404816772839	8.149164	2.854674
10.258078764304868	8.134424	2.8520913
10.275676093881035	8.16256	2.8570194
10.293273666437438	8.207567	2.864885
10.310871482399158	8.254403	2.8730476
10.32846954219134	8.190398	2.8618872
10.346067846239173	8.168614	2.8580787
10.363666394967908	8.159453	2.8564756
10.38126518880283	8.172756	2.8588033
10.398864228169298	8.193835	2.8624876
10.416463513492713	8.26898	2.8755834
10.434063045198531	8.271708	2.8760576
10.451662823712262	8.320979	2.8846107
10.469262849459467	8.334009	2.8868685
10.486863122865758	8.261338	2.8742545
10.504463644356806	8.288477	2.8789716
10.522064414358338	8.208782	2.8650973
10.539665433296118	8.067903	2.8404055
10.557266701595987	8.010458	2.8302753
10.574868219683818	7.8545427	2.8025956
10.592469987985552	7.84805	2.8014371
10.610072006927185	7.7180257	2.7781334
10.627674276934751	7.6421657	2.7644467
10.64527679843435	7.5282493	2.7437656
10.662879571852143	7.353381	2.711712
10.680482597614331	7.227478	2.688397
10.698085876147173	7.0390162	2.6531146
10.715689407876988	6.9199862	2.6305866
10.733293193230146	6.7974877	2.6071992
10.750897232633072	6.7369857	2.5955703
10.76850152651225	6.7080417	2.5899887
10.786106075294207	6.648567	2.5784817
10.803710879405534	6.533753	2.5561206
10.821315939272877	6.409565	2.5317118
10.83892125532294	6.3670077	2.523293
10.856526827982472	6.362705	2.5224404
10.874132657678285	6.3679557	2.523481
10.891738744837243	6.3366218	2.5172648
10.909345089886271	6.306186	2.511212
10.926951693252343	6.250758	2.5001516
10.944558555362494	6.1505775	2.4800358
10.96216567664381	6.03673	2.4569757
10.979773057523436	5.9595404	2.441217
10.997380698428573	5.913866	2.4318442
11.014988599786477	5.870854	2.4229846
11.032596762024461	5.8372874	2.4160478
11.050205185569892	5.7704763	2.4021816
11.067813870850198	5.6900687	2.3853865
11.085422818292859	5.6097264	2.3684862
11.10303202832541	5.5360627	2.3528838
11.120641501375454	5.481221	2.3412008
11.138251237870636	5.4034743	2.3245375
11.155861238238671	5.3743134	2.3182566
11.173471502907317	5.2996035	2.3020868
11.191082032304402	5.2451973	2.2902396
11.208692826857805	5.1287074	2.264665
11.226303886995465	5.0394225	2.244866
11.243915213145371	5.018061	2.240103
11.261526805735578	4.975056	2.2304833
11.279138665194196	4.941847	2.2230265
11.296750791949393	4.914027	2.2167606
11.314363186429393	4.8413672	2.2003107
11.331975849062479	4.824435	2.1964598
11.34958878027699	4.7017365	2.1683488
11.36720198050133	4.655596	2.157683
11.384815450163948	4.6149096	2.1482341
11.402429189693366	4.5766106	2.1393015
11.420043199518153	4.5282326	2.1279645
11.437657480066942	63.47476	7.967105
11.455272031768422	85.17528	9.229045
11.472886855051353	107.57834	10.371998
11.490501950344528	99.133804	9.956596
11.508117318076819	84.47639	9.191104
11.52573295867715	45.84397	6.7708178
11.543348872574514	4.1613154	2.0399303
11.560965060197946	4.1734977	2.042914
11.57858152197655	4.1651177	2.040862
11.59619825833949	4.1471114	2.0364459
11.613815269715985	4.0758896	2.0188832
11.631432556535323	38.534367	6.2076054
11.649050119226837	83.032524	9.112219
11.666667958219929	93.39674	9.664199
11.68428607394406	107.64045	10.374991
11.701904466828756	82.48547	9.082151
11.719523137303586	65.36347	8.084768
11.737142085798196	4.5911245	2.142691
11.754761312742286	3.6977785	1.9229609
11.772380818565619	3.6448216	1.9091415
11.790000603698015	3.6228387	1.9033756
11.80762066856935	3.59595	1.896299
11.825241013609572	3.542525	1.8821597
11.842861639248683	3.5118904	1.8740039
11.860482545916748	3.5075538	1.8728465
11.878103734043883	3.5072591	1.8727678
11.895725204060282	3.4938843	1.8691936
11.91334695639619	3.468061	1.8622731
11.930968991481919	3.4492915	1.8572268
11.948591309747824	3.412062	1.8471768
11.966213911624347	3.426592	1.8511057
11.98383679754198	3.4049568	1.8452525
12.001459967931268	3.369279	1.8355596
12.019083423222835	3.3255324	1.8236042
12.036707163847352	3.2857509	1.812664
12.05433119023556	3.2321923	1.7978299
12.071955502818259	3.2137852	1.7927033
12.089580102026313	3.2344642	1.7984616
12.107204988290643	3.2877011	1.8132019
12.12483016204224	3.2743433	1.8095146
12.142455623712152	3.220476	1.7945684
12.16008137373149	3.1841688	1.784424
12.177707412531431	3.1449692	1.7734061
12.19533374054321	3.0847397	1.7563426
12.212960358198126	3.0531557	1.7473282
12.230587265927545	3.0950515	1.7592758
12.248214464162889	3.1156983	1.7651341
12.265841953335649	3.1058738	1.762349
12.283469733877375	3.0790284	1.754716
12.301097806219685	3.0402017	1.7436174
12.31872617079425	3.0158339	1.7366157
12.336354828032825	2.9841769	1.7274771
12.353983778367205	2.9292264	1.7114983
12.371613022229262	2.9057097	1.7046143
12.389242560050928	2.879279	1.6968439
12.406872392264201	2.8944228	1.7013003
12.424502519301143	2.8710663	1.6944221
12.442132941593874	2.88276	1.6978693
12.459763659574586	2.8796747	1.6969604
12.477394673675532	2.8655584	1.692796
12.49502598432903	2.8573987	1.6903841
12.51265759196746	2.8976529	1.7022494
12.530289497023267	2.953347	1.7185304
12.547921699928967	2.9640067	1.721629
12.565554201117134	2.897609	1.7022364
12.583187001020404	2.8424668	1.6859617
12.600820100071486	2.7880433	1.6697434
12.618453498703152	2.763881	1.6624924
12.636087197348235	2.762077	1.6619498
12.65372119643964	2.8027797	1.6741505
12.671355496410326	2.8264916	1.6812173
12.68899009769333	2.874622	1.695471
12.706625000721749	2.9122238	1.7065239
12.724260205928752	2.941378	1.7150446
12.741895713747551	2.9420948	1.7152536
12.759531524611454	2.9635367	1.7214926
12.777167638953818	3.0034206	1.733038
12.794804057208072	3.0126224	1.7356907
12.812440779807702	3.015175	1.736426
12.830077807186271	3.152028	1.7753952
12.847715139777405	3.1940172	1.7871814
12.865352778014795	3.4055712	1.8454189
12.882990722332197	3.5160892	1.8751237
12.90062897316344	3.5861328	1.8937087
12.918267530942412	3.6994996	1.9234084
12.935906396103071	3.6193407	1.9024565
12.953545569079449	3.8531363	1.9629407
12.971185050305628	3.6905088	1.9210697
12.988824840215775	3.6716442	1.9161536
13.006464939244115	3.6439865	1.9089229
13.024105347824943	3.4943645	1.869322
13.041746066392617	3.572288	1.8900497
13.05938709538157	3.3874276	1.8404965
13.077028435226296	3.4013638	1.8442787
13.094670086361363	3.2874029	1.8131196
13.112312049221401	3.2056847	1.7904426
13.129954324241112	3.104598	1.761987
13.147596911855258	2.9063482	1.7048016
13.165239812498685	2.8777013	1.6963788
13.182883026606293	2.799848	1.6732746
13.200526554613058	2.776933	1.6664132
13.218170396954017	2.7328985	1.653148
13.235814554064284	2.7456431	1.6569983
13.253459026379034	2.7756803	1.6660373
13.271103814333523	2.785431	1.668961
13.288748918363058	2.7758424	1.666086
13.306394338903031	2.7383592	1.6547989
13.32404007638889	2.6835656	1.6381593
13.341686131256164	2.68964	1.6400123
13.359332503940449	2.699642	1.6430587
13.376979194877402	2.7717466	1.6648563
13.394626204502751	2.8056173	1.6749977
13.412273533252307	2.794344	1.6716291
13.429921181561937	2.7490501	1.658026
13.447569149867581	2.735734	1.6540054
13.465217438605247	2.756729	1.66034
13.482866048211022	2.7170582	1.6483501
13.500514979121052	2.711596	1.6466924
13.518164231771568	2.6890006	1.6398172
13.535813806598844	2.6840827	1.638317
13.553463704039254	2.684278	1.6383766
13.571113924529229	2.6828668	1.6379459
13.588764468505275	2.68823	1.6395823
13.606415336403956	2.7489612	1.6579992
13.624066528661917	2.765673	1.6630312
13.641718045715882	2.8287075	1.6818762
13.659369888002635	2.8530657	1.689102
13.67702205595903	2.932688	1.7125093
13.694674550021993	3.0240567	1.7389815
13.712327370628532	3.0828834	1.7558142
13.729980518215713	3.120658	1.7665384
13.747633993220681	3.186843	1.785173
13.765287796080647	3.2910001	1.8141114
13.7829419272329	3.4038184	1.844944
13.800596387114801	3.4386344	1.8543556
13.818251176163775	3.394056	1.8422964
13.835906294817324	3.4456973	1.856259
13.853561743513023	3.4860995	1.8671099
13.871217522688525	3.5086887	1.8731494
13.888873632781538	3.4934795	1.8690852
13.906530074229858	3.5045965	1.8720567
13.92418684747135	3.5181153	1.875664
13.941843952943948	3.5376782	1.8808717
13.959501391085665	3.5566504	1.8859084
13.977159162334578	3.5244539	1.8773528
13.994817267128846	3.4549499	1.8587495
14.012475705906693	3.3186681	1.8217212
14.030134479106424	3.1664648	1.7794564
14.047793587166414	3.0905023	1.7579825
14.065453030525108	3.0216446	1.7382878
14.083112809621026	3.0129552	1.7357867
14.100772924892766	2.9814546	1.7266889
14.118433376778997	2.9887767	1.7288079
14.136094165718458	2.894479	1.7013168
14.153755292149969	2.8601358	1.6911936
14.171416756512416	2.7825675	1.668103
14.189078559244768	2.737759	1.6546175
14.20674070078606	2.6422014	1.625485
14.224403181575408	2.5872653	1.6084979
14.242066002051999	2.5259624	1.5893277
14.259729162655093	2.48753	1.5771905
14.277392663824022	2.4594345	1.5682584
14.295056505998208	2.4400477	1.5620652
14.312720689617128	2.444624	1.5635294
14.330385215120348	2.4247642	1.5571654
14.348050082947497	2.425594	1.5574319
14.3657152935383	2.4058657	1.5510854
14.383380847332528	2.4110556	1.5527574
14.401046744770051	2.3975537	1.5484036
14.418712986290798	2.3912203	1.5463572
14.436379572334793	2.3762338	1.5415038
14.454046503342123	2.407783	1.5517032
14.471713779752946	2.421839	1.5562259
14.489381402007504	2.461326	1.5688614
14.507049370546113	2.4560113	1.5671667
14.524717685809168	2.4806364	1.5750036
14.542386348237134	2.4364383	1.5609095
14.560055358270553	2.3991928	1.5489328
14.577724716350051	2.3962903	1.5479956
14.595394422916325	2.4096918	1.5523182
14.61306447841015	2.4934542	1.5790675
14.63073488327237	2.5157747	1.5861194
14.648405637943917	2.5760016	1.6049927
14.6660767428658	2.5841486	1.6075287
14.683748198479094	2.579441	1.6060638
14.701420005224954	2.559298	1.5997807
14.719092163544628	2.6226187	1.6194501
14.73676467387942	2.6514666	1.6283325
14.754437536670727	2.6636496	1.6320691
14.772110752360014	2.6467822	1.6268934
14.78978432138882	2.664487	1.6323256
14.807458244198777	2.7145321	1.6475837
14.82513252123159	2.6841888	1.6383494
14.842807152929028	2.6891873	1.6398742
14.860482139732962	2.6750796	1.6355671
14.87815748208531	2.6749275	1.6355206
14.8958331804281	2.684297	1.6383824
14.91350923520342	2.6129973	1.6164768
14.931185646853438	2.678641	1.6366554
14.948862415820408	2.6964629	1.642091
14.966539542546656	2.7468584	1.6573648
14.98421702747459	2.7089944	1.6459023
15.001894871046696	2.709291	1.6459924
15.019573073705542	2.6899393	1.6401035
15.037251635893766	2.6509385	1.6281703
15.054930558054092	2.644948	1.6263297
15.072609840629323	2.6711178	1.6343554
15.090289484062351	2.8151848	1.6778512
15.107969488796124	3.0752316	1.7536339
15.125649855273691	3.4963717	1.8698587
15.14333058393817	4.0077004	2.0019243
15.161011675232768	5.010786	2.2384784
15.17869312960076	6.4445457	2.538611
15.196374947485506	8.3531685	2.8901849
15.214057129330447	11.496841	3.3906991
15.231739675579114	16.309586	4.0385127
15.249422586675102	21.39233	4.6251845
15.267105863062092	24.58241	4.958065
15.284789505183847	24.865774	4.9865594
15.302473513484218	22.764668	4.7712336
15.320157888407127	19.098623	4.3701973
15.337842630396578	14.786047	3.845263
15.355527739896656	11.399592	3.3763282
15.37321321735153	8.844462	2.973964
15.39089906320545	6.451549	2.53999
15.408585277902748	4.8069477	2.1924753
15.42627186188783	3.731297	1.9316566
15.443958815605198	3.1752534	1.7819241
15.461646139499424	2.9164686	1.7077671
15.479333834015168	2.7573698	1.660533
15.497021899597165	2.7074542	1.6454344
15.514710336690234	2.6897812	1.6400553
15.53239914573928	2.6237957	1.6198134
15.550088327189297	2.575586	1.6048633
15.567777881485336	2.5261197	1.5893772
15.58546780907256	2.493445	1.5790646
15.6031581103962	2.4524324	1.5660244
15.620848785901568	2.4380002	1.5614097
15.638539836034063	2.4741137	1.5729315
15.656231261239173	2.5128858	1.5852084
15.673923061962451	2.4698503	1.5715758
15.691615238649552	2.4130948	1.5534139
15.709307791746202	2.3611658	1.5366086
15.727000721698221	2.371757	1.540051
15.744694028951498	2.3870828	1.5450187
15.76238771395202	2.4216876	1.5561773
15.780081777145844	2.4267066	1.557789
15.797776218979125	2.4254084	1.5573722
15.815471039898094	2.3914564	1.5464334
15.833166240349064	2.3779933	1.5420743
15.850861820778437	2.3771284	1.5417938
15.868557781632699	2.397619	1.5484247
15.886254123358412	2.3954623	1.5477281
15.903950846402232	2.3775754	1.5419389
15.921647951210897	2.3580608	1.5355979
15.939345438231225	2.376098	1.5414597
15.957043307910133	2.3903077	1.546062
15.974741560694602	2.4148397	1.5539755
15.992440197031714	2.4134386	1.5535246
16.01013921736862	2.4473047	1.5643864
16.02783862215259	2.4741244	1.572935
16.045538411830933	2.5012941	1.581548
16.06323858685107	2.4568362	1.5674298
16.080939147660512	2.4363585	1.5608839
16.09864009470684	2.408441	1.5519153
16.11634142843774	2.403106	1.5501955
16.134043149300954	2.4293668	1.5586426
16.15174525774433	2.4561489	1.5672106
16.169447754215817	2.4556468	1.5670503
16.18715063916342	2.4335232	1.5599754
16.204853913035244	2.4294999	1.5586853
16.222557576279478	2.4437099	1.563237
16.240261629344403	22.43345	4.7363963
16.257966072678386	43.00082	6.557501
16.275670906729868	38.126984	6.174705
16.293376131947387	2.5350308	1.592178
16.31108174877957	2.508697	1.5838867
16.328787757675133	2.4815776	1.5753024
16.34649415908287	2.5152085	1.5859408
16.364200953451657	2.5717497	1.6036676
16.38190814123048	2.6538033	1.6290498
16.39961572286839	2.6783607	1.6365697
16.41732369881455	2.6972206	1.6423217
16.43503206951817	2.6907952	1.6403643
16.45274083542859	2.7314723	1.6527166
16.47044999699522	2.7982855	1.6728077
16.488159554667558	2.859321	1.6909528
16.505869508895184	2.8761628	1.6959254
16.523579860127786	2.9268677	1.7108091
16.541290608815117	2.978876	1.7259421
16.559001755407035	3.0600317	1.7492946
16.57671330035348	3.1003141	1.7607709
16.59442524410448	3.1823602	1.7839171
16.61213758711015	3.2551167	1.8041942
16.629850329820705	3.3300896	1.8248533
16.647563472686436	3.3752549	1.8371867
16.665277016157724	3.4219296	1.8498459
16.682990960685053	3.4874892	1.8674821
16.70070530671898	3.497434	1.8701427
16.718420054710155	3.507438	1.8728155
16.736135205109335	3.5269907	1.8780284
16.753850758367335	3.5896297	1.8946317
16.771566714935087	3.6928277	1.9216732
16.789283075263597	3.7438707	1.9349085
16.80699983980398	3.8186	1.9541239
16.82471700900741	3.875688	1.9686767
16.84243458332518	3.979537	1.9948777
16.860152563208665	4.0315504	2.007872
16.87787094910932	4.1273527	2.0315888
16.89558974147871	4.173717	2.0429678
16.913308940768466	4.251164	2.061835
16.931028547430333	4.3022695	2.0741913
16.94874856191613	4.382987	2.0935585
16.966468984677785	4.414382	2.101043
16.98418981616729	4.4464254	2.108655
17.00191105683676	4.4933043	2.1197414
17.019632707138374	4.5246453	2.1271214
17.03735476752442	4.552147	2.1335762
17.05507723844728	4.588227	2.1420147
17.072800120359403	4.6504564	2.1564918
17.090523413713353	4.6721306	2.1615112
17.108247118961785	4.66339	2.1594884
17.125971236557437	4.642715	2.154696
17.143695766953133	4.6665983	2.160231
17.161420710601806	4.7245746	2.1736085
17.179146067956477	4.7869353	2.1879065
17.19687183947025	4.783275	2.18707
17.21459802559634	4.742086	2.177633
17.232324626788028	4.7052255	2.1691532
17.25005164349871	4.680404	2.1634243
17.267779076181863	4.681861	2.163761
17.285506925291074	4.6670895	2.1603448
17.30323519127999	4.6416564	2.1544504
17.320963874602384	4.590414	2.1425252
17.33869297571211	4.573884	2.138664
17.356422495063114	4.615428	2.1483548
17.37415243310944	4.587528	2.1418517
17.391882790305218	4.6222982	2.1499531
17.40961356710468	4.5836873	2.1409547
17.42734476396215	4.6115456	2.147451
17.445076381332044	4.6073694	2.1464784
17.462808419668868	4.7119865	2.170711
17.48054087942723	4.819793	2.1954029
17.498273761061835	5.0686765	2.251372
17.51600706502747	5.504437	2.3461537
17.533740791779024	6.2257247	2.4951403
17.551474941771485	7.6469436	2.7653108
17.56920951545993	8.789876	2.9647725
17.586944513299528	10.987992	3.314814
17.60467993574556	12.702663	3.5640795
17.622415783253373	14.515565	3.8099298
17.64015205627843	15.978933	3.9973657
17.657888755276293	17.082998	4.133158
17.675625880702604	17.518366	4.185495
17.69336343301311	17.39839	4.171138
17.71110141266366	16.623045	4.077137
17.728839820110178	15.689463	3.9609926
17.746578655808705	14.7	3.8340578
17.764317920215372	13.17342	3.6295207
17.7820576137864	11.586498	3.4038947
17.79979773697811	9.568414	3.0932853
17.81753829024692	7.611967	2.7589793
17.835279274049356	5.9301796	2.435196
17.85302068884201	4.886453	2.2105324
17.870762535081607	4.2180023	2.0537775
17.888504813224934	3.9335046	1.9833065
17.90624752372891	3.7488153	1.9361857
17.923990667050536	3.6841116	1.9194039
17.941734243646895	3.596289	1.8963884
17.959478253975185	3.522941	1.8769499
17.9772226984927	3.479423	1.8653212
17.994967577656833	3.4661767	1.861767
18.01271289192506	3.4238849	1.8503742
18.030458641754965	3.4048753	1.8452305
18.04820482760425	3.3905437	1.8413429
18.06595144993067	3.3611894	1.8333547
18.083698509192125	3.3285325	1.8244267
18.101446005846576	3.2869496	1.8129947
18.119193940352105	3.259018	1.8052751
18.136942313166887	3.2113855	1.7920339
18.1546911247492	3.1941068	1.7872064
18.1724403755574	3.1547842	1.7761712
18.19019006604997	3.1080613	1.7629695
18.207940196685467	3.104157	1.7618618
18.225690767922575	3.117838	1.76574
18.243441780220046	3.1010206	1.7609714
18.261193234036764	3.0891557	1.7575994
18.278945129831676	3.0599723	1.7492776
18.29669746806386	3.0546212	1.7477474
18.314450249192483	3.06811	1.7516022
18.3322034736768	3.058748	1.7489277
18.349957141976184	3.0551279	1.7478924
18.3677112545501	3.0414016	1.7439615
18.385465811858108	3.070151	1.7521846
18.403220814359884	3.0922437	1.7584777
18.420976262515172	3.1183226	1.7658772
18.43873215678387	3.1477435	1.7741882
18.456488497625923	3.1873257	1.7853082
18.474245285501407	3.2585995	1.8051591
18.492002520870486	3.286505	1.812872
18.50976020419343	3.3615441	1.8334514
18.527518335930615	3.6915116	1.9213307
18.545276916542516	4.3310766	2.0811238
18.563035946489688	4.516852	2.1252887
18.580795426232832	4.9467564	2.2241304
18.598555356232698	4.779774	2.1862695
18.616315736950185	5.12148	2.2630687
18.63407656884626	4.78365	2.1871557
18.65183785238201	5.0092525	2.238136
18.669599588018617	4.768391	2.1836646
18.68736177621737	4.7254453	2.1738088
18.705124417439652	4.656308	2.1578481
18.72288751214696	4.4142485	2.1010113
18.740651060800886	4.5194063	2.1258895
18.758415063863115	4.255096	2.0627885
18.77617952179546	4.48654	2.1181455
18.793944435059814	4.290701	2.0714006
18.811709804118184	4.302955	2.0743566
18.829475629432675	4.251445	2.0619032
18.8472419114655	4.035904	2.008956
18.86500865067897	4.1057363	2.0262616
18.88277584753551	3.7896528	1.9467031
18.90054350249763	3.8451307	1.9609004
18.918311616027957	3.500218	1.8708869
18.936080188589226	3.3859684	1.8401002
18.953849220644265	3.087343	1.7570837
18.971618712656007	2.9249184	1.7102393
18.9893886650875	2.8662806	1.6930094
19.007159078401887	8.039538	2.835408
19.024929953062408	32.905807	5.736358
19.042701289532435	32.83414	5.7301083
19.060473088275405	25.402742	5.0401134
19.07824534975489	2.6713774	1.6344349
19.096018074434568	2.6528158	1.6287467
19.113791262778197	2.6754205	1.6356713
19.13156491524966	2.6659179	1.6327639
19.149339032312945	2.6493735	1.6276896
19.167113614432136	2.6116898	1.6160723
19.184888662071433	2.568127	1.6025376
19.202664175695123	2.5277019	1.5898747
19.220440155767623	2.512609	1.5851212
19.238216602753447	2.5349324	1.5921471
19.2559935171172	2.5184069	1.5869489
19.27377089932361	2.5100656	1.5843186
19.291548749837514	2.526449	1.5894808
19.309327069123835	2.5571792	1.5991182
19.32710585764763	2.54778	1.5961767
19.344885115874032	2.5294106	1.5904121
19.362664844268313	2.5160837	1.5862168
19.380445043295822	2.5405276	1.5939033
19.39822571342203	2.5525663	1.5976753
19.41600685511252	2.535668	1.592378
19.43378846883297	2.4878542	1.5772933
19.451570555049173	2.500187	1.581198
19.469353114227037	2.4677827	1.5709178
19.48713614683254	2.4798326	1.5747484
19.50491965333182	2.5106902	1.5845158
19.52270363419109	2.5331063	1.5915736
19.540488089876686	2.521475	1.5879153
19.55827302085503	2.4651973	1.5700947
19.576058427592674	2.440852	1.5623226
19.593844310556282	2.5085633	1.5838444
19.611630670212598	2.5485275	1.5964109
19.629417507028506	2.5345893	1.5920393
19.64720482147098	2.5229323	1.5883741
19.6649926140071	2.5421453	1.5944107
19.682780885104084	2.5321667	1.5912783
19.70056963522921	2.4943697	1.5793574
19.718358864849908	2.477082	1.5738748
19.7361485744337	2.4569917	1.5674794
19.753938764448215	2.500251	1.5812182
19.771729435361202	2.5213926	1.5878893
19.789520587640506	2.5031364	1.5821303
19.807312221754092	2.465086	1.5700592
19.825104338170043	2.457775	1.5677292
19.842896937356517	2.5235538	1.5885698
19.860690019781824	2.5678315	1.6024455
19.87848358591436	2.6081257	1.6149693
19.896277636222635	2.589585	1.6092187
19.914072171175278	2.5616412	1.6005127
19.931867191241015	2.5216582	1.587973
19.94966269688869	2.4972332	1.5802636
19.967458688587264	2.4651997	1.5700954
19.985255166805807	2.4724069	1.5723889
20.00305213201348	2.5029447	1.5820698
20.020849584679578	2.5236316	1.5885942
20.038647525273507	2.532024	1.5912335
20.05644595426477	2.5112731	1.5846997
20.07424487212299	2.4618473	1.5690275
20.092044279317903	2.4631796	1.569452
20.109844176319353	2.4969664	1.5801792
20.127644563597304	2.4982762	1.5805936
20.145445441621817	2.4735408	1.5727494
20.16324681086307	2.4726102	1.5724536
20.181048671791373	2.4354658	1.5605979
20.198851024877122	2.4214094	1.5560879
20.216653870590836	2.4089596	1.5520823
20.234457209403146	2.4012356	1.549592
20.252261041784802	2.377254	1.5418346
20.270065368206662	2.36516	1.5379077
20.287870189139685	2.3499181	1.5329443
20.305675505054968	2.3748646	1.5410596
20.323481316423702	2.37812	1.5421154
20.341287623717207	2.3843036	1.544119
20.359094427406884	2.374758	1.541025
20.376901727964288	2.38516	1.5443963
20.39470952586107	2.3692586	1.5392396
20.41251782156899	2.3578882	1.5355417
20.430326615559935	2.361143	1.5366012
20.448135908305886	2.3734646	1.5406053
20.465945700278965	2.3814385	1.543191
20.483755991951384	2.3485558	1.5324999
20.50156678379548	2.338867	1.5293355
20.519378076283708	2.3340046	1.527745
20.537189869888635	2.337803	1.5289875
20.55500216508294	2.3533185	1.534053
20.572814962339415	2.3387742	1.5293051
20.59062826213098	2.286367	1.5120738
20.60844206493066	2.294753	1.5148443
20.626256371211593	2.336321	1.528503
20.644071181447032	2.3466625	1.531882
20.66188649611036	2.344546	1.5311911
20.67970231567506	2.3249946	1.5247933
20.697518640614742	2.3415115	1.5301998
20.715335471403122	2.3535328	1.5341228
20.73315280851404	2.3346648	1.527961
20.750970652421447	2.3175893	1.5223631
20.768789003599412	2.2681522	1.5060385
20.786607862522136	2.2750554	1.5083287
20.8044272296639	2.2832797	1.5110525
20.82224710549913	2.3299515	1.5264179
20.84006749050237	2.3356571	1.5282856
20.857888385148268	3.8678102	1.9666749
20.8757097899116	45.96454	6.779715
20.893531705267254	64.7961	8.0496025
20.911354131690224	83.792244	9.1538105
20.92917706965566	69.020775	8.307875
20.94700051963877	50.10841	7.0787296
20.96482448211493	29.42878	5.42483
20.982648957559622	4.1741357	2.04307
21.00047394644843	2.2865481	1.5121336
21.01829944925707	2.2916172	1.5138088
21.036125466461375	2.3103797	1.5199933
21.053951998537297	2.301941	1.5172149
21.071779045960906	2.2967737	1.515511
21.089606609208378	2.2821689	1.5106848
21.10743468875603	2.2713745	1.507108
21.12526328508028	2.2431462	1.4977137
21.143092398657675	2.2525856	1.5008616
21.16092202996488	2.2648015	1.5049257
21.17875217947867	2.266709	1.5055594
21.19658284767596	2.2455938	1.4985305
21.21441403503377	2.2314734	1.4938117
21.232245742029225	2.1913614	1.4803247
21.2500779691396	2.2196856	1.4898609
21.26791071684227	2.2322338	1.4940662
21.28574398561475	2.2454896	1.4984958
21.30357777593465	2.2052786	1.485018
21.321412088279704	2.2142494	1.4880354
21.339246923127792	2.2195551	1.4898171
21.357082280956888	2.1957824	1.4818172
21.3749181622451	2.141082	1.4632437
21.392754567470647	2.114324	1.4540715
21.41059149711187	2.119517	1.4558561
21.42842895164726	2.140462	1.4630318
21.446266931555378	2.1464407	1.4650736
21.464105437314945	2.1377475	1.4621038
21.481944469404798	2.121516	1.4565425
21.49978402830388	2.1248198	1.4576762
21.51762411449127	2.1287346	1.4590183
21.53546472844617	2.1223207	1.4568187
21.553305870647876	2.117059	1.4550117
21.571147541575865	2.104975	1.4508532
21.58898974170967	2.0802522	1.442308
21.60683247152899	2.0764601	1.4409927
21.62467573151363	2.1005826	1.4493387
21.642519522143523	2.122254	1.4567958
21.660363843898722	2.0858443	1.4442452
21.6782086972594	2.0668159	1.4376425
21.696054082705864	2.071486	1.4392657
21.713900000718535	2.1104822	1.4527498
21.73174645177795	2.1404772	1.463037
21.749593436364794	2.113267	1.453708
21.767440954959845	2.099225	1.4488703
21.785289008044032	2.063051	1.4363325
21.803137596098388	2.0591571	1.4349763
21.820986719604086	2.0319662	1.4254705
21.838836379042412	2.0246484	1.4229014
21.85668657489478	1.997046	1.4131688
21.87453730764273	1.9950985	1.4124795
21.892388577767914	1.9984014	1.4136482
21.91024038575213	2.0190394	1.4209291
21.928092732077285	2.0026734	1.4151584
21.945945617225426	2.000247	1.4143009
21.963799041678694	2.0047793	1.4159023
21.981653005919398	31.334366	5.5977106
21.999507510429943	78.16579	8.841142
22.01736255569286	73.117355	8.550869
22.035218142190818	4.181995	2.0449927
22.05307427040661	1.9839708	1.408535
22.07093094082315	1.9861894	1.4093223
22.088788153923474	2.0425653	1.4291835
22.106645910190746	2.0314584	1.4252924
22.12450421010827	2.0155976	1.4197174
22.142363054159464	1.980343	1.4072466
22.16022244282787	1.9964015	1.4129407
22.178082376597164	1.9729227	1.4046077
22.195942855951145	1.9899433	1.4106535
22.213803881373742	2.0142074	1.4192277
22.231665453349002	2.019393	1.4210535
22.24952757236111	2.0090933	1.4174249
22.26739023889438	1.9785932	1.4066248
22.28525345343323	1.9902226	1.4107525
22.30311721646225	1.9641099	1.4014671
22.320981528466113	1.9633785	1.4012061
22.33884638992964	1.9514248	1.396934
22.356711801337788	1.9493372	1.3961867
22.37457776317561	1.9729344	1.4046118
22.392444275928337	1.9773338	1.406177
22.410311340081282	2.0073578	1.4168125
22.428178956119904	2.0118287	1.4183894
22.446047124529805	1.9827832	1.4081134
22.46391584579669	1.9646596	1.4016632
22.481785120406414	1.9481226	1.3957516
22.49965494884496	1.9451255	1.3946775
22.51752533159841	2.0144494	1.419313
22.53539626915302	2.034994	1.4265321
22.553267761995137	2.0222044	1.4220424
22.571139810611264	1.9649756	1.4017758
22.589012415488025	1.9411287	1.3932439
22.60688557711216	1.952368	1.3972716
22.624759295970566	1.9737792	1.4049125
22.642633572550263	2.0034943	1.4154484
22.660508407338362	1.980196	1.4071944
22.67838380082217	1.971386	1.4040605
22.696259753489077	1.9611515	1.4004111
22.714136265826614	1.9640293	1.4014384
22.73201333832246	1.954576	1.3980615
22.74989097146439	1.9566092	1.3987885
22.76776916574035	1.950782	1.396704
22.785647921638393	1.9606972	1.400249
22.803527239646712	1.9418224	1.3934929
22.82140712025363	1.9346172	1.3909051
22.839287563947593	1.8982873	1.3777834
22.85716857121719	1.9233022	1.3868318
22.875050142551135	1.9343793	1.3908197
22.892932278438277	1.9253128	1.3875564
22.910814979367604	1.8868833	1.3736387
22.928698245828222	1.9139911	1.3834707
22.946582078309387	1.9456265	1.3948572
22.96446647730047	1.9762597	1.4057951
22.98235144329098	1.9573565	1.3990556
23.000236976770562	1.9121952	1.3828214
23.018123078229	1.8407598	1.356746
23.03600974815619	1.8635092	1.3651041
23.053896987042194	1.9286302	1.3887513
23.071784795377173	1.9574627	1.3990935
23.08967317365145	1.9060591	1.380601
23.10756212235546	1.8818816	1.3718169
23.125451641979787	1.9203609	1.3857709
23.143341733015134	1.9459475	1.3949722
23.161232395952357	1.9524786	1.3973112
23.179123631282426	1.9437227	1.3941746
23.197015439496468	1.9447659	1.3945487
23.214907821085717	1.9568833	1.3988864
23.23280077654157	1.935478	1.3912146
23.250694306355538	1.933089	1.3903557
23.268588411019277	1.9286379	1.388754
23.28648309102458	1.9548782	1.3981696
23.304378346863356	1.9549617	1.3981994
23.322274179027676	1.9520973	1.3971747
23.340170588009723	1.9544411	1.3980132
23.358067574301852	1.9215922	1.3862151
23.37596513839651	1.9256996	1.3876958
23.39386328078629	1.9087414	1.381572
23.411762001963947	1.9311441	1.3896561
23.429661302422353	1.9174562	1.3847224
23.4475611826545	1.9171808	1.3846229
23.46546164315356	1.9385058	1.3923023
23.48336268441279	1.9419786	1.393549
23.501264306925638	1.936318	1.3915164
23.51916651118564	1.9013325	1.3788881
23.537069297686497	1.9369336	1.3917376
23.554972666922037	1.9787375	1.406676
23.57287661938623	1.9917251	1.4112849
23.59078115557318	1.975385	1.4054838
23.608686275977128	1.9419487	1.3935382
23.62659198109246	1.9283682	1.388657
23.6444982714137	1.9111656	1.3824492
23.66240514743549	1.9067903	1.3808658
23.68031260965263	1.8850582	1.3729742
23.698220658560068	1.8745173	1.3691301
23.716129294652845	1.8789897	1.3707625
23.7340385184262	1.9065515	1.3807793
23.75194833037546	1.9184386	1.3850771
23.769858730996123	1.9623094	1.4008245
23.78776972078382	1.9764392	1.4058589
23.80568130023431	1.9271679	1.3882247
23.823593469843495	1.9116796	1.382635
23.841506230107424	1.9340007	1.3906835
23.859419581522275	1.9612292	1.4004389
23.87733352458438	1.969809	1.4034989
23.89524805979019	1.9612951	1.4004625
23.913163187636318	1.9424843	1.3937303
23.931078908619508	1.9255729	1.3876501
23.948995223236633	1.9587121	1.39954
23.966912131984735	2.0025194	1.415104
23.98482963536096	2.0999901	1.4491342
24.002747733862616	2.1139674	1.4539489
24.020666427987155	2.0701425	1.438799
24.038585718232156	2.0134559	1.418963
24.056505605095353	2.0260239	1.4233847
24.074426089074617	2.0697489	1.4386622
24.092347170667946	2.0866342	1.4445187
24.110268850373515	2.1055512	1.4510517
24.128191128689586	2.1217568	1.4566251
24.146114006114626	2.0650086	1.4370137
24.164037483147187	2.039179	1.4279983
24.181961560286005	2.0290945	1.4244629
24.199886238029926	2.0472832	1.430833
24.21781151687797	2.0465229	1.4305673
24.235737397329274	2.0266807	1.4236153
24.253663879883135	2.0325189	1.4256643
24.271590965038975	2.0494788	1.4316001
24.289518653296376	2.0706048	1.4389596
24.30744694515505	2.0564797	1.4340432
24.32537584111486	2.0702386	1.4388324
24.34330534167581	2.0562642	1.433968
24.361235447338046	2.0472033	1.4308051
24.379166158601876	2.0135367	1.4189914
24.39709747596772	2.0220535	1.4219893
24.41502939993615	2.0677392	1.4379636
24.432961931007917	2.0413182	1.428747
24.450895069683856	2.0304542	1.4249401
24.468828816465	1.9980525	1.4135249
24.4867631718525	1.9756505	1.4055784
24.504698136347656	1.956671	1.3988106
24.52263371045192	1.9463892	1.3951305
24.540569894666874	1.9569607	1.3989141
24.558506689494266	1.952445	1.3972992
24.57644409543597	1.9886656	1.4102006
24.594382112994012	2.006072	1.4163587
24.61232074267057	2.008997	1.417391
24.630259984967953	1.9495013	1.3962455
24.64819984038863	1.9437807	1.3941953
24.66614030943522	1.9706534	1.4037997
24.684081392610462	1.9653475	1.4019085
24.702023090417274	1.9677867	1.4027781
24.7199654033587	1.9794579	1.4069321
24.737908331937927	1.97879	1.4066948
24.755851876658305	2.0228262	1.422261
24.773796038023324	2.0631704	1.4363741
24.79174081653661	2.0953755	1.4475412
24.809686212701962	2.1229842	1.4570464
24.827632227023294	2.1417341	1.4634665
24.8455788600047	2.165614	1.4716024
24.8635261121504	2.152813	1.4672468
24.88147398396475	2.1476624	1.4654905
24.899422475952303	2.0977333	1.4483553
24.917371588617698	2.097531	1.4482856
24.935321322465768	2.1293807	1.4592397
24.953271678001478	2.2436767	1.4978907
24.97122265572994	2.5184705	1.586969
24.989174256156414	2.9080007	1.7052861
25.00712647978632	3.299278	1.8163915
25.02507932712521	3.7959733	1.9483258
25.043032798678798	4.3321357	2.0813782
25.060986894952933	4.9926953	2.234434
25.078941616453637	5.7270107	2.3931174
25.096896963687055	6.6413574	2.577083
25.114852937159508	7.8830333	2.807674
25.132809537377444	8.397299	2.8978093
25.150766764847468	8.506235	2.9165452
25.168724620076347	7.841112	2.8001986
25.186683103570985	6.68681	2.5858867
25.204642215838426	5.428568	2.3299286
25.222601957385894	4.098555	2.024489
25.24056232872074	3.179855	1.7832148
25.25852333035048	2.5956395	1.6110989
25.276484962782778	2.267987	1.5059837
25.294447226525435	2.0895472	1.4455266
25.312410122086423	2.010745	1.4180074
25.330373649973843	1.9759665	1.4056908
25.348337810695988	1.9424027	1.3937011
25.366302604761245	1.9218551	1.3863099
25.384268032678207	1.9111143	1.3824306
25.40223409495558	1.9017382	1.3790352
25.420200792102257	1.8973228	1.3774334
25.438168124627246	1.8872249	1.3737631
25.45613609303974	1.8734834	1.3687525
25.474104697849057	1.8978728	1.3776331
25.492073939564698	1.8964123	1.3771029
25.510043818696285	1.9175305	1.3847493
25.528014335753614	1.9219341	1.3863384
25.54598549124664	1.921157	1.3860581
25.56395728568544	1.871424	1.368
25.58192971958028	1.8637897	1.3652068
25.59990279344156	1.8761166	1.369714
25.617876507779833	1.9443018	1.3943822
25.635850863105826	1.9241945	1.3871534
25.653825859930386	1.9067646	1.3808565
25.671801498764548	1.8727902	1.3684993
25.68977778011949	1.8554902	1.3621638
25.707754704506524	1.8583047	1.3631965
25.725732272437153	1.8750827	1.3693366
25.743710484423012	1.8748868	1.3692651
25.761689340975888	1.9376085	1.39198
25.77966884260774	1.9723485	1.4044032
25.797648989830662	1.9456043	1.3948492
25.815629783156922	1.8898822	1.3747299
25.83361122309895	1.8245296	1.3507515
25.85159331016929	1.8272558	1.3517603
25.869576044880695	1.8481995	1.359485
25.887559427746034	1.8752135	1.3693844
25.90554345927836	1.8647884	1.3655726
25.92352813999086	1.8626579	1.3647922
25.94151347039689	1.8421595	1.3572618
25.959499451009965	1.8170481	1.3479793
25.97748608234374	1.8461643	1.3587363
25.995473364912062	1.8986536	1.3779165
26.013461299228904	1.8799119	1.3710988
26.03144988580839	1.853919	1.3615869
26.04943912516483	1.8471538	1.3591003
26.067429017812675	1.8421865	1.3572717
26.085419564266537	1.8327212	1.3537804
26.103410765041186	1.8664666	1.3661869
26.12140262065155	1.8660284	1.3660265
26.139395131612723	1.8443228	1.3580585
26.157388298439948	1.8645626	1.3654898
26.17538212164861	1.849453	1.3599459
26.193376601754295	1.8506457	1.3603843
26.211371739272714	1.8725637	1.3684165
26.229367534719746	1.8652376	1.365737
26.247363988611433	1.8268448	1.3516083
26.26536110146397	1.8262548	1.35139
26.283358873793727	1.8339387	1.3542299
26.301357306117204	1.8759339	1.3696474
26.319356398951104	1.874052	1.3689603
26.33735615281224	1.8466797	1.3589259
26.35535656821762	1.8259662	1.3512832
26.373357645684404	1.8476795	1.3592937
26.39135938572991	1.830012	1.3527794
26.409361788871614	1.7882493	1.3372544
26.427364855627165	1.7964195	1.3403058
26.445368586514352	1.8217498	1.3497221
26.46337298205115	1.7920561	1.338677
26.48137804275568	1.7617341	1.3273033
26.499383769146217	1.7803437	1.3342952
26.517390161741215	1.8020191	1.342393
26.53539722105928	1.7767414	1.3329446
26.553404947619182	1.8304546	1.352943
26.571413341939856	1.8705927	1.3676962
26.589422404540397	1.8702914	1.367586
26.60743213594006	1.8468347	1.3589829
26.62544253665827	1.8277847	1.3519559
26.64345360721459	1.7998441	1.3415827
26.66146534812879	1.7856648	1.3362877
26.679477759920758	1.8038714	1.3430828
26.69749084311057	1.8271346	1.3517154
26.71550459821847	1.8293163	1.3525221
26.733519025764842	1.8043773	1.3432711
26.751534126270258	1.8157599	1.3475014
26.769549900255434	1.8452984	1.3584176
26.787566348241267	1.8284414	1.3521987
26.80558347074881	1.7727698	1.331454
26.823601268299267	1.775636	1.3325299
26.841619741414036	1.8118141	1.3460364
26.85963889061465	1.8686472	1.3669847
26.877658716422832	1.835114	1.3546638
26.89567921936045	1.8038719	1.343083
26.913700399949544	1.7435601	1.3204393
26.93172225871233	1.8258978	1.3512579
26.949744796171174	1.8452039	1.3583828
26.967768012848605	1.8423865	1.3573453
26.98579190926733	1.8636526	1.3651567
27.003816485950225	1.9215329	1.3861936
27.021841743420318	1.864113	1.3653252
27.039867682200814	1.8416947	1.3570905
27.057894302815072	1.8716133	1.3680692
27.07592160578664	1.8806448	1.371366
27.0939495916392	1.8983136	1.3777931
27.111978260896635	1.8581057	1.3631235
27.13000761408296	1.854998	1.3619831
27.148037651722397	1.841201	1.3569086
27.166068374339304	1.8202848	1.3491793
27.184099782458215	1.7772344	1.3331295
27.20213187660384	1.7883875	1.337306
27.22016465730105	1.8226045	1.3500388
27.23819812507487	1.8136734	1.3467269
27.256232280450533	1.8365786	1.3552042
27.274267123953383	1.8062376	1.3439634
27.292302656108987	1.78598	1.3364056
27.31033887744306	1.8132243	1.3465601
27.32837578848146	1.8325405	1.3537136
27.34641338975026	1.8201698	1.3491367
27.364451681775673	1.8505307	1.3603421
27.382490665084074	1.8696985	1.3673692
27.400530340202046	1.8481816	1.3594785
27.41857070765629	1.8019198	1.3423561
27.436611767973726	1.7520075	1.3236341
27.454653521681404	1.7191769	1.3111739
27.472695969306564	1.7521781	1.3236986
27.490739111376627	1.8163227	1.3477101
27.508782948419153	1.889598	1.3746265
27.526827480961902	1.8301357	1.352825
27.54487270953279	1.796106	1.3401887
27.562918634659898	1.8094468	1.3451568
27.580965256871508	1.829033	1.3524175
27.599012576696026	1.8204582	1.3492435
27.617060594662068	1.8159753	1.3475813
27.63510931129842	1.805611	1.3437302
27.65315872713401	1.8091252	1.3450372
27.67120884269797	1.8673152	1.3664974
27.68925965851958	1.8570307	1.3627292
27.707311175128307	1.8236898	1.3504406
27.725363393053787	1.8412801	1.3569378
27.74341631282583	1.9088626	1.3816159
27.7614699349744	1.931775	1.389883
27.77952426002968	2.076733	1.4410875
27.797579288521973	2.160691	1.4699289
27.815635020981784	2.5577672	1.599302
27.83369145793979	2.5555904	1.5986214
27.85174859992682	2.3998404	1.5491418
27.869806447473923	2.3271124	1.5254877
27.887865001112267	2.0549886	1.4335232
27.905924261373233	1.9319162	1.389934
27.92398422878836	1.90343	1.3796484
27.94204490388936	1.9103209	1.3821436
27.96010628720813	1.8937246	1.3761266
27.978168379276728	1.8817312	1.371762
27.9962311806274	1.8816899	1.371747
28.014294691792568	1.8526645	1.3611262
28.0323589133048	1.8499252	1.3601196
28.050423845696887	1.8449619	1.3582938
28.068489489501758	1.8239102	1.3505222
28.086555845252523	1.8601006	1.363855
28.104622913482487	1.8920656	1.3755238
28.122690694725115	1.9545778	1.3980621
28.14075918951405	1.9821754	1.4078975
28.15882839838312	1.9632043	1.4011439
28.176898321866304	1.9257153	1.3877015
28.1949689604978	1.9739547	1.4049749
28.213040314811945	1.9939318	1.4120665
28.23111238534327	2.0008197	1.4145033
28.249185172626493	1.9828293	1.4081297
28.267258677196473	1.9585624	1.3994864
28.285332899588294	1.866089	1.3660487
28.303407840337172	1.8579419	1.3630635
28.321483499978545	1.9041107	1.3798952
28.33955987904799	1.9446189	1.394496
28.357636978081285	1.9662137	1.4022174
28.37571479761439	2.0127501	1.4187143
28.393793338183425	1.9969283	1.4131272
28.41187260032469	1.9427572	1.3938283
28.429952584574686	1.9330177	1.3903301
28.448033291470065	2.0147665	1.4194247
28.46611472154769	2.0284667	1.4242425
28.484196875344566	1.9338394	1.3906256
28.502279753397914	1.9136646	1.3833526
28.52036335624511	1.944055	1.3942937
28.538447684423716	1.9672239	1.4025776
28.556532738471482	1.9576324	1.3991542
28.574618518926325	1.9314559	1.3897682
28.59270502632635	1.9473298	1.3954675
28.61079226120985	1.9876106	1.4098264
28.628880224115274	1.9815798	1.407686
28.646968915581287	1.9501417	1.3964747
28.66505833614671	1.9514532	1.3969443
28.68314848635055	1.9390066	1.3924822
28.701239366732004	2.0146723	1.4193915
28.71933097783044	2.1091697	1.452298
28.737423320185403	2.1164527	1.4548033
28.75551639433665	2.0750644	1.4405084
28.773610200824074	2.049027	1.4314423
28.791704740187793	2.0887456	1.4452493
28.80980001296809	2.1928873	1.4808401
28.827896019705413	2.2213674	1.4904252
28.845992760940433	2.1831887	1.4775617
28.86409023721397	2.1591651	1.4694098
28.88218844906704	2.21057	1.4867986
28.900287397040845	2.2619689	1.5039843
28.918387081676755	2.285818	1.5118922
28.936487503516343	2.3362155	1.5284684
28.954588663101365	2.2987537	1.5161642
28.97269056097374	2.2549684	1.5016552
28.990793197675597	2.2907605	1.5135258
29.00889657374923	2.3508852	1.5332596
29.027000689737125	2.3713353	1.539914
29.04510554618196	2.4214342	1.5560958
29.06321114362659	2.4872594	1.5771048
29.08131748261405	2.5674465	1.6023253
29.099424563687567	2.5310335	1.5909222
29.11753238739057	2.512888	1.5852091
29.13564095426663	2.5715446	1.6036036
29.15375026485954	2.5827389	1.6070902
29.171860319713275	2.6017823	1.6130041
29.18997111937199	2.6503308	1.6279837
29.20808266438002	2.7304192	1.652398
29.226194955281898	2.8040605	1.6745329
29.244307992622335	2.8613896	1.6915642
29.26242177694624	2.9072368	1.7050622
29.2805363087987	2.8933067	1.7009723
29.29865158872498	2.8650753	1.6926533
29.316767617270557	2.8457017	1.6869208
29.334884394981064	2.854061	1.6893966
29.353001922402367	2.9100966	1.7059005
29.37112020008047	3.0510628	1.7467291
29.389239228561596	3.2585366	1.8051417
29.407359008392152	3.5173283	1.8754542
29.42547954011872	3.763843	1.9400626
29.44360082428809	4.318228	2.0780346
29.46172286144722	5.3995633	2.3236961
29.479845652143283	7.121846	2.6686788
29.497969196923606	9.3155155	3.0521328
29.516093496335728	11.81997	3.4380183
29.5342185509274	14.58153	3.8185768
29.55234436124651	16.963497	4.1186767
29.570470927841175	18.229805	4.2696376
29.588598251259686	17.809565	4.220138
29.60672633205055	16.518686	4.0643187
29.624855170762405	14.431049	3.7988222
29.642984767944146	11.721013	3.4235966
29.66111512414481	8.893011	2.9821153
29.67924623991366	6.584926	2.566111
29.697378115800138	5.0801024	2.2539082
29.71551075235387	4.1803765	2.044597
29.733644150124675	3.7500129	1.936495
29.751778309662576	3.5346036	1.8800541
29.769913231517766	3.438237	1.8542484
29.78804891624066	3.4121192	1.8471923
29.806185364381818	3.3707125	1.83595
29.82432257649206	3.2842429	1.812248
29.842460553122333	3.2485151	1.8023638
29.86059929482382	3.2531104	1.8036381
29.878738802147872	3.3169641	1.8212534
29.896879075646048	3.353452	1.8312433
29.915020115870114	3.2527747	1.803545
29.933161923371976	3.1938105	1.7871236
29.951304498703777	3.1946788	1.7873664
29.969447842417857	3.2467515	1.8018744
29.987591955066733	3.2233543	1.7953702
30.005736837203123	3.1966693	1.7879232
30.023882489379943	3.2312965	1.7975807
30.04202891215028	3.243204	1.8008898
30.060176106067455	3.2026603	1.7895979
30.078324071684946	3.177386	1.7825224
30.09647280955646	3.1778502	1.7826526
30.114622320235863	3.165276	1.7791222
30.132772604277257	3.1128104	1.7643158
30.1509236622349	3.1164286	1.7653409
30.16907549466328	3.1342263	1.7703747
30.18722810211705	3.1405768	1.7721673
30.205381485151097	3.056591	1.7483109
30.22353564432045	3.0370634	1.7427173
30.241690580180403	3.0228047	1.7386215
30.25984629328638	3.0323298	1.7413586
30.278002784194037	3.0691597	1.7519017
30.296160053459246	3.0591993	1.7490567
30.314318101638033	2.9721677	1.7239976
30.332476929286646	2.93337	1.7127085
30.35063653696153	2.9245582	1.7101339
30.368796925219307	2.9293542	1.7115356
30.386958094616844	2.9025886	1.7036985
30.40512004571115	2.8986716	1.7025486
30.423282779059463	2.8823485	1.6977481
30.441446295219233	2.8936255	1.701066
30.459610594748067	2.881799	1.6975862
30.47777567820382	2.8434794	1.686262
30.495941546144504	2.8078992	1.6756787
30.51410819912835	2.7639446	1.6625116
30.532275637713795	2.7393687	1.6551038
30.55044386245946	2.7736	1.6654129
30.56861287392416	2.8482912	1.6876881
30.586782672666956	2.8372614	1.6844172
30.604953259247047	2.84462	1.6866001
30.623124634223885	2.8884463	1.699543
30.641296798157075	2.8552446	1.6897469
30.659469751606462	2.8563528	1.6900748
30.677643495132074	2.8435893	1.6862946
30.695818029294152	2.7774727	1.6665752
30.713993354653116	2.7576113	1.6606057
30.73216947176962	2.7926743	1.6711297
30.75034638120448	2.8044794	1.674658
30.768524083518756	2.7639706	1.6625193
30.786702579273673	2.780328	1.6674316
30.80488186903069	2.7778206	1.6666795
30.82306195335144	2.8476772	1.6875062
30.841242832797782	3.1162727	1.7652968
30.85942450793176	3.437826	1.8541375
30.877606979315637	3.7026694	1.9242321
30.895790247511883	4.1381183	2.0342364
30.913974313083134	4.612701	2.1477199
30.932159176592283	4.9144382	2.2168531
30.95034483860237	4.982938	2.2322495
30.968531299676698	4.801424	2.1912153
30.98671856037873	4.4304113	2.1048543
31.00490662127215	4.0807343	2.0200827
31.023095482920848	3.6542745	1.9116156
31.04128514588892	3.147228	1.7740428
31.059475610740662	2.7708776	1.6645954
31.07766687804056	2.5906043	1.6095355
31.09585894835335	2.5324278	1.5913603
31.11405182224393	2.4669218	1.5706438
31.132245500277417	2.47016	1.5716742
31.15043998301914	2.4575171	1.567647
31.168635271034628	2.4437315	1.5632439
31.18683136488964	2.4837894	1.5760043
31.20502826515008	2.5190067	1.5871379
31.223225972382135	2.441111	1.5624056
31.241424487152155	2.4450176	1.5636551
31.259623810026692	2.4790733	1.5745074
31.27782394157253	2.5158064	1.5861294
31.296024882356644	2.4542584	1.5666074
31.314226632946237	2.4262304	1.5576361
31.332429193908684	2.443872	1.5632888
31.350632565811598	2.4567764	1.5674107
31.368836749222787	2.390722	1.546196
31.387041744710295	2.3957493	1.5478208
31.40524755284232	2.491326	1.5783935
31.423454174187317	2.648626	1.62746
31.441661609313922	2.6258636	1.6204517
31.459869858791002	2.5004556	1.5812829
31.478078923187628	2.4958441	1.5798241
31.496288803073064	2.4979029	1.5804756
31.514499499016807	2.4530053	1.5662073
31.532711011588546	2.4696763	1.5715203
31.550923341358178	2.494235	1.5793147
31.56913648889584	2.4478495	1.5645605
31.587350454771844	2.337737	1.5289661
31.605565239556732	2.3060796	1.5185782
31.62378084382127	2.3320248	1.5270969
31.641997268136382	2.3839235	1.543996
31.660214513073274	2.3756413	1.5413116
31.67843257920331	2.389325	1.5457442
31.6966514670981	2.3901012	1.5459952
31.71487117732944	2.447939	1.564589
31.733091710469346	2.483056	1.5757716
31.751313067090052	2.4028106	1.5501002
31.769535247764008	2.3106034	1.5200669
31.787758253063878	2.3119674	1.5205154
31.805982083562526	2.3085964	1.5194066
31.824206739833024	2.2543724	1.5014567
31.84243222244869	2.3162482	1.5219225
31.860658531983013	2.334065	1.5277647
31.878885669009737	2.2921252	1.5139766
31.897113634102784	2.204112	1.4846252
31.91534242783632	2.2064307	1.4854059
31.933572050784694	2.2283995	1.4927825
31.951802503522508	2.2187855	1.4895588
31.970033786624548	2.1856513	1.4783949
31.988265900665834	2.189975	1.4798564
32.006498846221575	2.1743605	1.4745713
32.02473262386724	2.1794953	1.4763114
32.04296723417845	2.1377902	1.4621184
32.0612026777311	2.1530015	1.467311
32.07943895510129	2.173642	1.4743276
32.097676066865304	2.1476777	1.4654957
32.115914013599685	2.1206686	1.4562516
32.13415279588115	2.1313937	1.4599293
32.152392414286666	2.1138387	1.4539046
32.1706328693934	2.131517	1.4599715
32.18887416177875	2.149286	1.4660443
32.20711629202032	2.0553496	1.4336491
32.225359260695924	2.0564027	1.4340162
32.243603068383614	2.1723547	1.473891
32.26184771566166	2.2262518	1.4920629
32.28009320310852	2.1809886	1.476817
32.2983395313029	2.1155832	1.4545045
32.31658670082372	2.102576	1.4500262
32.33483471225012	2.1830506	1.477515
32.35308356616143	2.1768563	1.4754174
32.371333263137245	2.139654	1.4627556
32.38958380375734	2.1199944	1.45602
32.407835188601744	2.0804455	1.442375
32.42608741825067	2.082218	1.4429892
32.444340493284585	2.1135426	1.4538028
32.46259441428416	2.1038754	1.4504741
32.48084918183028	2.0761101	1.4408714
32.49910479650405	2.0183594	1.4206898
32.51736125888683	1.9794292	1.4069219
32.53561856956014	1.9964398	1.4129543
32.5538767291058	2.0594814	1.4350893
32.572135738105764	2.157148	1.4687232
32.59039559714228	2.2295437	1.4931656
32.608656306797776	2.2022235	1.4839891
32.62691786765491	2.058712	1.4348212
32.645180280296586	1.9426578	1.3937926
32.663443545305896	2.0140336	1.4191664
32.68170766326619	2.037912	1.4275545
32.69997263476099	1.9913489	1.4111516
32.7182384603741	1.9799126	1.4070936
32.7365051406895	2.0230677	1.4223459
32.75477267629144	2.0329733	1.4258237
32.77304106776434	2.0392354	1.428018
32.79131031569289	2.0330138	1.425838
32.809580420661966	2.0978615	1.4483997
32.827851383256714	2.0621533	1.43602
32.84612320406245	2.0078244	1.4169772
32.86439588366476	1.9033926	1.379635
32.88266942264945	1.897865	1.3776302
32.9009438216025	1.9704225	1.4037174
32.9192190811102	2.0076604	1.4169194
32.937495201758985	1.9450895	1.3946646
32.95577218413556	1.9530358	1.3975105
32.974050028826866	1.8919342	1.375476
32.992328736420035	1.885414	1.3731037
33.010608307502444	1.9763947	1.405843
33.02888874266169	1.980032	1.4071361
33.047170042485604	1.9076984	1.3811946
33.06545220756225	2.0129702	1.4187918
33.083735238479896	2.0228984	1.4222864
33.10201913582707	2.002152	1.4149742
33.12030390019248	2.0402987	1.4283903
33.138589532165135	2.0347497	1.4264466
33.15687603233419	1.9762629	1.4057962
33.17516340128909	2.0086339	1.4172628
33.19345163961947	1.9987359	1.4137666
33.211740747915215	1.8731042	1.368614
33.23003072676643	1.8935847	1.3760759
33.248321576763466	2.1054776	1.4510264
33.266613298496885	2.1906717	1.4800918
33.28490589255747	2.161887	1.4703356
33.30319935953626	2.0380383	1.4275987
33.32149370002451	1.9752537	1.4054372
33.339788914613706	1.9755347	1.4055371
33.358085003895575	1.9117942	1.3826765
33.376381968462034	1.8785924	1.3706175
33.39467980890529	1.9816357	1.4077058
33.41297852581774	2.0149062	1.4194739
33.43127811979204	1.9127102	1.3830076
33.44957859142105	1.9412684	1.3932941
33.467879941297866	1.9723244	1.4043946
33.486182170015844	2.0256293	1.423246
33.50448527816853	2.0096116	1.4176077
33.522789266349754	2.01038	1.4178787
33.541094135153514	1.9801209	1.4071677
33.55939988517411	1.8956807	1.3768373
33.57770651700602	1.8755709	1.3695148
33.59601403124398	1.96411	1.4014671
33.61432242848296	2.008987	1.4173874
33.632631709318154	1.9816765	1.4077203
33.650941874344994	1.9453309	1.3947512
33.66925292415916	1.8971508	1.377371
33.68756485935654	1.9133784	1.3832492
33.70587768053328	1.9805995	1.4073378
33.724191388285746	1.9564911	1.3987463
33.74250598321054	1.9329109	1.3902917
33.760821465904506	1.8381021	1.3557663
33.77913783696474	1.8860494	1.3733351
33.79745509698852	1.8752779	1.3694079
33.815773246573414	1.9467971	1.3952767
33.8340922863172	1.8974947	1.3774958
33.852412216817896	1.832914	1.3538516
33.87073303867377	1.8254852	1.3511052
33.889054752483304	1.7953869	1.3399205
33.907377358845245	1.8121681	1.3461679
33.92570085835853	1.8678423	1.3666903
33.94402525162239	1.9919611	1.4113685
33.96235053923627	1.9746903	1.4052367
33.980676721799824	1.9708419	1.4038668
33.999003799912984	1.9114416	1.3825489
34.01733177417592	1.9280744	1.3885511
34.03566064518901	1.9909191	1.4109993
34.0539904135529	2.0172215	1.4202892
34.07232107986846	2.014623	1.4193741
34.090652644736785	2.015183	1.4195714
34.108985108759235	2.0021791	1.4149837
34.12731847253742	1.9328893	1.390284
34.14565273667313	1.858982	1.3634449
34.16398790176847	1.8551104	1.3620244
34.18232396842574	1.9696342	1.4034365
34.20066093724749	2.1588268	1.4692947
34.21899880883651	2.2337315	1.4945673
34.23733758379583	2.171768	1.4736919
34.25567726272874	1.9834412	1.408347
34.27401784623872	1.7949845	1.3397703
34.29235933492957	1.833204	1.3539586
34.31070172940526	1.9573753	1.3990623
34.32904503027003	1.9892305	1.4104009
34.347389238128386	1.9589211	1.3996146
34.36573435358502	2.0291789	1.4244925
34.38408037724492	2.171456	1.4735861
34.402427309713296	2.2274985	1.4924806
34.42077515159559	2.0797324	1.4421277
34.43912390349752	2.0077033	1.4169345
34.45747356602499	1.9776623	1.4062939
34.47582413978423	1.9699734	1.4035574
34.49417562538163	1.9654901	1.4019594
34.51252802342388	2.08243	1.4430627
34.53088133451789	2.2638927	1.5046238
34.54923555927084	2.267624	1.5058632
34.567590698290104	2.1750293	1.4747981
34.58594675218336	1.9930373	1.4117497
34.6043037215585	1.8604593	1.3639866
34.62266160702365	1.9318804	1.389921
34.641020409187234	1.994496	1.4122663
34.65938012865785	2.0052066	1.4160532
34.677740766044394	2.0925317	1.4465586
34.69610232195598	2.1276608	1.4586504
34.714464797002016	2.0199149	1.4212371
34.73282819179208	2.0523412	1.4325994
34.751192506936064	1.8300446	1.3527914
34.76955774304408	1.7700032	1.3304147
34.7879239007265	1.839803	1.3563933
34.80629098059391	1.8872828	1.3737842
34.824658983257194	1.8920978	1.3755355
34.843027909327446	1.9804388	1.4072807
34.86139775941603	1.9027492	1.3794018
34.879768534134534	1.7809666	1.3345286
34.89814023409483	1.8217577	1.349725
34.91651285990901	1.9678477	1.4028
34.93488641218944	2.0523221	1.4325927
34.95326089154871	2.0541644	1.4332356
34.97163629859967	2.003195	1.4153427
34.99001263395542	2.0253322	1.4231417
35.00838989822934	2.040041	1.4283
35.02676809203499	2.0543876	1.4333135
35.04514721598624	2.0054147	1.4161266
35.063527270697215	1.8928654	1.3758144
35.081908256782256	1.7764405	1.3328317
35.10029017485597	1.8318666	1.3534647
35.11867302553321	1.8878212	1.37398
35.137056809429104	1.9729565	1.4046197
35.155441527159006	2.078231	1.4416071
35.173827179338524	2.0198035	1.4211979
35.19221376658354	1.8017503	1.3422929
35.21060128951017	1.8272215	1.3517476
35.2289897487348	2.0598743	1.4352262
35.24737914487405	2.002946	1.4152547
35.26576947854479	2.0642157	1.4367379
35.28416075036418	2.206934	1.4855753
35.30255296094958	2.0538836	1.4331377
35.32094611091867	1.9521842	1.3972058
35.33934020088932	1.9854693	1.4090668
35.35773523147969	1.9091059	1.381704
35.3761312033082	2.0311081	1.4251695
35.394528116993506	1.9535886	1.3977083
35.41292597315452	1.9865373	1.4094458
35.431324772410434	2.1405046	1.4630463
35.449724515380666	2.3290188	1.5261123
35.46812520268491	2.2061203	1.4853014
35.486526834943106	2.5014684	1.5816032
35.504929412775454	2.4229107	1.5565702
35.52333293680242	1.8387864	1.3560185
35.54173740764471	1.4729658	1.2136581
35.560142825923286	1.3593113	1.1658951
35.5785491922594	1.7602832	1.3267567
35.59695650727454	2.373862	1.5407343
35.61536477159042	3.098912	1.7603726
