0.008763373481513119	0.0	0.0
0.026290120649546365	0.3180582	0.56396645
0.043816868432600686	0.30040255	0.5480899
0.06134361724069026	0.2701034	0.5197147
0.07887036748382949	0.18343846	0.42829716
0.0963971195720331	0.103452034	0.3216396
0.11392387391531617	0.055128444	0.23479447
0.1314506309236943	0.026298413	0.16216785
0.1489773910071836	0.00083408586	0.028880544
0.16650415457580078	0.042865235	0.2070392
0.18403092203956356	0.13377157	0.36574796
0.20155769380849	0.15054403	0.38800004
0.2190844702925996	0.13158263	0.3627432
0.2366112519019124	0.17024773	0.4126109
0.2541380390464497	0.19023044	0.43615416
0.27166483213623416	0.18792339	0.4335013
0.28919163158128947	0.17393933	0.41706035
0.3067184377916406	0.13235764	0.36380988
0.324245251177314	0.16398598	0.40495184
0.34177207214833777	0.17060053	0.41303816
0.3592989011147415	0.14321066	0.37843186
0.37682573848655654	0.13223936	0.3636473
0.39435258467381573	0.15561165	0.3944764
0.41187944008655414	0.18576922	0.43100953
0.42940630513480854	0.16859716	0.41060585
0.446933180228618	0.1356936	0.36836612
0.4644600657780234	0.12900497	0.3591726
0.48198696219306775	0.128982	0.35914063
0.49951386988379676	0.14076255	0.37518334
0.5170407892602581	0.15589163	0.39483115
0.5345677207325025	0.15204234	0.38992608
0.5520946647105822	0.16377866	0.40469578
0.5696216216045534	0.16434973	0.40540072
0.5871485918244737	0.14833511	0.38514298
0.6046755757804043	0.13060844	0.3613979
0.6222025738824094	0.13419417	0.36632523
0.6397295865405557	0.15789491	0.39735994
0.6572566141649129	0.17916688	0.4232811
0.6747836571655547	0.17791502	0.42179975
0.6923107159525568	0.14823489	0.38501284
0.7098377909359992	0.13169536	0.36289856
0.7273648825259653	0.16491854	0.40610164
0.7448919911325411	0.17978483	0.42401043
0.762419117165817	0.18521877	0.4303705
0.7799462610358868	0.19522312	0.44184062
0.7974734231528482	0.18309684	0.42789817
0.8150006039268024	0.17783307	0.4217026
0.8325278037678551	0.15843628	0.39804056
0.8500550230861152	0.14653923	0.38280442
0.8675822622916969	0.17038026	0.41277143
0.8851095217947171	0.18809229	0.4336961
0.9026368020052984	0.21308543	0.46161178
0.9201641033335665	0.18985957	0.4357288
0.9376914261896523	0.21760958	0.46648642
0.9552187709836915	0.21234919	0.4608136
0.9727461381258234	0.2114748	0.4598639
0.990273528026193	0.22064336	0.4697269
1.0078009410949496	0.18747623	0.43298525
1.0253283777422473	0.20616202	0.4540507
1.0428558383782454	0.24755424	0.49754822
1.0603833234131086	0.28800792	0.5366637
1.0779108332570058	0.3266403	0.57152456
1.0954383683201119	0.31336507	0.5597902
1.112965929012607	0.35806936	0.59838897
1.1304935157446763	0.516688	0.71881014
1.1480211289265108	0.5550994	0.74504995
1.1655487689683062	1.3314633	1.1538905
1.1830764362802655	1.5789651	1.2565688
1.200604131272596	2.0375037	1.4274116
1.2181318543555117	2.4188108	1.5552527
1.235659605939232	2.4874158	1.5771543
1.253187386433982	4.0180707	2.0045125
1.270715196249994	6.3384724	2.5176322
1.2882430357975057	11.514327	3.3932767
1.3057709054867608	16.104284	4.0130143
1.3232988057280106	21.965136	4.686698
1.3408267369315112	27.214075	5.216711
1.358354699507526	31.295517	5.5942397
1.3758826938663256	35.31399	5.942558
1.3934107204181858	37.20318	6.099441
1.410938779573391	37.68546	6.1388483
1.4284668717422309	38.288216	6.187747
1.4459949973350033	37.749317	6.1440473
1.4635231567620117	37.825798	6.150268
1.4810513504335687	36.95796	6.0793056
1.4985795787599925	36.353683	6.029402
1.5161078421516088	35.635754	5.9695687
1.5336361410187505	35.018528	5.9176455
1.5511644757717598	34.917465	5.9091
1.5686928468209842	35.602505	5.9667835
1.58622125457678	35.9633	5.9969406
1.6037496994495108	36.89127	6.073818
1.621278181849548	36.98602	6.081613
1.6388067021872719	38.10333	6.1727896
1.6563352608730693	37.74149	6.14341
1.673863858317336	36.8399	6.069588
1.6913924949304753	35.824097	5.9853234
1.7089211711228998	34.76073	5.895823
1.7264498873050296	33.973972	5.8287196
1.7439786438872935	33.328068	5.7730465
1.7615074412801288	32.56512	5.706586
1.779036279893981	31.587078	5.6202383
1.796565160139305	30.350922	5.509167
1.814094082426564	29.949322	5.472597
1.8316230471662298	29.130842	5.3973
1.849152054768784	28.313524	5.3210454
1.8666811056447168	27.61821	5.255303
1.8842102002045273	26.832172	5.179978
1.901739338858724	26.152182	5.11392
1.9192685220178245	25.725702	5.072051
1.9367977500923557	25.155272	5.015503
1.9543270234928547	24.86383	4.9863644
1.971856342629867	24.149153	4.914179
1.9893857079139496	23.240217	4.820811
2.006915119755667	22.650488	4.759253
2.0244445785655945	22.085157	4.699485
2.0419740847543175	21.899736	4.6797156
2.0595036387324317	21.681898	4.6563826
2.0770332409105414	21.272331	4.6121936
2.094562891699263	20.890453	4.5706077
2.1120925915092217	20.27689	4.502987
2.129622340751053	20.057793	4.478593
2.1471521398354043	188.43707	13.727239
2.1646819891729323	444.75183	21.08914
2.182211889174303	440.73648	20.993725
2.1997418402501974	452.76117	21.278185
2.2172718428113023	432.58176	20.7986
2.234801897268317	320.60727	17.90551
2.2523320040319548	17.006027	4.1238365
2.269862163512935	16.756289	4.0934443
2.287392376121992	16.625034	4.0773807
2.304922642269869	16.504354	4.0625553
2.322452962367322	16.298561	4.0371475
2.3399833368251164	15.884084	3.9854841
2.357513766054032	15.509551	3.9382167
2.3750442504648586	15.278903	3.9088237
2.3925747904683963	14.994982	3.8723354
2.410105386475459	14.855986	3.8543463
2.4276360388968707	14.501	3.808018
2.445166748143469	14.432733	3.7990437
2.4626975146261025	14.191431	3.7671516
2.4802283387556323	13.902396	3.7285917
2.4977592209429305	13.541018	3.6798122
2.5152901615988825	13.114203	3.6213539
2.5328211611343865	12.967993	3.60111
2.5503522199603523	12.740597	3.5693972
2.5678833384877024	12.632793	3.554264
2.5854145171273712	12.525873	3.539191
2.6029457562903064	12.265835	3.5022614
2.620477056387469	11.933906	3.4545486
2.6380084178298326	11.626528	3.4097695
2.655539841028383	11.419366	3.3792553
2.673071326394119	11.421781	3.3796124
2.6906028743380523	11.225413	3.3504348
2.708134485271211	11.031382	3.3213525
2.7256661596046325	10.798965	3.2861779
2.743197897749369	10.558115	3.2493253
2.760729700116486	10.507305	3.2414973
2.778261567117063	10.406055	3.2258418
2.795793499162193	10.399086	3.2247615
2.8133254966629817	10.281663	3.2065032
2.830857560030551	10.144685	3.1850722
2.8483896896760337	10.073029	3.1738036
2.865921886010578	9.7570715	3.1236312
2.883454149445347	9.673721	3.1102607
2.9009864803915177	9.379433	3.0625858
2.91851887926028	9.285345	3.0471864
2.9360513464628384	9.0744505	3.0123827
2.953583882410413	8.959041	2.9931657
2.9711164875142373	8.885369	2.9808338
2.9886491621855606	8.670893	2.944638
3.0061819068356455	8.528314	2.9203277
3.023714721875769	8.447852	2.906519
3.041247607717225	8.399683	2.8982208
3.0587805647713213	8.276676	2.8769214
3.0763135934493806	8.205654	2.8645513
3.0938466941627407	8.052681	2.8377247
3.1113798673227544	8.063741	2.8396726
3.1289131133407904	7.934059	2.8167462
3.1464464326282315	7.819667	2.7963667
3.1639798255964786	7.724527	2.7793033
3.1815132926569443	7.670691	2.7696013
3.1990468342210603	7.725475	2.7794738
3.216580450700272	7.695808	2.774132
3.2341141425060416	7.574629	2.7522044
3.251647910049847	7.3270288	2.7068484
3.2691817537431813	7.227027	2.688313
3.286715673997555	7.165828	2.6769063
3.3042496712244938	7.261947	2.6948001
3.32178374583554	7.2006297	2.683399
3.339317898242251	7.0886445	2.6624508
3.3568521288562034	6.8504415	2.6173348
3.3743864380889876	6.7701793	2.6019568
3.3919208263522127	6.728952	2.5940223
3.4094552940575023	6.6162257	2.5722024
3.4269898416164972	6.5563836	2.5605435
3.444524469440858	6.3932757	2.5284927
3.4620591779422587	6.451647	2.5400093
3.479593967532391	6.495429	2.548613
3.4971288386229658	6.4574304	2.5411475
3.5146637916257086	6.3925276	2.5283449
3.5321988269523628	6.3018312	2.5103447
3.5497339450146903	6.3367524	2.5172906
3.5672691462244708	6.3699164	2.5238693
3.5848044309934988	6.2492886	2.4998577
3.60233979973359	6.185976	2.4871624
3.619875252856575	6.2547474	2.5009494
3.6374107907743034	6.334486	2.5168405
3.6549464138986427	6.362162	2.5223327
3.6724821226414788	6.3310843	2.5161645
3.690017917414714	6.276384	2.5052712
3.7075537986302702	6.424605	2.5346804
3.7250897667000857	6.4905267	2.5476513
3.7426258220361235	6.5378265	2.5569174
3.7601619650503553	6.7385416	2.59587
3.777698196154779	7.378027	2.7162523
3.7952345157614067	8.420198	2.9017577
3.8127709242822716	9.333743	3.0551176
3.830307422129425	11.399821	3.376362
3.847844009714936	30.268967	5.501724
3.8653806874508954	97.80754	9.88977
3.882917455749409	97.07898	9.852866
3.900454315022606	96.93239	9.845425
3.917991265682631	41.53928	6.4450974
3.9355283081416506	11.121873	3.334947
3.9530654428118495	8.836007	2.9725423
3.970602670105433	7.498545	2.738347
3.9881399904346244	6.564363	2.5621014
4.005677404211669	6.456451	2.5409548
4.023214911848827	6.4531403	2.5403032
4.0407525137583855	6.460783	2.541807
4.058290210352644	6.4780564	2.5452027
4.075828002043927	6.316258	2.5132167
4.0933658892445814	6.136187	2.4771328
4.110903872366966	6.0184536	2.4532537
4.128441951823468	6.0004506	2.4495816
4.145980128026488	5.994781	2.448424
4.163518401388452	6.1842346	2.486812
4.181056772321807	6.190397	2.4880507
4.1985952412390155	6.199426	2.4898646
4.216133808552567	6.114336	2.4727182
4.233672474674966	6.118332	2.4735262
4.251211240018741	6.2738986	2.504775
4.268750104996445	6.4944615	2.5484233
4.286289070020643	7.4419255	2.7279892
4.303828135503928	9.1820755	3.030194
4.3213673018589125	29.644073	5.4446373
4.3389065694982305	90.97365	9.538011
4.356445938834537	166.20755	12.892151
4.3739854102805085	171.66812	13.102219
4.391524984248844	172.50092	13.133961
4.409064661152262	136.6202	11.688464
4.426604441403504	96.87732	9.842628
4.444144325415337	75.78932	8.705707
4.461684313600543	21.78445	4.667382
4.47922440637193	22.09435	4.700463
4.496764604142329	20.43901	4.520952
4.5143049073245916	18.614529	4.314456
4.531845316331589	16.557606	4.0691037
4.5493858315762195	13.775291	3.711508
4.566926453471405	11.441321	3.3825023
4.584467182430081	9.287555	3.047549
4.602008018865218	7.9856267	2.825885
4.619548963189798	7.2952986	2.7009811
4.637090015816834	6.847382	2.6167502
4.654631177159353	6.71985	2.5922673
4.672172447630417	6.455319	2.540732
4.689713827643102	6.3228955	2.5145369
4.7072553176105085	6.0985136	2.469517
4.724796917945764	5.960819	2.4414787
4.742338629062015	5.897938	2.428567
4.759880451372434	5.8492374	2.4185197
4.777422385290215	5.859727	2.4206872
4.794964431228581	5.8287573	2.4142818
4.812506589600768	5.7577343	2.399528
4.830048860820047	5.6600895	2.3790944
4.847591245299709	5.5113206	2.3476202
4.8651337434530655	5.5111036	2.347574
4.882676355693457	5.583097	2.3628578
4.900219082434242	5.530524	2.3517065
4.917761924088813	5.541961	2.354137
4.935304881070575	5.462752	2.337253
4.952847953792969	5.4561696	2.3358445
4.970391142669449	5.443286	2.333085
4.9879344481135055	5.469863	2.3387737
5.005477870538642	5.511412	2.3476398
5.023021410358394	5.514787	2.3483584
5.040565067986324	5.552404	2.356354
5.05810884383601	5.5355206	2.3527687
5.075652738321066	5.4870687	2.3424492
5.09319675185512	5.50546	2.3463717
5.110740884851836	5.4502487	2.3345768
5.128285137724894	5.443724	2.333179
5.145829510888007	5.365394	2.316332
5.163374004754908	5.3103476	2.304419
5.1809186197393595	5.2818327	2.2982237
5.198463356255145	5.3161654	2.3056812
5.216008214716077	5.2797146	2.2977629
5.233553195535998	5.3048654	2.3032293
5.251098299128764	5.326819	2.3079903
5.268643525908272	5.3675656	2.3168008
5.286188876288432	5.3454213	2.3120167
5.3037343506831895	5.3468933	2.312335
5.32127994950651	5.306381	2.3035583
5.3388256731723915	5.2657375	2.2947195
5.356371522094851	5.192554	2.2787175
5.373917496687938	5.14917	2.2691782
5.391463597365729	5.1704063	2.2738528
5.40900982454232	5.158847	2.2713096
5.426556178631843	5.206451	2.281765
5.444102660048449	5.1824937	2.276509
5.4616492692063225	5.274867	2.2967079
5.479196006519669	5.2532816	2.2920039
5.496742872402727	5.2965355	2.3014202
5.514289867269756	5.26557	2.294683
5.531836991535049	5.231077	2.287155
5.549384245612924	5.213268	2.2832582
5.566931629917724	5.191647	2.2785187
5.584479144863822	5.1878433	2.2776837
5.6020267908656205	5.16319	2.2722654
5.619574568337545	5.1189704	2.262514
5.637122477694054	5.0627294	2.250051
5.654670519349629	5.002324	2.2365875
5.672218693718784	5.0645785	2.2504618
5.689767001216059	5.1050143	2.2594278
5.707315442256021	5.178098	2.2755435
5.724864017253266	5.2211714	2.2849882
5.7424127266224225	5.245532	2.2903128
5.75996157077814	5.246469	2.290517
5.777510550135105	5.2046685	2.2813742
5.795059665108022	5.1562686	2.270742
5.812608916111639	5.2080073	2.282106
5.830158303560715	5.330573	2.3088033
5.847707827870055	5.4313817	2.3305326
5.86525748945448	5.5064726	2.3465874
5.8828072887288485	5.626032	2.3719258
5.900357226108044	5.6624393	2.3795881
5.917907302006979	5.781893	2.4045568
5.9354575168406	6.35388	2.5206904
5.9530078710238765	7.0086555	2.6473866
5.970558364971812	7.5147176	2.7412984
5.988108999099438	7.806661	2.7940402
6.005659773821818	8.249656	2.8722215
6.023210689554039	7.902449	2.8111296
6.040761746711227	8.3531065	2.8901742
6.058312945708531	7.7337995	2.780971
6.075864286961132	7.2626786	2.6949358
6.093415770884244	6.599654	2.5689793
6.1109673978931065	6.0750127	2.464754
6.128519168402993	5.5770392	2.3615756
6.146071082829204	5.510716	2.3474915
6.163623141587075	5.47968	2.3408716
6.181175345091969	5.4563766	2.3358889
6.198727693759281	5.397232	2.3231943
6.216280188004435	5.283045	2.2984874
6.233832828242885	5.234757	2.287959
6.251385614890126	5.228077	2.2864988
6.268938548361669	5.1446157	2.2681744
6.286491629073067	5.089523	2.2559972
6.304044857439898	5.035775	2.2440534
6.321598233877777	4.96554	2.2283492
6.339151758802344	4.90987	2.2158227
6.356705432629277	4.976055	2.2307074
6.37425925577428	5.001549	2.2364142
6.391813228653095	5.0541553	2.2481449
6.409367351681486	5.038946	2.2447598
6.426921625275259	4.984317	2.2325583
6.44447604985025	4.973788	2.230199
6.46203062582232	4.967005	2.2286777
6.47958535360737	4.984356	2.232567
6.497140233621328	5.008787	2.2380319
6.514695266280161	4.966292	2.2285178
6.532250451999859	4.9973297	2.2354708
6.549805791196454	5.0070972	2.2376544
6.567361284286002	5.014283	2.2392595
6.584916931684597	5.020086	2.2405548
6.602472733808367	5.006793	2.2375865
6.6200286910734665	4.966985	2.2286735
6.637584803896092	4.951895	2.2252855
6.655141072692462	4.9279184	2.2198915
6.672697497878842	5.014314	2.2392664
6.690254079871514	5.0652895	2.25062
6.707810819086808	5.0988235	2.2580574
6.725367715941078	5.0683317	2.2512956
6.742924770850719	4.9781137	2.2311687
6.760481984232151	4.9610825	2.2273488
6.778039356501836	4.972744	2.229965
6.795596888076266	4.9806423	2.2317352
6.813154579371963	4.9209166	2.218314
6.830712430805492	4.8788157	2.2088041
6.84827044279344	4.9474616	2.224289
6.865828615752445	5.018192	2.240132
6.883386950099159	5.0606723	2.2495937
6.900945446250287	5.02649	2.2419837
6.918504104622553	5.005898	2.2373865
6.936062925632727	5.0124726	2.2388551
6.953621909697607	5.045212	2.2461548
6.971181057234028	5.121027	2.2629685
6.988740368658859	5.229781	2.2868714
7.006299844389007	5.3238106	2.3073385
7.023859484841407	5.4059396	2.3250678
7.041419290433036	5.4681745	2.3384128
7.058979261580902	5.521146	2.349712
7.0765393987020495	5.697139	2.386868
7.094099702213559	6.056391	2.4609735
7.111660172532549	6.376744	2.5252216
7.129220810076164	6.720884	2.5924668
7.146781615261595	7.3627243	2.713434
7.16434258850606	7.700386	2.774957
7.181903730226821	8.093709	2.8449445
7.1994650408411704	8.144392	2.8538382
7.217026520766437	8.24313	2.8710852
7.234588170419983	8.566133	2.9267957
7.252149990219215	8.572676	2.9279132
7.269711980581568	8.433954	2.9041271
7.2872741419245175	8.068419	2.8404963
7.304836474665574	7.5829983	2.7537243
7.322398979222286	7.3365498	2.7086067
7.339961656012233	7.1293693	2.6700878
7.357524505453039	6.8399005	2.6153204
7.375087527962357	6.550588	2.5594118
7.392650723957886	6.248348	2.4996696
7.410214093857353	5.9296684	2.435091
7.427777638078528	5.7294035	2.3936172
7.445341357039213	5.596585	2.3657103
7.4629052511572525	5.3771286	2.3188636
7.480469320850524	5.242809	2.2897182
7.498033566536948	5.164707	2.2725992
7.5155979886344735	5.1664267	2.2729776
7.5331625875610975	5.169571	2.273669
7.550727363734844	5.1597166	2.271501
7.568292317573788	5.1691957	2.2735865
7.585857449496025	5.1549726	2.2704566
7.603422759919705	5.112139	2.261004
7.620988249263007	5.113998	2.261415
7.638553917944147	5.0625305	2.2500067
7.656119766381391	5.095386	2.257296
7.673685794993023	5.170335	2.273837
7.691252004197388	5.3185205	2.3061917
7.70881839441285	5.3071795	2.3037317
7.726384966057826	5.263617	2.2942574
7.743951719550762	5.200884	2.2805448
7.761518655310149	5.2246933	2.2857587
7.779085773754511	5.180272	2.276021
7.796653075302419	5.1757975	2.275038
7.814220560372475	5.164742	2.2726068
7.831788229383323	5.258107	2.2930562
7.8493560827536495	5.3135495	2.3051138
7.866924120902174	5.3425026	2.3113854
7.884492344247663	5.3820677	2.3199284
7.9020607532089135	5.3444967	2.3118167
7.919629348204771	5.375001	2.318405
7.937198129654115	5.380034	2.31949
7.954767097975865	5.3173704	2.3059423
7.972336253588986	5.3173213	2.3059318
7.989905596912472	5.338452	2.310509
8.007475128365371	5.399195	2.3236167
8.025044848366756	5.4864793	2.3423235
8.042614757335754	5.6029086	2.3670464
8.060184855691523	5.6861453	2.384564
8.07775514385327	5.8346524	2.4155025
8.095325622240228	5.8282866	2.4141846
8.112896291271687	5.8756976	2.4239838
8.130467151366968	5.9443574	2.4381053
8.148038202945436	6.0113792	2.4518113
8.165609446426497	6.011657	2.451868
8.183180882229594	5.980099	2.445424
8.200752510774217	5.869946	2.4227972
8.218324332479893	5.8309193	2.4147296
8.235896347766193	5.8341603	2.4154007
8.253468557052724	5.951567	2.4395833
8.27104096075914	5.9604464	2.4414024
8.288613559305137	6.0055017	2.4506125
8.306186353110448	6.0268803	2.4549706
8.32375934259485	6.1170864	2.4732745
8.341332528178162	6.2131414	2.4926174
8.358905910280246	6.290116	2.5080104
8.376479489321003	6.3014565	2.51027
8.394053265720377	6.35645	2.5212002
8.411627239898356	6.3228793	2.5145335
8.42920141227497	6.303832	2.5107434
8.44677578327029	6.3143787	2.5128427
8.464350353304427	6.275895	2.5051737
8.48192512279754	6.2852197	2.507034
8.499500092169827	6.26308	2.5026147
8.51707526184153	6.208811	2.4917486
8.534650632232934	6.211555	2.492299
8.552226203764365	6.2181716	2.493626
8.569801976856192	6.2310596	2.4962091
8.587377951928834	6.202691	2.4905202
8.60495412940274	6.255708	2.5011413
8.622530509698416	6.2747912	2.5049534
8.6401070932364	6.4186053	2.5334966
8.657683880437283	6.4655566	2.5427458
8.675260871721695	6.6113563	2.5712557
8.692838067510303	6.8209043	2.611686
8.710415468223834	6.9921384	2.6442652
8.727993074283043	7.185807	2.6806357
8.745570886108737	7.184712	2.6804314
8.763148904121765	7.2455797	2.6917615
8.78072712874302	7.216111	2.686282
8.798305560393441	7.4758153	2.7341938
8.815884199494006	7.6328506	2.7627614
8.833463046465745	7.8187456	2.796202
8.851042101729728	7.9724836	2.8235586
8.86862136570707	8.161252	2.8567905
8.886200838818924	8.317582	2.8840218
8.903780521486505	8.281176	2.8777032
8.921360414131055	8.39471	2.8973625
8.938940517173874	8.577245	2.9286933
8.956520831036297	8.800554	2.9665728
8.97410135613971	9.086149	3.014324
8.99168209290554	9.312127	3.0515778
9.009263041755265	9.5814085	3.095385
9.026844203110405	9.767818	3.125351
9.044425577392525	9.822801	3.1341348
9.062007165023239	9.912056	3.148342
9.079588966424197	10.224425	3.1975656
9.097170982017108	10.362934	3.2191513
9.11475321222372	11.283539	3.359098
9.132335657465825	12.142298	3.48458
9.149918318165264	12.24974	3.4999628
9.167501194743924	12.930116	3.595847
9.18508428762374	12.709079	3.5649796
9.202667597226693	12.720229	3.566543
9.220251123974803	12.352557	3.5146205
9.237834868290143	11.981351	3.4614089
9.255418830594836	11.766583	3.4302454
9.273003011311046	11.2364	3.352074
9.290587410860985	11.00278	3.3170438
9.308172029666911	10.28538	3.2070827
9.32575686815113	9.984408	3.1598115
9.343341926735997	8.613275	2.934838
9.360927205843916	8.450334	2.9069457
9.378512705897327	8.254991	2.8731499
9.396098427318728	8.076959	2.841999
9.413684370530664	8.02303	2.8324955
9.431270535955722	7.914278	2.8132327
9.448856924016539	7.836793	2.7994273
9.466443535135806	7.7391644	2.7819355
9.484030369736251	7.792999	2.7915943
9.501617428240658	7.7639623	2.7863886
9.519204711071852	7.7997413	2.7928016
9.536792218652714	7.799315	2.7927253
9.55437995140617	7.771318	2.7877083
9.571967909755191	7.7914896	2.791324
9.589556094122802	7.8210635	2.7966166
9.60714450493207	7.847425	2.8013256
9.624733142606116	7.8994813	2.8106015
9.642322007568108	7.9226837	2.814726
9.659911100241267	7.9485235	2.8193126
9.677500421048851	7.9423046	2.8182094
9.695089970414175	7.97918	2.8247442
9.712679748760609	7.9921403	2.8270373
9.730269756511557	8.049751	2.8372083
9.747859994090492	8.061845	2.8393388
9.765450461920915	8.142225	2.8534584
9.78304116042639	8.186054	2.861128
9.800632090030527	8.224124	2.8677733
9.81822325115699	8.316597	2.883851
9.835814644229481	8.282697	2.8779674
9.853406269671762	8.259147	2.8738732
9.870998127907646	8.285103	2.8783855
9.888590219360985	8.256578	2.8734262
9.906182544455698	8.368455	2.8928282
9.923775103615734	8.370169	2.8931243
9.941367897265108	8.382807	2.8953078
9.958960925827878	8.3706045	2.8931997
9.97655418972816	8.413733	2.9006436
9.994147689390106	8.370097	2.893112
10.011741425237934	8.338159	2.887587
10.029335397695904	8.331376	2.8864124
10.04692960718833	8.325199	2.8853421
10.06452405413958	8.249111	2.8721266
10.082118738974064	8.209971	2.8653047
10.099713662116246	8.167148	2.8578222
10.117308823990651	8.216289	2.866407
10.134904225021844	8.312439	2.88313
10.152499865634445	8.399722	2.8982275
10.170095746253125	8.444402	2.9059253
10.18769186730261	8.351662	2.889924
10.205288229207675	8.192113	2.8621867
10.222884832393145	8.10272	2.8465278
10.2404816772839	8.076505	2.8419192
10.258078764304868	8.142837	2.8535657
10.275676093881035	8.119269	2.8494332
10.293273666437438	8.116544	2.848955
10.310871482399158	8.163371	2.8571613
10.32846954219134	8.116243	2.8489022
10.346067846239173	8.173855	2.8589954
10.363666394967908	8.161648	2.8568597
10.38126518880283	8.230393	2.8688662
10.398864228169298	8.263554	2.8746397
10.416463513492713	8.171883	2.8586504
10.434063045198531	8.148512	2.85456
10.451662823712262	8.100183	2.846082
10.469262849459467	8.171761	2.8586292
10.486863122865758	8.093744	2.8449507
10.504463644356806	8.115912	2.848844
10.522064414358338	8.102521	2.8464928
10.539665433296118	8.070764	2.840909
10.557266701595987	8.019972	2.8319554
10.574868219683818	7.889992	2.808913
10.592469987985552	7.766038	2.7867613
10.610072006927185	7.638307	2.7637486
10.627674276934751	7.5344615	2.7448974
10.64527679843435	7.448316	2.7291603
10.662879571852143	7.3658557	2.714011
10.680482597614331	7.236403	2.6900563
10.698085876147173	7.133488	2.670859
10.715689407876988	7.0093517	2.647518
10.733293193230146	6.9263077	2.631788
10.750897232633072	6.817755	2.6110833
10.76850152651225	6.7234044	2.5929527
10.786106075294207	6.613539	2.5716803
10.803710879405534	6.5782824	2.5648162
10.821315939272877	6.4491835	2.5395243
10.83892125532294	6.37923	2.5257137
10.856526827982472	6.2798505	2.505963
10.874132657678285	6.2091737	2.4918213
10.891738744837243	6.2016535	2.4903119
10.909345089886271	6.1660075	2.4831448
10.926951693252343	6.147173	2.4793494
10.944558555362494	6.0550756	2.4607062
10.96216567664381	5.9529486	2.4398665
10.979773057523436	5.944014	2.4380348
10.997380698428573	5.9088745	2.4308176
11.014988599786477	5.9043207	2.4298809
11.032596762024461	5.8095336	2.4102974
11.050205185569892	5.7774205	2.4036264
11.067813870850198	5.6956306	2.386552
11.085422818292859	5.664573	2.3800364
11.10303202832541	5.580031	2.3622088
11.120641501375454	5.469687	2.3387363
11.138251237870636	5.3398695	2.3108158
11.155861238238671	5.2211704	2.2849882
11.173471502907317	5.1678596	2.2732928
11.191082032304402	5.1748366	2.2748268
11.208692826857805	5.1746244	2.27478
11.226303886995465	5.1227016	2.2633386
11.243915213145371	5.085388	2.2550805
11.261526805735578	5.0106215	2.2384417
11.279138665194196	4.929167	2.2201726
11.296750791949393	4.859254	2.2043715
11.314363186429393	4.8082433	2.1927707
11.331975849062479	4.7957997	2.1899314
11.34958878027699	4.76263	2.1823452
11.36720198050133	4.6706204	2.161162
11.384815450163948	4.585945	2.1414819
11.402429189693366	4.517349	2.1254056
11.420043199518153	4.500076	2.1213381
11.437657480066942	63.49317	7.9682603
11.455272031768422	85.234	9.232226
11.472886855051353	107.61951	10.373982
11.490501950344528	99.19113	9.959475
11.508117318076819	84.54721	9.194956
11.52573295867715	45.901558	6.7750688
11.543348872574514	4.163876	2.0405579
11.560965060197946	4.101573	2.025234
11.57858152197655	4.0617113	2.0153687
11.59619825833949	4.0043035	2.0010755
11.613815269715985	3.9658067	1.9914334
11.631432556535323	38.499836	6.2048235
11.649050119226837	83.06812	9.114172
11.666667958219929	93.48178	9.668597
11.68428607394406	107.77354	10.381403
11.701904466828756	82.60836	9.088914
11.719523137303586	65.40946	8.087611
11.737142085798196	4.5938115	2.143318
11.754761312742286	3.6832275	1.9191737
11.772380818565619	3.665139	1.9144553
11.790000603698015	3.6658206	1.9146333
11.80762066856935	3.6428735	1.9086313
11.825241013609572	3.5638745	1.8878226
11.842861639248683	3.4880753	1.867639
11.860482545916748	3.4543867	1.858598
11.878103734043883	3.454119	1.858526
11.895725204060282	3.445583	1.8562282
11.91334695639619	3.429367	1.851855
11.930968991481919	3.3736644	1.8367537
11.948591309747824	3.3315916	1.8252648
11.966213911624347	3.2633245	1.8064674
11.98383679754198	3.241672	1.8004644
12.001459967931268	3.2868936	1.8129792
12.019083423222835	3.3124487	1.8200134
12.036707163847352	3.3049104	1.8179413
12.05433119023556	3.250398	1.802886
12.071955502818259	3.1681168	1.7799205
12.089580102026313	3.1560235	1.77652
12.107204988290643	3.140977	1.7722801
12.12483016204224	3.1163583	1.765321
12.142455623712152	3.087842	1.7572256
12.16008137373149	3.0753005	1.7536534
12.177707412531431	3.0957415	1.7594719
12.19533374054321	3.068026	1.7515782
12.212960358198126	3.068934	1.7518373
12.230587265927545	3.0788958	1.7546782
12.248214464162889	3.0814898	1.7554172
12.265841953335649	3.0493362	1.7462349
12.283469733877375	3.0004494	1.7321806
12.301097806219685	2.9596422	1.7203611
12.31872617079425	2.947426	1.7168069
12.336354828032825	2.9382002	1.7141179
12.353983778367205	2.9353461	1.7132852
12.371613022229262	2.9227288	1.709599
12.389242560050928	2.907013	1.7049965
12.406872392264201	2.8936877	1.7010843
12.424502519301143	2.8939323	1.7011561
12.442132941593874	2.892516	1.7007399
12.459763659574586	2.8976138	1.7022378
12.477394673675532	2.8866982	1.6990286
12.49502598432903	2.8687098	1.6937267
12.51265759196746	2.8540795	1.6894021
12.530289497023267	2.8675864	1.6933949
12.547921699928967	2.8672903	1.6933075
12.565554201117134	2.7933528	1.6713326
12.583187001020404	2.711463	1.6466521
12.600820100071486	2.6843584	1.6384012
12.618453498703152	2.7146802	1.6476287
12.636087197348235	2.74141	1.6557204
12.65372119643964	2.7427726	1.6561319
12.671355496410326	2.7515304	1.6587738
12.68899009769333	2.7959013	1.672095
12.706625000721749	2.863544	1.6922009
12.724260205928752	2.9552336	1.7190793
12.741895713747551	2.979134	1.7260169
12.759531524611454	3.000562	1.732213
12.777167638953818	3.0067947	1.7340112
12.794804057208072	3.008471	1.7344944
12.812440779807702	3.0133233	1.7358927
12.830077807186271	3.1635032	1.7786239
12.847715139777405	3.2052686	1.7903264
12.865352778014795	3.4574404	1.8594193
12.882990722332197	3.6021883	1.8979431
12.90062897316344	3.6817648	1.9187926
12.918267530942412	3.7165253	1.9278291
12.935906396103071	3.5769105	1.8912722
12.953545569079449	3.7872941	1.9460971
12.971185050305628	3.598972	1.8970957
12.988824840215775	3.661396	1.9134774
13.006464939244115	3.6603346	1.9132001
13.024105347824943	3.5530326	1.884949
13.041746066392617	3.571714	1.8898978
13.05938709538157	3.369167	1.8355291
13.077028435226296	3.376865	1.8376248
13.094670086361363	3.2923887	1.814494
13.112312049221401	3.2328818	1.7980217
13.129954324241112	3.149663	1.774729
13.147596911855258	2.9522576	1.7182136
13.165239812498685	2.8792937	1.6968482
13.182883026606293	2.7885447	1.6698936
13.200526554613058	2.7005956	1.6433489
13.218170396954017	2.6815774	1.6375523
13.235814554064284	2.677716	1.6363728
13.253459026379034	2.7053509	1.6447951
13.271103814333523	2.6836123	1.6381735
13.288748918363058	2.7081537	1.6456469
13.306394338903031	2.6863527	1.6390097
13.32404007638889	2.6632183	1.6319369
13.341686131256164	2.6371138	1.6239192
13.359332503940449	2.6165829	1.6175855
13.376979194877402	2.6301186	1.6217641
13.394626204502751	2.6963208	1.6420478
13.412273533252307	2.738066	1.6547103
13.429921181561937	2.7635124	1.6623815
13.447569149867581	2.7833962	1.6683514
13.465217438605247	2.7726893	1.6651394
13.482866048211022	2.7420864	1.6559247
13.500514979121052	2.7499275	1.6582905
13.518164231771568	2.7344098	1.6536051
13.535813806598844	2.7112653	1.646592
13.553463704039254	2.6643147	1.6322728
13.571113924529229	2.6508627	1.628147
13.588764468505275	2.6737204	1.6351515
13.606415336403956	2.6939566	1.6413277
13.624066528661917	2.7204897	1.6493907
13.641718045715882	2.7873144	1.6695253
13.659369888002635	2.8406017	1.6854085
13.67702205595903	2.902732	1.7037406
13.694674550021993	2.9498453	1.7175114
13.712327370628532	3.016219	1.7367265
13.729980518215713	3.0947735	1.7591969
13.747633993220681	3.1903758	1.7861623
13.765287796080647	3.2388167	1.7996713
13.7829419272329	3.29644	1.81561
13.800596387114801	3.3498828	1.8302685
13.818251176163775	3.3402038	1.8276224
13.835906294817324	3.3716388	1.8362023
13.853561743513023	3.3987465	1.8435689
13.871217522688525	3.4125016	1.8472958
13.888873632781538	3.4448345	1.8560265
13.906530074229858	3.4782398	1.865004
13.92418684747135	3.5347092	1.8800822
13.941843952943948	3.5418797	1.8819882
13.959501391085665	3.5108817	1.8737347
13.977159162334578	3.4614809	1.8605056
13.994817267128846	3.4121706	1.8472061
14.012475705906693	3.341321	1.8279281
14.030134479106424	3.2472107	1.8020018
14.047793587166414	3.144916	1.7733911
14.065453030525108	3.1075401	1.7628217
14.083112809621026	3.0335824	1.7417183
14.100772924892766	2.9757602	1.7250392
14.118433376778997	2.9365175	1.713627
14.136094165718458	2.9021864	1.7035805
14.153755292149969	2.8367221	1.6842571
14.171416756512416	2.7707443	1.6645553
14.189078559244768	2.682694	1.6378932
14.20674070078606	2.6250327	1.6201953
14.224403181575408	2.5546727	1.5983343
14.242066002051999	2.5285544	1.5901428
14.259729162655093	2.5020108	1.5817746
14.277392663824022	2.4700298	1.5716329
14.295056505998208	2.4099627	1.5524055
14.312720689617128	2.3709288	1.539782
14.330385215120348	2.3842013	1.5440859
14.348050082947497	2.3811624	1.5431015
14.3657152935383	2.4044726	1.5506362
14.383380847332528	2.39939	1.5489964
14.401046744770051	2.3991785	1.5489281
14.418712986290798	2.3719628	1.5401177
14.436379572334793	2.3580658	1.5355995
14.454046503342123	2.3769646	1.5417408
14.471713779752946	2.3773057	1.5418514
14.489381402007504	2.3860328	1.5446789
14.507049370546113	2.3790061	1.5424027
14.524717685809168	2.3908129	1.5462253
14.542386348237134	2.4119596	1.5530485
14.560055358270553	2.427572	1.5580667
14.577724716350051	2.4597435	1.568357
14.595394422916325	2.4416163	1.5625672
14.61306447841015	2.491384	1.5784118
14.63073488327237	2.5037816	1.5823342
14.648405637943917	2.50503	1.5827286
14.6660767428658	2.459976	1.568431
14.683748198479094	2.4624915	1.5692328
14.701420005224954	2.4956727	1.5797698
14.719092163544628	2.5861351	1.6081465
14.73676467387942	2.6406355	1.6250032
14.754437536670727	2.6570559	1.6300478
14.772110752360014	2.658787	1.6305788
14.78978432138882	2.6390338	1.6245103
14.807458244198777	2.6115968	1.6160436
14.82513252123159	2.6027632	1.6133082
14.842807152929028	2.656717	1.6299438
14.860482139732962	2.6952817	1.6417314
14.87815748208531	2.7371914	1.654446
14.8958331804281	2.7161987	1.6480894
14.91350923520342	2.6578374	1.6302875
14.931185646853438	2.636808	1.6238251
14.948862415820408	2.6432557	1.6258092
14.966539542546656	2.676641	1.6360443
14.98421702747459	2.6277559	1.6210355
15.001894871046696	2.6144307	1.6169201
15.019573073705542	2.6339464	1.6229438
15.037251635893766	2.6413677	1.6252285
15.054930558054092	2.6721022	1.6346565
15.072609840629323	2.7461684	1.6571567
15.090289484062351	2.8982139	1.7024142
15.107969488796124	3.2199135	1.7944118
15.125649855273691	3.6055257	1.8988222
15.14333058393817	4.1088886	2.0270393
15.161011675232768	5.006992	2.2376308
15.17869312960076	6.306046	2.5111842
15.196374947485506	8.118018	2.8492136
15.214057129330447	11.289777	3.3600264
15.231739675579114	15.933512	3.9916804
15.249422586675102	20.976805	4.5800443
15.267105863062092	24.094805	4.908646
15.284789505183847	24.475626	4.9472847
15.302473513484218	22.497894	4.7431946
15.320157888407127	18.891434	4.346428
15.337842630396578	14.618673	3.8234375
15.355527739896656	11.390524	3.374985
15.37321321735153	8.866789	2.9777155
15.39089906320545	6.553131	2.5599084
15.408585277902748	4.921461	2.2184367
15.42627186188783	3.8007135	1.9495419
15.443958815605198	3.2402973	1.8000826
15.461646139499424	2.96215	1.7210898
15.479333834015168	2.8454134	1.6868353
15.497021899597165	2.7668798	1.6633941
15.514710336690234	2.6817434	1.6376029
15.53239914573928	2.5667186	1.6020982
15.550088327189297	2.5299456	1.5905802
15.567777881485336	2.5067465	1.5832708
15.58546780907256	2.538362	1.5932238
15.6031581103962	2.508755	1.583905
15.620848785901568	2.4842575	1.5761527
15.638539836034063	2.4532797	1.5662949
15.656231261239173	2.4123883	1.5531865
15.673923061962451	2.4269369	1.5578629
15.691615238649552	2.4396992	1.5619537
15.709307791746202	2.4374087	1.5612203
15.727000721698221	2.4350278	1.5604576
15.744694028951498	2.43189	1.5594518
15.76238771395202	2.4212973	1.5560519
15.780081777145844	2.3902233	1.5460347
15.797776218979125	2.3582978	1.535675
15.815471039898094	2.3654432	1.5379997
15.833166240349064	2.369628	1.5393596
15.850861820778437	2.3802817	1.5428162
15.868557781632699	2.3816643	1.5432642
15.886254123358412	2.3625615	1.5370626
15.903950846402232	2.3719766	1.5401223
15.921647951210897	2.4023914	1.549965
15.939345438231225	2.4327986	1.5597432
15.957043307910133	2.4260256	1.5575705
15.974741560694602	2.3913193	1.5463891
15.992440197031714	2.3681192	1.5388695
16.01013921736862	2.3686287	1.539035
16.02783862215259	2.3797448	1.5426421
16.045538411830933	2.3757284	1.5413398
16.06323858685107	2.3644905	1.53769
16.080939147660512	2.3618855	1.5368427
16.09864009470684	2.3613908	1.5366818
16.11634142843774	2.3645368	1.5377051
16.134043149300954	2.3752518	1.5411851
16.15174525774433	2.4138725	1.5536642
16.169447754215817	2.4351847	1.5605079
16.18715063916342	2.4454176	1.5637832
16.204853913035244	2.45714	1.5675267
16.222557576279478	2.4443567	1.5634439
16.240261629344403	22.436419	4.7367096
16.257966072678386	42.958736	6.5542912
16.275670906729868	38.074577	6.17046
16.293376131947387	2.5230148	1.5884001
16.31108174877957	2.5413985	1.5941764
16.328787757675133	2.609196	1.6153005
16.34649415908287	2.6266725	1.6207012
16.364200953451657	2.6288314	1.6213671
16.38190814123048	2.608635	1.615127
16.39961572286839	2.634085	1.6229864
16.41732369881455	2.6532602	1.6288831
16.43503206951817	2.7087588	1.6458308
16.45274083542859	2.7512662	1.6586941
16.47044999699522	2.7868745	1.6693934
16.488159554667558	2.812726	1.6771184
16.505869508895184	2.8300672	1.6822803
16.523579860127786	2.8897552	1.699928
16.541290608815117	2.943457	1.7156506
16.559001755407035	2.986108	1.7280359
16.57671330035348	2.9889817	1.7288672
16.59442524410448	3.036002	1.7424127
16.61213758711015	3.144938	1.7733973
16.629850329820705	3.2262232	1.796169
16.647563472686436	3.2900712	1.8138554
16.665277016157724	3.30753	1.8186616
16.682990960685053	3.3714368	1.8361473
16.70070530671898	3.3909001	1.8414397
16.718420054710155	3.4672513	1.8620557
16.736135205109335	3.4933662	1.8690549
16.753850758367335	3.5712118	1.889765
16.771566714935087	3.6294503	1.9051117
16.789283075263597	3.6952167	1.9222946
16.80699983980398	3.771101	1.9419323
16.82471700900741	3.8368235	1.9587811
16.84243458332518	3.9276588	1.9818321
16.860152563208665	3.966802	1.9916831
16.87787094910932	4.051372	2.0128021
16.89558974147871	4.113962	2.0282905
16.913308940768466	4.1474853	2.0365376
16.931028547430333	4.220208	2.0543146
16.94874856191613	4.2638316	2.0649047
16.966468984677785	4.356008	2.0871053
16.98418981616729	4.4261203	2.1038346
17.00191105683676	4.477402	2.1159873
17.019632707138374	4.496151	2.1204128
17.03735476752442	4.4775305	2.1160176
17.05507723844728	4.485932	2.118002
17.072800120359403	4.542586	2.1313343
17.090523413713353	4.6342216	2.1527243
17.108247118961785	4.631759	2.1521523
17.125971236557437	4.6660647	2.1601076
17.143695766953133	4.6244	2.150442
17.161420710601806	4.639583	2.153969
17.179146067956477	4.6190987	2.1492088
17.19687183947025	4.6825566	2.1639216
17.21459802559634	4.667214	2.1603734
17.232324626788028	4.6383133	2.1536744
17.25005164349871	4.626783	2.1509957
17.267779076181863	4.667565	2.1604548
17.285506925291074	4.653452	2.157186
17.30323519127999	4.6210284	2.1496577
17.320963874602384	4.5727177	2.1383913
17.33869297571211	4.5241485	2.1270046
17.356422495063114	4.5029383	2.1220129
17.37415243310944	4.489434	2.1188283
17.391882790305218	4.529305	2.1282163
17.40961356710468	4.5389104	2.130472
17.42734476396215	4.5435534	2.1315613
17.445076381332044	4.5356264	2.129701
17.462808419668868	4.6142926	2.1480904
17.48054087942723	4.773114	2.1847458
17.498273761061835	5.0435963	2.2457952
17.51600706502747	5.5571265	2.3573558
17.533740791779024	6.286382	2.5072658
17.551474941771485	7.620265	2.7604828
17.56920951545993	8.6358795	2.9386866
17.586944513299528	10.815575	3.2887042
17.60467993574556	12.627774	3.5535579
17.622415783253373	14.403194	3.795154
17.64015205627843	15.793788	3.97414
17.657888755276293	16.863075	4.1064677
17.675625880702604	17.359829	4.166513
17.69336343301311	17.11461	4.136981
17.71110141266366	16.145037	4.018089
17.728839820110178	15.126898	3.8893313
17.746578655808705	14.31712	3.783797
17.764317920215372	12.95761	3.599668
17.7820576137864	11.517669	3.393769
17.79979773697811	9.505467	3.083094
17.81753829024692	7.6224422	2.7608771
17.835279274049356	5.919358	2.4329731
17.85302068884201	4.8895445	2.2112315
17.870762535081607	4.206744	2.051035
17.888504813224934	3.8780184	1.9692684
17.90624752372891	3.668262	1.9152707
17.923990667050536	3.636307	1.9069103
17.941734243646895	3.578873	1.891791
17.959478253975185	3.5295703	1.878715
17.9772226984927	3.4669015	1.8619617
17.994967577656833	3.4001362	1.8439459
18.01271289192506	3.3454735	1.8290635
18.030458641754965	3.31145	1.819739
18.04820482760425	3.3204517	1.8222107
18.06595144993067	3.3435445	1.8285362
18.083698509192125	3.3529093	1.8310951
18.101446005846576	3.31442	1.8205549
18.119193940352105	3.2654643	1.8070595
18.136942313166887	3.272378	1.8089715
18.1546911247492	3.1720278	1.7810187
18.1724403755574	3.134579	1.7704742
18.19019006604997	3.1037686	1.7617515
18.207940196685467	3.1131089	1.7644005
18.225690767922575	3.120451	1.7664798
18.243441780220046	3.151305	1.7751915
18.261193234036764	3.1611955	1.7779751
18.278945129831676	3.1427891	1.7727914
18.29669746806386	3.1373074	1.7712446
18.314450249192483	3.1154983	1.7650775
18.3322034736768	3.0691879	1.7519097
18.349957141976184	3.0137546	1.7360169
18.3677112545501	3.0282156	1.7401769
18.385465811858108	3.0456088	1.7451673
18.403220814359884	3.0792122	1.7547684
18.420976262515172	3.1133916	1.7644806
18.43873215678387	3.128328	1.768708
18.456488497625923	3.1781034	1.7827235
18.474245285501407	3.2887394	1.8134882
18.492002520870486	3.374627	1.8370159
18.50976020419343	3.4298546	1.8519866
18.527518335930615	3.6834056	1.9192201
18.545276916542516	4.2852755	2.0700908
18.563035946489688	4.4438043	2.1080332
18.580795426232832	4.9000125	2.2135973
18.598555356232698	4.7989435	2.190649
18.616315736950185	5.0717244	2.252049
18.63407656884626	4.692123	2.1661308
18.65183785238201	4.837145	2.199351
18.669599588018617	4.5656586	2.1367402
18.68736177621737	4.555888	2.1344526
18.705124417439652	4.597757	2.144238
18.72288751214696	4.4413295	2.1074462
18.740651060800886	4.5692773	2.1375868
18.758415063863115	4.2873154	2.0705833
18.77617952179546	4.445966	2.1085458
18.793944435059814	4.2085443	2.0514736
18.811709804118184	4.235098	2.0579352
18.829475629432675	4.1956544	2.0483296
18.8472419114655	3.9561148	1.9889984
18.86500865067897	4.0646677	2.016102
18.88277584753551	3.7681508	1.9411725
18.90054350249763	3.7972803	1.9486612
18.918311616027957	3.4834216	1.8663926
18.936080188589226	3.3654482	1.8345158
18.953849220644265	3.0617964	1.749799
18.971618712656007	2.874849	1.695538
18.9893886650875	2.8056793	1.6750162
19.007159078401887	8.0284195	2.8334465
19.024929953062408	32.950912	5.7402887
19.042701289532435	32.902996	5.7361135
19.060473088275405	25.44464	5.044268
19.07824534975489	2.695207	1.6417086
19.096018074434568	2.6936762	1.6412423
19.113791262778197	2.6924944	1.6408823
19.13156491524966	2.6452801	1.6264317
19.149339032312945	2.5886116	1.6089163
19.167113614432136	2.5734177	1.6041875
19.184888662071433	2.542161	1.5944155
19.202664175695123	2.5528233	1.5977557
19.220440155767623	2.5257719	1.5892677
19.238216602753447	2.5387185	1.5933356
19.2559935171172	2.5048575	1.5826741
19.27377089932361	2.5046632	1.5826128
19.291548749837514	2.5160203	1.5861968
19.309327069123835	2.5448627	1.5952626
19.32710585764763	2.5137565	1.5854831
19.344885115874032	2.4811351	1.5751619
19.362664844268313	2.457221	1.5675526
19.380445043295822	2.4546916	1.5667455
19.39822571342203	2.4588625	1.568076
19.41600685511252	2.466705	1.5705748
19.43378846883297	2.4763772	1.573651
19.451570555049173	2.4635885	1.5695822
19.469353114227037	2.4564633	1.5673108
19.48713614683254	2.4555578	1.567022
19.50491965333182	2.5195599	1.5873121
19.52270363419109	2.5126624	1.585138
19.540488089876686	2.4897258	1.5778865
19.55827302085503	2.422946	1.5565815
19.576058427592674	2.429067	1.5585464
19.593844310556282	2.4647605	1.5699556
19.611630670212598	2.4927118	1.5788324
19.629417507028506	2.498137	1.5805496
19.64720482147098	2.4884992	1.5774977
19.6649926140071	2.467283	1.5707587
19.682780885104084	2.505649	1.5829242
19.70056963522921	2.5266132	1.5895324
19.718358864849908	2.513311	1.5853425
19.7361485744337	2.478026	1.5741746
19.753938764448215	2.4792895	1.574576
19.771729435361202	2.4952745	1.5796438
19.789520587640506	2.4886997	1.5775613
19.807312221754092	2.4666412	1.5705544
19.825104338170043	2.476077	1.5735556
19.842896937356517	2.5273345	1.5897592
19.860690019781824	2.5600872	1.6000272
19.87848358591436	2.5474846	1.5960841
19.896277636222635	2.4881089	1.5773741
19.914072171175278	2.4772253	1.5739204
19.931867191241015	2.5112205	1.5846831
19.94966269688869	2.5317826	1.5911577
19.967458688587264	2.4820702	1.5754588
19.985255166805807	2.4626744	1.569291
20.00305213201348	2.4772131	1.5739166
20.020849584679578	2.4545445	1.5666987
20.038647525273507	2.4336455	1.5600146
20.05644595426477	2.4324825	1.5596418
20.07424487212299	2.4322352	1.5595626
20.092044279317903	2.4390047	1.5617313
20.109844176319353	2.4797087	1.574709
20.127644563597304	2.4582648	1.5678855
20.145445441621817	2.4594798	1.5682728
20.16324681086307	2.3928037	1.546869
20.181048671791373	2.3890488	1.5456548
20.198851024877122	2.3747303	1.541016
20.216653870590836	2.4303694	1.5589643
20.234457209403146	2.425587	1.5574296
20.252261041784802	2.4155045	1.5541893
20.270065368206662	2.4080865	1.5518011
20.287870189139685	2.4318366	1.5594347
20.305675505054968	2.429735	1.5587608
20.323481316423702	2.3796506	1.5426116
20.341287623717207	2.3351064	1.5281055
20.359094427406884	2.3303912	1.5265619
20.376901727964288	2.346915	1.5319644
20.39470952586107	2.348246	1.5323988
20.41251782156899	2.3211799	1.5235419
20.430326615559935	2.3214965	1.5236458
20.448135908305886	2.3398101	1.5296438
20.465945700278965	2.3676615	1.5387207
20.483755991951384	2.3820682	1.543395
20.50156678379548	2.392421	1.5467453
20.519378076283708	2.4016402	1.5497227
20.537189869888635	2.3574688	1.5354052
20.55500216508294	2.3493562	1.532761
20.572814962339415	2.3046546	1.5181088
20.59062826213098	2.2941406	1.5146421
20.60844206493066	2.3192103	1.5228953
20.626256371211593	2.3628068	1.5371424
20.644071181447032	2.3330426	1.52743
20.66188649611036	2.3024936	1.5173969
20.67970231567506	2.2901647	1.513329
20.697518640614742	2.311918	1.5204992
20.715335471403122	2.2870178	1.5122889
20.73315280851404	2.3143528	1.5212997
20.750970652421447	2.3118024	1.5204612
20.768789003599412	2.3017936	1.5171663
20.786607862522136	2.2871878	1.5123452
20.8044272296639	2.3037074	1.5177969
20.82224710549913	2.3243563	1.5245839
20.84006749050237	2.3205402	1.5233319
20.857888385148268	3.8553112	1.9634947
20.8757097899116	45.940918	6.777973
20.893531705267254	64.78808	8.049104
20.911354131690224	83.812965	9.1549425
20.92917706965566	69.099815	8.31263
20.94700051963877	50.155857	7.08208
20.96482448211493	29.401575	5.422322
20.982648957559622	4.139088	2.0344748
21.00047394644843	2.2438557	1.4979506
21.01829944925707	2.2325592	1.4941751
21.036125466461375	2.2044003	1.4847223
21.053951998537297	2.2138033	1.4878855
21.071779045960906	2.2425969	1.4975302
21.089606609208378	2.2459662	1.4986548
21.10743468875603	2.2187903	1.4895605
21.12526328508028	2.1843486	1.4779541
21.143092398657675	2.1867197	1.4787561
21.16092202996488	2.1745033	1.4746197
21.17875217947867	2.181724	1.477066
21.19658284767596	2.1912513	1.4802876
21.21441403503377	2.2184043	1.4894309
21.232245742029225	2.2248049	1.491578
21.2500779691396	2.2052393	1.4850048
21.26791071684227	2.192892	1.4808416
21.28574398561475	2.1553633	1.4681156
21.30357777593465	2.161833	1.4703174
21.321412088279704	2.1643128	1.4711604
21.339246923127792	2.1267993	1.4583551
21.357082280956888	2.090612	1.4458948
21.3749181622451	2.107817	1.4518323
21.392754567470647	2.1210594	1.4563857
21.41059149711187	2.1240947	1.4574274
21.42842895164726	2.1352084	1.4612352
21.446266931555378	2.1427808	1.463824
21.464105437314945	2.1433604	1.464022
21.481944469404798	2.1274703	1.458585
21.49978402830388	2.1049747	1.4508531
21.51762411449127	2.0985382	1.4486332
21.53546472844617	2.0961199	1.4477983
21.553305870647876	2.0799136	1.4421905
21.571147541575865	2.0904567	1.4458412
21.58898974170967	2.1202047	1.4560922
21.60683247152899	2.1171794	1.4550531
21.62467573151363	2.0694118	1.438545
21.642519522143523	2.033748	1.4260954
21.660363843898722	2.0267768	1.4236491
21.6782086972594	2.0500233	1.4317902
21.696054082705864	2.058601	1.4347825
21.713900000718535	2.0766838	1.4410703
21.73174645177795	2.0763183	1.4409435
21.749593436364794	2.0582263	1.434652
21.767440954959845	2.052576	1.4326814
21.785289008044032	2.0441442	1.4297357
21.803137596098388	2.0315568	1.425327
21.820986719604086	2.0236082	1.4225359
21.838836379042412	2.0216205	1.421837
21.85668657489478	2.0013645	1.4146959
21.87453730764273	1.9974655	1.4133172
21.892388577767914	2.0221822	1.4220345
21.91024038575213	2.0201175	1.4213084
21.928092732077285	2.0388713	1.4278905
21.945945617225426	2.0387697	1.4278549
21.963799041678694	2.0403523	1.428409
21.981653005919398	31.355492	5.5995975
21.999507510429943	78.156624	8.840624
22.01736255569286	73.10575	8.55019
22.035218142190818	4.1765323	2.0436566
22.05307427040661	2.0019946	1.4149185
22.07093094082315	2.013188	1.4188685
22.088788153923474	2.0057433	1.4162426
22.106645910190746	2.0025125	1.4151015
22.12450421010827	2.0031486	1.4153264
22.142363054159464	1.9840938	1.4085786
22.16022244282787	2.0030217	1.4152815
22.178082376597164	2.0246437	1.4228997
22.195942855951145	2.0063574	1.4164594
22.213803881373742	1.9836683	1.4084276
22.231665453349002	1.9738339	1.404932
22.24952757236111	1.9825563	1.4080328
22.26739023889438	1.9598502	1.3999465
22.28525345343323	1.9435091	1.3940979
22.30311721646225	1.975012	1.4053512
22.320981528466113	1.9888799	1.4102765
22.33884638992964	2.002148	1.4149728
22.356711801337788	1.9799219	1.407097
22.37457776317561	1.9730581	1.4046558
22.392444275928337	1.93947	1.3926486
22.410311340081282	1.9467847	1.3952723
22.428178956119904	1.9403344	1.3929589
22.446047124529805	1.9764515	1.4058633
22.46391584579669	1.9296842	1.3891307
22.481785120406414	1.9005252	1.3785954
22.49965494884496	1.8970609	1.3773383
22.51752533159841	1.9495846	1.3962753
22.53539626915302	1.9684806	1.4030255
22.553267761995137	1.9570832	1.3989578
22.571139810611264	1.9616505	1.4005893
22.589012415488025	1.9719619	1.4042656
22.60688557711216	1.9463482	1.3951159
22.624759295970566	1.9246894	1.3873317
22.642633572550263	1.9420819	1.393586
22.660508407338362	1.9459363	1.3949683
22.67838380082217	1.9574997	1.3991067
22.696259753489077	1.9664624	1.4023061
22.714136265826614	1.9713805	1.4040586
22.73201333832246	1.9399078	1.3928057
22.74989097146439	1.8867526	1.3735912
22.76776916574035	1.894858	1.3765384
22.785647921638393	1.9407699	1.3931152
22.803527239646712	1.9550819	1.3982425
22.82140712025363	1.962467	1.4008808
22.839287563947593	1.9265578	1.388005
22.85716857121719	1.9071344	1.3809904
22.875050142551135	1.9442382	1.3943595
22.892932278438277	1.973564	1.4048359
22.910814979367604	1.9524785	1.3973112
22.928698245828222	1.9088086	1.3815964
22.946582078309387	1.9170475	1.3845749
22.96446647730047	1.89978	1.3783251
22.98235144329098	1.8895724	1.3746172
23.000236976770562	1.8662513	1.3661081
23.018123078229	1.8898765	1.3747278
23.03600974815619	1.9276451	1.3883966
23.053896987042194	1.9486856	1.3959533
23.071784795377173	1.9173886	1.384698
23.08967317365145	1.8904024	1.374919
23.10756212235546	1.9122638	1.3828462
23.125451641979787	1.911882	1.3827082
23.143341733015134	1.9185168	1.3851054
23.161232395952357	1.9572062	1.3990018
23.179123631282426	1.958032	1.399297
23.197015439496468	1.9584088	1.3994316
23.214907821085717	1.9502679	1.3965199
23.23280077654157	1.9238853	1.3870419
23.250694306355538	1.9610376	1.4003705
23.268588411019277	1.9515859	1.3969917
23.28648309102458	1.9274275	1.3883182
23.304378346863356	1.8584963	1.3632668
23.322274179027676	1.862719	1.3648146
23.340170588009723	1.9150541	1.3838547
23.358067574301852	1.9670724	1.4025235
23.37596513839651	1.985252	1.4089897
23.39386328078629	1.9277711	1.3884419
23.411762001963947	1.883523	1.3724151
23.429661302422353	1.8768965	1.3699987
23.4475611826545	1.8741881	1.3690099
23.46546164315356	1.9347194	1.390942
23.48336268441279	1.9951619	1.412502
23.501264306925638	1.9739153	1.404961
23.51916651118564	1.8817552	1.3717709
23.537069297686497	1.8583533	1.3632143
23.554972666922037	1.8966038	1.3771724
23.57287661938623	1.915449	1.3839974
23.59078115557318	1.9190341	1.385292
23.608686275977128	1.8887563	1.3743203
23.62659198109246	1.8791102	1.3708065
23.6444982714137	1.8829833	1.3722184
23.66240514743549	1.9202759	1.3857402
23.68031260965263	1.9922682	1.4114773
23.698220658560068	1.970633	1.4037924
23.716129294652845	1.9203176	1.3857553
23.7340385184262	1.8682675	1.3668458
23.75194833037546	1.862057	1.364572
23.769858730996123	1.862179	1.3646168
23.78776972078382	1.8515089	1.3607016
23.80568130023431	1.8601806	1.3638843
23.823593469843495	1.8937541	1.3761374
23.841506230107424	1.8798363	1.3710712
23.859419581522275	1.9101717	1.3820896
23.87733352458438	1.9270554	1.3881842
23.89524805979019	1.9432552	1.3940068
23.913163187636318	1.9247901	1.3873681
23.931078908619508	1.965567	1.4019868
23.948995223236633	1.9935584	1.4119343
23.966912131984735	1.9809253	1.4074535
23.98482963536096	1.9709847	1.4039177
24.002747733862616	1.9543424	1.397978
24.020666427987155	1.9892629	1.4104123
24.038585718232156	2.0140533	1.4191735
24.056505605095353	2.0325089	1.4256608
24.074426089074617	2.021886	1.4219304
24.092347170667946	1.9993503	1.4139838
24.110268850373515	2.0159264	1.4198332
24.128191128689586	2.0295966	1.4246391
24.146114006114626	2.0291538	1.4244837
24.164037483147187	2.095889	1.4477186
24.181961560286005	2.1141717	1.4540192
24.199886238029926	2.0761323	1.440879
24.21781151687797	2.035389	1.4266706
24.235737397329274	2.0211713	1.421679
24.253663879883135	2.0144885	1.4193268
24.271590965038975	2.0379262	1.4275595
24.289518653296376	2.0741549	1.4401927
24.30744694515505	2.0611622	1.4356748
24.32537584111486	2.0275052	1.4239049
24.34330534167581	2.0080612	1.4170607
24.361235447338046	2.0378819	1.427544
24.379166158601876	2.0059261	1.4163072
24.39709747596772	2.0103	1.4178505
24.41502939993615	2.0335903	1.42604
24.432961931007917	2.0100865	1.4177752
24.450895069683856	1.9643819	1.4015641
24.468828816465	1.9582564	1.3993771
24.4867631718525	1.9704479	1.4037265
24.504698136347656	1.9889827	1.410313
24.52263371045192	2.0026286	1.4151425
24.540569894666874	1.9915383	1.4112188
24.558506689494266	1.9735013	1.4048136
24.57644409543597	1.9343866	1.3908223
24.594382112994012	1.9584525	1.3994472
24.61232074267057	1.9984479	1.4136647
24.630259984967953	2.0156448	1.419734
24.64819984038863	2.0049531	1.4159636
24.66614030943522	2.0181646	1.4206212
24.684081392610462	2.0110693	1.4181217
24.702023090417274	1.9932406	1.4118217
24.7199654033587	1.9988487	1.4138064
24.737908331937927	1.9943597	1.412218
24.755851876658305	1.9884554	1.410126
24.773796038023324	2.0011752	1.414629
24.79174081653661	2.0326388	1.4257064
24.809686212701962	2.1170819	1.4550196
24.827632227023294	2.1199615	1.4560088
24.8455788600047	2.1254911	1.4579064
24.8635261121504	2.0943518	1.4471875
24.88147398396475	2.1312413	1.4598771
24.899422475952303	2.1375344	1.4620309
24.917371588617698	2.1302626	1.4595419
24.935321322465768	2.1390798	1.4625593
24.953271678001478	2.244809	1.4982686
24.97122265572994	2.501325	1.5815578
24.989174256156414	2.8672218	1.6932873
25.00712647978632	3.3510225	1.8305799
25.02507932712521	3.86751	1.9665986
25.043032798678798	4.304743	2.0747874
25.060986894952933	4.824684	2.1965163
25.078941616453637	5.5649776	2.3590205
25.096896963687055	6.573049	2.5637958
25.114852937159508	7.761569	2.7859592
25.132809537377444	8.242172	2.8709183
25.150766764847468	8.268023	2.875417
25.168724620076347	7.712429	2.777126
25.186683103570985	6.708119	2.5900037
25.204642215838426	5.4943323	2.3439991
25.222601957385894	4.17898	2.0442553
25.24056232872074	3.240012	1.8000033
25.25852333035048	2.6192584	1.6184123
25.276484962782778	2.2509303	1.5003101
25.294447226525435	2.0843797	1.4437381
25.312410122086423	2.0021088	1.414959
25.330373649973843	1.9455761	1.394839
25.348337810695988	1.9316539	1.3898395
25.366302604761245	1.9175907	1.384771
25.384268032678207	1.9023405	1.3792536
25.40223409495558	1.9012723	1.3788663
25.420200792102257	1.8940834	1.3762571
25.438168124627246	1.8736694	1.3688204
25.45613609303974	1.8835104	1.3724104
25.474104697849057	1.8631771	1.3649825
25.492073939564698	1.8383125	1.3558438
25.510043818696285	1.7858233	1.336347
25.528014335753614	1.8292588	1.3525009
25.54598549124664	1.8862402	1.3734046
25.56395728568544	1.9076515	1.3811775
25.58192971958028	1.8691999	1.3671869
25.59990279344156	1.8465412	1.3588749
25.617876507779833	1.8362985	1.3551009
25.635850863105826	1.8236252	1.3504167
25.653825859930386	1.8048668	1.3434533
25.671801498764548	1.8038354	1.3430694
25.68977778011949	1.8329661	1.3538707
25.707754704506524	1.8642671	1.3653817
25.725732272437153	1.8973247	1.3774341
25.743710484423012	1.8841519	1.3726442
25.761689340975888	1.8857132	1.3732127
25.77966884260774	1.8904359	1.3749312
25.797648989830662	1.8989487	1.3780235
25.815629783156922	1.8471642	1.3591042
25.83361122309895	1.8672123	1.3664597
25.85159331016929	1.8865519	1.3735181
25.869576044880695	1.8912936	1.3752431
25.887559427746034	1.8509295	1.3604887
25.90554345927836	1.8351964	1.3546942
25.92352813999086	1.8217471	1.3497211
25.94151347039689	1.8235577	1.3503917
25.959499451009965	1.8403031	1.3565778
25.97748608234374	1.8336035	1.3541062
25.995473364912062	1.7908511	1.3382269
26.013461299228904	1.7888014	1.3374608
26.03144988580839	1.7524902	1.3238165
26.04943912516483	1.7637157	1.3280497
26.067429017812675	1.7731316	1.3315899
26.085419564266537	1.8030658	1.3427829
26.103410765041186	1.7838767	1.3356185
26.12140262065155	1.772001	1.3311653
26.139395131612723	1.7814353	1.3347042
26.157388298439948	1.8126538	1.3463483
26.17538212164861	1.7641025	1.3281952
26.193376601754295	1.7266446	1.3140185
26.211371739272714	1.7578807	1.325851
26.229367534719746	1.8393973	1.3562438
26.247363988611433	1.8226087	1.3500403
26.26536110146397	1.7979817	1.3408884
26.283358873793727	1.8275441	1.3518668
26.301357306117204	1.89044	1.3749328
26.319356398951104	1.8666164	1.3662417
26.33735615281224	1.8347435	1.354527
26.35535656821762	1.8523942	1.3610269
26.373357645684404	1.8439057	1.3579049
26.39135938572991	1.8216678	1.3496917
26.409361788871614	1.813942	1.3468267
26.427364855627165	1.8184004	1.3484808
26.445368586514352	1.8378247	1.3556639
26.46337298205115	1.8543382	1.3617408
26.48137804275568	1.8393912	1.3562416
26.499383769146217	1.840903	1.3567988
26.517390161741215	1.7996633	1.3415153
26.53539722105928	1.7982455	1.3409867
26.553404947619182	1.8001655	1.3417025
26.571413341939856	1.8097464	1.3452681
26.589422404540397	1.8200188	1.3490807
26.60743213594006	1.8290911	1.3524389
26.62544253665827	1.8161892	1.3476607
26.64345360721459	1.7997926	1.3415635
26.66146534812879	1.7588309	1.3262092
26.679477759920758	1.7495855	1.322719
26.69749084311057	1.7725353	1.331366
26.71550459821847	1.753862	1.3243345
26.733519025764842	1.7813959	1.3346895
26.751534126270258	1.7799509	1.3341479
26.769549900255434	1.7931812	1.3390971
26.787566348241267	1.7248663	1.3133416
26.80558347074881	1.7565844	1.325362
26.823601268299267	1.8043272	1.3432525
26.841619741414036	1.8256749	1.3511754
26.85963889061465	1.8512282	1.3605984
26.877658716422832	1.8620734	1.3645781
26.89567921936045	1.8356622	1.3548661
26.913700399949544	1.7526706	1.3238847
26.93172225871233	1.7545307	1.324587
26.949744796171174	1.7505181	1.3230715
26.967768012848605	1.7526408	1.3238734
26.98579190926733	1.7754511	1.3324605
27.003816485950225	1.8148516	1.3471643
27.021841743420318	1.8207268	1.3493431
27.039867682200814	1.849835	1.3600864
27.057894302815072	1.8990908	1.378075
27.07592160578664	1.9127856	1.383035
27.0939495916392	1.8941654	1.3762869
27.111978260896635	1.8664414	1.3661777
27.13000761408296	1.8039724	1.3431203
27.148037651722397	1.7995058	1.3414567
27.166068374339304	1.814478	1.3470256
27.184099782458215	1.8176615	1.3482068
27.20213187660384	1.8278656	1.3519858
27.22016465730105	1.7869751	1.3367779
27.23819812507487	1.7931722	1.3390938
27.256232280450533	1.8346444	1.3544905
27.274267123953383	1.878652	1.3706392
27.292302656108987	1.8071419	1.3442998
27.31033887744306	1.7466863	1.3216226
27.32837578848146	1.7315029	1.3158659
27.34641338975026	1.7397283	1.3189876
27.364451681775673	1.7609028	1.3269901
27.382490665084074	1.8032706	1.3428591
27.400530340202046	1.8660392	1.3660305
27.41857070765629	1.8287663	1.3523189
27.436611767973726	1.7662785	1.3290141
27.454653521681404	1.7645615	1.328368
27.472695969306564	1.8142685	1.3469478
27.490739111376627	1.8235878	1.3504028
27.508782948419153	1.7847298	1.3359379
27.526827480961902	1.7432308	1.3203146
27.54487270953279	1.7690847	1.3300694
27.562918634659898	1.7890887	1.3375682
27.580965256871508	1.7710142	1.3307946
27.599012576696026	1.7418442	1.3197894
27.617060594662068	1.7859206	1.3363835
27.63510931129842	1.820613	1.349301
27.65315872713401	1.8460343	1.3586885
27.67120884269797	1.8713759	1.3679824
27.68925965851958	1.9066157	1.3808025
27.707311175128307	1.8850998	1.3729893
27.725363393053787	1.8568803	1.362674
27.74341631282583	1.8617493	1.3644594
27.7614699349744	1.851266	1.3606124
27.77952426002968	2.0077496	1.4169508
27.797579288521973	2.0262403	1.4234607
27.815635020981784	2.5028555	1.5820416
27.83369145793979	2.5810583	1.6065673
27.85174859992682	2.4132535	1.553465
27.869806447473923	2.2491362	1.499712
27.887865001112267	1.9732108	1.4047102
27.905924261373233	1.9035653	1.3796976
27.92398422878836	1.9245602	1.3872852
27.94204490388936	1.9490868	1.396097
27.96010628720813	1.9284378	1.388682
27.978168379276728	1.9048935	1.3801788
27.9962311806274	1.863997	1.3652828
28.014294691792568	1.8450832	1.3583384
28.0323589133048	1.8484797	1.359588
28.050423845696887	1.847753	1.3593208
28.068489489501758	1.8845288	1.3727814
28.086555845252523	1.9029957	1.3794911
28.104622913482487	1.8956479	1.3768253
28.122690694725115	1.886569	1.3735243
28.14075918951405	1.902749	1.3794017
28.15882839838312	1.9112642	1.3824848
28.176898321866304	1.8870924	1.3737148
28.1949689604978	1.8555332	1.3621796
28.213040314811945	1.8591831	1.3635186
28.23111238534327	1.8907632	1.3750502
28.249185172626493	1.965237	1.401869
28.267258677196473	1.9635847	1.4012797
28.285332899588294	1.9547857	1.3981365
28.303407840337172	1.9364477	1.391563
28.321483499978545	1.9611341	1.4004049
28.33955987904799	1.9735477	1.4048301
28.357636978081285	1.9759682	1.4056914
28.37571479761439	1.9664072	1.4022864
28.393793338183425	1.9898119	1.410607
28.41187260032469	1.9817564	1.4077487
28.429952584574686	1.9400531	1.3928579
28.448033291470065	1.9282523	1.3886153
28.46611472154769	1.9477183	1.3956068
28.484196875344566	1.9785423	1.4066067
28.502279753397914	2.01652	1.4200423
28.52036335624511	2.0560567	1.4338957
28.538447684423716	2.0576766	1.4344604
28.556532738471482	2.101733	1.4497355
28.574618518926325	2.080122	1.4422628
28.59270502632635	2.0617151	1.4358674
28.61079226120985	2.0260065	1.4233786
28.628880224115274	2.0087564	1.4173061
28.646968915581287	2.0284796	1.424247
28.66505833614671	2.0286648	1.424312
28.68314848635055	2.0174556	1.4203717
28.701239366732004	2.0138888	1.4191155
28.71933097783044	2.02598	1.4233693
28.737423320185403	1.9872869	1.4097116
28.75551639433665	2.026675	1.4236133
28.773610200824074	2.083335	1.4433762
28.791704740187793	2.1285734	1.4589632
28.80980001296809	2.1388843	1.4624925
28.827896019705413	2.1334894	1.4606469
28.845992760940433	2.1691878	1.4728162
28.86409023721397	2.2113922	1.4870751
28.88218844906704	2.2375453	1.4958427
28.900287397040845	2.2174604	1.4891139
28.918387081676755	2.2307575	1.493572
28.936487503516343	2.2798808	1.5099274
28.954588663101365	2.2383962	1.496127
28.97269056097374	2.2065682	1.4854522
28.990793197675597	2.2450206	1.4983393
29.00889657374923	2.3201933	1.523218
29.027000689737125	2.3350651	1.528092
29.04510554618196	2.389753	1.5458826
29.06321114362659	2.43559	1.5606377
29.08131748261405	2.4229832	1.5565934
29.099424563687567	2.3858442	1.5446178
29.11753238739057	2.4464517	1.5641137
29.13564095426663	2.5626059	1.6008141
29.15375026485954	2.6833086	1.6380807
29.171860319713275	2.696862	1.6422125
29.18997111937199	2.7293596	1.6520773
29.20808266438002	2.7649832	1.6628239
29.226194955281898	2.761582	1.6618007
29.244307992622335	2.8084276	1.6758363
29.26242177694624	2.847452	1.6874394
29.2805363087987	2.8709145	1.6943773
29.29865158872498	2.8975396	1.7022161
29.316767617270557	2.833399	1.6832703
29.334884394981064	2.7988565	1.6729783
29.353001922402367	2.8948777	1.701434
29.37112020008047	3.0339131	1.7418132
29.389239228561596	3.181969	1.7838074
29.407359008392152	3.4313703	1.8523958
29.42547954011872	3.7503238	1.9365753
29.44360082428809	4.321946	2.0789292
29.46172286144722	5.3011065	2.3024132
29.479845652143283	6.773196	2.6025364
29.497969196923606	8.984251	2.997374
29.516093496335728	11.657423	3.4142969
29.5342185509274	14.43601	3.799475
29.55234436124651	16.682285	4.0843954
29.570470927841175	18.116142	4.256306
29.588598251259686	17.90472	4.231397
29.60672633205055	16.460995	4.057215
29.624855170762405	14.31494	3.783509
29.642984767944146	11.759274	3.4291797
29.66111512414481	8.963991	2.9939926
29.67924623991366	6.6016273	2.569363
29.697378115800138	5.1388745	2.2669086
29.71551075235387	4.3326397	2.0814993
29.733644150124675	3.8840146	1.9707904
29.751778309662576	3.5629928	1.8875891
29.769913231517766	3.3958495	1.8427831
29.78804891624066	3.340969	1.8278317
29.806185364381818	3.340991	1.8278378
29.82432257649206	3.3579667	1.8324755
29.842460553122333	3.3317058	1.825296
29.86059929482382	3.353489	1.8312534
29.878738802147872	3.366006	1.8346678
29.896879075646048	3.3068044	1.8184621
29.915020115870114	3.2270339	1.7963947
29.933161923371976	3.192778	1.7868347
29.951304498703777	3.1555798	1.7763952
29.969447842417857	3.2113507	1.7920241
29.987591955066733	3.2955356	1.815361
30.005736837203123	3.2858603	1.8126942
30.023882489379943	3.2410438	1.8002899
30.04202891215028	3.2019217	1.7893914
30.060176106067455	3.23504	1.7986217
30.078324071684946	3.2439046	1.8010843
30.09647280955646	3.2260618	1.7961241
30.114622320235863	3.2187436	1.7940857
30.132772604277257	3.1517382	1.7753135
30.1509236622349	3.1364372	1.770999
30.16907549466328	3.1306994	1.7693783
30.18722810211705	3.107757	1.7628832
30.205381485151097	3.15772	1.7769974
30.22353564432045	3.1427176	1.7727711
30.241690580180403	3.122867	1.7671636
30.25984629328638	3.0799353	1.7549745
30.278002784194037	2.9954355	1.7307327
30.296160053459246	2.9991274	1.7317989
30.314318101638033	2.967368	1.722605
30.332476929286646	2.889975	1.6999927
30.35063653696153	2.9019716	1.7035174
30.368796925219307	2.921925	1.7093639
30.386958094616844	2.9111521	1.7062099
30.40512004571115	2.9038405	1.7040659
30.423282779059463	2.9007783	1.7031671
30.441446295219233	2.8885512	1.6995739
30.459610594748067	2.8536346	1.6892704
30.47777567820382	2.7741096	1.6655658
30.495941546144504	2.7106073	1.6463922
30.51410819912835	2.7202902	1.6493303
30.532275637713795	2.7510722	1.6586356
30.55044386245946	2.7698834	1.6642966
30.56861287392416	2.7297084	1.6521829
30.586782672666956	2.717616	1.6485194
30.604953259247047	2.7261183	1.6510961
30.623124634223885	2.770942	1.6646147
30.641296798157075	2.8119287	1.6768807
30.659469751606462	2.81401	1.6775011
30.677643495132074	2.7618587	1.6618841
30.695818029294152	2.7697518	1.6642572
30.713993354653116	2.7287195	1.6518836
30.73216947176962	2.630746	1.6219574
30.75034638120448	2.5955474	1.6110703
30.768524083518756	2.589048	1.6090518
30.786702579273673	2.659393	1.6307646
30.80488186903069	2.787597	1.6696098
30.82306195335144	2.9318938	1.7122774
30.841242832797782	3.1722398	1.7810782
30.85942450793176	3.4134617	1.8475556
30.877606979315637	3.6510406	1.9107696
30.895790247511883	4.0780454	2.019417
30.913974313083134	4.5520134	2.1335447
30.932159176592283	4.86178	2.2049444
30.95034483860237	4.8396726	2.1999257
30.968531299676698	4.6465006	2.1555743
30.98671856037873	4.28657	2.0704033
31.00490662127215	3.9545422	1.9886031
31.023095482920848	3.532464	1.879485
31.04128514588892	3.0911157	1.7581569
31.059475610740662	2.7213967	1.6496656
31.07766687804056	2.537128	1.5928365
31.09585894835335	2.4798453	1.5747524
31.11405182224393	2.4333978	1.5599352
31.132245500277417	2.405061	1.550826
31.15043998301914	2.369422	1.5392927
31.168635271034628	2.3525355	1.5337977
31.18683136488964	2.4370408	1.5611024
31.20502826515008	2.472103	1.5722923
31.223225972382135	2.482715	1.5756633
31.241424487152155	2.4512396	1.5656435
31.259623810026692	2.465845	1.5703009
31.27782394157253	2.4663534	1.5704628
31.296024882356644	2.5140016	1.5855603
31.314226632946237	2.4835606	1.5759317
31.332429193908684	2.4328191	1.5597497
31.350632565811598	2.422459	1.556425
31.368836749222787	2.5205464	1.5876229
31.387041744710295	2.5498414	1.5968223
31.40524755284232	2.5390918	1.5934528
31.423454174187317	2.5595038	1.5998449
31.441661609313922	2.663428	1.6320013
31.459869858791002	2.6016796	1.6129723
31.478078923187628	2.481834	1.5753838
31.496288803073064	2.3307881	1.5266919
31.514499499016807	2.27833	1.5094138
31.532711011588546	2.2669432	1.5056372
31.550923341358178	2.3979454	1.5485301
31.56913648889584	2.4404962	1.5622088
31.587350454771844	2.3304877	1.5265934
31.605565239556732	2.2536092	1.5012026
31.62378084382127	2.2799668	1.5099559
31.641997268136382	2.3203378	1.5232655
31.660214513073274	2.274488	1.5081406
31.67843257920331	2.2707648	1.5069057
31.6966514670981	2.2759812	1.5086355
31.71487117732944	2.3527813	1.5338778
31.733091710469346	2.3914726	1.5464387
31.751313067090052	2.3513734	1.5334189
31.769535247764008	2.2906158	1.513478
31.787758253063878	2.2750506	1.5083271
31.805982083562526	2.2714655	1.5071383
31.824206739833024	2.3755198	1.5412722
31.84243222244869	2.4369237	1.561065
31.860658531983013	2.4042711	1.5505712
31.878885669009737	2.3034859	1.5177239
31.897113634102784	2.2937782	1.5145224
31.91534242783632	2.2558675	1.5019546
31.933572050784694	2.2261817	1.4920394
31.951802503522508	2.2465196	1.4988394
31.970033786624548	2.2999814	1.5165689
31.988265900665834	2.2495236	1.4998412
32.006498846221575	2.1921647	1.4805961
32.02473262386724	2.1732366	1.4741901
32.04296723417845	2.2283604	1.4927694
32.0612026777311	2.2217178	1.4905428
32.07943895510129	2.1178567	1.4552858
32.097676066865304	2.0124323	1.4186022
32.115914013599685	2.0594969	1.4350947
32.13415279588115	2.1125011	1.4534446
32.152392414286666	2.0888712	1.4452928
32.1706328693934	2.1226077	1.4569172
32.18887416177875	2.1848674	1.4781297
32.20711629202032	2.2185225	1.4894706
32.225359260695924	2.2128186	1.4875546
32.243603068383614	2.1269183	1.4583958
32.26184771566166	2.0643966	1.4368008
32.28009320310852	2.0218554	1.4219196
32.2983395313029	2.0648348	1.4369533
32.31658670082372	2.0541263	1.4332223
32.33483471225012	2.0370948	1.4272683
32.35308356616143	2.0711567	1.4391514
32.371333263137245	2.1046965	1.4507573
32.38958380375734	2.047297	1.4308379
32.407835188601744	2.0312095	1.4252051
32.42608741825067	2.0934157	1.4468641
32.444340493284585	2.136858	1.4617996
32.46259441428416	2.1252143	1.4578115
32.48084918183028	2.0693705	1.4385307
32.49910479650405	2.064065	1.4366854
32.51736125888683	2.1177385	1.4552451
32.53561856956014	2.10623	1.4512856
32.5538767291058	2.0215936	1.4218276
32.572135738105764	1.9592825	1.3997437
32.59039559714228	2.0555012	1.4337019
32.608656306797776	2.1188815	1.4556378
32.62691786765491	2.1141152	1.4539998
32.645180280296586	2.0699866	1.4387448
32.663443545305896	1.9938061	1.412022
32.68170766326619	1.9310004	1.3896043
32.69997263476099	1.9819449	1.4078157
32.7182384603741	2.043501	1.4295107
32.7365051406895	2.0516958	1.4323742
32.75477267629144	1.9197726	1.3855586
32.77304106776434	1.8534839	1.3614272
32.79131031569289	1.9440765	1.3943014
32.809580420661966	2.0090253	1.417401
32.827851383256714	1.9264148	1.3879535
32.84612320406245	1.9548392	1.3981557
32.86439588366476	2.034466	1.4263471
32.88266942264945	2.103034	1.4501841
32.9009438216025	2.0372922	1.4273374
32.9192190811102	1.9873787	1.4097441
32.937495201758985	1.974054	1.4050103
32.95577218413556	1.9359673	1.3913904
32.974050028826866	1.9269806	1.3881572
32.992328736420035	1.8915032	1.3753194
33.010608307502444	1.8399	1.3564291
33.02888874266169	1.8179752	1.3483231
33.047170042485604	1.8762501	1.3697628
33.06545220756225	1.8973874	1.3774569
33.083735238479896	1.8694748	1.3672874
33.10201913582707	1.8330044	1.3538849
33.12030390019248	1.8141522	1.3469046
33.138589532165135	1.8402188	1.3565466
33.15687603233419	1.8870603	1.3737031
33.17516340128909	1.8512357	1.3606012
33.19345163961947	1.8515314	1.3607099
33.211740747915215	1.8818722	1.3718134
33.23003072676643	1.8987849	1.377964
33.248321576763466	1.9712083	1.4039973
33.266613298496885	1.9571419	1.3989788
33.28490589255747	1.9050785	1.3802458
33.30319935953626	1.8600928	1.3638521
33.32149370002451	1.8394129	1.3562496
33.339788914613706	1.8745217	1.3691318
33.358085003895575	1.8833035	1.3723351
33.376381968462034	1.8770385	1.3700505
33.39467980890529	1.8494172	1.3599328
33.41297852581774	1.8704805	1.3676552
33.43127811979204	1.9147679	1.3837514
33.44957859142105	1.9302216	1.3893242
33.467879941297866	1.9568748	1.3988835
33.486182170015844	1.9911493	1.411081
33.50448527816853	1.9711225	1.4039667
33.522789266349754	1.920846	1.3859459
33.541094135153514	2.032748	1.4257447
33.55939988517411	2.0820172	1.4429197
33.57770651700602	2.0517666	1.4323989
33.59601403124398	1.9891677	1.4103786
33.61432242848296	2.0324042	1.4256241
33.632631709318154	2.024989	1.4230211
33.650941874344994	1.9896994	1.410567
33.66925292415916	1.9886658	1.4102006
33.68756485935654	1.9571525	1.3989826
33.70587768053328	1.8463883	1.3588188
33.724191388285746	1.8110323	1.345746
33.74250598321054	1.8562967	1.3624598
33.760821465904506	1.8920808	1.3755293
33.77913783696474	1.8744572	1.3691082
33.79745509698852	1.937842	1.392064
33.815773246573414	2.0398576	1.4282359
33.8340922863172	2.0593965	1.4350598
33.852412216817896	1.8960915	1.3769864
33.87073303867377	1.8434181	1.3577254
33.889054752483304	1.8632003	1.364991
33.907377358845245	1.8478227	1.3593464
33.92570085835853	1.8019333	1.3423611
33.94402525162239	1.8918062	1.3754295
33.96235053923627	1.9655589	1.4019839
33.980676721799824	2.0680687	1.4380782
33.999003799912984	2.0684526	1.4382116
34.01733177417592	2.0372689	1.4273293
34.03566064518901	2.0225012	1.4221467
34.0539904135529	1.9338262	1.3906208
34.07232107986846	1.798941	1.341246
34.090652644736785	1.8248676	1.3508766
34.108985108759235	1.8901685	1.3748341
34.12731847253742	1.876979	1.3700289
34.14565273667313	1.8014202	1.34217
34.16398790176847	1.8670167	1.3663882
34.18232396842574	1.8784856	1.3705785
34.20066093724749	1.991799	1.4113111
34.21899880883651	2.0170362	1.420224
34.23733758379583	2.001879	1.4148778
34.25567726272874	2.1086123	1.4521061
34.27401784623872	2.042185	1.4290504
34.29235933492957	2.0165284	1.4200453
34.31070172940526	1.983541	1.4083824
34.32904503027003	1.968561	1.4030542
34.347389238128386	1.9565804	1.3987782
34.36573435358502	1.9780722	1.4064395
34.38408037724492	1.9659628	1.402128
34.402427309713296	1.9980973	1.4135407
34.42077515159559	1.9485203	1.395894
34.43912390349752	1.9265137	1.387989
34.45747356602499	1.9941664	1.4121495
34.47582413978423	2.048021	1.4310908
34.49417562538163	2.054943	1.4335073
34.51252802342388	2.0939608	1.4470525
34.53088133451789	2.027069	1.4237517
34.54923555927084	1.871068	1.3678699
34.567590698290104	1.9481506	1.3957616
34.58594675218336	1.9627529	1.4009829
34.6043037215585	1.8583126	1.3631994
34.62266160702365	1.8378308	1.3556662
34.641020409187234	1.9609355	1.400334
34.65938012865785	2.0039325	1.4156032
34.677740766044394	2.0840993	1.443641
34.69610232195598	2.0766559	1.4410607
34.714464797002016	1.9547001	1.3981059
34.73282819179208	1.9028002	1.3794203
34.751192506936064	1.9745264	1.4051784
34.76955774304408	1.9326818	1.3902093
34.7879239007265	1.998098	1.413541
34.80629098059391	2.0149426	1.4194868
34.824658983257194	1.9020193	1.3791372
34.843027909327446	1.9392061	1.3925538
34.86139775941603	1.9700015	1.4035674
34.879768534134534	2.0209455	1.4215996
34.89814023409483	2.021489	1.4217907
34.91651285990901	2.049474	1.4315984
34.93488641218944	2.1066017	1.4514138
34.95326089154871	2.0098014	1.4176747
34.97163629859967	1.8362831	1.3550953
34.99001263395542	1.803262	1.3428559
35.00838989822934	1.9529868	1.397493
35.02676809203499	2.0447402	1.4299442
35.04514721598624	1.8983397	1.3778025
35.063527270697215	1.9841044	1.4085824
35.081908256782256	2.0123794	1.4185836
35.10029017485597	2.0075374	1.416876
35.11867302553321	2.1157606	1.4545654
35.137056809429104	2.078673	1.4417603
35.155441527159006	2.1574538	1.4688274
35.173827179338524	2.3415108	1.5301995
35.19221376658354	2.2744195	1.5081179
35.21060128951017	2.1274636	1.4585828
35.2289897487348	2.0834062	1.4434009
35.24737914487405	2.0929456	1.4467016
35.26576947854479	2.0434587	1.4294959
35.28416075036418	2.00828	1.417138
35.30255296094958	1.9977078	1.4134029
35.32094611091867	2.2725987	1.5075141
35.33934020088932	2.2621467	1.5040435
35.35773523147969	2.2112818	1.4870379
35.3761312033082	2.3058085	1.5184889
35.394528116993506	2.132539	1.4603215
35.41292597315452	1.8638881	1.3652428
35.431324772410434	1.8858311	1.3732556
35.449724515380666	1.746808	1.3216686
35.46812520268491	1.8811411	1.371547
35.486526834943106	2.1940687	1.4812388
35.504929412775454	2.5879476	1.6087099
35.52333293680242	2.334799	1.5280049
35.54173740764471	1.6434106	1.2819557
35.560142825923286	1.6283519	1.2760689
35.5785491922594	1.6933945	1.3013049
35.59695650727454	1.6257387	1.2750446
35.61536477159042	1.9727423	1.4045434
