0.008763373481513119	0.0	0.0
0.026290120649546365	0.0	0.0
0.043816868432600686	0.0046239095	0.06799933
0.06134361724069026	0.14006248	0.37424922
0.07887036748382949	0.21285956	0.46136704
0.0963971195720331	0.25872335	0.5086486
0.11392387391531617	0.26169106	0.51155746
0.1314506309236943	0.22941346	0.47897124
0.1489773910071836	0.22724247	0.47669956
0.16650415457580078	0.15515059	0.3938916
0.18403092203956356	0.111145265	0.33338457
0.20155769380849	0.116391815	0.34116244
0.2190844702925996	0.15583542	0.39475995
0.2366112519019124	0.13477224	0.36711338
0.2541380390464497	0.13286097	0.364501
0.27166483213623416	0.1685808	0.4105859
0.28919163158128947	0.2228179	0.4720359
0.3067184377916406	0.23181485	0.48147154
0.324245251177314	0.19892417	0.44600916
0.34177207214833777	0.24108922	0.49100837
0.3592989011147415	0.25450742	0.5044873
0.37682573848655654	0.25557068	0.50554
0.39435258467381573	0.19884917	0.4459251
0.41187944008655414	0.1393422	0.37328568
0.42940630513480854	0.12264506	0.35020715
0.446933180228618	0.12549372	0.35425094
0.4644600657780234	0.14321327	0.37843528
0.48198696219306775	0.13943937	0.37341583
0.49951386988379676	0.12398126	0.35210973
0.5170407892602581	0.119135536	0.34516016
0.5345677207325025	0.12836742	0.358284
0.5520946647105822	0.154391	0.39292622
0.5696216216045534	0.1750264	0.41836157
0.5871485918244737	0.16568291	0.40704167
0.6046755757804043	0.15159465	0.38935158
0.6222025738824094	0.14416978	0.37969697
0.6397295865405557	0.1539314	0.39234093
0.6572566141649129	0.2040191	0.45168474
0.6747836571655547	0.22070445	0.46979192
0.6923107159525568	0.20186205	0.4492906
0.7098377909359992	0.13228978	0.36371663
0.7273648825259653	0.11799624	0.3435058
0.7448919911325411	0.14289938	0.37802035
0.762419117165817	0.18115252	0.42562017
0.7799462610358868	0.22151627	0.47065514
0.7974734231528482	0.18929455	0.43507993
0.8150006039268024	0.19415268	0.4406276
0.8325278037678551	0.17509052	0.4184382
0.8500550230861152	0.1649686	0.40616328
0.8675822622916969	0.19406198	0.44052467
0.8851095217947171	0.20237678	0.44986308
0.9026368020052984	0.19770384	0.444639
0.9201641033335665	0.17596646	0.41948357
0.9376914261896523	0.18665743	0.4320387
0.9552187709836915	0.21233971	0.46080333
0.9727461381258234	0.22540122	0.47476438
0.990273528026193	0.24133348	0.49125704
1.0078009410949496	0.26302776	0.5128623
1.0253283777422473	0.29885852	0.54667956
1.0428558383782454	0.2896895	0.5382281
1.0603833234131086	0.254931	0.50490695
1.0779108332570058	0.254527	0.5045067
1.0954383683201119	0.28903177	0.5376167
1.112965929012607	0.34188306	0.5847077
1.1304935157446763	0.50361115	0.70965564
1.1480211289265108	0.55580616	0.7455241
1.1655487689683062	1.6273233	1.2756658
1.1830764362802655	1.964113	1.4014682
1.200604131272596	2.2977219	1.5158238
1.2181318543555117	2.492185	1.5786656
1.235659605939232	2.4993367	1.580929
1.253187386433982	4.2189956	2.0540195
1.270715196249994	6.65622	2.579965
1.2882430357975057	12.12942	3.4827318
1.3057709054867608	16.772646	4.0954423
1.3232988057280106	22.366444	4.7293177
1.3408267369315112	27.418535	5.236271
1.358354699507526	31.164183	5.582489
1.3758826938663256	35.349068	5.945508
1.3934107204181858	37.308044	6.1080313
1.410938779573391	37.228848	6.101545
1.4284668717422309	37.82784	6.150434
1.4459949973350033	37.247723	6.1030912
1.4635231567620117	37.355263	6.111895
1.4810513504335687	36.93729	6.0776057
1.4985795787599925	36.31491	6.0261855
1.5161078421516088	35.97464	5.997886
1.5336361410187505	35.12984	5.927043
1.5511644757717598	35.047222	5.920069
1.5686928468209842	36.07645	6.0063677
1.58622125457678	36.913788	6.0756717
1.6037496994495108	38.394215	6.1963067
1.621278181849548	37.87924	6.154611
1.6388067021872719	38.456467	6.201328
1.6563352608730693	37.418205	6.117042
1.673863858317336	36.692677	6.057448
1.6913924949304753	35.880157	5.990005
1.7089211711228998	35.043156	5.919726
1.7264498873050296	34.018597	5.832546
1.7439786438872935	33.207787	5.76262
1.7615074412801288	32.207382	5.6751547
1.779036279893981	31.55092	5.6170206
1.796565160139305	30.547009	5.5269346
1.814094082426564	30.50417	5.523058
1.8316230471662298	29.75361	5.454687
1.849152054768784	29.096123	5.394082
1.8666811056447168	28.285894	5.3184485
1.8842102002045273	27.017942	5.197879
1.901739338858724	26.561443	5.1537795
1.9192685220178245	25.96729	5.095811
1.9367977500923557	25.59727	5.0593743
1.9543270234928547	24.941319	4.994128
1.971856342629867	24.29703	4.9292016
1.9893857079139496	23.747952	4.873187
2.006915119755667	23.271862	4.824092
2.0244445785655945	22.77297	4.7721033
2.0419740847543175	22.086908	4.6996713
2.0595036387324317	21.435734	4.629874
2.0770332409105414	20.95103	4.5772295
2.094562891699263	20.535685	4.5316315
2.1120925915092217	20.006542	4.4728675
2.129622340751053	19.646296	4.432414
2.1471521398354043	187.81787	13.704666
2.1646819891729323	444.18726	21.07575
2.182211889174303	440.73917	20.99379
2.1997418402501974	453.29013	21.290611
2.2172718428113023	433.251	20.814682
2.234801897268317	321.27643	17.924185
2.2523320040319548	17.619652	4.197577
2.269862163512935	17.360428	4.1665845
2.287392376121992	16.875998	4.108041
2.304922642269869	16.313406	4.0389857
2.322452962367322	15.921878	3.9902227
2.3399833368251164	15.66832	3.9583228
2.357513766054032	15.572307	3.9461763
2.3750442504648586	15.469359	3.9331107
2.3925747904683963	15.202951	3.8990963
2.410105386475459	14.912418	3.86166
2.4276360388968707	14.483204	3.8056805
2.445166748143469	14.267224	3.7771978
2.4626975146261025	14.105157	3.7556832
2.4802283387556323	13.844596	3.7208326
2.4977592209429305	13.584284	3.6856863
2.5152901615988825	13.134666	3.624178
2.5328211611343865	12.928376	3.5956051
2.5503522199603523	12.722417	3.5668497
2.5678833384877024	12.712025	3.5653927
2.5854145171273712	12.668656	3.5593057
2.6029457562903064	12.514385	3.5375676
2.620477056387469	12.038401	3.4696398
2.6380084178298326	11.766733	3.4302673
2.655539841028383	11.6002	3.4059067
2.673071326394119	11.5556135	3.399355
2.6906028743380523	11.486926	3.3892367
2.708134485271211	11.263013	3.3560412
2.7256661596046325	11.129014	3.3360176
2.743197897749369	10.885222	3.299276
2.760729700116486	10.753183	3.2792046
2.778261567117063	10.414775	3.227193
2.795793499162193	10.282256	3.2065957
2.8133254966629817	10.140215	3.1843705
2.830857560030551	10.023447	3.1659827
2.8483896896760337	9.915231	3.148846
2.865921886010578	9.833993	3.1359198
2.883454149445347	9.799043	3.1303422
2.9009864803915177	9.5937605	3.0973797
2.91851887926028	9.379861	3.062656
2.9360513464628384	9.152625	3.0253305
2.953583882410413	8.931636	2.9885843
2.9711164875142373	8.870627	2.97836
2.9886491621855606	8.792235	2.9651704
3.0061819068356455	8.846529	2.9743116
3.023714721875769	8.718137	2.952649
3.041247607717225	8.562001	2.9260898
3.0587805647713213	8.355334	2.8905594
3.0763135934493806	8.213442	2.8659103
3.0938466941627407	8.050041	2.8372595
3.1113798673227544	8.008789	2.8299804
3.1289131133407904	7.9538765	2.8202617
3.1464464326282315	7.8375735	2.7995667
3.1639798255964786	7.804749	2.793698
3.1815132926569443	7.5802646	2.753228
3.1990468342210603	7.6043	2.7575896
3.216580450700272	7.4829645	2.7355008
3.2341141425060416	7.4901237	2.736809
3.251647910049847	7.4189506	2.7237751
3.2691817537431813	7.3365917	2.7086143
3.286715673997555	7.25434	2.6933882
3.3042496712244938	7.229432	2.6887603
3.32178374583554	7.189559	2.6813352
3.339317898242251	7.0218077	2.6498694
3.3568521288562034	6.862688	2.6196733
3.3743864380889876	6.7559648	2.5992239
3.3919208263522127	6.737837	2.5957344
3.4094552940575023	6.736747	2.5955243
3.4269898416164972	6.7249446	2.5932498
3.444524469440858	6.732125	2.5946338
3.4620591779422587	6.721926	2.5926678
3.479593967532391	6.654556	2.5796425
3.4971288386229658	6.5253987	2.554486
3.5146637916257086	6.499133	2.5493398
3.5321988269523628	6.43786	2.537294
3.5497339450146903	6.350414	2.5200028
3.5672691462244708	6.320814	2.514123
3.5848044309934988	6.3021364	2.5104055
3.60233979973359	6.374352	2.5247478
3.619875252856575	6.443361	2.5383775
3.6374107907743034	6.3774695	2.525365
3.6549464138986427	6.3276253	2.5154772
3.6724821226414788	6.225263	2.4950478
3.690017917414714	6.2615266	2.5023043
3.7075537986302702	6.263425	2.5026836
3.7250897667000857	6.305562	2.511088
3.7426258220361235	6.506359	2.5507567
3.7601619650503553	6.817388	2.611013
3.777698196154779	7.3676386	2.7143395
3.7952345157614067	8.3827095	2.8952909
3.8127709242822716	9.258775	3.0428236
3.830307422129425	11.742501	3.4267333
3.847844009714936	30.68471	5.539378
3.8653806874508954	98.0729	9.903176
3.882917455749409	97.25842	9.861968
3.900454315022606	96.853485	9.841416
3.917991265682631	41.48725	6.4410596
3.9355283081416506	11.085782	3.329532
3.9530654428118495	8.823783	2.9704852
3.970602670105433	7.5974383	2.756345
3.9881399904346244	6.7181435	2.5919383
4.005677404211669	6.7050667	2.5894144
4.023214911848827	6.614109	2.571791
4.0407525137583855	6.550306	2.5593565
4.058290210352644	6.4808826	2.5457578
4.075828002043927	6.4375076	2.5372243
4.0933658892445814	6.397804	2.529388
4.110903872366966	6.2950983	2.5090034
4.128441951823468	6.222588	2.4945116
4.145980128026488	6.2443933	2.4988785
4.163518401388452	6.266776	2.5033529
4.181056772321807	6.2036695	2.4907167
4.1985952412390155	6.1613307	2.4822028
4.216133808552567	6.146682	2.4792502
4.233672474674966	6.3740926	2.5246966
4.251211240018741	6.598629	2.5687797
4.268750104996445	6.8520684	2.6176455
4.286289070020643	7.8042183	2.7936032
4.303828135503928	9.473041	3.0778306
4.3213673018589125	29.857798	5.464229
4.3389065694982305	90.94676	9.536601
4.356445938834537	166.02705	12.885149
4.3739854102805085	171.5021	13.095881
4.391524984248844	172.42827	13.131194
4.409064661152262	136.67387	11.690761
4.426604441403504	96.87533	9.842526
4.444144325415337	75.926865	8.713602
4.461684313600543	21.80007	4.6690545
4.47922440637193	22.225185	4.7143593
4.496764604142329	20.690409	4.5486712
4.5143049073245916	18.922255	4.349972
4.531845316331589	16.83069	4.1025224
4.5493858315762195	13.901422	3.728461
4.566926453471405	11.565425	3.4007976
4.584467182430081	9.4822445	3.0793254
4.602008018865218	8.388727	2.8963299
4.619548963189798	7.5740933	2.7521071
4.637090015816834	7.0039725	2.646502
4.654631177159353	6.708798	2.5901346
4.672172447630417	6.430517	2.5358465
4.689713827643102	6.3130517	2.5125787
4.7072553176105085	6.1323433	2.4763567
4.724796917945764	5.9855995	2.4465485
4.742338629062015	5.8955574	2.428077
4.759880451372434	5.8015265	2.4086359
4.777422385290215	5.6856766	2.3844657
4.794964431228581	5.6420965	2.3753097
4.812506589600768	5.6537266	2.3777566
4.830048860820047	5.649562	2.3768806
4.847591245299709	5.6425858	2.3754127
4.8651337434530655	5.6306014	2.3728888
4.882676355693457	5.677342	2.3827174
4.900219082434242	5.7530437	2.3985503
4.917761924088813	5.6709576	2.3813772
4.935304881070575	5.7189655	2.3914359
4.952847953792969	5.699382	2.387338
4.970391142669449	5.644023	2.3757153
4.9879344481135055	5.591483	2.3646317
5.005477870538642	5.515564	2.3485239
5.023021410358394	5.480278	2.3409994
5.040565067986324	5.4830847	2.3415987
5.05810884383601	5.4021263	2.3242474
5.075652738321066	5.369341	2.3171837
5.09319675185512	5.3441043	2.3117318
5.110740884851836	5.36356	2.315936
5.128285137724894	5.3528633	2.3136256
5.145829510888007	5.351793	2.3133943
5.163374004754908	5.2809706	2.2980363
5.1809186197393595	5.3013186	2.3024592
5.198463356255145	5.3434224	2.3115845
5.216008214716077	5.463539	2.3374214
5.233553195535998	5.4511724	2.3347745
5.251098299128764	5.45113	2.3347654
5.268643525908272	5.385884	2.3207507
5.286188876288432	5.333343	2.3094032
5.3037343506831895	5.299859	2.3021424
5.32127994950651	5.2200074	2.2847335
5.3388256731723915	5.1988354	2.2800956
5.356371522094851	5.227875	2.2864547
5.373917496687938	5.2655673	2.2946825
5.391463597365729	5.2666883	2.2949266
5.40900982454232	5.2312274	2.2871876
5.426556178631843	5.213083	2.2832177
5.444102660048449	5.204035	2.2812355
5.4616492692063225	5.2526574	2.2918677
5.479196006519669	5.2191443	2.2845447
5.496742872402727	5.208404	2.2821927
5.514289867269756	5.223735	2.2855492
5.531836991535049	5.1888	2.2778938
5.549384245612924	5.1513247	2.269653
5.566931629917724	5.089179	2.255921
5.584479144863822	5.0924664	2.2566493
5.6020267908656205	5.14951	2.2692533
5.619574568337545	5.166646	2.2730258
5.637122477694054	5.2216034	2.2850828
5.654670519349629	5.2391286	2.2889142
5.672218693718784	5.277648	2.2973132
5.689767001216059	5.225325	2.285897
5.707315442256021	5.137257	2.2665517
5.724864017253266	5.12319	2.2634466
5.7424127266224225	5.2080045	2.2821052
5.75996157077814	5.3168154	2.3058221
5.777510550135105	5.3599725	2.3151615
5.795059665108022	5.290191	2.3000417
5.812608916111639	5.26273	2.294064
5.830158303560715	5.3104234	2.3044355
5.847707827870055	5.29971	2.30211
5.86525748945448	5.421983	2.328515
5.8828072887288485	5.546966	2.3551998
5.900357226108044	5.5793242	2.3620594
5.917907302006979	5.6496696	2.3769033
5.9354575168406	6.209702	2.4919274
5.9530078710238765	6.846226	2.6165295
5.970558364971812	7.4470034	2.7289197
5.988108999099438	7.7982593	2.7925363
6.005659773821818	8.268682	2.8755314
6.023210689554039	7.9565773	2.8207405
6.040761746711227	8.325419	2.8853803
6.058312945708531	7.808911	2.794443
6.075864286961132	7.3586617	2.7126853
6.093415770884244	6.722681	2.5928133
6.1109673978931065	6.263857	2.50277
6.128519168402993	5.681431	2.3835752
6.146071082829204	5.544573	2.3546917
6.163623141587075	5.3881207	2.3212326
6.181175345091969	5.3321667	2.3091486
6.198727693759281	5.3019147	2.3025887
6.216280188004435	5.2467194	2.290572
6.233832828242885	5.2705417	2.295766
6.251385614890126	5.3150115	2.305431
6.268938548361669	5.2952623	2.3011436
6.286491629073067	5.149727	2.269301
6.304044857439898	5.1004243	2.258412
6.321598233877777	5.0624824	2.2499962
6.339151758802344	5.0712695	2.2519479
6.356705432629277	5.057012	2.2487803
6.37425925577428	4.972711	2.2299576
6.391813228653095	4.933057	2.2210486
6.409367351681486	4.954285	2.2258224
6.426921625275259	4.985091	2.2327318
6.44447604985025	5.009115	2.2381053
6.46203062582232	5.0211287	2.2407875
6.47958535360737	5.04974	2.2471626
6.497140233621328	5.054441	2.2482083
6.514695266280161	5.029201	2.242588
6.532250451999859	5.0654798	2.250662
6.549805791196454	5.061663	2.249814
6.567361284286002	5.0757403	2.2529404
6.584916931684597	5.0997434	2.2582612
6.602472733808367	5.013228	2.239024
6.6200286910734665	4.9661393	2.2284837
6.637584803896092	4.886724	2.2105937
6.655141072692462	4.9213886	2.2184203
6.672697497878842	5.074851	2.252743
6.690254079871514	5.1141205	2.2614422
6.707810819086808	5.134679	2.2659829
6.725367715941078	5.04871	2.2469335
6.742924770850719	4.986146	2.232968
6.760481984232151	5.0005207	2.2361844
6.778039356501836	5.011709	2.2386847
6.795596888076266	5.037422	2.2444203
6.813154579371963	5.0103774	2.2383873
6.830712430805492	4.9274955	2.2197962
6.84827044279344	4.9800596	2.2316048
6.865828615752445	5.033532	2.2435534
6.883386950099159	5.1184773	2.2624052
6.900945446250287	5.1177864	2.2622526
6.918504104622553	5.0865893	2.2553468
6.936062925632727	5.0527945	2.247842
6.953621909697607	5.0785503	2.253564
6.971181057234028	5.1291146	2.2647548
6.988740368658859	5.1793175	2.2758114
7.006299844389007	5.227494	2.2863712
7.023859484841407	5.318831	2.3062592
7.041419290433036	5.3603983	2.3152535
7.058979261580902	5.4567323	2.335965
7.0765393987020495	5.5867214	2.3636246
7.094099702213559	6.0115	2.451836
7.111660172532549	6.43701	2.5371263
7.129220810076164	6.810981	2.6097856
7.146781615261595	7.423304	2.724574
7.16434258850606	7.66671	2.7688825
7.181903730226821	8.143484	2.853679
7.1994650408411704	8.296328	2.8803346
7.217026520766437	8.346495	2.88903
7.234588170419983	8.556489	2.9251478
7.252149990219215	8.508097	2.9168642
7.269711980581568	8.4233885	2.9023075
7.2872741419245175	8.194755	2.8626482
7.304836474665574	7.759918	2.785663
7.322398979222286	7.406155	2.7214253
7.339961656012233	7.232071	2.689251
7.357524505453039	6.9910903	2.644067
7.375087527962357	6.77172	2.602253
7.392650723957886	6.436819	2.5370886
7.410214093857353	6.0615635	2.4620242
7.427777638078528	5.8438625	2.4174082
7.445341357039213	5.690605	2.385499
7.4629052511572525	5.510791	2.3475075
7.480469320850524	5.353173	2.3136926
7.498033566536948	5.2494454	2.2911668
7.5155979886344735	5.230842	2.2871034
7.5331625875610975	5.2193503	2.2845898
7.550727363734844	5.2437453	2.2899225
7.568292317573788	5.266803	2.2949517
7.585857449496025	5.268698	2.2953646
7.603422759919705	5.2242827	2.285669
7.620988249263007	5.147083	2.2687182
7.638553917944147	5.1376605	2.266641
7.656119766381391	5.1527247	2.2699614
7.673685794993023	5.213513	2.2833118
7.691252004197388	5.230605	2.2870517
7.70881839441285	5.2803326	2.2978973
7.726384966057826	5.322082	2.306964
7.743951719550762	5.3063397	2.3035493
7.761518655310149	5.2572327	2.2928655
7.779085773754511	5.1495624	2.2692647
7.796653075302419	5.1616554	2.2719276
7.814220560372475	5.2404466	2.2892022
7.831788229383323	5.3070264	2.3036983
7.8493560827536495	5.342094	2.311297
7.866924120902174	5.280023	2.29783
7.884492344247663	5.265181	2.2945983
7.9020607532089135	5.313938	2.305198
7.919629348204771	5.4178834	2.3276348
7.937198129654115	5.444034	2.3332455
7.954767097975865	5.4306927	2.3303847
7.972336253588986	5.42723	2.3296416
7.989905596912472	5.4506755	2.3346682
8.007475128365371	5.434206	2.3311384
8.025044848366756	5.427601	2.3297212
8.042614757335754	5.5321774	2.3520582
8.060184855691523	5.632697	2.3733304
8.07775514385327	5.882109	2.425306
8.095325622240228	5.956484	2.4405909
8.112896291271687	6.012128	2.4519641
8.130467151366968	6.037923	2.4572184
8.148038202945436	6.013324	2.452208
8.165609446426497	6.000345	2.4495602
8.183180882229594	6.050141	2.4597034
8.200752510774217	6.017722	2.4531045
8.218324332479893	5.973497	2.444074
8.235896347766193	5.971702	2.4437065
8.253468557052724	5.9842143	2.4462655
8.27104096075914	6.054081	2.4605043
8.288613559305137	6.1360493	2.477105
8.306186353110448	6.1931796	2.48861
8.32375934259485	6.278349	2.5056634
8.341332528178162	6.273178	2.5046313
8.358905910280246	6.2976584	2.5095136
8.376479489321003	6.2819676	2.5063853
8.394053265720377	6.3573184	2.5213723
8.411627239898356	6.3720484	2.5242918
8.42920141227497	6.383704	2.5265994
8.44677578327029	6.3424063	2.5184135
8.464350353304427	6.2666492	2.5033276
8.48192512279754	6.19209	2.4883912
8.499500092169827	6.1472864	2.4793723
8.51707526184153	6.1668878	2.483322
8.534650632232934	6.2252736	2.4950497
8.552226203764365	6.225484	2.495092
8.569801976856192	6.2657924	2.5031564
8.587377951928834	6.3137164	2.512711
8.60495412940274	6.3627925	2.5224576
8.622530509698416	6.3699503	2.523876
8.6401070932364	6.461982	2.5420427
8.657683880437283	6.572717	2.5637312
8.675260871721695	6.732872	2.5947778
8.692838067510303	6.873913	2.6218147
8.710415468223834	6.9984913	2.645466
8.727993074283043	7.1347713	2.6710992
8.745570886108737	7.135431	2.6712227
8.763148904121765	7.1986227	2.683025
8.78072712874302	7.225463	2.6880221
8.798305560393441	7.5030894	2.7391768
8.815884199494006	7.656579	2.7670524
8.833463046465745	7.8022375	2.7932487
8.851042101729728	7.982336	2.8253028
8.86862136570707	8.350836	2.8897812
8.886200838818924	8.461553	2.9088748
8.903780521486505	8.438398	2.9048922
8.921360414131055	8.460152	2.908634
8.938940517173874	8.630207	2.9377215
8.956520831036297	8.791616	2.965066
8.97410135613971	9.03893	3.0064814
8.99168209290554	9.204632	3.0339136
9.009263041755265	9.474182	3.078016
9.026844203110405	9.701238	3.114681
9.044425577392525	9.864447	3.1407716
9.062007165023239	10.034741	3.167766
9.079588966424197	10.388534	3.2231247
9.097170982017108	10.41777	3.227657
9.11475321222372	11.425655	3.3801856
9.132335657465825	12.394317	3.5205562
9.149918318165264	12.578203	3.5465763
9.167501194743924	13.047973	3.6121979
9.18508428762374	12.706775	3.5646563
9.202667597226693	12.721238	3.5666845
9.220251123974803	12.47909	3.5325756
9.237834868290143	12.105372	3.4792776
9.255418830594836	11.894758	3.4488778
9.273003011311046	11.383872	3.3739994
9.290587410860985	11.174581	3.3428402
9.308172029666911	10.514549	3.2426145
9.32575686815113	10.1917515	3.1924522
9.343341926735997	8.962672	2.9937723
9.360927205843916	8.752167	2.9584062
9.378512705897327	8.521293	2.9191253
9.396098427318728	8.321722	2.8847394
9.413684370530664	8.170056	2.858331
9.431270535955722	8.060005	2.8390148
9.448856924016539	7.978986	2.82471
9.466443535135806	7.765273	2.786624
9.484030369736251	7.6516786	2.7661667
9.501617428240658	7.642507	2.7645085
9.519204711071852	7.7160406	2.7777762
9.536792218652714	7.7877665	2.790657
9.55437995140617	7.8892756	2.8087854
9.571967909755191	7.949853	2.8195484
9.589556094122802	7.98624	2.8259935
9.60714450493207	7.974768	2.8239632
9.624733142606116	7.9207687	2.8143861
9.642322007568108	7.9447427	2.818642
9.659911100241267	7.9152565	2.8134065
9.677500421048851	7.9329014	2.8165407
9.695089970414175	7.96573	2.8223624
9.712679748760609	7.973064	2.8236613
9.730269756511557	8.017597	2.8315363
9.747859994090492	8.008703	2.8299654
9.765450461920915	8.15646	2.8559515
9.78304116042639	8.180295	2.8601215
9.800632090030527	8.138773	2.8528535
9.81822325115699	8.168716	2.8580966
9.835814644229481	8.198298	2.8632672
9.853406269671762	8.316441	2.8838239
9.870998127907646	8.340372	2.8879702
9.888590219360985	8.385618	2.8957932
9.906182544455698	8.48039	2.9121108
9.923775103615734	8.502813	2.9159584
9.941367897265108	8.461586	2.9088805
9.958960925827878	8.383644	2.8954523
9.97655418972816	8.356937	2.8908367
9.994147689390106	8.369775	2.8930564
10.011741425237934	8.373391	2.8936813
10.029335397695904	8.379071	2.8946626
10.04692960718833	8.363968	2.8920527
10.06452405413958	8.374613	2.8938923
10.082118738974064	8.377019	2.894308
10.099713662116246	8.371145	2.8932931
10.117308823990651	8.3244505	2.8852124
10.134904225021844	8.343035	2.888431
10.152499865634445	8.336405	2.8872833
10.170095746253125	8.335539	2.8871334
10.18769186730261	8.27327	2.8763292
10.205288229207675	8.305415	2.8819118
10.222884832393145	8.257694	2.8736205
10.2404816772839	8.17522	2.859234
10.258078764304868	8.053503	2.8378694
10.275676093881035	8.01104	2.830378
10.293273666437438	8.025029	2.8328483
10.310871482399158	8.138951	2.8528848
10.32846954219134	8.1432	2.8536294
10.346067846239173	8.143635	2.8537054
10.363666394967908	8.083791	2.8432007
10.38126518880283	8.158165	2.85625
10.398864228169298	8.297019	2.8804545
10.416463513492713	8.404656	2.8990786
10.434063045198531	8.314351	2.8834617
10.451662823712262	8.275125	2.8766515
10.469262849459467	8.207159	2.864814
10.486863122865758	8.192475	2.86225
10.504463644356806	8.141986	2.8534164
10.522064414358338	8.05556	2.8382318
10.539665433296118	7.994594	2.8274713
10.557266701595987	7.975045	2.8240123
10.574868219683818	7.9281783	2.8157022
10.592469987985552	7.8429866	2.8005333
10.610072006927185	7.72443	2.779286
10.627674276934751	7.5666995	2.7507634
10.64527679843435	7.403001	2.7208457
10.662879571852143	7.172967	2.6782396
10.680482597614331	7.0282345	2.6510818
10.698085876147173	6.9180675	2.6302218
10.715689407876988	6.932082	2.6328847
10.733293193230146	6.8947754	2.6257904
10.750897232633072	6.7689056	2.601712
10.76850152651225	6.6441703	2.5776289
10.786106075294207	6.5733886	2.563862
10.803710879405534	6.5032053	2.5501382
10.821315939272877	6.477761	2.5451446
10.83892125532294	6.4191804	2.53361
10.856526827982472	6.3585844	2.5216234
10.874132657678285	6.3421955	2.5183716
10.891738744837243	6.276647	2.5053236
10.909345089886271	6.1836834	2.4867013
10.926951693252343	6.1170607	2.4732692
10.944558555362494	6.11052	2.4719465
10.96216567664381	6.0280857	2.455216
10.979773057523436	5.9569736	2.4406912
10.997380698428573	5.890499	2.427035
11.014988599786477	5.8351197	2.4155993
11.032596762024461	5.736313	2.39506
11.050205185569892	5.6464996	2.3762364
11.067813870850198	5.580465	2.3623006
11.085422818292859	5.5642176	2.3588593
11.10303202832541	5.5171466	2.3488607
11.120641501375454	5.4591618	2.336485
11.138251237870636	5.357749	2.3146813
11.155861238238671	5.264961	2.2945502
11.173471502907317	5.21391	2.2833989
11.191082032304402	5.1857734	2.2772293
11.208692826857805	5.200267	2.2804093
11.226303886995465	5.1671977	2.273147
11.243915213145371	5.1140714	2.2614312
11.261526805735578	5.009556	2.2382038
11.279138665194196	4.9054484	2.2148247
11.296750791949393	4.8350296	2.1988702
11.314363186429393	4.7967143	2.1901402
11.331975849062479	4.7940598	2.1895342
11.34958878027699	4.7694926	2.1839168
11.36720198050133	4.7346005	2.1759138
11.384815450163948	4.6854367	2.164587
11.402429189693366	4.6421785	2.1545715
11.420043199518153	4.5891156	2.1422222
11.437657480066942	63.54482	7.9715004
11.455272031768422	85.24553	9.23285
11.472886855051353	107.66624	10.376234
11.490501950344528	99.235344	9.961694
11.508117318076819	84.55768	9.195525
11.52573295867715	45.92706	6.7769504
11.543348872574514	4.2405953	2.0592706
11.560965060197946	4.192136	2.0474706
11.57858152197655	4.13433	2.0333052
11.59619825833949	4.0556693	2.0138693
11.613815269715985	4.0242157	2.0060449
11.631432556535323	38.572746	6.210696
11.649050119226837	83.11791	9.116902
11.666667958219929	93.51565	9.670349
11.68428607394406	107.729164	10.379266
11.701904466828756	82.55163	9.085793
11.719523137303586	65.37622	8.085556
11.737142085798196	4.6139627	2.1480136
11.754761312742286	3.7113073	1.9264754
11.772380818565619	3.6554925	1.9119343
11.790000603698015	3.630745	1.9054514
11.80762066856935	3.6090958	1.899762
11.825241013609572	3.620103	1.9026568
11.842861639248683	3.6023405	1.8979833
11.860482545916748	3.5460544	1.883097
11.878103734043883	3.5014923	1.8712275
11.895725204060282	3.4265854	1.8511039
11.91334695639619	3.4351747	1.8534224
11.930968991481919	3.4231508	1.8501759
11.948591309747824	3.4198864	1.8492935
11.966213911624347	3.42382	1.8503567
11.98383679754198	3.4286191	1.8516531
12.001459967931268	3.3902366	1.8412595
12.019083423222835	3.3380868	1.8270432
12.036707163847352	3.3007839	1.816806
12.05433119023556	3.2615347	1.805972
12.071955502818259	3.2219887	1.7949898
12.089580102026313	3.2098427	1.7916033
12.107204988290643	3.152607	1.7755582
12.12483016204224	3.1510246	1.7751125
12.142455623712152	3.1201124	1.766384
12.16008137373149	3.1300547	1.769196
12.177707412531431	3.1507342	1.7750307
12.19533374054321	3.1609437	1.7779043
12.212960358198126	3.1570635	1.7768127
12.230587265927545	3.1196637	1.7662569
12.248214464162889	3.0817378	1.7554879
12.265841953335649	3.0418904	1.7441016
12.283469733877375	3.007753	1.7342874
12.301097806219685	3.0136564	1.7359886
12.31872617079425	2.9613924	1.7208697
12.336354828032825	2.966429	1.7223325
12.353983778367205	2.9832976	1.7272226
12.371613022229262	2.9761891	1.7251635
12.389242560050928	2.9540758	1.7187425
12.406872392264201	2.9268103	1.7107923
12.424502519301143	2.9188156	1.7084541
12.442132941593874	2.9388697	1.7143131
12.459763659574586	2.9111166	1.7061994
12.477394673675532	2.9256625	1.7104568
12.49502598432903	2.8970318	1.7020669
12.51265759196746	2.8691032	1.6938428
12.530289497023267	2.8504677	1.6883328
12.547921699928967	2.8228166	1.680124
12.565554201117134	2.795102	1.6718558
12.583187001020404	2.7962127	1.672188
12.600820100071486	2.8304472	1.6823933
12.618453498703152	2.8446224	1.6866008
12.636087197348235	2.8258243	1.6810188
12.65372119643964	2.8195646	1.679156
12.671355496410326	2.8082254	1.675776
12.68899009769333	2.8100553	1.676322
12.706625000721749	2.8090646	1.6760265
12.724260205928752	2.899914	1.7029134
12.741895713747551	2.950148	1.7175995
12.759531524611454	3.003671	1.7331102
12.777167638953818	2.9615386	1.7209121
12.794804057208072	2.973681	1.7244364
12.812440779807702	3.0713005	1.7525126
12.830077807186271	3.2286701	1.7968501
12.847715139777405	3.2580159	1.8049974
12.865352778014795	3.4488444	1.8571064
12.882990722332197	3.5750685	1.8907851
12.90062897316344	3.6798403	1.918291
12.918267530942412	3.7465856	1.9356099
12.935906396103071	3.6099403	1.8999842
12.953545569079449	3.7359443	1.9328591
12.971185050305628	3.5705395	1.8895872
12.988824840215775	3.596036	1.8963217
13.006464939244115	3.6010196	1.8976352
13.024105347824943	3.464214	1.8612399
13.041746066392617	3.5610654	1.8870785
13.05938709538157	3.360465	1.8331572
13.077028435226296	3.3529847	1.8311157
13.094670086361363	3.2339363	1.7983148
13.112312049221401	3.1866782	1.7851269
13.129954324241112	3.11525	1.7650071
13.147596911855258	2.9193738	1.7086174
13.165239812498685	2.8601649	1.6912022
13.182883026606293	2.8048086	1.6747563
13.200526554613058	2.739343	1.655096
13.218170396954017	2.7341352	1.653522
13.235814554064284	2.7574775	1.6605654
13.253459026379034	2.7945957	1.6717044
13.271103814333523	2.7780843	1.6667587
13.288748918363058	2.7223089	1.649942
13.306394338903031	2.6869123	1.6391804
13.32404007638889	2.6540287	1.629119
13.341686131256164	2.7069478	1.6452805
13.359332503940449	2.709611	1.6460896
13.376979194877402	2.7368531	1.6543437
13.394626204502751	2.7499495	1.6582972
13.412273533252307	2.7393923	1.655111
13.429921181561937	2.6847851	1.6385314
13.447569149867581	2.6647017	1.6323915
13.465217438605247	2.674804	1.6354828
13.482866048211022	2.6643066	1.6322703
13.500514979121052	2.679162	1.6368146
13.518164231771568	2.686075	1.638925
13.535813806598844	2.683377	1.6381017
13.553463704039254	2.7124023	1.6469373
13.571113924529229	2.7449076	1.6567763
13.588764468505275	2.8002355	1.6733904
13.606415336403956	2.7938008	1.6714667
13.624066528661917	2.787431	1.6695601
13.641718045715882	2.7746305	1.6657223
13.659369888002635	2.806568	1.6752814
13.67702205595903	2.867334	1.6933204
13.694674550021993	2.9964507	1.7310259
13.712327370628532	3.0795152	1.7548548
13.729980518215713	3.1766884	1.7823267
13.747633993220681	3.211978	1.7921993
13.765287796080647	3.2504926	1.8029122
13.7829419272329	3.2522688	1.8034048
13.800596387114801	3.2683995	1.8078716
13.818251176163775	3.3212464	1.8224287
13.835906294817324	3.3892264	1.8409852
13.853561743513023	3.405229	1.8453263
13.871217522688525	3.4260008	1.850946
13.888873632781538	3.4482388	1.8569434
13.906530074229858	3.48747	1.8674769
13.92418684747135	3.5503254	1.8842307
13.941843952943948	3.5799444	1.8920741
13.959501391085665	3.5398662	1.8814533
13.977159162334578	3.4464567	1.8564634
13.994817267128846	3.3939235	1.8422605
14.012475705906693	3.270118	1.8083467
14.030134479106424	3.1844292	1.7844969
14.047793587166414	3.1844223	1.784495
14.065453030525108	3.1390524	1.7717371
14.083112809621026	3.1162994	1.7653043
14.100772924892766	3.004468	1.7333401
14.118433376778997	2.8999112	1.7029126
14.136094165718458	2.7756746	1.6660355
14.153755292149969	2.7369802	1.6543821
14.171416756512416	2.7090974	1.6459336
14.189078559244768	2.6941195	1.6413773
14.20674070078606	2.6290467	1.6214335
14.224403181575408	2.5795557	1.6060995
14.242066002051999	2.5313082	1.5910085
14.259729162655093	2.4884512	1.5774826
14.277392663824022	2.445205	1.5637151
14.295056505998208	2.4044297	1.5506223
14.312720689617128	2.4262505	1.5576426
14.330385215120348	2.4192865	1.5554056
14.348050082947497	2.4285204	1.5583711
14.3657152935383	2.4059992	1.5511284
14.383380847332528	2.383521	1.5438657
14.401046744770051	2.3820221	1.5433801
14.418712986290798	2.3854969	1.5445054
14.436379572334793	2.3858263	1.544612
14.454046503342123	2.3860564	1.5446866
14.471713779752946	2.3683598	1.5389476
14.489381402007504	2.3715951	1.5399984
14.507049370546113	2.3604343	1.5363705
14.524717685809168	2.4204578	1.5557821
14.542386348237134	2.4325516	1.5596639
14.560055358270553	2.423531	1.5567694
14.577724716350051	2.4382236	1.5614812
14.595394422916325	2.4708335	1.5718886
14.61306447841015	2.5645125	1.6014096
14.63073488327237	2.521833	1.588028
14.648405637943917	2.5492125	1.5966253
14.6660767428658	2.5060132	1.5830392
14.683748198479094	2.5324519	1.591368
14.701420005224954	2.5571632	1.5991132
14.719092163544628	2.5977082	1.6117407
14.73676467387942	2.6423438	1.6255288
14.754437536670727	2.6723735	1.6347396
14.772110752360014	2.7034566	1.6442192
14.78978432138882	2.7054493	1.644825
14.807458244198777	2.7298634	1.6522298
14.82513252123159	2.6951058	1.6416777
14.842807152929028	2.6883876	1.6396303
14.860482139732962	2.693575	1.6412114
14.87815748208531	2.7195742	1.6491132
14.8958331804281	2.7731674	1.665283
14.91350923520342	2.7206101	1.6494272
14.931185646853438	2.7074094	1.6454208
14.948862415820408	2.648795	1.6275119
14.966539542546656	2.661939	1.631545
14.98421702747459	2.6621563	1.6316116
15.001894871046696	2.680245	1.6371454
15.019573073705542	2.6926498	1.6409296
15.037251635893766	2.7274418	1.6514969
15.054930558054092	2.751868	1.6588756
15.072609840629323	2.7822733	1.6680148
15.090289484062351	2.8974867	1.7022005
15.107969488796124	3.1636338	1.7786607
15.125649855273691	3.6226532	1.9033269
15.14333058393817	4.144986	2.035924
15.161011675232768	5.118092	2.26232
15.17869312960076	6.421215	2.5340116
15.196374947485506	8.269716	2.8757114
15.214057129330447	11.344416	3.3681471
15.231739675579114	16.170662	4.021276
15.249422586675102	21.240856	4.6087804
15.267105863062092	24.3835	4.937965
15.284789505183847	24.585161	4.9583426
15.302473513484218	22.42675	4.735689
15.320157888407127	18.879797	4.345089
15.337842630396578	14.655884	3.8283005
15.355527739896656	11.433478	3.3813426
15.37321321735153	8.912589	2.985396
15.39089906320545	6.5112057	2.5517063
15.408585277902748	4.8577056	2.2040203
15.42627186188783	3.7388792	1.9336182
15.443958815605198	3.223102	1.7953
15.461646139499424	2.9608445	1.7207105
15.479333834015168	2.8304572	1.6823963
15.497021899597165	2.7553372	1.6599208
15.514710336690234	2.6934004	1.6411582
15.53239914573928	2.6305888	1.621909
15.550088327189297	2.551029	1.5971941
15.567777881485336	2.5525572	1.5976725
15.58546780907256	2.5376241	1.5929922
15.6031581103962	2.5009193	1.5814295
15.620848785901568	2.4770446	1.5738629
15.638539836034063	2.4612823	1.5688474
15.656231261239173	2.4774308	1.5739857
15.673923061962451	2.473214	1.5726455
15.691615238649552	2.464472	1.5698637
15.709307791746202	2.4506981	1.5654706
15.727000721698221	2.4643583	1.5698274
15.744694028951498	2.4833343	1.5758599
15.76238771395202	2.4738328	1.5728422
15.780081777145844	2.4644089	1.5698435
15.797776218979125	2.4355597	1.560628
15.815471039898094	2.4067686	1.5513763
15.833166240349064	2.3879006	1.5452833
15.850861820778437	2.4110703	1.5527622
15.868557781632699	2.4391034	1.5617629
15.886254123358412	2.4436615	1.5632215
15.903950846402232	2.4395673	1.5619115
15.921647951210897	2.4093778	1.552217
15.939345438231225	2.420264	1.5557197
15.957043307910133	2.4113925	1.5528659
15.974741560694602	2.4289827	1.5585194
15.992440197031714	2.3968475	1.5481756
16.01013921736862	2.39897	1.5488608
16.02783862215259	2.4125545	1.5532401
16.045538411830933	2.4144661	1.5538553
16.06323858685107	2.418944	1.5552955
16.080939147660512	2.4122498	1.553142
16.09864009470684	2.4163957	1.554476
16.11634142843774	2.3867	1.5448948
16.134043149300954	2.385363	1.5444621
16.15174525774433	2.3730443	1.5404688
16.169447754215817	2.3919356	1.5465884
16.18715063916342	2.3893766	1.5457609
16.204853913035244	2.4177487	1.5549111
16.222557576279478	2.4061353	1.5511723
16.240261629344403	22.372263	4.729933
16.257966072678386	42.920605	6.551382
16.275670906729868	38.04371	6.1679583
16.293376131947387	2.4598703	1.5683974
16.31108174877957	2.4652596	1.5701145
16.328787757675133	2.4937136	1.5791496
16.34649415908287	2.5403798	1.5938569
16.364200953451657	2.605969	1.6143013
16.38190814123048	2.647212	1.6270255
16.39961572286839	2.6579428	1.6303198
16.41732369881455	2.6812057	1.6374388
16.43503206951817	2.7157052	1.6479397
16.45274083542859	2.7407854	1.6555318
16.47044999699522	2.776431	1.6662626
16.488159554667558	2.794183	1.671581
16.505869508895184	2.8477943	1.6875409
16.523579860127786	2.9254484	1.7103943
16.541290608815117	2.9592774	1.720255
16.559001755407035	3.0040226	1.7332116
16.57671330035348	3.027226	1.7398925
16.59442524410448	3.1015468	1.7611209
16.61213758711015	3.1507726	1.7750416
16.629850329820705	3.2360396	1.7988995
16.647563472686436	3.3482816	1.829831
16.665277016157724	3.425618	1.8508425
16.682990960685053	3.496281	1.8698344
16.70070530671898	3.5272927	1.8781089
16.718420054710155	3.5929987	1.8955207
16.736135205109335	3.616836	1.9017981
16.753850758367335	3.672122	1.9162781
16.771566714935087	3.6784534	1.9179294
16.789283075263597	3.7047007	1.9247599
16.80699983980398	3.7640483	1.9401156
16.82471700900741	3.8151424	1.953239
16.84243458332518	3.8809564	1.9700143
16.860152563208665	3.9087834	1.9770644
16.87787094910932	3.9636612	1.9908946
16.89558974147871	4.1034636	2.0257008
16.913308940768466	4.2373466	2.0584817
16.931028547430333	4.3446136	2.0843737
16.94874856191613	4.362425	2.088642
16.966468984677785	4.411489	2.1003544
16.98418981616729	4.444756	2.108259
17.00191105683676	4.452267	2.1100397
17.019632707138374	4.437992	2.1066542
17.03735476752442	4.4978	2.1208017
17.05507723844728	4.5790257	2.1398659
17.072800120359403	4.59099	2.1426597
17.090523413713353	4.6018815	2.1451995
17.108247118961785	4.6419077	2.1545086
17.125971236557437	4.656496	2.1578915
17.143695766953133	4.65096	2.1566083
17.161420710601806	4.675828	2.1623664
17.179146067956477	4.6814632	2.1636689
17.19687183947025	4.7089834	2.1700191
17.21459802559634	4.7393503	2.1770048
17.232324626788028	4.7729454	2.1847072
17.25005164349871	4.7449074	2.1782808
17.267779076181863	4.7612357	2.1820257
17.285506925291074	4.7683983	2.1836662
17.30323519127999	4.729142	2.174659
17.320963874602384	4.601851	2.1451926
17.33869297571211	4.5674067	2.137149
17.356422495063114	4.5131173	2.12441
17.37415243310944	4.57201	2.1382258
17.391882790305218	4.571656	2.138143
17.40961356710468	4.5010557	2.1215692
17.42734476396215	4.44057	2.107266
17.445076381332044	4.483372	2.1173975
17.462808419668868	4.63341	2.1525357
17.48054087942723	4.781343	2.186628
17.498273761061835	5.041683	2.2453692
17.51600706502747	5.4969535	2.3445582
17.533740791779024	6.20319	2.4906204
17.551474941771485	7.6423855	2.7644866
17.56920951545993	8.739078	2.956193
17.586944513299528	10.906561	3.3025084
17.60467993574556	12.52473	3.5390296
17.622415783253373	14.295902	3.7809923
17.64015205627843	15.845592	3.980652
17.657888755276293	16.943714	4.1162744
17.675625880702604	17.392406	4.1704206
17.69336343301311	17.239424	4.1520386
17.71110141266366	16.42821	4.0531726
17.728839820110178	15.391098	3.923149
17.746578655808705	14.431484	3.7988794
17.764317920215372	13.0057535	3.606349
17.7820576137864	11.542244	3.3973877
17.79979773697811	9.550293	3.090355
17.81753829024692	7.5874276	2.7545285
17.835279274049356	5.9063306	2.4302943
17.85302068884201	4.8740907	2.2077343
17.870762535081607	4.2272034	2.0560164
17.888504813224934	3.882543	1.970417
17.90624752372891	3.717563	1.9280983
17.923990667050536	3.6544154	1.9116526
17.941734243646895	3.6132374	1.9008517
17.959478253975185	3.569699	1.8893647
17.9772226984927	3.4994826	1.8706905
17.994967577656833	3.4644341	1.861299
18.01271289192506	3.431163	1.8523399
18.030458641754965	3.4200578	1.8493398
18.04820482760425	3.3766987	1.8375796
18.06595144993067	3.3622203	1.8336358
18.083698509192125	3.324888	1.8234276
18.101446005846576	3.267018	1.8074894
18.119193940352105	3.2157226	1.7932435
18.136942313166887	3.225299	1.7959117
18.1546911247492	3.2156417	1.793221
18.1724403755574	3.195459	1.7875847
18.19019006604997	3.1612306	1.777985
18.207940196685467	3.1599476	1.7776241
18.225690767922575	3.1363006	1.7709603
18.243441780220046	3.1336792	1.77022
18.261193234036764	3.0850155	1.7564212
18.278945129831676	3.0442815	1.744787
18.29669746806386	3.0683699	1.7516763
18.314450249192483	3.106404	1.7624993
18.3322034736768	3.1217752	1.7668546
18.349957141976184	3.0833707	1.755953
18.3677112545501	3.0494199	1.7462589
18.385465811858108	3.069481	1.7519934
18.403220814359884	3.0969877	1.7598261
18.420976262515172	3.1084483	1.7630792
18.43873215678387	3.1252933	1.7678499
18.456488497625923	3.173503	1.7814329
18.474245285501407	3.2609997	1.8058238
18.492002520870486	3.3143287	1.8205298
18.50976020419343	3.3635526	1.833999
18.527518335930615	3.6441817	1.908974
18.545276916542516	4.2530313	2.0622878
18.563035946489688	4.448303	2.1091
18.580795426232832	4.945333	2.2238104
18.598555356232698	4.8205504	2.1955752
18.616315736950185	5.084708	2.2549298
18.63407656884626	4.7200522	2.172568
18.65183785238201	4.978533	2.2312627
18.669599588018617	4.812113	2.1936529
18.68736177621737	4.769318	2.1838768
18.705124417439652	4.661398	2.159027
18.72288751214696	4.426427	2.1039076
18.740651060800886	4.575765	2.139104
18.758415063863115	4.3342156	2.081878
18.77617952179546	4.5109997	2.1239114
18.793944435059814	4.317681	2.077903
18.811709804118184	4.3042574	2.0746703
18.829475629432675	4.25129	2.0618656
18.8472419114655	4.0807796	2.020094
18.86500865067897	4.1565485	2.0387616
18.88277584753551	3.8611515	1.9649813
18.90054350249763	3.8423817	1.9601994
18.918311616027957	3.5006523	1.871003
18.936080188589226	3.350835	1.8305286
18.953849220644265	3.0578349	1.7486666
18.971618712656007	2.9453557	1.7162038
18.9893886650875	2.899299	1.7027328
19.007159078401887	8.06105	2.8391988
19.024929953062408	32.90733	5.736491
19.042701289532435	32.83607	5.7302766
19.060473088275405	25.4011	5.0399504
19.07824534975489	2.6823196	1.6377789
19.096018074434568	2.6853616	1.6387073
19.113791262778197	2.6622205	1.6316313
19.13156491524966	2.6483538	1.6273763
19.149339032312945	2.6166403	1.6176033
19.167113614432136	2.6013749	1.6128778
19.184888662071433	2.5861294	1.6081448
19.202664175695123	2.6380093	1.624195
19.220440155767623	2.6218817	1.6192225
19.238216602753447	2.5849032	1.6077634
19.2559935171172	2.5456648	1.5955139
19.27377089932361	2.517925	1.5867971
19.291548749837514	2.496903	1.5801592
19.309327069123835	2.469677	1.5715206
19.32710585764763	2.4751136	1.5732493
19.344885115874032	2.516614	1.5863839
19.362664844268313	2.531926	1.5912026
19.380445043295822	2.5280159	1.5899736
19.39822571342203	2.509574	1.5841634
19.41600685511252	2.528547	1.5901406
19.43378846883297	2.5636902	1.6011528
19.451570555049173	2.535723	1.5923953
19.469353114227037	2.5021675	1.5818241
19.48713614683254	2.4458058	1.5639073
19.50491965333182	2.4948487	1.579509
19.52270363419109	2.5461292	1.5956595
19.540488089876686	2.5372832	1.5928851
19.55827302085503	2.4983807	1.5806267
19.576058427592674	2.514945	1.5858579
19.593844310556282	2.5245576	1.5888857
19.611630670212598	2.5480843	1.596272
19.629417507028506	2.5551627	1.5984876
19.64720482147098	2.554689	1.5983394
19.6649926140071	2.500126	1.5811787
19.682780885104084	2.468523	1.5711534
19.70056963522921	2.4635038	1.5695553
19.718358864849908	2.5006382	1.5813407
19.7361485744337	2.4916098	1.5784833
19.753938764448215	2.4919374	1.5785872
19.771729435361202	2.484439	1.5762103
19.789520587640506	2.5015433	1.5816268
19.807312221754092	2.5204139	1.5875812
19.825104338170043	2.5198395	1.5874002
19.842896937356517	2.535245	1.5922452
19.860690019781824	2.5389798	1.5934176
19.87848358591436	2.568053	1.6025146
19.896277636222635	2.5442102	1.5950581
19.914072171175278	2.521445	1.5879059
19.931867191241015	2.4791608	1.5745351
19.94966269688869	2.4686444	1.571192
19.967458688587264	2.4645555	1.5698903
19.985255166805807	2.4874322	1.5771595
20.00305213201348	2.5225458	1.5882524
20.020849584679578	2.5118856	1.584893
20.038647525273507	2.4899807	1.5779673
20.05644595426477	2.4467943	1.5642232
20.07424487212299	2.443699	1.5632335
20.092044279317903	2.4541953	1.5665871
20.109844176319353	2.470891	1.5719068
20.127644563597304	2.4459193	1.5639435
20.145445441621817	2.4126885	1.5532831
20.16324681086307	2.3903055	1.5460613
20.181048671791373	2.4125228	1.5532298
20.198851024877122	2.4622614	1.5691595
20.216653870590836	2.4749265	1.5731899
20.234457209403146	2.4665368	1.5705211
20.252261041784802	2.4480376	1.5646206
20.270065368206662	2.4051914	1.5508679
20.287870189139685	2.3692725	1.5392442
20.305675505054968	2.3452904	1.531434
20.323481316423702	2.3652318	1.537931
20.341287623717207	2.4076858	1.551672
20.359094427406884	2.393912	1.5472273
20.376901727964288	2.3516717	1.5335162
20.39470952586107	2.3365943	1.5285922
20.41251782156899	2.3425004	1.530523
20.430326615559935	2.3509648	1.5332856
20.448135908305886	2.331582	1.5269519
20.465945700278965	2.3435159	1.5308546
20.483755991951384	2.331572	1.5269486
20.50156678379548	2.331262	1.5268471
20.519378076283708	2.3697762	1.5394077
20.537189869888635	2.35233	1.5337307
20.55500216508294	2.3314376	1.5269046
20.572814962339415	2.260034	1.503341
20.59062826213098	2.2724195	1.5074546
20.60844206493066	2.282399	1.510761
20.626256371211593	2.308449	1.519358
20.644071181447032	2.3218346	1.5237567
20.66188649611036	2.3547487	1.5345191
20.67970231567506	2.3630388	1.5372179
20.697518640614742	2.3502479	1.5330518
20.715335471403122	2.3303678	1.5265542
20.73315280851404	2.3547957	1.5345343
20.750970652421447	2.3358147	1.5283372
20.768789003599412	2.3222125	1.5238807
20.786607862522136	2.2867956	1.5122155
20.8044272296639	2.3008819	1.5168658
20.82224710549913	2.2912693	1.5136939
20.84006749050237	2.3130636	1.5208759
20.857888385148268	3.8971276	1.9741144
20.8757097899116	45.98086	6.780919
20.893531705267254	64.811966	8.050588
20.911354131690224	83.79749	9.154097
20.92917706965566	69.10392	8.312877
20.94700051963877	50.18471	7.084117
20.96482448211493	29.477612	5.429329
20.982648957559622	4.1902103	2.0470004
21.00047394644843	2.3003008	1.5166743
21.01829944925707	2.3027625	1.5174856
21.036125466461375	2.2565937	1.5021963
21.053951998537297	2.2587528	1.5029148
21.071779045960906	2.2587767	1.5029227
21.089606609208378	2.2740636	1.5079999
21.10743468875603	2.2529848	1.5009946
21.12526328508028	2.2504752	1.5001584
21.143092398657675	2.2460835	1.498694
21.16092202996488	2.24864	1.4995466
21.17875217947867	2.2390835	1.4963567
21.19658284767596	2.2087028	1.4861705
21.21441403503377	2.2128158	1.4875536
21.232245742029225	2.2524135	1.5008043
21.2500779691396	2.266501	1.5054903
21.26791071684227	2.234811	1.4949285
21.28574398561475	2.1870418	1.478865
21.30357777593465	2.1445158	1.4644165
21.321412088279704	2.1587362	1.4692638
21.339246923127792	2.1851342	1.47822
21.357082280956888	2.1699367	1.4730705
21.3749181622451	2.132503	1.4603093
21.392754567470647	2.144215	1.4643139
21.41059149711187	2.152743	1.4672229
21.42842895164726	2.1590743	1.4693788
21.446266931555378	2.1518867	1.4669311
21.464105437314945	2.159849	1.4696424
21.481944469404798	2.1235878	1.4572536
21.49978402830388	2.128987	1.4591049
21.51762411449127	2.1133761	1.4537456
21.53546472844617	2.1310008	1.4597948
21.553305870647876	2.104427	1.4506644
21.571147541575865	2.0901854	1.4457474
21.58898974170967	2.0891342	1.4453838
21.60683247152899	2.1200523	1.4560399
21.62467573151363	2.069769	1.4386691
21.642519522143523	2.0331917	1.4259003
21.660363843898722	2.0683494	1.4381757
21.6782086972594	2.0704398	1.4389023
21.696054082705864	2.0645766	1.4368634
21.713900000718535	2.0545344	1.4333647
21.73174645177795	2.0724373	1.4395962
21.749593436364794	2.0631232	1.4363576
21.767440954959845	2.051584	1.4323351
21.785289008044032	2.0348692	1.4264884
21.803137596098388	2.0331776	1.4258953
21.820986719604086	2.0505612	1.4319781
21.838836379042412	2.0463386	1.4305029
21.85668657489478	2.0131676	1.4188614
21.87453730764273	1.9994493	1.4140189
21.892388577767914	1.9984449	1.4136636
21.91024038575213	1.9778302	1.4063535
21.928092732077285	1.9915452	1.4112211
21.945945617225426	2.029289	1.4245311
21.963799041678694	2.033958	1.426169
21.981653005919398	31.334454	5.5977187
21.999507510429943	78.128204	8.839016
22.01736255569286	73.0867	8.549076
22.035218142190818	4.1722136	2.0425997
22.05307427040661	1.9690078	1.4032134
22.07093094082315	1.970835	1.4038643
22.088788153923474	1.9565767	1.3987769
22.106645910190746	2.012362	1.4185774
22.12450421010827	2.00779	1.4169651
22.142363054159464	2.0307758	1.4250529
22.16022244282787	2.0256803	1.4232639
22.178082376597164	2.004257	1.4157178
22.195942855951145	1.9647346	1.4016899
22.213803881373742	1.9654746	1.4019538
22.231665453349002	1.9983562	1.4136323
22.24952757236111	2.0281773	1.4241409
22.26739023889438	2.0294821	1.4245989
22.28525345343323	2.0068147	1.4166209
22.30311721646225	2.0123732	1.4185814
22.320981528466113	2.0175695	1.4204117
22.33884638992964	2.0078034	1.4169698
22.356711801337788	1.9856329	1.4091249
22.37457776317561	1.9464757	1.3951615
22.392444275928337	1.9270248	1.3881732
22.410311340081282	1.9308562	1.3895525
22.428178956119904	1.957684	1.3991727
22.446047124529805	1.9686092	1.4030714
22.46391584579669	1.9615511	1.4005538
22.481785120406414	1.9412673	1.3932936
22.49965494884496	1.927613	1.388385
22.51752533159841	1.9103459	1.3821527
22.53539626915302	1.9514897	1.3969573
22.553267761995137	1.9908015	1.4109577
22.571139810611264	2.0286252	1.4242982
22.589012415488025	1.9875349	1.4097996
22.60688557711216	1.9470404	1.3953639
22.624759295970566	1.9079164	1.3812735
22.642633572550263	1.8979723	1.3776692
22.660508407338362	1.9175568	1.3847587
22.67838380082217	1.9159924	1.3841938
22.696259753489077	1.9263401	1.3879266
22.714136265826614	1.9272321	1.3882478
22.73201333832246	1.906597	1.3807958
22.74989097146439	1.921523	1.38619
22.76776916574035	1.9588785	1.3995994
22.785647921638393	1.9922698	1.4114778
22.803527239646712	1.9668223	1.4024343
22.82140712025363	1.9207433	1.3859088
22.839287563947593	1.8996282	1.37827
22.85716857121719	1.9043851	1.3799946
22.875050142551135	1.9130404	1.3831271
22.892932278438277	1.9446622	1.3945115
22.910814979367604	1.9511315	1.3968291
22.928698245828222	1.9426235	1.3937802
22.946582078309387	1.9368333	1.3917016
22.96446647730047	1.9337635	1.3905983
22.98235144329098	1.9063543	1.3807079
23.000236976770562	1.9020492	1.379148
23.018123078229	1.8869619	1.3736674
23.03600974815619	1.9065263	1.3807702
23.053896987042194	1.927704	1.3884178
23.071784795377173	1.9555238	1.3984004
23.08967317365145	1.9510018	1.3967826
23.10756212235546	1.9402256	1.3929198
23.125451641979787	1.9447988	1.3945605
23.143341733015134	1.9738939	1.4049534
23.161232395952357	2.0041132	1.415667
23.179123631282426	1.9804574	1.4072872
23.197015439496468	1.973912	1.4049598
23.214907821085717	1.95442	1.3980057
23.23280077654157	1.9098552	1.3819752
23.250694306355538	1.9052104	1.3802936
23.268588411019277	1.937279	1.3918617
23.28648309102458	1.9320743	1.3899908
23.304378346863356	1.9174476	1.3847193
23.322274179027676	1.9439346	1.3942505
23.340170588009723	1.9525429	1.3973342
23.358067574301852	1.9419404	1.3935353
23.37596513839651	1.9380285	1.3921309
23.39386328078629	1.9504918	1.3966001
23.411762001963947	1.9764376	1.4058583
23.429661302422353	1.9948859	1.4124043
23.4475611826545	2.0128257	1.4187409
23.46546164315356	1.9744865	1.4051642
23.48336268441279	1.9137489	1.3833832
23.501264306925638	1.9212024	1.3860744
23.51916651118564	1.958902	1.3996078
23.537069297686497	1.955434	1.3983684
23.554972666922037	1.9229081	1.3866897
23.57287661938623	1.8836707	1.3724688
23.59078115557318	1.8798087	1.3710611
23.608686275977128	1.9032459	1.3795818
23.62659198109246	1.9143293	1.3835928
23.6444982714137	1.8817694	1.371776
23.66240514743549	1.8670204	1.3663895
23.68031260965263	1.899463	1.3782101
23.698220658560068	1.9404907	1.393015
23.716129294652845	1.9571127	1.3989685
23.7340385184262	1.9985867	1.4137138
23.75194833037546	2.010304	1.4178519
23.769858730996123	1.9843856	1.4086822
23.78776972078382	1.9589776	1.3996348
23.80568130023431	1.9311273	1.3896501
23.823593469843495	1.904757	1.3801293
23.841506230107424	1.9052714	1.3803157
23.859419581522275	1.9695722	1.4034145
23.87733352458438	2.0069513	1.4166691
23.89524805979019	1.9999205	1.4141854
23.913163187636318	1.9853603	1.4090282
23.931078908619508	1.9380364	1.3921338
23.948995223236633	1.9430263	1.3939248
23.966912131984735	1.9953691	1.4125754
23.98482963536096	2.0986	1.4486545
24.002747733862616	2.122224	1.4567856
24.020666427987155	2.1349535	1.461148
24.038585718232156	2.1329455	1.4604608
24.056505605095353	2.1373463	1.4619666
24.074426089074617	2.147193	1.4653304
24.092347170667946	2.1206462	1.4562439
24.110268850373515	2.075934	1.4408102
24.128191128689586	2.065153	1.4370639
24.146114006114626	2.0792716	1.441968
24.164037483147187	2.0722616	1.4395351
24.181961560286005	2.0647113	1.4369104
24.199886238029926	2.0159268	1.4198334
24.21781151687797	1.9634131	1.4012184
24.235737397329274	2.0098438	1.4176896
24.253663879883135	2.060863	1.4355706
24.271590965038975	2.0894792	1.4455031
24.289518653296376	2.051637	1.4323536
24.30744694515505	2.030365	1.4249088
24.32537584111486	2.0268643	1.4236798
24.34330534167581	2.0397732	1.4282063
24.361235447338046	2.0265129	1.4235564
24.379166158601876	2.0180485	1.4205804
24.39709747596772	2.0377119	1.4274844
24.41502939993615	2.0276842	1.4239677
24.432961931007917	1.9951516	1.4124984
24.450895069683856	1.9576654	1.399166
24.468828816465	1.9305804	1.3894533
24.4867631718525	1.9517467	1.3970493
24.504698136347656	1.9930536	1.4117554
24.52263371045192	2.0193264	1.42103
24.540569894666874	2.0324543	1.4256417
24.558506689494266	2.0196939	1.4211594
24.57644409543597	1.9874061	1.4097539
24.594382112994012	1.952308	1.3972502
24.61232074267057	1.9407039	1.3930914
24.630259984967953	1.9533808	1.397634
24.64819984038863	1.9243382	1.3872052
24.66614030943522	1.9227902	1.3866471
24.684081392610462	1.9598368	1.3999417
24.702023090417274	1.9810714	1.4075054
24.7199654033587	1.9844781	1.408715
24.737908331937927	1.9985985	1.413718
24.755851876658305	2.0135064	1.4189807
24.773796038023324	1.9916431	1.4112558
24.79174081653661	1.9835702	1.4083928
24.809686212701962	2.0456128	1.4302492
24.827632227023294	2.1017165	1.4497298
24.8455788600047	2.1215203	1.4565439
24.8635261121504	2.1407979	1.4631466
24.88147398396475	2.1292946	1.4592103
24.899422475952303	2.108177	1.4519563
24.917371588617698	2.0775886	1.4413842
24.935321322465768	2.1593468	1.4694716
24.953271678001478	2.2651842	1.5050529
24.97122265572994	2.4276433	1.5580896
24.989174256156414	2.7104797	1.6463535
25.00712647978632	3.2254095	1.7959425
25.02507932712521	3.7946486	1.9479858
25.043032798678798	4.3718843	2.0909052
25.060986894952933	5.0129	2.2389507
25.078941616453637	5.778594	2.4038706
25.096896963687055	6.7840056	2.6046124
25.114852937159508	8.036915	2.8349452
25.132809537377444	8.566803	2.9269102
25.150766764847468	8.489103	2.9136066
25.168724620076347	7.7830067	2.789804
25.186683103570985	6.7077317	2.5899289
25.204642215838426	5.519072	2.3492706
25.222601957385894	4.2002716	2.0494564
25.24056232872074	3.2096233	1.7915422
25.25852333035048	2.6046593	1.6138957
25.276484962782778	2.2316074	1.4938565
25.294447226525435	2.0611925	1.4356854
25.312410122086423	1.9952666	1.412539
25.330373649973843	1.9668008	1.4024267
25.348337810695988	1.9706802	1.4038092
25.366302604761245	1.9776977	1.4063064
25.384268032678207	1.9717375	1.4041857
25.40223409495558	1.8847176	1.3728502
25.420200792102257	1.8518809	1.3608383
25.438168124627246	1.8587731	1.3633683
25.45613609303974	1.8686845	1.3669983
25.474104697849057	1.8618675	1.3645027
25.492073939564698	1.9069434	1.3809212
25.510043818696285	1.9419761	1.393548
25.528014335753614	1.9378817	1.3920782
25.54598549124664	1.841526	1.3570284
25.56395728568544	1.8498013	1.360074
25.58192971958028	1.8728861	1.3685343
25.59990279344156	1.8581562	1.363142
25.617876507779833	1.8602259	1.363901
25.635850863105826	1.8980721	1.3777053
25.653825859930386	1.8998506	1.3783507
25.671801498764548	1.9130664	1.3831364
25.68977778011949	1.8936472	1.3760985
25.707754704506524	1.8496815	1.3600299
25.725732272437153	1.8587601	1.3633635
25.743710484423012	1.8987216	1.377941
25.761689340975888	1.9033147	1.3796067
25.77966884260774	1.8708363	1.3677852
25.797648989830662	1.8822742	1.3719599
25.815629783156922	1.8990818	1.3780718
25.83361122309895	1.9088887	1.3816254
25.85159331016929	1.8715261	1.3680373
25.869576044880695	1.8838428	1.3725315
25.887559427746034	1.8715584	1.3680491
25.90554345927836	1.8540316	1.3616283
25.92352813999086	1.8119384	1.3460826
25.94151347039689	1.783674	1.3355426
25.959499451009965	1.7944379	1.3395663
25.97748608234374	1.8505057	1.360333
25.995473364912062	1.8953824	1.3767289
26.013461299228904	1.898611	1.377901
26.03144988580839	1.8804702	1.3713024
26.04943912516483	1.8509544	1.3604978
26.067429017812675	1.8020003	1.342386
26.085419564266537	1.7941318	1.339452
26.103410765041186	1.8019301	1.3423599
26.12140262065155	1.8651357	1.3656996
26.139395131612723	1.8868693	1.3736336
26.157388298439948	1.8955802	1.3768007
26.17538212164861	1.8373448	1.3554869
26.193376601754295	1.7885073	1.3373508
26.211371739272714	1.7997723	1.341556
26.229367534719746	1.8444133	1.3580918
26.247363988611433	1.8580785	1.3631135
26.26536110146397	1.866966	1.3663696
26.283358873793727	1.8733664	1.3687097
26.301357306117204	1.8526363	1.3611158
26.319356398951104	1.825692	1.3511817
26.33735615281224	1.8273158	1.3517824
26.35535656821762	1.8213389	1.3495699
26.373357645684404	1.8137517	1.346756
26.39135938572991	1.8335624	1.3540909
26.409361788871614	1.837129	1.3554074
26.427364855627165	1.8104413	1.3455263
26.445368586514352	1.806171	1.3439386
26.46337298205115	1.8330872	1.3539155
26.48137804275568	1.8635406	1.3651156
26.499383769146217	1.8660543	1.3660359
26.517390161741215	1.8366134	1.3552171
26.53539722105928	1.8148129	1.34715
26.553404947619182	1.8068093	1.344176
26.571413341939856	1.8061228	1.3439207
26.589422404540397	1.8061152	1.3439178
26.60743213594006	1.8072513	1.3443404
26.62544253665827	1.7725736	1.3313804
26.64345360721459	1.7840549	1.3356851
26.66146534812879	1.7999398	1.3416183
26.679477759920758	1.8262774	1.3513983
26.69749084311057	1.8473858	1.3591857
26.71550459821847	1.8564231	1.3625062
26.733519025764842	1.8547916	1.3619074
26.751534126270258	1.868043	1.3667637
26.769549900255434	1.9210742	1.3860282
26.787566348241267	1.8710728	1.3678716
26.80558347074881	1.8171444	1.348015
26.823601268299267	1.7598974	1.3266113
26.841619741414036	1.7413039	1.3195847
26.85963889061465	1.7482139	1.3222004
26.877658716422832	1.8211193	1.3494885
26.89567921936045	1.8063194	1.3439938
26.913700399949544	1.8294963	1.3525888
26.93172225871233	1.8470252	1.359053
26.949744796171174	1.8500881	1.3601794
26.967768012848605	1.851184	1.3605822
26.98579190926733	1.8427386	1.357475
27.003816485950225	1.8249971	1.3509245
27.021841743420318	1.8108406	1.3456748
27.039867682200814	1.8336815	1.3541349
27.057894302815072	1.8637518	1.3651929
27.07592160578664	1.8901404	1.3748238
27.0939495916392	1.8883797	1.3741833
27.111978260896635	1.836055	1.3550111
27.13000761408296	1.8288345	1.352344
27.148037651722397	1.7851299	1.3360876
27.166068374339304	1.8092227	1.3450735
27.184099782458215	1.8429571	1.3575556
27.20213187660384	1.8672262	1.3664649
27.22016465730105	1.8666146	1.3662411
27.23819812507487	1.8062459	1.3439665
27.256232280450533	1.780385	1.3343107
27.274267123953383	1.7506958	1.3231386
27.292302656108987	1.734406	1.3169684
27.31033887744306	1.7356783	1.3174515
27.32837578848146	1.7752404	1.3323815
27.34641338975026	1.8035508	1.3429635
27.364451681775673	1.7938356	1.3393415
27.382490665084074	1.7910947	1.3383179
27.400530340202046	1.8216429	1.3496825
27.41857070765629	1.8397528	1.3563749
27.436611767973726	1.8241516	1.3506116
27.454653521681404	1.8136557	1.3467203
27.472695969306564	1.814338	1.3469737
27.490739111376627	1.8310366	1.353158
27.508782948419153	1.8358403	1.3549318
27.526827480961902	1.8743793	1.3690797
27.54487270953279	1.8392626	1.3561941
27.562918634659898	1.7840385	1.335679
27.580965256871508	1.780531	1.3343654
27.599012576696026	1.847538	1.3592417
27.617060594662068	1.869909	1.3674462
27.63510931129842	1.8792695	1.3708645
27.65315872713401	1.8088228	1.3449248
27.67120884269797	1.7341295	1.3168635
27.68925965851958	1.7694746	1.330216
27.707311175128307	1.8222893	1.349922
27.725363393053787	1.8458719	1.3586287
27.74341631282583	1.8386475	1.3559674
27.7614699349744	1.8576322	1.3629498
27.77952426002968	2.0305338	1.424968
27.797579288521973	2.0921278	1.446419
27.815635020981784	2.482159	1.5754869
27.83369145793979	2.5440829	1.5950181
27.85174859992682	2.4392874	1.5618218
27.869806447473923	2.3064272	1.5186926
27.887865001112267	1.9987196	1.4137608
27.905924261373233	1.8989841	1.3780363
27.92398422878836	1.8916214	1.3753623
27.94204490388936	1.853694	1.3615043
27.96010628720813	1.8423694	1.3573391
27.978168379276728	1.801942	1.3423643
27.9962311806274	1.814518	1.3470404
28.014294691792568	1.8294027	1.3525541
28.0323589133048	1.8337841	1.3541728
28.050423845696887	1.8461087	1.3587158
28.068489489501758	1.8666599	1.3662577
28.086555845252523	1.8560393	1.3623654
28.104622913482487	1.88494	1.3729311
28.122690694725115	1.9082092	1.3813795
28.14075918951405	1.915812	1.3841286
28.15882839838312	1.8729264	1.368549
28.176898321866304	1.8474091	1.3591943
28.1949689604978	1.85323	1.3613338
28.213040314811945	1.8843368	1.3727115
28.23111238534327	1.8848969	1.3729155
28.249185172626493	1.8631809	1.3649838
28.267258677196473	1.8649026	1.3656144
28.285332899588294	1.8930296	1.3758742
28.303407840337172	1.8676149	1.3666071
28.321483499978545	1.9143159	1.3835881
28.33955987904799	1.9837292	1.4084493
28.357636978081285	1.9946235	1.4123114
28.37571479761439	1.9562631	1.3986647
28.393793338183425	2.0044925	1.415801
28.41187260032469	1.9957609	1.412714
28.429952584574686	1.9748996	1.4053112
28.448033291470065	2.0084634	1.4172027
28.46611472154769	2.0509427	1.4321113
28.484196875344566	2.0387733	1.4278562
28.502279753397914	1.9842983	1.4086512
28.52036335624511	1.9854673	1.4090661
28.538447684423716	1.9920437	1.4113978
28.556532738471482	2.0100904	1.4177766
28.574618518926325	2.018953	1.4208987
28.59270502632635	2.0217378	1.4218782
28.61079226120985	2.0359988	1.4268843
28.628880224115274	2.1071231	1.4515933
28.646968915581287	2.1140878	1.4539903
28.66505833614671	2.0657926	1.4372865
28.68314848635055	2.0757608	1.4407501
28.701239366732004	2.076873	1.441136
28.71933097783044	2.1104684	1.4527451
28.737423320185403	2.105179	1.4509236
28.75551639433665	2.1053786	1.4509923
28.773610200824074	2.1927624	1.4807979
28.791704740187793	2.2452917	1.4984298
28.80980001296809	2.1836965	1.4777336
28.827896019705413	2.1475804	1.4654626
28.845992760940433	2.1589954	1.469352
28.86409023721397	2.1675973	1.4722762
28.88218844906704	2.2001445	1.4832884
28.900287397040845	2.2117255	1.4871871
28.918387081676755	2.1777964	1.4757359
28.936487503516343	2.2260861	1.4920074
28.954588663101365	2.3352876	1.5281647
28.97269056097374	2.3562033	1.5349929
28.990793197675597	2.3936327	1.5471369
29.00889657374923	2.405366	1.5509242
29.027000689737125	2.4092073	1.5521622
29.04510554618196	2.4256139	1.5574383
29.06321114362659	2.4417942	1.5626241
29.08131748261405	2.4251618	1.557293
29.099424563687567	2.4210565	1.5559745
29.11753238739057	2.467285	1.5707593
29.13564095426663	2.5325735	1.5914061
29.15375026485954	2.5623367	1.6007301
29.171860319713275	2.6194143	1.6184605
29.18997111937199	2.650766	1.6281173
29.20808266438002	2.7292254	1.6520368
29.226194955281898	2.7765357	1.666294
29.244307992622335	2.8296108	1.6821448
29.26242177694624	2.8542953	1.689466
29.2805363087987	2.8798993	1.6970266
29.29865158872498	2.9230382	1.7096895
29.316767617270557	2.9279215	1.711117
29.334884394981064	2.9138985	1.7070144
29.353001922402367	2.9040534	1.7041284
29.37112020008047	2.9659448	1.7221918
29.389239228561596	3.1056309	1.76228
29.407359008392152	3.3623948	1.8336834
29.42547954011872	3.751283	1.9368229
29.44360082428809	4.429395	2.1046128
29.46172286144722	5.467278	2.338221
29.479845652143283	7.003985	2.6465044
29.497969196923606	9.096928	3.0161114
29.516093496335728	11.653773	3.4137623
29.5342185509274	14.399473	3.7946637
29.55234436124651	16.82127	4.101374
29.570470927841175	18.37747	4.2868953
29.588598251259686	18.103334	4.2548013
29.60672633205055	16.681383	4.084285
29.624855170762405	14.394639	3.7940269
29.642984767944146	11.547913	3.398222
29.66111512414481	8.9240675	2.9873178
29.67924623991366	6.735041	2.5951958
29.697378115800138	5.2521796	2.2917635
29.71551075235387	4.2780447	2.0683434
29.733644150124675	3.8392656	1.9594043
29.751778309662576	3.654281	1.9116174
29.769913231517766	3.451062	1.8577034
29.78804891624066	3.3132813	1.820242
29.806185364381818	3.3349059	1.8261725
29.82432257649206	3.3355393	1.8263459
29.842460553122333	3.2859015	1.8127056
29.86059929482382	3.3147357	1.8206415
29.878738802147872	3.3417785	1.8280532
29.896879075646048	3.3265383	1.8238801
29.915020115870114	3.3169591	1.8212521
29.933161923371976	3.2553632	1.8042625
29.951304498703777	3.2608232	1.8057749
29.969447842417857	3.280852	1.8113122
29.987591955066733	3.2941835	1.8149886
30.005736837203123	3.3107033	1.8195338
30.023882489379943	3.3279226	1.8242595
30.04202891215028	3.286325	1.8128223
30.060176106067455	3.198552	1.7884495
30.078324071684946	3.1825695	1.7839757
30.09647280955646	3.2069826	1.790805
30.114622320235863	3.1607463	1.7778488
30.132772604277257	3.1146462	1.7648361
30.1509236622349	3.1030533	1.7615485
30.16907549466328	3.175141	1.7818925
30.18722810211705	3.1822724	1.7838925
30.205381485151097	3.1160235	1.7652262
30.22353564432045	3.03343	1.7416745
30.241690580180403	2.987772	1.7285173
30.25984629328638	2.9802258	1.726333
30.278002784194037	3.0174038	1.7370676
30.296160053459246	2.9643838	1.7217386
30.314318101638033	2.9474778	1.716822
30.332476929286646	2.9694889	1.7232205
30.35063653696153	2.963521	1.721488
30.368796925219307	2.921201	1.7091521
30.386958094616844	2.8695016	1.6939603
30.40512004571115	2.92497	1.7102543
30.423282779059463	2.9369001	1.7137387
30.441446295219233	2.912875	1.7067146
30.459610594748067	2.8435936	1.6862959
30.47777567820382	2.769726	1.6642494
30.495941546144504	2.791784	1.6708633
30.51410819912835	2.788207	1.6697925
30.532275637713795	2.8378818	1.6846014
30.55044386245946	2.8644876	1.6924797
30.56861287392416	2.8276813	1.6815711
30.586782672666956	2.79716	1.6724712
30.604953259247047	2.7770953	1.666462
30.623124634223885	2.7799473	1.6673174
30.641296798157075	2.724415	1.6505802
30.659469751606462	2.7139025	1.6473926
30.677643495132074	2.754447	1.6596527
30.695818029294152	2.7605677	1.6614956
30.713993354653116	2.7685614	1.6638994
30.73216947176962	2.7946632	1.6717246
30.75034638120448	2.8200226	1.6792923
30.768524083518756	2.732336	1.652978
30.786702579273673	2.724732	1.6506763
30.80488186903069	2.8415928	1.6857024
30.82306195335144	2.9896216	1.7290522
30.841242832797782	3.135075	1.7706144
30.85942450793176	3.4849288	1.8667964
30.877606979315637	3.7987237	1.9490315
30.895790247511883	4.0730166	2.0181715
30.913974313083134	4.457341	2.1112416
30.932159176592283	4.7553577	2.1806784
30.95034483860237	4.827714	2.197206
30.968531299676698	4.6655784	2.159995
30.98671856037873	4.355342	2.0869455
31.00490662127215	3.9556034	1.9888699
31.023095482920848	3.5167658	1.8753042
31.04128514588892	3.0398562	1.7435184
31.059475610740662	2.6716385	1.6345148
31.07766687804056	2.5232813	1.5884839
31.09585894835335	2.4171429	1.5547163
31.11405182224393	2.438476	1.5615621
31.132245500277417	2.4950705	1.5795792
31.15043998301914	2.4553092	1.5669426
31.168635271034628	2.3645823	1.5377198
31.18683136488964	2.3666885	1.5384046
31.20502826515008	2.3614233	1.5366923
31.223225972382135	2.4151676	1.554081
31.241424487152155	2.4085653	1.5519553
31.259623810026692	2.3402586	1.5297904
31.27782394157253	2.3668613	1.5384607
31.296024882356644	2.4073174	1.5515532
31.314226632946237	2.3882198	1.5453867
31.332429193908684	2.3845043	1.5441841
31.350632565811598	2.372544	1.5403064
31.368836749222787	2.4041429	1.5505298
31.387041744710295	2.4552703	1.5669302
31.40524755284232	2.5228946	1.5883622
31.423454174187317	2.5318627	1.5911828
31.441661609313922	2.4507053	1.5654728
31.459869858791002	2.3557448	1.5348436
31.478078923187628	2.3590271	1.5359125
31.496288803073064	2.3185623	1.5226825
31.514499499016807	2.2901168	1.5133132
31.532711011588546	2.2853084	1.5117236
31.550923341358178	2.3576615	1.5354679
31.56913648889584	2.334785	1.5280004
31.587350454771844	2.3380506	1.5290686
31.605565239556732	2.3977711	1.5484738
31.62378084382127	2.3251767	1.524853
31.641997268136382	2.2887106	1.5128485
31.660214513073274	2.2824032	1.5107625
31.67843257920331	2.3249867	1.5247908
31.6966514670981	2.315043	1.5215266
31.71487117732944	2.3132987	1.5209532
31.733091710469346	2.2512434	1.5004144
31.751313067090052	2.259903	1.5032973
31.769535247764008	2.2487657	1.4995885
31.787758253063878	2.2333596	1.4944429
31.805982083562526	2.2714283	1.5071259
31.824206739833024	2.2385273	1.4961709
31.84243222244869	2.193674	1.4811057
31.860658531983013	2.305102	1.5182563
31.878885669009737	2.4545383	1.5666966
31.897113634102784	2.3880737	1.5453393
31.91534242783632	2.2221694	1.4906943
31.933572050784694	2.191612	1.4804094
31.951802503522508	2.1822042	1.4772285
31.970033786624548	2.205842	1.4852077
31.988265900665834	2.2038925	1.4845513
32.006498846221575	2.222423	1.4907794
32.02473262386724	2.181489	1.4769864
32.04296723417845	2.1948152	1.4814909
32.0612026777311	2.2206607	1.4901881
32.07943895510129	2.2188323	1.4895746
32.097676066865304	2.1429515	1.4638823
32.115914013599685	2.0952644	1.4475029
32.13415279588115	2.1316817	1.4600279
32.152392414286666	2.0861986	1.4443679
32.1706328693934	2.085883	1.4442586
32.18887416177875	2.1538095	1.4675863
32.20711629202032	2.1874053	1.4789879
32.225359260695924	2.1673331	1.4721866
32.243603068383614	2.1686685	1.47264
32.26184771566166	2.150482	1.4664521
32.28009320310852	2.141536	1.4633988
32.2983395313029	2.1436124	1.4641081
32.31658670082372	2.0488298	1.4313734
32.33483471225012	1.9946772	1.4123304
32.35308356616143	2.0534952	1.4330021
32.371333263137245	2.1543865	1.4677829
32.38958380375734	2.1551116	1.4680299
32.407835188601744	2.0647194	1.4369131
32.42608741825067	2.0972943	1.4482038
32.444340493284585	2.1665587	1.4719235
32.46259441428416	2.18762	1.4790605
32.48084918183028	2.1376748	1.4620789
32.49910479650405	2.0314639	1.4252943
32.51736125888683	1.9055477	1.3804158
32.53561856956014	2.0059335	1.4163098
32.5538767291058	2.1386142	1.4624002
32.572135738105764	2.0961707	1.4478158
32.59039559714228	1.9933016	1.4118433
32.608656306797776	1.9741755	1.4050535
32.62691786765491	2.0221257	1.4220147
32.645180280296586	2.0194452	1.4210719
32.663443545305896	2.0193145	1.4210259
32.68170766326619	1.9743577	1.4051183
32.69997263476099	1.9124258	1.3829048
32.7182384603741	1.9812157	1.4075567
32.7365051406895	2.0788903	1.4418358
32.75477267629144	2.0769994	1.4411799
32.77304106776434	2.0104525	1.4179043
32.79131031569289	2.064303	1.4367682
32.809580420661966	2.0485227	1.4312661
32.827851383256714	2.079526	1.4420562
32.84612320406245	2.0025692	1.4151217
32.86439588366476	1.9700263	1.4035763
32.88266942264945	1.9591962	1.3997129
32.9009438216025	2.0244734	1.4228399
32.9192190811102	1.9674283	1.4026505
32.937495201758985	1.9750028	1.405348
32.95577218413556	2.0627072	1.4362128
32.974050028826866	2.068473	1.4382187
32.992328736420035	2.0049858	1.4159752
33.010608307502444	2.0054405	1.4161358
33.02888874266169	1.9300789	1.3892728
33.047170042485604	1.874875	1.3692608
33.06545220756225	1.9508342	1.3967227
33.083735238479896	2.07658	1.4410343
33.10201913582707	1.9985884	1.4137144
33.12030390019248	1.9485036	1.3958881
33.138589532165135	1.9864266	1.4094064
33.15687603233419	2.039709	1.4281838
33.17516340128909	1.9832369	1.4082744
33.19345163961947	1.872502	1.3683939
33.211740747915215	1.9612015	1.400429
33.23003072676643	2.0623143	1.436076
33.248321576763466	2.1118517	1.4532212
33.266613298496885	2.0418274	1.4289253
33.28490589255747	1.9183418	1.3850422
33.30319935953626	1.9231324	1.3867705
33.32149370002451	2.0109386	1.4180757
33.339788914613706	2.0517921	1.4324079
33.358085003895575	2.049519	1.4316142
33.376381968462034	1.9838796	1.4085026
33.39467980890529	1.9046239	1.380081
33.41297852581774	1.8599458	1.3637983
33.43127811979204	1.9626274	1.400938
33.44957859142105	2.0056162	1.4161978
33.467879941297866	2.0265448	1.4235677
33.486182170015844	2.039659	1.4281663
33.50448527816853	1.9669135	1.4024669
33.522789266349754	1.9636302	1.4012959
33.541094135153514	1.9457005	1.3948838
33.55939988517411	1.8847364	1.372857
33.57770651700602	1.8889261	1.3743821
33.59601403124398	1.9231339	1.386771
33.61432242848296	2.0056045	1.4161937
33.632631709318154	1.910876	1.3823444
33.650941874344994	1.8602146	1.3638968
33.66925292415916	1.9226661	1.3866024
33.68756485935654	1.9836514	1.4084216
33.70587768053328	1.9303277	1.3893623
33.724191388285746	1.9634385	1.4012275
33.74250598321054	1.9896425	1.4105469
33.760821465904506	1.9366671	1.3916419
33.77913783696474	1.9067696	1.3808583
33.79745509698852	1.9667109	1.4023947
33.815773246573414	2.060469	1.4354334
33.8340922863172	2.063417	1.4364599
33.852412216817896	2.0164428	1.4200151
33.87073303867377	1.9800004	1.4071249
33.889054752483304	1.9867827	1.4095328
33.907377358845245	1.9512991	1.3968891
33.92570085835853	1.9021875	1.3791981
33.94402525162239	2.0106695	1.4179808
33.96235053923627	2.0047472	1.4158909
33.980676721799824	2.0226533	1.4222002
33.999003799912984	2.0469375	1.4307122
34.01733177417592	2.0249052	1.4229916
34.03566064518901	1.9239615	1.3870693
34.0539904135529	2.043488	1.4295062
34.07232107986846	2.2445064	1.4981676
34.090652644736785	2.1464648	1.4650818
34.108985108759235	2.0308542	1.4250804
34.12731847253742	2.0192633	1.4210079
34.14565273667313	2.0286949	1.4243226
34.16398790176847	1.9555696	1.3984169
34.18232396842574	1.8608143	1.3641167
34.20066093724749	1.8541161	1.3616593
34.21899880883651	1.9448403	1.3945754
34.23733758379583	2.0915196	1.4462087
34.25567726272874	2.1215107	1.4565407
34.27401784623872	2.0010567	1.4145871
34.29235933492957	2.0444796	1.429853
34.31070172940526	2.092566	1.4465704
34.32904503027003	1.9550867	1.3982441
34.347389238128386	1.9042816	1.3799571
34.36573435358502	1.9639695	1.4014169
34.38408037724492	1.9388208	1.3924155
34.402427309713296	1.8729448	1.3685558
34.42077515159559	1.8125211	1.346299
34.43912390349752	1.8538334	1.3615556
34.45747356602499	1.9120091	1.3827542
34.47582413978423	1.8514042	1.3606632
34.49417562538163	1.8788719	1.3707194
34.51252802342388	2.0060306	1.416344
34.53088133451789	2.000124	1.4142574
34.54923555927084	2.0125566	1.418646
34.567590698290104	2.0636945	1.4365565
34.58594675218336	2.0383036	1.4276917
34.6043037215585	1.9266334	1.3880322
34.62266160702365	1.9803461	1.4072477
34.641020409187234	2.2162354	1.4887025
34.65938012865785	2.2125516	1.4874648
34.677740766044394	2.086597	1.4445058
34.69610232195598	2.0274577	1.4238882
34.714464797002016	2.021799	1.4218998
34.73282819179208	1.9899048	1.4106399
34.751192506936064	2.029003	1.4244307
34.76955774304408	1.8411263	1.3568811
34.7879239007265	1.7651235	1.3285795
34.80629098059391	1.8545107	1.3618042
34.824658983257194	1.8434006	1.357719
34.843027909327446	1.8555707	1.3621933
34.86139775941603	1.806299	1.3439863
34.879768534134534	1.8043436	1.3432586
34.89814023409483	1.8659661	1.3660036
34.91651285990901	1.9243261	1.3872008
34.93488641218944	1.9009672	1.3787557
34.95326089154871	1.9230376	1.3867363
34.97163629859967	2.0189023	1.4208808
34.99001263395542	2.0642436	1.4367476
35.00838989822934	1.911249	1.3824793
35.02676809203499	1.9020524	1.3791492
35.04514721598624	2.1020741	1.4498532
35.063527270697215	2.1597593	1.469612
35.081908256782256	1.9569184	1.398899
35.10029017485597	1.7694043	1.3301896
35.11867302553321	1.9227451	1.3866309
35.137056809429104	2.1546404	1.4678694
35.155441527159006	1.9806646	1.4073609
35.173827179338524	1.9447479	1.3945422
35.19221376658354	1.9587446	1.3995516
35.21060128951017	1.8105844	1.3455796
35.2289897487348	1.7913151	1.3384002
35.24737914487405	2.0316904	1.4253738
35.26576947854479	2.2321498	1.4940381
35.28416075036418	2.1843295	1.4779477
35.30255296094958	2.1109962	1.4529268
35.32094611091867	1.926335	1.3879247
35.33934020088932	1.8600016	1.3638188
35.35773523147969	1.9051352	1.3802663
35.3761312033082	2.239202	1.4963963
35.394528116993506	2.1795702	1.4763367
35.41292597315452	2.041522	1.4288183
35.431324772410434	2.0306902	1.4250228
35.449724515380666	2.1126418	1.453493
35.46812520268491	2.3535767	1.5341371
35.486526834943106	2.4904094	1.5781031
35.504929412775454	2.1340985	1.4608554
35.52333293680242	2.2822618	1.5107157
35.54173740764471	2.2597516	1.503247
35.560142825923286	2.1132655	1.4537075
35.5785491922594	1.7263788	1.3139174
35.59695650727454	1.5835867	1.2584064
35.61536477159042	1.5913184	1.2614747
