0.008763373481513119	0.9483193	0.9738169
0.026290120649546365	0.643917	0.8024444
0.043816868432600686	0.5297001	0.72780496
0.06134361724069026	0.29737458	0.54532063
0.07887036748382949	0.33556157	0.57927674
0.0963971195720331	0.22619987	0.47560474
0.11392387391531617	0.18846917	0.43413037
0.1314506309236943	0.11763693	0.3429824
0.1489773910071836	0.12091646	0.34773046
0.16650415457580078	0.095270246	0.30865878
0.18403092203956356	0.116104744	0.34074146
0.20155769380849	0.14923519	0.3863097
0.2190844702925996	0.2207142	0.4698023
0.2366112519019124	0.24902195	0.499021
0.2541380390464497	0.23559995	0.4853864
0.27166483213623416	0.17137511	0.41397476
0.28919163158128947	0.16186169	0.40232038
0.3067184377916406	0.1384236	0.37205324
0.324245251177314	0.14259602	0.37761888
0.34177207214833777	0.12050057	0.34713194
0.3592989011147415	0.13323212	0.36500975
0.37682573848655654	0.14471053	0.38040838
0.39435258467381573	0.17526042	0.41864115
0.41187944008655414	0.22403614	0.47332457
0.42940630513480854	0.2186146	0.4675624
0.446933180228618	0.20969674	0.45792657
0.4644600657780234	0.15217333	0.39009398
0.48198696219306775	0.15183099	0.38965496
0.49951386988379676	0.1566767	0.39582407
0.5170407892602581	0.16462563	0.40574083
0.5345677207325025	0.14621042	0.3823747
0.5520946647105822	0.1762313	0.41979912
0.5696216216045534	0.1573417	0.39666322
0.5871485918244737	0.2010229	0.44835576
0.6046755757804043	0.17677294	0.42044374
0.6222025738824094	0.18464366	0.42970183
0.6397295865405557	0.14132208	0.37592828
0.6572566141649129	0.14692868	0.38331276
0.6747836571655547	0.15938227	0.39922708
0.6923107159525568	0.15961792	0.3995221
0.7098377909359992	0.14457309	0.38022768
0.7273648825259653	0.1362787	0.36915946
0.7448919911325411	0.15626915	0.39530894
0.762419117165817	0.15890117	0.3986241
0.7799462610358868	0.16855687	0.4105568
0.7974734231528482	0.16584025	0.40723488
0.8150006039268024	0.18213803	0.42677632
0.8325278037678551	0.17221138	0.4149836
0.8500550230861152	0.1616468	0.40205324
0.8675822622916969	0.17483851	0.41813695
0.8851095217947171	0.19242503	0.43866277
0.9026368020052984	0.23488611	0.4846505
0.9201641033335665	0.2549302	0.5049061
0.9376914261896523	0.25426188	0.50424385
0.9552187709836915	0.23358026	0.48330143
0.9727461381258234	0.16671866	0.40831196
0.990273528026193	0.19216537	0.4383667
1.0078009410949496	0.23673919	0.48655853
1.0253283777422473	0.30649185	0.55361706
1.0428558383782454	0.34165043	0.5845087
1.0603833234131086	0.33072007	0.57508266
1.0779108332570058	0.303427	0.5508421
1.0954383683201119	0.24666995	0.49665877
1.112965929012607	0.2952977	0.54341304
1.1304935157446763	0.46494785	0.6818708
1.1480211289265108	0.5336874	0.73053914
1.1655487689683062	1.5902599	1.2610551
1.1830764362802655	1.9348525	1.3909898
1.200604131272596	2.3474276	1.5321317
1.2181318543555117	2.4727972	1.572513
1.235659605939232	2.448195	1.5646709
1.253187386433982	3.8144715	1.9530672
1.270715196249994	6.189153	2.4878008
1.2882430357975057	11.737412	3.4259908
1.3057709054867608	16.474651	4.058898
1.3232988057280106	22.289165	4.7211404
1.3408267369315112	26.771067	5.1740766
1.358354699507526	30.294271	5.504023
1.3758826938663256	34.19725	5.8478417
1.3934107204181858	36.485554	6.040327
1.410938779573391	36.650314	6.0539503
1.4284668717422309	37.358116	6.1121287
1.4459949973350033	37.070145	6.088526
1.4635231567620117	36.979332	6.0810633
1.4810513504335687	36.212555	6.017687
1.4985795787599925	35.478195	5.9563575
1.5161078421516088	35.38249	5.948318
1.5336361410187505	34.485996	5.872478
1.5511644757717598	34.453205	5.869685
1.5686928468209842	34.95053	5.911897
1.58622125457678	35.76883	5.980705
1.6037496994495108	36.553852	6.045978
1.621278181849548	36.29173	6.0242615
1.6388067021872719	37.439533	6.1187854
1.6563352608730693	37.141697	6.094399
1.673863858317336	36.327095	6.0271964
1.6913924949304753	35.187176	5.931878
1.7089211711228998	34.054924	5.8356595
1.7264498873050296	33.229008	5.7644606
1.7439786438872935	32.3488	5.6876006
1.7615074412801288	31.602137	5.6215777
1.779036279893981	31.325369	5.596907
1.796565160139305	30.432074	5.516527
1.814094082426564	29.33181	5.415885
1.8316230471662298	28.045967	5.2958446
1.849152054768784	27.140343	5.2096395
1.8666811056447168	26.890833	5.185637
1.8842102002045273	25.970379	5.096114
1.901739338858724	25.429817	5.0427985
1.9192685220178245	24.983437	4.9983435
1.9367977500923557	24.565706	4.9563804
1.9543270234928547	24.068367	4.905952
1.971856342629867	23.463917	4.843957
1.9893857079139496	22.948782	4.7904887
2.006915119755667	22.621805	4.7562385
2.0244445785655945	21.986824	4.689011
2.0419740847543175	21.379799	4.6238294
2.0595036387324317	20.711084	4.5509434
2.0770332409105414	20.25642	4.5007133
2.094562891699263	20.127705	4.486391
2.1120925915092217	19.884624	4.459218
2.129622340751053	19.725128	4.441298
2.1471521398354043	187.6585	13.69885
2.1646819891729323	443.97845	21.070797
2.182211889174303	440.13766	20.979458
2.1997418402501974	452.5017	21.272087
2.2172718428113023	432.47052	20.795925
2.234801897268317	320.47897	17.901926
2.2523320040319548	16.93964	4.1157794
2.269862163512935	16.636969	4.078844
2.287392376121992	16.357643	4.0444584
2.304922642269869	15.985208	3.9981506
2.322452962367322	15.6207485	3.9523094
2.3399833368251164	15.391429	3.923191
2.357513766054032	15.1698265	3.8948462
2.3750442504648586	14.745556	3.8399942
2.3925747904683963	14.488522	3.806379
2.410105386475459	14.286635	3.7797666
2.4276360388968707	14.217401	3.7705967
2.445166748143469	14.019392	3.744248
2.4626975146261025	13.795631	3.714247
2.4802283387556323	13.620645	3.6906157
2.4977592209429305	13.3630495	3.6555505
2.5152901615988825	12.927888	3.5955372
2.5328211611343865	12.493187	3.5345702
2.5503522199603523	12.18037	3.4900386
2.5678833384877024	12.2245655	3.4963646
2.5854145171273712	12.088392	3.4768364
2.6029457562903064	11.954941	3.4575918
2.620477056387469	11.611945	3.4076304
2.6380084178298326	11.531263	3.3957715
2.655539841028383	11.472512	3.3871098
2.673071326394119	11.316835	3.3640504
2.6906028743380523	11.027495	3.3207674
2.708134485271211	10.585919	3.253601
2.7256661596046325	10.4037695	3.2254875
2.743197897749369	10.319057	3.212329
2.760729700116486	10.261855	3.203413
2.778261567117063	10.171529	3.1892834
2.795793499162193	9.999884	3.1622593
2.8133254966629817	9.811553	3.13234
2.830857560030551	9.635597	3.1041257
2.8483896896760337	9.450531	3.0741715
2.865921886010578	9.336549	3.0555766
2.883454149445347	9.265437	3.0439181
2.9009864803915177	9.164425	3.02728
2.91851887926028	9.102801	3.0170848
2.9360513464628384	8.972291	2.9953783
2.953583882410413	8.686372	2.9472651
2.9711164875142373	8.67614	2.9455287
2.9886491621855606	8.707631	2.9508696
3.0061819068356455	8.628592	2.9374464
3.023714721875769	8.464563	2.9093924
3.041247607717225	8.288403	2.8789587
3.0587805647713213	8.1735325	2.858939
3.0763135934493806	8.090212	2.8443298
3.0938466941627407	7.892155	2.809298
3.1113798673227544	7.850638	2.801899
3.1289131133407904	7.7993035	2.7927234
3.1464464326282315	7.7331433	2.780853
3.1639798255964786	7.595381	2.755972
3.1815132926569443	7.4437356	2.728321
3.1990468342210603	7.4112744	2.7223656
3.216580450700272	7.38797	2.718082
3.2341141425060416	7.2662535	2.6955988
3.251647910049847	7.1383986	2.6717782
3.2691817537431813	7.0582514	2.656737
3.286715673997555	7.0913815	2.6629648
3.3042496712244938	7.0605283	2.6571655
3.32178374583554	6.876083	2.6222286
3.339317898242251	6.859544	2.6190732
3.3568521288562034	6.728542	2.5939434
3.3743864380889876	6.6213474	2.5731978
3.3919208263522127	6.4841967	2.5464087
3.4094552940575023	6.3600764	2.5219193
3.4269898416164972	6.3414364	2.518221
3.444524469440858	6.374589	2.5247948
3.4620591779422587	6.3128734	2.5125432
3.479593967532391	6.2727017	2.5045362
3.4971288386229658	6.2142463	2.492839
3.5146637916257086	6.149625	2.4798436
3.5321988269523628	6.20529	2.491042
3.5497339450146903	6.228023	2.4956007
3.5672691462244708	6.30203	2.5103846
3.5848044309934988	6.2347403	2.496946
3.60233979973359	6.1928124	2.4885361
3.619875252856575	6.1304564	2.4759758
3.6374107907743034	6.1230297	2.4744756
3.6549464138986427	6.159731	2.4818804
3.6724821226414788	6.093617	2.4685252
3.690017917414714	6.0505557	2.4597878
3.7075537986302702	6.1487684	2.479671
3.7250897667000857	6.2183847	2.493669
3.7426258220361235	6.539192	2.5571845
3.7601619650503553	6.8112903	2.609845
3.777698196154779	7.26623	2.6955945
3.7952345157614067	8.217582	2.8666325
3.8127709242822716	9.044074	3.0073366
3.830307422129425	11.245925	3.3534944
3.847844009714936	30.107258	5.487008
3.8653806874508954	97.418755	9.870094
3.882917455749409	96.62004	9.82955
3.900454315022606	96.28713	9.812601
3.917991265682631	40.87599	6.3934336
3.9355283081416506	10.5423975	3.2469058
3.9530654428118495	8.550436	2.9241128
3.970602670105433	7.4255333	2.7249832
3.9881399904346244	6.5303364	2.5554523
4.005677404211669	6.3428655	2.5185046
4.023214911848827	6.294153	2.508815
4.0407525137583855	6.248782	2.4997563
4.058290210352644	6.3759513	2.5250647
4.075828002043927	6.258188	2.501637
4.0933658892445814	6.1689553	2.4837382
4.110903872366966	6.09626	2.4690607
4.128441951823468	5.988227	2.4470854
4.145980128026488	5.930356	2.4352322
4.163518401388452	5.9328876	2.435752
4.181056772321807	5.9826674	2.445949
4.1985952412390155	5.9979024	2.4490616
4.216133808552567	6.0595393	2.4616132
4.233672474674966	6.1247077	2.4748147
4.251211240018741	6.308995	2.5117712
4.268750104996445	6.4229903	2.5343618
4.286289070020643	7.2209973	2.6871912
4.303828135503928	8.838635	2.9729843
4.3213673018589125	29.27718	5.410839
4.3389065694982305	90.53892	9.515194
4.356445938834537	165.77126	12.875218
4.3739854102805085	171.16582	13.083035
4.391524984248844	172.22862	13.12359
4.409064661152262	136.48569	11.682709
4.426604441403504	96.769066	9.837127
4.444144325415337	75.87246	8.71048
4.461684313600543	21.803474	4.6694193
4.47922440637193	22.23759	4.715675
4.496764604142329	20.484844	4.5260186
4.5143049073245916	18.419834	4.2918334
4.531845316331589	16.253242	4.031531
4.5493858315762195	13.237086	3.6382806
4.566926453471405	11.012469	3.318504
4.584467182430081	8.9526415	2.9920964
4.602008018865218	7.8611455	2.8037734
4.619548963189798	7.262098	2.694828
4.637090015816834	6.6582985	2.5803678
4.654631177159353	6.393329	2.5285034
4.672172447630417	6.174622	2.4848788
4.689713827643102	6.146208	2.4791546
4.7072553176105085	5.9626303	2.4418497
4.724796917945764	5.8241677	2.4133313
4.742338629062015	5.7229085	2.39226
4.759880451372434	5.751101	2.3981454
4.777422385290215	5.6858606	2.3845043
4.794964431228581	5.5896974	2.364254
4.812506589600768	5.5535264	2.3565922
4.830048860820047	5.5450306	2.3547888
4.847591245299709	5.590539	2.364432
4.8651337434530655	5.5648775	2.3589993
4.882676355693457	5.4905486	2.3431919
4.900219082434242	5.440307	2.3324466
4.917761924088813	5.442975	2.3330185
4.935304881070575	5.4348383	2.331274
4.952847953792969	5.3942018	2.3225422
4.970391142669449	5.3603215	2.3152368
4.9879344481135055	5.3152804	2.3054893
5.005477870538642	5.239483	2.2889917
5.023021410358394	5.198163	2.279948
5.040565067986324	5.2259336	2.28603
5.05810884383601	5.2645144	2.294453
5.075652738321066	5.346698	2.3122928
5.09319675185512	5.373029	2.3179796
5.110740884851836	5.418155	2.3276932
5.128285137724894	5.4394326	2.3322592
5.145829510888007	5.406523	2.3251932
5.163374004754908	5.358905	2.314931
5.1809186197393595	5.275371	2.2968175
5.198463356255145	5.228754	2.2866468
5.216008214716077	5.2601395	2.2934995
5.233553195535998	5.2733364	2.2963746
5.251098299128764	5.272077	2.2961004
5.268643525908272	5.262455	2.2940042
5.286188876288432	5.225019	2.28583
5.3037343506831895	5.285187	2.2989533
5.32127994950651	5.275152	2.2967699
5.3388256731723915	5.292912	2.300633
5.356371522094851	5.250887	2.2914815
5.373917496687938	5.2068853	2.28186
5.391463597365729	5.151048	2.269592
5.40900982454232	5.081881	2.2543027
5.426556178631843	5.0211377	2.2407894
5.444102660048449	4.9997077	2.2360027
5.4616492692063225	5.0903955	2.2561905
5.479196006519669	5.15116	2.2696166
5.496742872402727	5.153795	2.2701972
5.514289867269756	5.032571	2.2433393
5.531836991535049	5.023184	2.241246
5.549384245612924	5.0454116	2.2461994
5.566931629917724	5.069509	2.251557
5.584479144863822	5.078052	2.2534533
5.6020267908656205	5.09694	2.2576404
5.619574568337545	5.012151	2.2387834
5.637122477694054	4.9851584	2.2327468
5.654670519349629	4.846859	2.2015584
5.672218693718784	4.858541	2.2042098
5.689767001216059	4.945099	2.2237577
5.707315442256021	5.0259275	2.241858
5.724864017253266	5.119952	2.262731
5.7424127266224225	5.1233892	2.2634904
5.75996157077814	5.0863066	2.255284
5.777510550135105	5.154997	2.2704618
5.795059665108022	5.2111506	2.2827945
5.812608916111639	5.2636127	2.2942564
5.830158303560715	5.37462	2.3183227
5.847707827870055	5.340242	2.3108964
5.86525748945448	5.33302	2.3093333
5.8828072887288485	5.3820276	2.3199198
5.900357226108044	5.4765787	2.340209
5.917907302006979	5.6763134	2.3825016
5.9354575168406	6.436125	2.5369518
5.9530078710238765	7.0450163	2.654245
5.970558364971812	7.4732203	2.733719
5.988108999099438	7.639024	2.7638783
6.005659773821818	8.130911	2.8514752
6.023210689554039	7.87979	2.8070962
6.040761746711227	8.247816	2.871901
6.058312945708531	7.601396	2.757063
6.075864286961132	7.1428523	2.6726115
6.093415770884244	6.5056796	2.5506234
6.1109673978931065	5.9957633	2.4486248
6.128519168402993	5.423852	2.3289165
6.146071082829204	5.335802	2.3099356
6.163623141587075	5.1928315	2.2787786
6.181175345091969	5.1242924	2.26369
6.198727693759281	5.0545597	2.2482347
6.216280188004435	5.0961156	2.2574577
6.233832828242885	5.0908537	2.256292
6.251385614890126	5.139234	2.2669878
6.268938548361669	5.1333427	2.2656882
6.286491629073067	5.104857	2.259393
6.304044857439898	5.1090436	2.2603195
6.321598233877777	4.9977436	2.2355633
6.339151758802344	4.969917	2.229331
6.356705432629277	4.914157	2.2167897
6.37425925577428	4.9317493	2.2207541
6.391813228653095	4.8769064	2.2083719
6.409367351681486	4.860737	2.2047079
6.426921625275259	4.8591914	2.2043574
6.44447604985025	4.857752	2.2040308
6.46203062582232	4.860537	2.2046626
6.47958535360737	4.8700266	2.2068136
6.497140233621328	4.9100785	2.2158697
6.514695266280161	4.9792895	2.2314322
6.532250451999859	4.986673	2.2330859
6.549805791196454	5.0108747	2.2384982
6.567361284286002	5.0168657	2.239836
6.584916931684597	5.048385	2.2468612
6.602472733808367	5.01544	2.2395177
6.6200286910734665	5.0104084	2.2383943
6.637584803896092	4.9456162	2.223874
6.655141072692462	4.9673615	2.2287579
6.672697497878842	4.993642	2.2346458
6.690254079871514	4.9923825	2.234364
6.707810819086808	4.9189305	2.2178662
6.725367715941078	4.8926506	2.2119336
6.742924770850719	4.9065046	2.215063
6.760481984232151	4.951587	2.2252162
6.778039356501836	5.007161	2.2376688
6.795596888076266	5.0238686	2.2413988
6.813154579371963	4.947465	2.2242897
6.830712430805492	4.9038005	2.2144527
6.84827044279344	4.8549647	2.2033985
6.865828615752445	4.882678	2.2096782
6.883386950099159	4.914289	2.2168195
6.900945446250287	4.978576	2.2312722
6.918504104622553	4.9993644	2.235926
6.936062925632727	5.005101	2.2372084
6.953621909697607	5.025939	2.2418606
6.971181057234028	5.003652	2.2368844
6.988740368658859	5.043117	2.2456884
7.006299844389007	5.090496	2.2562127
7.023859484841407	5.2119565	2.282971
7.041419290433036	5.2519946	2.291723
7.058979261580902	5.3780255	2.319057
7.0765393987020495	5.522943	2.3500943
7.094099702213559	5.8309064	2.414727
7.111660172532549	6.1909766	2.4881673
7.129220810076164	6.570131	2.5632267
7.146781615261595	7.1365404	2.6714303
7.16434258850606	7.357204	2.7124166
7.181903730226821	7.731023	2.7804718
7.1994650408411704	7.8822227	2.8075297
7.217026520766437	8.074559	2.8415768
7.234588170419983	8.292938	2.8797462
7.252149990219215	8.326653	2.885594
7.269711980581568	8.206268	2.8646586
7.2872741419245175	8.029889	2.833706
7.304836474665574	7.652473	2.7663105
7.322398979222286	7.370015	2.7147772
7.339961656012233	7.1626368	2.6763103
7.357524505453039	6.8899364	2.6248689
7.375087527962357	6.5815735	2.5654578
7.392650723957886	6.2536488	2.5007296
7.410214093857353	5.849933	2.4186635
7.427777638078528	5.5858865	2.363448
7.445341357039213	5.4871492	2.3424666
7.4629052511572525	5.3527575	2.3136027
7.480469320850524	5.2602587	2.2935255
7.498033566536948	5.201403	2.2806585
7.5155979886344735	5.1362534	2.2663305
7.5331625875610975	5.1075764	2.2599947
7.550727363734844	5.1115613	2.2608762
7.568292317573788	5.076723	2.2531586
7.585857449496025	5.067066	2.2510145
7.603422759919705	4.980691	2.2317462
7.620988249263007	4.9656153	2.2283661
7.638553917944147	4.974718	2.2304077
7.656119766381391	5.031247	2.2430441
7.673685794993023	5.0710735	2.2519045
7.691252004197388	5.105591	2.2595553
7.70881839441285	5.133743	2.2657764
7.726384966057826	5.2340794	2.287811
7.743951719550762	5.2295656	2.2868245
7.761518655310149	5.2646956	2.2944925
7.779085773754511	5.2445545	2.2900991
7.796653075302419	5.2305694	2.2870438
7.814220560372475	5.2171025	2.2840977
7.831788229383323	5.2687206	2.2953694
7.8493560827536495	5.2748914	2.296713
7.866924120902174	5.2719975	2.296083
7.884492344247663	5.260805	2.2936444
7.9020607532089135	5.269457	2.2955298
7.919629348204771	5.2729955	2.2963004
7.937198129654115	5.2705317	2.2957637
7.954767097975865	5.220362	2.2848113
7.972336253588986	5.17263	2.2743416
7.989905596912472	5.166739	2.2730463
8.007475128365371	5.2027	2.280943
8.025044848366756	5.2865024	2.2992396
8.042614757335754	5.4191685	2.3279107
8.060184855691523	5.4855385	2.3421226
8.07775514385327	5.6308813	2.3729477
8.095325622240228	5.7138863	2.3903737
8.112896291271687	5.7494407	2.397799
8.130467151366968	5.8104024	2.4104776
8.148038202945436	5.8013506	2.4085994
8.165609446426497	5.845083	2.4176607
8.183180882229594	5.862101	2.4211776
8.200752510774217	5.7673883	2.4015388
8.218324332479893	5.770615	2.4022105
8.235896347766193	5.7551107	2.398981
8.253468557052724	5.814896	2.4114096
8.27104096075914	5.846439	2.417941
8.288613559305137	5.9497857	2.4392183
8.306186353110448	6.0400915	2.4576597
8.32375934259485	6.0352674	2.4566782
8.341332528178162	6.0192285	2.4534116
8.358905910280246	6.035189	2.4566622
8.376479489321003	6.0729837	2.4643424
8.394053265720377	6.070326	2.463803
8.411627239898356	6.0542836	2.4605453
8.42920141227497	6.0600834	2.4617236
8.44677578327029	6.084759	2.4667304
8.464350353304427	6.0785065	2.4654627
8.48192512279754	6.05006	2.459687
8.499500092169827	6.0617123	2.4620545
8.51707526184153	6.0518227	2.4600453
8.534650632232934	6.040273	2.4576967
8.552226203764365	6.0620813	2.4621294
8.569801976856192	6.0905523	2.4679043
8.587377951928834	6.154798	2.4808865
8.60495412940274	6.188291	2.4876275
8.622530509698416	6.22985	2.4959667
8.6401070932364	6.341874	2.5183077
8.657683880437283	6.4274354	2.5352387
8.675260871721695	6.519396	2.5533109
8.692838067510303	6.6970096	2.5878582
8.710415468223834	6.8237643	2.6122336
8.727993074283043	6.9557014	2.6373663
8.745570886108737	6.948584	2.6360166
8.763148904121765	6.981132	2.6421833
8.78072712874302	7.0109982	2.647829
8.798305560393441	7.1535115	2.674605
8.815884199494006	7.3342032	2.7081735
8.833463046465745	7.4799542	2.7349505
8.851042101729728	7.643568	2.7647004
8.86862136570707	7.9757223	2.8241322
8.886200838818924	8.107697	2.8474016
8.903780521486505	8.223222	2.867616
8.921360414131055	8.300417	2.8810444
8.938940517173874	8.436887	2.9046319
8.956520831036297	8.561961	2.9260828
8.97410135613971	8.891977	2.981942
8.99168209290554	9.161027	3.0267189
9.009263041755265	9.49551	3.0814786
9.026844203110405	9.670309	3.1097121
9.044425577392525	9.766197	3.1250916
9.062007165023239	9.752972	3.1229749
9.079588966424197	10.0558	3.1710882
9.097170982017108	10.233397	3.198968
9.11475321222372	11.29191	3.3603437
9.132335657465825	12.249129	3.4998755
9.149918318165264	12.380371	3.5185752
9.167501194743924	13.072586	3.6156032
9.18508428762374	12.649641	3.5566335
9.202667597226693	12.618113	3.5521982
9.220251123974803	12.249516	3.4999309
9.237834868290143	11.932669	3.4543695
9.255418830594836	11.742515	3.4267352
9.273003011311046	11.227755	3.350784
9.290587410860985	11.015155	3.3189087
9.308172029666911	10.417639	3.2276368
9.32575686815113	10.130132	3.1827867
9.343341926735997	8.675688	2.945452
9.360927205843916	8.370276	2.893143
9.378512705897327	8.132842	2.8518138
9.396098427318728	8.000846	2.8285766
9.413684370530664	7.9819083	2.825227
9.431270535955722	7.9091697	2.8123245
9.448856924016539	7.859533	2.8034859
9.466443535135806	7.638335	2.763754
9.484030369736251	7.5491176	2.7475657
9.501617428240658	7.473438	2.733759
9.519204711071852	7.5506053	2.7478366
9.536792218652714	7.613774	2.7593067
9.55437995140617	7.728715	2.7800567
9.571967909755191	7.8130174	2.7951775
9.589556094122802	7.841232	2.80022
9.60714450493207	7.756822	2.7851071
9.624733142606116	7.738706	2.781853
9.642322007568108	7.740511	2.7821774
9.659911100241267	7.8231993	2.7969983
9.677500421048851	7.9068885	2.811919
9.695089970414175	7.9790235	2.8247166
9.712679748760609	7.9895062	2.8265715
9.730269756511557	8.027077	2.8332095
9.747859994090492	8.058183	2.8386939
9.765450461920915	8.08194	2.8428752
9.78304116042639	8.073486	2.841388
9.800632090030527	8.104612	2.8468602
9.81822325115699	8.1182785	2.8492594
9.835814644229481	8.173762	2.8589792
9.853406269671762	8.199898	2.8635464
9.870998127907646	8.226829	2.868245
9.888590219360985	8.220753	2.8671856
9.906182544455698	8.221132	2.8672516
9.923775103615734	8.218551	2.8668015
9.941367897265108	8.250227	2.872321
9.958960925827878	8.233626	2.8694296
9.97655418972816	8.221111	2.867248
9.994147689390106	8.182797	2.860559
10.011741425237934	8.17055	2.8584175
10.029335397695904	8.206796	2.8647506
10.04692960718833	8.167788	2.8579342
10.06452405413958	8.135058	2.8522024
10.082118738974064	8.06773	2.840375
10.099713662116246	8.10008	2.8460639
10.117308823990651	8.123348	2.850149
10.134904225021844	8.112378	2.8482237
10.152499865634445	8.097314	2.845578
10.170095746253125	8.024448	2.8327458
10.18769186730261	8.003371	2.8290231
10.205288229207675	8.021386	2.832205
10.222884832393145	8.014131	2.830924
10.2404816772839	7.9373436	2.8173292
10.258078764304868	7.9488883	2.8193772
10.275676093881035	7.899139	2.8105407
10.293273666437438	7.917869	2.813871
10.310871482399158	7.9514728	2.8198357
10.32846954219134	7.8981824	2.8103704
10.346067846239173	7.9145465	2.8132803
10.363666394967908	7.9191074	2.814091
10.38126518880283	7.9786005	2.8246417
10.398864228169298	8.023441	2.832568
10.416463513492713	8.0536995	2.837904
10.434063045198531	8.075576	2.8417559
10.451662823712262	8.080014	2.8425367
10.469262849459467	8.163913	2.8572562
10.486863122865758	8.100805	2.8461914
10.504463644356806	8.017922	2.8315935
10.522064414358338	7.8978777	2.8103163
10.539665433296118	7.8220143	2.7967865
10.557266701595987	7.72602	2.7795718
10.574868219683818	7.6584067	2.7673826
10.592469987985552	7.52632	2.743414
10.610072006927185	7.42542	2.7249622
10.627674276934751	7.298236	2.7015247
10.64527679843435	7.245221	2.6916947
10.662879571852143	7.121611	2.6686347
10.680482597614331	7.051918	2.6555448
10.698085876147173	6.961817	2.6385255
10.715689407876988	6.8995485	2.6266992
10.733293193230146	6.8105893	2.6097107
10.750897232633072	6.6799974	2.5845692
10.76850152651225	6.6098638	2.5709655
10.786106075294207	6.5029063	2.5500796
10.803710879405534	6.396704	2.5291708
10.821315939272877	6.3511953	2.5201578
10.83892125532294	6.282254	2.5064425
10.856526827982472	6.255902	2.5011802
10.874132657678285	6.204701	2.4909236
10.891738744837243	6.176987	2.4853544
10.909345089886271	6.1055984	2.4709508
10.926951693252343	6.019854	2.4535391
10.944558555362494	5.9847674	2.4463785
10.96216567664381	5.8907886	2.4270947
10.979773057523436	5.8397083	2.4165487
10.997380698428573	5.771229	2.4023383
11.014988599786477	5.771561	2.4024074
11.032596762024461	5.7584577	2.3996787
11.050205185569892	5.706086	2.3887415
11.067813870850198	5.606776	2.3678632
11.085422818292859	5.4695125	2.3386989
11.10303202832541	5.3793206	2.3193362
11.120641501375454	5.3452687	2.3119838
11.138251237870636	5.2625	2.294014
11.155861238238671	5.187982	2.2777143
11.173471502907317	5.1272306	2.264339
11.191082032304402	5.1174417	2.2621763
11.208692826857805	5.076058	2.2530107
11.226303886995465	5.0090036	2.2380803
11.243915213145371	4.935592	2.2216194
11.261526805735578	4.886307	2.2104993
11.279138665194196	4.810968	2.1933918
11.296750791949393	4.747126	2.17879
11.314363186429393	4.6861324	2.1647477
11.331975849062479	4.687787	2.16513
11.34958878027699	4.592806	2.1430833
11.36720198050133	4.568103	2.1373122
11.384815450163948	4.496217	2.1204283
11.402429189693366	4.4615965	2.1122491
11.420043199518153	4.3933444	2.0960307
11.437657480066942	63.33598	7.9583907
11.455272031768422	85.03506	9.221445
11.472886855051353	107.45451	10.366027
11.490501950344528	99.05161	9.952468
11.508117318076819	84.39126	9.186472
11.52573295867715	45.755264	6.7642636
11.543348872574514	4.07917	2.0196955
11.560965060197946	4.031889	2.0079565
11.57858152197655	4.031555	2.0078733
11.59619825833949	3.9920454	1.9980104
11.613815269715985	3.9622288	1.9905348
11.631432556535323	38.43548	6.1996355
11.649050119226837	82.93765	9.107011
11.666667958219929	93.34866	9.661711
11.68428607394406	107.63593	10.374774
11.701904466828756	82.44936	9.080163
11.719523137303586	65.288055	8.080102
11.737142085798196	4.503842	2.1222258
11.754761312742286	3.6207879	1.9028368
11.772380818565619	3.6131568	1.9008305
11.790000603698015	3.601534	1.8977708
11.80762066856935	3.6203725	1.9027276
11.825241013609572	3.5731385	1.8902748
11.842861639248683	3.530616	1.8789934
11.860482545916748	3.460659	1.8602847
11.878103734043883	3.434031	1.8531139
11.895725204060282	3.42479	1.8506188
11.91334695639619	3.4117026	1.8470795
11.930968991481919	3.334551	1.8260753
11.948591309747824	3.2555573	1.8043163
11.966213911624347	3.2094705	1.7914995
11.98383679754198	3.2179806	1.7938731
12.001459967931268	3.2485588	1.8023759
12.019083423222835	3.2536895	1.8037987
12.036707163847352	3.2575612	1.8048716
12.05433119023556	3.2224967	1.7951314
12.071955502818259	3.2279944	1.796662
12.089580102026313	3.2009494	1.7891197
12.107204988290643	3.1447198	1.7733358
12.12483016204224	3.06933	1.7519504
12.142455623712152	3.074839	1.7535219
12.16008137373149	3.107571	1.7628304
12.177707412531431	3.0836437	1.7560307
12.19533374054321	3.0459106	1.7452537
12.212960358198126	3.0024211	1.7327496
12.230587265927545	2.9912496	1.729523
12.248214464162889	2.9234586	1.7098124
12.265841953335649	2.8961444	1.7018062
12.283469733877375	2.8999195	1.702915
12.301097806219685	2.9524705	1.7182754
12.31872617079425	2.9236963	1.7098819
12.336354828032825	2.8945882	1.7013489
12.353983778367205	2.86991	1.6940808
12.371613022229262	2.9102192	1.7059364
12.389242560050928	2.9224021	1.7095035
12.406872392264201	2.8784633	1.6966034
12.424502519301143	2.8503726	1.6883047
12.442132941593874	2.807221	1.6754763
12.459763659574586	2.782657	1.6681298
12.477394673675532	2.770091	1.6643591
12.49502598432903	2.784103	1.6685631
12.51265759196746	2.7822373	1.668004
12.530289497023267	2.8242333	1.6805456
12.547921699928967	2.7976723	1.6726243
12.565554201117134	2.8229523	1.6801643
12.583187001020404	2.8556993	1.6898814
12.600820100071486	2.8470976	1.6873344
12.618453498703152	2.8202136	1.6793492
12.636087197348235	2.750483	1.658458
12.65372119643964	2.7236514	1.6503489
12.671355496410326	2.7324352	1.653008
12.68899009769333	2.7703073	1.6644241
12.706625000721749	2.7767892	1.66637
12.724260205928752	2.823633	1.6803669
12.741895713747551	2.852226	1.6888535
12.759531524611454	2.9233496	1.7097806
12.777167638953818	2.9287493	1.7113589
12.794804057208072	2.958817	1.7201213
12.812440779807702	3.0374258	1.7428212
12.830077807186271	3.2158966	1.7932922
12.847715139777405	3.2187436	1.7940857
12.865352778014795	3.3831255	1.8393275
12.882990722332197	3.5162196	1.8751585
12.90062897316344	3.6080525	1.8994874
12.918267530942412	3.7027628	1.9242564
12.935906396103071	3.5719588	1.8899627
12.953545569079449	3.7366593	1.9330441
12.971185050305628	3.5161881	1.8751502
12.988824840215775	3.4932992	1.869037
13.006464939244115	3.5048163	1.8721155
13.024105347824943	3.355311	1.8317508
13.041746066392617	3.5131679	1.8743447
13.05938709538157	3.352121	1.8308799
13.077028435226296	3.3820908	1.8390461
13.094670086361363	3.2902417	1.8139024
13.112312049221401	3.1497982	1.774767
13.129954324241112	3.0374007	1.7428141
13.147596911855258	2.8452423	1.6867846
13.165239812498685	2.8289359	1.681944
13.182883026606293	2.7917807	1.6708623
13.200526554613058	2.7524498	1.6590508
13.218170396954017	2.7243998	1.6505756
13.235814554064284	2.69432	1.6414384
13.253459026379034	2.655527	1.6295788
13.271103814333523	2.6372805	1.6239706
13.288748918363058	2.6323621	1.6224556
13.306394338903031	2.6416214	1.6253065
13.32404007638889	2.6547573	1.6293426
13.341686131256164	2.6846788	1.6384989
13.359332503940449	2.659053	1.6306603
13.376979194877402	2.6075184	1.6147813
13.394626204502751	2.6302238	1.6217965
13.412273533252307	2.665238	1.6325556
13.429921181561937	2.6897252	1.6400381
13.447569149867581	2.6873732	1.639321
13.465217438605247	2.6777525	1.636384
13.482866048211022	2.661854	1.631519
13.500514979121052	2.6653097	1.6325777
13.518164231771568	2.6196814	1.618543
13.535813806598844	2.6230602	1.6195865
13.553463704039254	2.6390076	1.6245023
13.571113924529229	2.6498716	1.6278427
13.588764468505275	2.647452	1.6270993
13.606415336403956	2.6490812	1.6275998
13.624066528661917	2.6793644	1.6368765
13.641718045715882	2.7346568	1.6536797
13.659369888002635	2.7923806	1.6710417
13.67702205595903	2.8585346	1.6907201
13.694674550021993	2.9115527	1.7063272
13.712327370628532	2.9613988	1.7208716
13.729980518215713	3.0748854	1.7535352
13.747633993220681	3.1589425	1.7773414
13.765287796080647	3.2205133	1.7945789
13.7829419272329	3.247543	1.8020941
13.800596387114801	3.2672658	1.807558
13.818251176163775	3.3151238	1.8207481
13.835906294817324	3.3714108	1.8361402
13.853561743513023	3.3965578	1.8429753
13.871217522688525	3.4365637	1.8537971
13.888873632781538	3.4633627	1.8610111
13.906530074229858	3.4914503	1.8685423
13.92418684747135	3.4910595	1.8684378
13.941843952943948	3.4640968	1.8612084
13.959501391085665	3.4546492	1.8586687
13.977159162334578	3.387926	1.840632
13.994817267128846	3.369306	1.835567
14.012475705906693	3.2622132	1.8061599
14.030134479106424	3.1760283	1.7821414
14.047793587166414	3.0630226	1.7501494
14.065453030525108	2.994174	1.7303681
14.083112809621026	2.972872	1.7242018
14.100772924892766	2.9393911	1.7144653
14.118433376778997	2.921967	1.7093762
14.136094165718458	2.8634117	1.6921618
14.153755292149969	2.8102176	1.6763704
14.171416756512416	2.711266	1.6465923
14.189078559244768	2.5781891	1.605674
14.20674070078606	2.5172932	1.586598
14.224403181575408	2.4640563	1.5697312
14.242066002051999	2.4354079	1.5605793
14.259729162655093	2.433748	1.5600474
14.277392663824022	2.411304	1.5528374
14.295056505998208	2.4064693	1.5512799
14.312720689617128	2.3612933	1.5366501
14.330385215120348	2.3534148	1.5340843
14.348050082947497	2.360776	1.5364816
14.3657152935383	2.3281236	1.525819
14.383380847332528	2.306216	1.5186231
14.401046744770051	2.326104	1.525157
14.418712986290798	2.370811	1.5397438
14.436379572334793	2.4154599	1.554175
14.454046503342123	2.421725	1.5561893
14.471713779752946	2.3924859	1.5467663
14.489381402007504	2.394136	1.5472996
14.507049370546113	2.387941	1.5452964
14.524717685809168	2.3851788	1.5444024
14.542386348237134	2.3964198	1.5480374
14.560055358270553	2.3997548	1.5491142
14.577724716350051	2.4492295	1.5650015
14.595394422916325	2.4367633	1.5610136
14.61306447841015	2.4582865	1.5678924
14.63073488327237	2.434736	1.560364
14.648405637943917	2.4508343	1.5655141
14.6660767428658	2.4769523	1.5738336
14.683748198479094	2.523559	1.5885714
14.701420005224954	2.5460858	1.5956459
14.719092163544628	2.5977588	1.6117564
14.73676467387942	2.6153483	1.6172038
14.754437536670727	2.636864	1.6238424
14.772110752360014	2.6236417	1.619766
14.78978432138882	2.6263225	1.6205933
14.807458244198777	2.6593766	1.6307595
14.82513252123159	2.6737776	1.635169
14.842807152929028	2.7028558	1.6440364
14.860482139732962	2.694292	1.6414299
14.87815748208531	2.7133765	1.647233
14.8958331804281	2.698856	1.6428195
14.91350923520342	2.6408494	1.625069
14.931185646853438	2.6587064	1.6305541
14.948862415820408	2.6169794	1.6177081
14.966539542546656	2.6405237	1.6249688
14.98421702747459	2.6194537	1.6184726
15.001894871046696	2.6249099	1.6201574
15.019573073705542	2.6169846	1.6177096
15.037251635893766	2.5936673	1.6104866
15.054930558054092	2.649167	1.6276262
15.072609840629323	2.6707034	1.6342287
15.090289484062351	2.7504044	1.6584343
15.107969488796124	2.861292	1.6915354
15.125649855273691	3.0881078	1.7573013
15.14333058393817	3.4588559	1.8598
15.161011675232768	3.9180913	1.979417
15.17869312960076	4.478458	2.1162367
15.196374947485506	5.1863537	2.2773566
15.214057129330447	6.6424675	2.5772984
15.231739675579114	8.871856	2.9785662
15.249422586675102	13.59303	3.6868727
15.267105863062092	18.307835	4.2787657
15.284789505183847	25.660559	5.065625
15.302473513484218	30.850157	5.5542917
15.320157888407127	35.229282	5.935426
15.337842630396578	33.958378	5.8273816
15.355527739896656	30.920622	5.5606313
15.37321321735153	24.07124	4.9062448
15.39089906320545	16.32772	4.0407577
15.408585277902748	10.340889	3.2157252
15.42627186188783	6.2717576	2.5043478
15.443958815605198	4.4954305	2.120243
15.461646139499424	3.7162545	1.9277589
15.479333834015168	3.3045905	1.8178532
15.497021899597165	2.9601114	1.7204974
15.514710336690234	2.7268767	1.6513257
15.53239914573928	2.6414757	1.6252618
15.550088327189297	2.6486614	1.6274709
15.567777881485336	2.5877683	1.6086541
15.58546780907256	2.5364287	1.5926169
15.6031581103962	2.4750602	1.5732324
15.620848785901568	2.4681284	1.5710279
15.638539836034063	2.4734476	1.5727198
15.656231261239173	2.4869375	1.5770026
15.673923061962451	2.487663	1.5772327
15.691615238649552	2.4528503	1.5661578
15.709307791746202	2.4402437	1.562128
15.727000721698221	2.430983	1.5591611
15.744694028951498	2.4347994	1.5603844
15.76238771395202	2.4445872	1.5635176
15.780081777145844	2.4286134	1.5584009
15.797776218979125	2.3970337	1.5482357
15.815471039898094	2.4150445	1.5540414
15.833166240349064	2.407822	1.5517157
15.850861820778437	2.4113188	1.5528421
15.868557781632699	2.3707693	1.5397303
15.886254123358412	2.4076557	1.5516622
15.903950846402232	2.4293196	1.5586275
15.921647951210897	2.4734473	1.5727197
15.939345438231225	2.5339136	1.5918272
15.957043307910133	2.577242	1.6053791
15.974741560694602	2.6040673	1.6137123
15.992440197031714	2.6013258	1.6128626
16.01013921736862	2.5855591	1.6079674
16.02783862215259	2.5281963	1.5900303
16.045538411830933	2.4698384	1.571572
16.06323858685107	2.4203832	1.5557581
16.080939147660512	2.365011	1.5378592
16.09864009470684	2.367161	1.5385581
16.11634142843774	2.4036415	1.5503682
16.134043149300954	2.3792133	1.5424699
16.15174525774433	2.3294656	1.5262587
16.169447754215817	2.3274803	1.5256082
16.18715063916342	2.3551965	1.534665
16.204853913035244	2.3842509	1.544102
16.222557576279478	2.3987608	1.5487933
16.240261629344403	22.387238	4.7315154
16.257966072678386	42.943516	6.55313
16.275670906729868	38.07443	6.170448
16.293376131947387	2.5161846	1.5862486
16.31108174877957	2.537562	1.5929726
16.328787757675133	2.5819528	1.6068456
16.34649415908287	2.6286347	1.6213064
16.364200953451657	2.660512	1.6311076
16.38190814123048	2.6562145	1.6297897
16.39961572286839	2.646058	1.6266708
16.41732369881455	2.6480186	1.6272733
16.43503206951817	2.6663175	1.6328863
16.45274083542859	2.7462244	1.6571736
16.47044999699522	2.814726	1.6777146
16.488159554667558	2.8539388	1.6893605
16.505869508895184	2.9034717	1.7039577
16.523579860127786	2.940725	1.7148542
16.541290608815117	3.0182054	1.7372983
16.559001755407035	3.0653243	1.7508068
16.57671330035348	3.1366208	1.7710507
16.59442524410448	3.243626	1.801007
16.61213758711015	3.4288282	1.8517096
16.629850329820705	3.489592	1.868045
16.647563472686436	3.5221412	1.8767369
16.665277016157724	3.4668033	1.8619354
16.682990960685053	3.4433956	1.8556389
16.70070530671898	3.4214618	1.8497194
16.718420054710155	3.4545095	1.8586311
16.736135205109335	3.5434623	1.8824086
16.753850758367335	3.6529722	1.911275
16.771566714935087	3.6723433	1.9163359
16.789283075263597	3.705717	1.9250239
16.80699983980398	3.7322636	1.9319067
16.82471700900741	3.766433	1.94073
16.84243458332518	3.8720694	1.9677575
16.860152563208665	3.9309928	1.9826732
16.87787094910932	4.0265017	2.0066144
16.89558974147871	4.098057	2.0243657
16.913308940768466	4.1483865	2.036759
16.931028547430333	4.207993	2.0513394
16.94874856191613	4.205532	2.0507393
16.966468984677785	4.262981	2.0646987
16.98418981616729	4.3247995	2.0796154
17.00191105683676	4.432421	2.1053317
17.019632707138374	4.4729333	2.114931
17.03735476752442	4.490749	2.1191387
17.05507723844728	4.5136137	2.1245267
17.072800120359403	4.584958	2.1412516
17.090523413713353	4.5965037	2.143946
17.108247118961785	4.6514397	2.1567197
17.125971236557437	4.66274	2.159338
17.143695766953133	4.672203	2.1615279
17.161420710601806	4.6477	2.1558526
17.179146067956477	4.66907	2.160803
17.19687183947025	4.639633	2.1539807
17.21459802559634	4.584125	2.141057
17.232324626788028	4.5783796	2.139715
17.25005164349871	4.567375	2.137142
17.267779076181863	4.5723877	2.1383142
17.285506925291074	4.5598593	2.1353827
17.30323519127999	4.570497	2.137872
17.320963874602384	4.543798	2.1316187
17.33869297571211	4.506819	2.122927
17.356422495063114	4.4999228	2.1213021
17.37415243310944	4.5225296	2.126624
17.391882790305218	4.512069	2.1241632
17.40961356710468	4.5024385	2.121895
17.42734476396215	4.544368	2.1317523
17.445076381332044	4.621499	2.1497672
17.462808419668868	4.6875353	2.1650717
17.48054087942723	4.7775784	2.1857672
17.498273761061835	4.8478856	2.2017915
17.51600706502747	5.0988755	2.258069
17.533740791779024	5.6269584	2.372121
17.551474941771485	6.5365167	2.5566611
17.56920951545993	8.369432	2.892997
17.586944513299528	9.583542	3.0957296
17.60467993574556	12.568506	3.545209
17.622415783253373	15.464132	3.932446
17.64015205627843	18.522182	4.3037405
17.657888755276293	21.070646	4.590277
17.675625880702604	22.631063	4.7572117
17.69336343301311	21.098276	4.593286
17.71110141266366	18.900837	4.3475094
17.728839820110178	16.049313	4.0061593
17.746578655808705	12.706998	3.5646877
17.764317920215372	10.512103	3.2422373
17.7820576137864	8.794627	2.9655738
17.79979773697811	7.420816	2.7241175
17.81753829024692	6.009911	2.451512
17.835279274049356	5.182364	2.2764807
17.85302068884201	4.457361	2.1112463
17.870762535081607	4.0632977	2.0157623
17.888504813224934	3.890234	1.9723676
17.90624752372891	3.7759588	1.9431826
17.923990667050536	3.6889882	1.9206738
17.941734243646895	3.5502088	1.8841997
17.959478253975185	3.4711676	1.863107
17.9772226984927	3.4421728	1.8553094
17.994967577656833	3.412346	1.8472536
18.01271289192506	3.3971674	1.8431406
18.030458641754965	3.3555033	1.8318033
18.04820482760425	3.3362556	1.826542
18.06595144993067	3.294137	1.8149757
18.083698509192125	3.2720692	1.8088862
18.101446005846576	3.2307122	1.7974182
18.119193940352105	3.2578351	1.8049474
18.136942313166887	3.203845	1.7899288
18.1546911247492	3.140722	1.7722082
18.1724403755574	3.043716	1.7446249
18.19019006604997	3.020663	1.7380055
18.207940196685467	3.046778	1.7455022
18.225690767922575	3.0562363	1.7482095
18.243441780220046	3.047148	1.7456082
18.261193234036764	3.037643	1.7428836
18.278945129831676	3.040136	1.7435986
18.29669746806386	3.018506	1.7373848
18.314450249192483	2.992523	1.7298911
18.3322034736768	2.9755507	1.7249784
18.349957141976184	3.0028782	1.7328814
18.3677112545501	3.0460598	1.7452965
18.385465811858108	3.0670905	1.7513111
18.403220814359884	3.0621715	1.7499062
18.420976262515172	3.0729141	1.752973
18.43873215678387	3.1337922	1.770252
18.456488497625923	3.1930482	1.7869103
18.474245285501407	3.236529	1.7990355
18.492002520870486	3.295595	1.8153774
18.50976020419343	3.3476892	1.8296691
18.527518335930615	3.637157	1.9071332
18.545276916542516	4.1550417	2.0383918
18.563035946489688	4.288161	2.0707874
18.580795426232832	4.6437244	2.1549304
18.598555356232698	4.5367985	2.1299763
18.616315736950185	4.85481	2.2033634
18.63407656884626	4.573915	2.1386714
18.65183785238201	4.755938	2.1808114
18.669599588018617	4.5691524	2.1375575
18.68736177621737	4.540875	2.1309328
18.705124417439652	4.496451	2.1204836
18.72288751214696	4.3086133	2.0757198
18.740651060800886	4.446145	2.1085885
18.758415063863115	4.241289	2.059439
18.77617952179546	4.3790784	2.0926247
18.793944435059814	4.1644907	2.0407083
18.811709804118184	4.164363	2.040677
18.829475629432675	4.1688724	2.0417817
18.8472419114655	3.966766	1.9916742
18.86500865067897	4.0063777	2.0015938
18.88277584753551	3.621894	1.9031274
18.90054350249763	3.6374135	1.9072005
18.918311616027957	3.3990452	1.84365
18.936080188589226	3.350955	1.8305614
18.953849220644265	3.069013	1.7518599
18.971618712656007	2.9051902	1.7044618
18.9893886650875	2.8321633	1.6829033
19.007159078401887	7.996571	2.827821
19.024929953062408	32.859676	5.732336
19.042701289532435	32.85086	5.731567
19.060473088275405	25.40161	5.040001
19.07824534975489	2.6670063	1.6330972
19.096018074434568	2.5894775	1.6091853
19.113791262778197	2.5716763	1.6036447
19.13156491524966	2.5969422	1.6115031
19.149339032312945	2.6071033	1.6146528
19.167113614432136	2.5962098	1.6112758
19.184888662071433	2.562544	1.6007948
19.202664175695123	2.5664876	1.6020261
19.220440155767623	2.5601726	1.6000539
19.238216602753447	2.5517936	1.5974334
19.2559935171172	2.5416605	1.5942587
19.27377089932361	2.5267334	1.5895702
19.291548749837514	2.4988296	1.5807687
19.309327069123835	2.4852443	1.5764657
19.32710585764763	2.4942338	1.5793144
19.344885115874032	2.497362	1.5803044
19.362664844268313	2.497682	1.5804057
19.380445043295822	2.4940574	1.5792586
19.39822571342203	2.489538	1.577827
19.41600685511252	2.4774454	1.5739902
19.43378846883297	2.4753623	1.5733284
19.451570555049173	2.474814	1.5731541
19.469353114227037	2.4536738	1.5664207
19.48713614683254	2.4338245	1.560072
19.50491965333182	2.45445	1.5666684
19.52270363419109	2.4794736	1.5746344
19.540488089876686	2.4942653	1.5793244
19.55827302085503	2.4816468	1.5753243
19.576058427592674	2.457244	1.5675598
19.593844310556282	2.4481127	1.5646446
19.611630670212598	2.4367387	1.5610057
19.629417507028506	2.4922132	1.5786746
19.64720482147098	2.5113416	1.5847213
19.6649926140071	2.5216732	1.5879778
19.682780885104084	2.4689782	1.5712982
19.70056963522921	2.4648461	1.5699829
19.718358864849908	2.4856992	1.57661
19.7361485744337	2.5228066	1.5883346
19.753938764448215	2.5085127	1.5838284
19.771729435361202	2.4859667	1.5766948
19.789520587640506	2.4911923	1.5783511
19.807312221754092	2.5397747	1.593667
19.825104338170043	2.5614197	1.6004436
19.842896937356517	2.5560043	1.5987508
19.860690019781824	2.4783294	1.5742711
19.87848358591436	2.434936	1.5604281
19.896277636222635	2.4251132	1.5572774
19.914072171175278	2.4743624	1.5730106
19.931867191241015	2.5128355	1.5851926
19.94966269688869	2.50314	1.5821315
19.967458688587264	2.4802144	1.5748696
19.985255166805807	2.472995	1.5725759
20.00305213201348	2.4852464	1.5764664
20.020849584679578	2.4868538	1.5769762
20.038647525273507	2.471347	1.5720519
20.05644595426477	2.4628754	1.5693551
20.07424487212299	2.4480515	1.564625
20.092044279317903	2.4679747	1.5709789
20.109844176319353	2.4512854	1.5656581
20.127644563597304	2.4490588	1.5649469
20.145445441621817	2.4282393	1.558281
20.16324681086307	2.4406435	1.5622559
20.181048671791373	2.4083776	1.5518949
20.198851024877122	2.40642	1.551264
20.216653870590836	2.394114	1.5472925
20.234457209403146	2.4051366	1.5508503
20.252261041784802	2.3806949	1.54295
20.270065368206662	2.3700173	1.539486
20.287870189139685	2.342764	1.530609
20.305675505054968	2.3190377	1.5228387
20.323481316423702	2.298908	1.516215
20.341287623717207	2.263408	1.5044627
20.359094427406884	2.2801237	1.5100079
20.376901727964288	2.2891386	1.51299
20.39470952586107	2.2952602	1.5150117
20.41251782156899	2.2753751	1.5084347
20.430326615559935	2.2700374	1.5066643
20.448135908305886	2.282755	1.5108788
20.465945700278965	2.3130877	1.5208838
20.483755991951384	2.3214254	1.5236225
20.50156678379548	2.3083715	1.5193326
20.519378076283708	2.278736	1.5095483
20.537189869888635	2.3055778	1.518413
20.55500216508294	2.318259	1.522583
20.572814962339415	2.3379078	1.5290219
20.59062826213098	2.3502722	1.5330597
20.60844206493066	2.3365073	1.5285639
20.626256371211593	2.3239572	1.524453
20.644071181447032	2.3157325	1.5217531
20.66188649611036	2.285902	1.51192
20.67970231567506	2.2777116	1.5092089
20.697518640614742	2.2856553	1.5118383
20.715335471403122	2.2965147	1.5154256
20.73315280851404	2.2825258	1.510803
20.750970652421447	2.2715147	1.5071545
20.768789003599412	2.2783175	1.5094097
20.786607862522136	2.2706518	1.5068682
20.8044272296639	2.2707677	1.5069066
20.82224710549913	2.280974	1.5102893
20.84006749050237	2.2692575	1.5064055
20.857888385148268	3.8338594	1.9580244
20.8757097899116	45.94722	6.778438
20.893531705267254	64.83152	8.051803
20.911354131690224	83.82734	9.155727
20.92917706965566	69.072716	8.311
20.94700051963877	50.14667	7.0814314
20.96482448211493	29.419071	5.423935
20.982648957559622	4.153376	2.0379834
21.00047394644843	2.267715	1.5058935
21.01829944925707	2.264428	1.5048016
21.036125466461375	2.2416115	1.4972012
21.053951998537297	2.2161145	1.488662
21.071779045960906	2.1922324	1.480619
21.089606609208378	2.1636724	1.4709427
21.10743468875603	2.1850488	1.478191
21.12526328508028	2.231082	1.4936807
21.143092398657675	2.273727	1.5078882
21.16092202996488	2.2540617	1.5013533
21.17875217947867	2.203327	1.4843608
21.19658284767596	2.1667159	1.4719769
21.21441403503377	2.174903	1.4747552
21.232245742029225	2.1952355	1.4816327
21.2500779691396	2.2248895	1.4916064
21.26791071684227	2.1924896	1.4807057
21.28574398561475	2.1695235	1.4729302
21.30357777593465	2.1426191	1.4637688
21.321412088279704	2.128104	1.4588022
21.339246923127792	2.1293979	1.4592457
21.357082280956888	2.1293697	1.459236
21.3749181622451	2.1445963	1.464444
21.392754567470647	2.1368709	1.461804
21.41059149711187	2.1426263	1.4637712
21.42842895164726	2.1270022	1.4584246
21.446266931555378	2.091684	1.4462656
21.464105437314945	2.0884907	1.4451611
21.481944469404798	2.0828636	1.443213
21.49978402830388	2.1010983	1.4495165
21.51762411449127	2.0869699	1.4446348
21.53546472844617	2.073367	1.4399191
21.553305870647876	2.0688143	1.4383373
21.571147541575865	2.095274	1.4475061
21.58898974170967	2.05972	1.4351724
21.60683247152899	2.0454319	1.4301859
21.62467573151363	2.0487986	1.4313625
21.642519522143523	2.071663	1.4393272
21.660363843898722	2.0551414	1.4335765
21.6782086972594	2.0490952	1.4314661
21.696054082705864	2.0517058	1.4323777
21.713900000718535	2.0302248	1.4248595
21.73174645177795	2.0328004	1.4257631
21.749593436364794	2.0242214	1.4227513
21.767440954959845	2.0327039	1.4257293
21.785289008044032	2.011051	1.4181153
21.803137596098388	2.0070143	1.4166913
21.820986719604086	1.999934	1.4141902
21.838836379042412	2.0059822	1.416327
21.85668657489478	2.0014584	1.4147291
21.87453730764273	2.0185664	1.4207627
21.892388577767914	2.00701	1.4166898
21.91024038575213	1.9861466	1.4093071
21.928092732077285	1.9544373	1.3980119
21.945945617225426	1.9400259	1.3928481
21.963799041678694	1.9432437	1.3940028
21.981653005919398	31.283222	5.5931406
21.999507510429943	78.09766	8.837288
22.01736255569286	73.0671	8.54793
22.035218142190818	4.150067	2.0371714
22.05307427040661	1.9681977	1.4029247
22.07093094082315	1.944458	1.3944383
22.088788153923474	1.9707744	1.4038427
22.106645910190746	1.9885511	1.41016
22.12450421010827	2.0190964	1.4209491
22.142363054159464	2.0205822	1.4214718
22.16022244282787	2.0143542	1.4192795
22.178082376597164	1.9778748	1.4063693
22.195942855951145	1.9707571	1.4038366
22.213803881373742	1.9798766	1.4070809
22.231665453349002	1.9814001	1.4076221
22.24952757236111	1.9817874	1.4077597
22.26739023889438	1.9884894	1.4101381
22.28525345343323	1.9584146	1.3994336
22.30311721646225	1.9273686	1.3882971
22.320981528466113	1.9325124	1.3901483
22.33884638992964	1.9672099	1.4025726
22.356711801337788	1.9918472	1.4113282
22.37457776317561	2.017662	1.4204444
22.392444275928337	2.00969	1.4176353
22.410311340081282	1.9724033	1.4044228
22.428178956119904	1.9216399	1.3862323
22.446047124529805	1.9112635	1.3824846
22.46391584579669	1.914945	1.3838154
22.481785120406414	1.9266442	1.3880361
22.49965494884496	1.9074986	1.3811222
22.51752533159841	1.9164771	1.3843689
22.53539626915302	1.9068146	1.3808745
22.553267761995137	1.9170542	1.3845773
22.571139810611264	1.9492042	1.396139
22.589012415488025	1.9630411	1.4010856
22.60688557711216	1.9753208	1.4054611
22.624759295970566	1.9607103	1.4002537
22.642633572550263	1.9802371	1.407209
22.660508407338362	1.9640555	1.4014477
22.67838380082217	1.990648	1.4109032
22.696259753489077	1.9930776	1.411764
22.714136265826614	1.9454614	1.3947979
22.73201333832246	1.9245833	1.3872936
22.74989097146439	1.9134482	1.3832744
22.76776916574035	1.9256446	1.387676
22.785647921638393	1.9261703	1.3878654
22.803527239646712	1.9500765	1.3964514
22.82140712025363	1.9538014	1.3977845
22.839287563947593	1.9003848	1.3785444
22.85716857121719	1.8369869	1.3553549
22.875050142551135	1.8339171	1.3542219
22.892932278438277	1.8512712	1.3606143
22.910814979367604	1.8947593	1.3765025
22.928698245828222	1.905621	1.3804424
22.946582078309387	1.9217889	1.386286
22.96446647730047	1.9070534	1.3809611
22.98235144329098	1.8798952	1.3710927
23.000236976770562	1.8784246	1.3705564
23.018123078229	1.9204855	1.3858159
23.03600974815619	1.9412323	1.3932811
23.053896987042194	1.8954227	1.3767436
23.071784795377173	1.8567681	1.3626328
23.08967317365145	1.8512007	1.3605883
23.10756212235546	1.858216	1.363164
23.125451641979787	1.857131	1.3627659
23.143341733015134	1.8836651	1.3724668
23.161232395952357	1.9112012	1.382462
23.179123631282426	1.9094856	1.3818414
23.197015439496468	1.9136553	1.3833493
23.214907821085717	1.9260046	1.3878057
23.23280077654157	1.9098041	1.3819566
23.250694306355538	1.8875525	1.3738823
23.268588411019277	1.8740228	1.3689495
23.28648309102458	1.8868793	1.3736373
23.304378346863356	1.890673	1.3750175
23.322274179027676	1.9378669	1.3920729
23.340170588009723	1.973104	1.4046721
23.358067574301852	1.996709	1.4130496
23.37596513839651	1.9880853	1.4099947
23.39386328078629	1.9487672	1.3959825
23.411762001963947	1.9266707	1.3880457
23.429661302422353	1.906374	1.380715
23.4475611826545	1.927814	1.3884574
23.46546164315356	1.9477766	1.3956276
23.48336268441279	1.9602811	1.4001004
23.501264306925638	1.9400828	1.3928685
23.51916651118564	1.9334955	1.3905019
23.537069297686497	1.9081475	1.3813571
23.554972666922037	1.8790934	1.3708003
23.57287661938623	1.8610556	1.3642051
23.59078115557318	1.8989348	1.3780185
23.608686275977128	1.9331886	1.3903915
23.62659198109246	1.9312252	1.3896853
23.6444982714137	1.9353747	1.3911774
23.66240514743549	1.9305608	1.3894463
23.68031260965263	1.9341465	1.390736
23.698220658560068	1.912682	1.3829975
23.716129294652845	1.9174191	1.384709
23.7340385184262	1.927703	1.3884175
23.75194833037546	1.8829833	1.3722184
23.769858730996123	1.9054954	1.3803968
23.78776972078382	1.9532157	1.3975749
23.80568130023431	1.9759319	1.4056784
23.823593469843495	1.9737166	1.4048903
23.841506230107424	1.9696648	1.4034475
23.859419581522275	1.9107771	1.3823086
23.87733352458438	1.8896017	1.3746278
23.89524805979019	1.900093	1.3784386
23.913163187636318	1.9332229	1.3904039
23.931078908619508	1.9380059	1.3921229
23.948995223236633	1.943809	1.3942056
23.966912131984735	1.9598426	1.3999438
23.98482963536096	2.0065138	1.4165146
24.002747733862616	2.0547667	1.4334457
24.020666427987155	2.0716221	1.439313
24.038585718232156	2.0661604	1.4374145
24.056505605095353	2.0308166	1.4250672
24.074426089074617	2.0258563	1.4233258
24.092347170667946	2.006868	1.4166397
24.110268850373515	2.0397766	1.4282075
24.128191128689586	2.0401623	1.4283425
24.146114006114626	2.052527	1.4326643
24.164037483147187	2.054287	1.4332784
24.181961560286005	2.0419602	1.4289718
24.199886238029926	1.9940953	1.4121244
24.21781151687797	1.9812173	1.4075572
24.235737397329274	2.0382545	1.4276745
24.253663879883135	2.0995674	1.4489884
24.271590965038975	2.1228344	1.456995
24.289518653296376	2.0982406	1.4485306
24.30744694515505	2.0539677	1.433167
24.32537584111486	2.0382264	1.4276646
24.34330534167581	2.0448914	1.429997
24.361235447338046	2.0464208	1.4305316
24.379166158601876	2.0489774	1.431425
24.39709747596772	2.0461974	1.4304535
24.41502939993615	2.0310533	1.4251503
24.432961931007917	2.0498743	1.4317383
24.450895069683856	2.044326	1.4297993
24.468828816465	2.032577	1.4256848
24.4867631718525	2.0198665	1.4212201
24.504698136347656	1.9615425	1.4005507
24.52263371045192	1.8998189	1.3783392
24.540569894666874	1.9055305	1.3804095
24.558506689494266	1.9135041	1.3832947
24.57644409543597	1.9083078	1.3814151
24.594382112994012	1.9121826	1.3828169
24.61232074267057	1.9091005	1.3817021
24.630259984967953	1.9294316	1.3890398
24.64819984038863	1.9765841	1.4059104
24.66614030943522	1.9604918	1.4001756
24.684081392610462	1.928668	1.388765
24.702023090417274	2.0041578	1.4156828
24.7199654033587	1.9949673	1.4124331
24.737908331937927	1.9688331	1.4031512
24.755851876658305	1.9435555	1.3941146
24.773796038023324	1.9980458	1.4135225
24.79174081653661	2.030362	1.4249077
24.809686212701962	2.076995	1.4411783
24.827632227023294	2.087478	1.4448106
24.8455788600047	2.1033015	1.4502764
24.8635261121504	2.1154814	1.4544694
24.88147398396475	2.1273112	1.4585305
24.899422475952303	2.12611	1.4581187
24.917371588617698	2.090667	1.4459139
24.935321322465768	2.1267874	1.4583509
24.953271678001478	2.222871	1.4909296
24.97122265572994	2.4182248	1.5550642
24.989174256156414	2.766448	1.6632643
25.00712647978632	3.377375	1.8377635
25.02507932712521	4.3620443	2.0885508
25.043032798678798	5.9195533	2.4330132
25.060986894952933	7.699543	2.774805
25.078941616453637	9.233	3.0385852
25.096896963687055	10.185343	3.1914485
25.114852937159508	10.775076	3.282541
25.132809537377444	10.535088	3.24578
25.150766764847468	9.782924	3.1277666
25.168724620076347	8.35954	2.8912868
25.186683103570985	7.0176086	2.649077
25.204642215838426	5.6415977	2.3752048
25.222601957385894	4.5511584	2.1333444
25.24056232872074	3.5524178	1.8847859
25.25852333035048	2.873969	1.6952785
25.276484962782778	2.4096317	1.5522989
25.294447226525435	2.1405754	1.4630705
25.312410122086423	2.0097795	1.4176669
25.330373649973843	2.0078342	1.4169806
25.348337810695988	1.9847698	1.4088186
25.366302604761245	1.9201338	1.3856889
25.384268032678207	1.9223517	1.386489
25.40223409495558	1.9371483	1.3918147
25.420200792102257	1.9054147	1.3803676
25.438168124627246	1.8809372	1.3714726
25.45613609303974	1.8855095	1.3731385
25.474104697849057	1.9119328	1.3827266
25.492073939564698	1.9038057	1.3797847
25.510043818696285	1.8729153	1.3685449
25.528014335753614	1.9008784	1.3787235
25.54598549124664	1.8793803	1.3709049
25.56395728568544	1.8609636	1.3641714
25.58192971958028	1.8406372	1.3567009
25.59990279344156	1.8354863	1.3548012
25.617876507779833	1.844492	1.3581208
25.635850863105826	1.8349227	1.3545932
25.653825859930386	1.8199173	1.3490431
25.671801498764548	1.8347574	1.3545322
25.68977778011949	1.8151116	1.3472608
25.707754704506524	1.7635007	1.3279686
25.725732272437153	1.7571944	1.325592
25.743710484423012	1.8277276	1.3519348
25.761689340975888	1.8734535	1.3687416
25.77966884260774	1.8447767	1.3582256
25.797648989830662	1.8081197	1.3446634
25.815629783156922	1.8332336	1.3539696
25.83361122309895	1.8447585	1.3582189
25.85159331016929	1.8375051	1.355546
25.869576044880695	1.8608091	1.3641148
25.887559427746034	1.858943	1.3634306
25.90554345927836	1.8710856	1.3678763
25.92352813999086	1.8469818	1.359037
25.94151347039689	1.860906	1.3641503
25.959499451009965	1.8550068	1.3619864
25.97748608234374	1.8627034	1.3648089
25.995473364912062	1.8617067	1.3644438
26.013461299228904	1.869394	1.3672578
26.03144988580839	1.8716302	1.3680754
26.04943912516483	1.8157185	1.347486
26.067429017812675	1.8181287	1.3483801
26.085419564266537	1.8591712	1.3635143
26.103410765041186	1.9180294	1.3849294
26.12140262065155	1.9324791	1.3901364
26.139395131612723	1.9028232	1.3794286
26.157388298439948	1.8588153	1.3633838
26.17538212164861	1.8395842	1.3563128
26.193376601754295	1.8479389	1.3593892
26.211371739272714	1.8334042	1.3540325
26.229367534719746	1.8316495	1.3533845
26.247363988611433	1.8471069	1.3590832
26.26536110146397	1.8522207	1.3609631
26.283358873793727	1.8371674	1.3554214
26.301357306117204	1.7836066	1.3355174
26.319356398951104	1.8127276	1.3463757
26.33735615281224	1.8706155	1.3677045
26.35535656821762	1.8910415	1.3751514
26.373357645684404	1.8433495	1.3577001
26.39135938572991	1.8206941	1.349331
26.409361788871614	1.8398885	1.3564249
26.427364855627165	1.8361164	1.3550338
26.445368586514352	1.82645	1.3514621
26.46337298205115	1.8240027	1.3505565
26.48137804275568	1.7975346	1.3407216
26.499383769146217	1.840401	1.3566139
26.517390161741215	1.835867	1.3549417
26.53539722105928	1.8244677	1.3507285
26.553404947619182	1.7724962	1.3313513
26.571413341939856	1.7465237	1.3215611
26.589422404540397	1.7427421	1.3201295
26.60743213594006	1.7886705	1.3374119
26.62544253665827	1.8146629	1.3470943
26.64345360721459	1.8341936	1.354324
26.66146534812879	1.826138	1.3513467
26.679477759920758	1.8210406	1.3494594
26.69749084311057	1.806545	1.3440777
26.71550459821847	1.8048973	1.3434646
26.733519025764842	1.8007836	1.3419328
26.751534126270258	1.8452961	1.3584168
26.769549900255434	1.8737884	1.3688639
26.787566348241267	1.9150162	1.383841
26.80558347074881	1.8418286	1.3571398
26.823601268299267	1.7702318	1.3305006
26.841619741414036	1.7536414	1.3242513
26.85963889061465	1.8129977	1.3464761
26.877658716422832	1.8509806	1.3605075
26.89567921936045	1.8344443	1.3544166
26.913700399949544	1.81208	1.3461353
26.93172225871233	1.8042796	1.3432348
26.949744796171174	1.7577872	1.3258157
26.967768012848605	1.7616647	1.3272772
26.98579190926733	1.7826469	1.335158
27.003816485950225	1.8131263	1.3465238
27.021841743420318	1.8520297	1.360893
27.039867682200814	1.8364185	1.3551452
27.057894302815072	1.8503128	1.360262
27.07592160578664	1.8312503	1.353237
27.0939495916392	1.8195815	1.3489187
27.111978260896635	1.8108504	1.3456784
27.13000761408296	1.8116269	1.3459669
27.148037651722397	1.7996675	1.3415169
27.166068374339304	1.7794951	1.3339772
27.184099782458215	1.7695537	1.3302457
27.20213187660384	1.8102095	1.3454403
27.22016465730105	1.8458474	1.3586197
27.23819812507487	1.858993	1.363449
27.256232280450533	1.8360664	1.3550153
27.274267123953383	1.8482009	1.3594855
27.292302656108987	1.8532556	1.3613433
27.31033887744306	1.7999228	1.341612
27.32837578848146	1.7725787	1.3313823
27.34641338975026	1.8104606	1.3455336
27.364451681775673	1.8520832	1.3609127
27.382490665084074	1.8369516	1.3553419
27.400530340202046	1.8350129	1.3546265
27.41857070765629	1.8530916	1.3612831
27.436611767973726	1.7979683	1.3408834
27.454653521681404	1.7635543	1.3279889
27.472695969306564	1.7540308	1.3243983
27.490739111376627	1.7740074	1.3319187
27.508782948419153	1.7846025	1.3358902
27.526827480961902	1.818313	1.3484484
27.54487270953279	1.8315759	1.3533573
27.562918634659898	1.8005314	1.3418388
27.580965256871508	1.8109576	1.3457183
27.599012576696026	1.8504305	1.3603053
27.617060594662068	1.8451964	1.3583801
27.63510931129842	1.8321444	1.3535672
27.65315872713401	1.8023696	1.3425236
27.67120884269797	1.8015672	1.3422247
27.68925965851958	1.8331015	1.3539208
27.707311175128307	1.84947	1.3599522
27.725363393053787	1.8482809	1.359515
27.74341631282583	1.8940805	1.376256
27.7614699349744	1.9559003	1.398535
27.77952426002968	2.1124113	1.4534136
27.797579288521973	2.2016633	1.4838003
27.815635020981784	2.6836455	1.6381836
27.83369145793979	2.7294173	1.6520948
27.85174859992682	2.4857075	1.5766127
27.869806447473923	2.2587397	1.5029104
27.887865001112267	2.0028446	1.415219
27.905924261373233	1.9413129	1.3933101
27.92398422878836	1.9585582	1.399485
27.94204490388936	1.9392679	1.392576
27.96010628720813	1.898105	1.3777174
27.978168379276728	1.8875681	1.373888
27.9962311806274	1.8627007	1.364808
28.014294691792568	1.8246202	1.350785
28.0323589133048	1.8044764	1.343308
28.050423845696887	1.8399712	1.3564553
28.068489489501758	1.9196047	1.3854979
28.086555845252523	1.9483657	1.3958387
28.104622913482487	1.8810483	1.3715131
28.122690694725115	1.8487691	1.3596945
28.14075918951405	1.8641789	1.3653494
28.15882839838312	1.9090203	1.381673
28.176898321866304	1.9075003	1.3811228
28.1949689604978	1.8814044	1.371643
28.213040314811945	1.896665	1.3771946
28.23111238534327	1.9377352	1.3920256
28.249185172626493	1.9634365	1.4012268
28.267258677196473	1.958775	1.3995625
28.285332899588294	1.9401892	1.3929068
28.303407840337172	1.9119507	1.3827331
28.321483499978545	1.8964863	1.3771297
28.33955987904799	1.9145647	1.383678
28.357636978081285	1.9575334	1.3991188
28.37571479761439	1.9683192	1.4029679
28.393793338183425	1.9852493	1.4089887
28.41187260032469	2.0021365	1.4149687
28.429952584574686	2.0445285	1.4298701
28.448033291470065	2.0248895	1.4229861
28.46611472154769	2.036	1.4268848
28.484196875344566	2.0479288	1.4310586
28.502279753397914	2.0338538	1.4261324
28.52036335624511	2.0190282	1.4209251
28.538447684423716	2.0343084	1.4262918
28.556532738471482	2.01443	1.4193062
28.574618518926325	1.9835846	1.4083979
28.59270502632635	1.9192413	1.3853668
28.61079226120985	1.946126	1.3950362
28.628880224115274	1.9972434	1.4132386
28.646968915581287	2.015298	1.4196119
28.66505833614671	2.01455	1.4193485
28.68314848635055	1.9920075	1.4113849
28.701239366732004	2.0834343	1.4434106
28.71933097783044	2.153833	1.4675943
28.737423320185403	2.1337223	1.4607266
28.75551639433665	2.0704234	1.4388965
28.773610200824074	2.035621	1.4267519
28.791704740187793	2.1000473	1.449154
28.80980001296809	2.1248739	1.4576948
28.827896019705413	2.123245	1.4571359
28.845992760940433	2.1377528	1.4621056
28.86409023721397	2.1700225	1.4730996
28.88218844906704	2.140408	1.4630133
28.900287397040845	2.136063	1.4615277
28.918387081676755	2.2001119	1.4832774
28.936487503516343	2.2590284	1.5030065
28.954588663101365	2.318768	1.5227501
28.97269056097374	2.3585296	1.5357505
28.990793197675597	2.3362153	1.5284683
29.00889657374923	2.2723656	1.5074368
29.027000689737125	2.2977695	1.5158396
29.04510554618196	2.3818169	1.5433136
29.06321114362659	2.3529449	1.5339311
29.08131748261405	2.3596406	1.5361122
29.099424563687567	2.4056478	1.551015
29.11753238739057	2.47642	1.5736645
29.13564095426663	2.5385818	1.5932927
29.15375026485954	2.5831592	1.607221
29.171860319713275	2.6101408	1.6155931
29.18997111937199	2.6510017	1.6281897
29.20808266438002	2.7335565	1.653347
29.226194955281898	2.8433225	1.6862154
29.244307992622335	2.857611	1.690447
29.26242177694624	2.9961026	1.7309253
29.2805363087987	3.0369272	1.7426782
29.29865158872498	3.0045505	1.7333639
29.316767617270557	2.9615345	1.7209109
29.334884394981064	2.9641707	1.7216767
29.353001922402367	2.9469938	1.716681
29.37112020008047	3.018726	1.7374482
29.389239228561596	3.171639	1.7809095
29.407359008392152	3.3599746	1.8330233
29.42547954011872	3.6385145	1.9074891
29.44360082428809	4.103297	2.0256598
29.46172286144722	4.969299	2.2291925
29.479845652143283	6.60877	2.5707529
29.497969196923606	9.237238	3.0392826
29.516093496335728	13.132462	3.623874
29.5342185509274	16.805288	4.0994253
29.55234436124651	20.261332	4.501259
29.570470927841175	21.722574	4.6607485
29.588598251259686	21.492502	4.6360006
29.60672633205055	19.682022	4.4364424
29.624855170762405	16.540665	4.0670214
29.642984767944146	13.051574	3.6126962
29.66111512414481	9.698368	3.1142204
29.67924623991366	7.140902	2.6722467
29.697378115800138	5.2640414	2.29435
29.71551075235387	4.343459	2.0840967
29.733644150124675	3.9260788	1.9814335
29.751778309662576	3.7186806	1.9283881
29.769913231517766	3.5488968	1.8838515
29.78804891624066	3.4995184	1.8707
29.806185364381818	3.479078	1.8652287
29.82432257649206	3.4345686	1.853259
29.842460553122333	3.3845668	1.8397192
29.86059929482382	3.354874	1.8316315
29.878738802147872	3.349703	1.8302194
29.896879075646048	3.3183904	1.821645
29.915020115870114	3.3151314	1.8207502
29.933161923371976	3.2355828	1.7987726
29.951304498703777	3.2012262	1.7891971
29.969447842417857	3.217879	1.7938448
29.987591955066733	3.229384	1.7970487
30.005736837203123	3.2921662	1.8144327
30.023882489379943	3.2408466	1.8002352
30.04202891215028	3.176455	1.7822613
30.060176106067455	3.170176	1.7804989
30.078324071684946	3.1896698	1.7859647
30.09647280955646	3.175904	1.7821066
30.114622320235863	3.2088914	1.7913378
30.132772604277257	3.2045395	1.7901227
30.1509236622349	3.193496	1.7870356
30.16907549466328	3.1497219	1.7747456
30.18722810211705	3.1209311	1.7666157
30.205381485151097	3.0594792	1.7491367
30.22353564432045	3.0577435	1.7486405
30.241690580180403	2.9898615	1.7291216
30.25984629328638	2.9815383	1.7267132
30.278002784194037	2.9703517	1.7234708
30.296160053459246	3.0409107	1.7438207
30.314318101638033	3.0274444	1.7399553
30.332476929286646	3.0195794	1.7376937
30.35063653696153	3.0980873	1.7601384
30.368796925219307	3.045166	1.7450404
30.386958094616844	2.9576674	1.719787
30.40512004571115	2.900532	1.7030948
30.423282779059463	2.9114118	1.706286
30.441446295219233	2.917388	1.7080363
30.459610594748067	2.8715396	1.6945617
30.47777567820382	2.7734113	1.6653562
30.495941546144504	2.7531013	1.6592473
30.51410819912835	2.739231	1.6550623
30.532275637713795	2.8260012	1.6810714
30.55044386245946	2.8593602	1.6909643
30.56861287392416	2.8168702	1.6783534
30.586782672666956	2.7770243	1.6664406
30.604953259247047	2.7997472	1.6732445
30.623124634223885	2.786023	1.6691383
30.641296798157075	2.7984233	1.6728488
30.659469751606462	2.7766602	1.6663314
30.677643495132074	2.7750309	1.6658424
30.695818029294152	2.7626748	1.6621296
30.713993354653116	2.7723863	1.6650485
30.73216947176962	2.7473876	1.6575246
30.75034638120448	2.7430801	1.6562246
30.768524083518756	2.7742558	1.6656097
30.786702579273673	2.7703547	1.6644382
30.80488186903069	2.7946286	1.6717143
30.82306195335144	2.9798758	1.7262317
30.841242832797782	3.269385	1.8081441
30.85942450793176	3.5755796	1.8909203
30.877606979315637	3.8540637	1.963177
30.895790247511883	4.2590904	2.0637565
30.913974313083134	4.814859	2.1942787
30.932159176592283	5.27011	2.295672
30.95034483860237	5.5811815	2.3624525
30.968531299676698	5.5227523	2.3500538
30.98671856037873	5.2593055	2.2933176
31.00490662127215	4.82489	2.1965632
31.023095482920848	4.2638264	2.0649035
31.04128514588892	3.7228248	1.9294623
31.059475610740662	3.2552505	1.8042313
31.07766687804056	2.8964016	1.7018818
31.09585894835335	2.6612396	1.6313306
31.11405182224393	2.549352	1.596669
31.132245500277417	2.6015728	1.6129391
31.15043998301914	2.5905867	1.60953
31.168635271034628	2.460696	1.5686606
31.18683136488964	2.3981657	1.5486012
31.20502826515008	2.4126246	1.5532626
31.223225972382135	2.4145555	1.553884
31.241424487152155	2.3977592	1.5484699
31.259623810026692	2.3639076	1.5375004
31.27782394157253	2.3483937	1.532447
31.296024882356644	2.3599887	1.5362254
31.314226632946237	2.422345	1.5563884
31.332429193908684	2.4349794	1.5604421
31.350632565811598	2.4783268	1.5742702
31.368836749222787	2.5077744	1.5835954
31.387041744710295	2.5311759	1.5909669
31.40524755284232	2.5147672	1.5858017
31.423454174187317	2.51817	1.5868744
31.441661609313922	2.5350022	1.592169
31.459869858791002	2.4811096	1.5751538
31.478078923187628	2.361368	1.5366743
31.496288803073064	2.3067307	1.5187925
31.514499499016807	2.3573546	1.535368
31.532711011588546	2.4074678	1.5516016
31.550923341358178	2.3612733	1.5366435
31.56913648889584	2.36349	1.5373647
31.587350454771844	2.4501503	1.5652956
31.605565239556732	2.4439497	1.5633137
31.62378084382127	2.3669465	1.5384884
31.641997268136382	2.3391109	1.5294152
31.660214513073274	2.3040936	1.5179241
31.67843257920331	2.2330804	1.4943495
31.6966514670981	2.284573	1.5114805
31.71487117732944	2.3428764	1.5306457
31.733091710469346	2.3101747	1.5199258
31.751313067090052	2.2133105	1.4877199
31.769535247764008	2.2038672	1.4845427
31.787758253063878	2.2630904	1.5043571
31.805982083562526	2.3219967	1.5238099
31.824206739833024	2.385258	1.544428
31.84243222244869	2.3558033	1.5348626
31.860658531983013	2.359817	1.5361696
31.878885669009737	2.403486	1.550318
31.897113634102784	2.4034421	1.5503039
31.91534242783632	2.2631056	1.5043622
31.933572050784694	2.168023	1.4724208
31.951802503522508	2.233164	1.4943775
31.970033786624548	2.2351146	1.4950299
31.988265900665834	2.1816247	1.4770324
32.006498846221575	2.1648092	1.4713291
32.02473262386724	2.1962357	1.4819702
32.04296723417845	2.1849196	1.4781474
32.0612026777311	2.157182	1.4687349
32.07943895510129	2.1544354	1.4677995
32.097676066865304	2.2302485	1.4934016
32.115914013599685	2.2064126	1.4853998
32.13415279588115	2.12042	1.4561661
32.152392414286666	2.1410801	1.463243
32.1706328693934	2.173913	1.4744196
32.18887416177875	2.2151942	1.4883529
32.20711629202032	2.1281478	1.4588172
32.225359260695924	2.1371794	1.4619095
32.243603068383614	2.2114792	1.4871043
32.26184771566166	2.253158	1.5010524
32.28009320310852	2.1338475	1.4607695
32.2983395313029	2.1115806	1.4531279
32.31658670082372	2.1302807	1.4595481
32.33483471225012	2.0723803	1.4395764
32.35308356616143	2.0832357	1.4433419
32.371333263137245	2.151709	1.4668705
32.38958380375734	2.17604	1.4751407
32.407835188601744	2.16106	1.4700545
32.42608741825067	2.1443503	1.46436
32.444340493284585	2.1611056	1.4700699
32.46259441428416	2.206634	1.4854743
32.48084918183028	2.168975	1.4727441
32.49910479650405	2.1323383	1.4602528
32.51736125888683	2.112815	1.4535525
32.53561856956014	2.0994968	1.448964
32.5538767291058	2.0436935	1.4295781
32.572135738105764	2.0048137	1.4159144
32.59039559714228	2.0113573	1.4182233
32.608656306797776	2.0170512	1.4202293
32.62691786765491	2.0183086	1.4206719
32.645180280296586	2.0627198	1.4362172
32.663443545305896	2.1368039	1.461781
32.68170766326619	2.0310724	1.425157
32.69997263476099	1.9702605	1.4036597
32.7182384603741	2.049678	1.4316697
32.7365051406895	2.1035085	1.4503477
32.75477267629144	2.0416017	1.4288462
32.77304106776434	1.9913265	1.4111437
32.79131031569289	1.9452509	1.3947225
32.809580420661966	1.9464945	1.3951683
32.827851383256714	1.9900067	1.410676
32.84612320406245	2.0250762	1.4230517
32.86439588366476	2.0250967	1.4230589
32.88266942264945	2.0374966	1.427409
32.9009438216025	2.0389044	1.4279021
32.9192190811102	1.9928045	1.4116672
32.937495201758985	1.8978114	1.3776108
32.95577218413556	1.8125497	1.3463097
32.974050028826866	1.8592569	1.3635457
32.992328736420035	1.950159	1.3964809
33.010608307502444	1.9952962	1.4125495
33.02888874266169	2.011611	1.4183127
33.047170042485604	2.0538251	1.4331173
33.06545220756225	2.040396	1.4284242
33.083735238479896	2.0792756	1.4419694
33.10201913582707	2.116857	1.4549422
33.12030390019248	2.0913398	1.4461465
33.138589532165135	2.0210118	1.421623
33.15687603233419	2.0176973	1.4204568
33.17516340128909	1.9756409	1.4055749
33.19345163961947	1.9784275	1.4065659
33.211740747915215	1.9552015	1.3982852
33.23003072676643	1.8528372	1.3611896
33.248321576763466	1.7818037	1.3348422
33.266613298496885	1.8227589	1.3500959
33.28490589255747	1.9178184	1.3848532
33.30319935953626	1.9767398	1.4059658
33.32149370002451	2.0943644	1.447192
33.339788914613706	2.175759	1.4750454
33.358085003895575	2.046226	1.4304636
33.376381968462034	1.9565808	1.3987783
33.39467980890529	2.0053124	1.4160906
33.41297852581774	2.0682275	1.4381334
33.43127811979204	2.0608	1.4355487
33.44957859142105	2.061635	1.4358395
33.467879941297866	2.0400357	1.4282982
33.486182170015844	1.9860184	1.4092617
33.50448527816853	1.8892826	1.3745117
33.522789266349754	1.8999116	1.3783728
33.541094135153514	1.9385077	1.392303
33.55939988517411	1.9451287	1.3946787
33.57770651700602	2.0191395	1.4209642
33.59601403124398	1.9756452	1.4055765
33.61432242848296	1.8487686	1.3596942
33.632631709318154	1.848527	1.3596054
33.650941874344994	1.9509833	1.3967761
33.66925292415916	1.9907173	1.4109278
33.68756485935654	1.8736794	1.3688241
33.70587768053328	1.8428788	1.3575268
33.724191388285746	1.8401176	1.3565093
33.74250598321054	1.879304	1.3708771
33.760821465904506	1.8815664	1.371702
33.77913783696474	1.940128	1.3928847
33.79745509698852	2.0091941	1.4174604
33.815773246573414	2.0777614	1.4414442
33.8340922863172	2.043194	1.4294034
33.852412216817896	1.9220116	1.3863664
33.87073303867377	1.8142066	1.3469249
33.889054752483304	1.8144693	1.3470224
33.907377358845245	1.8537263	1.3615161
33.92570085835853	1.9767545	1.405971
33.94402525162239	2.0406525	1.4285141
33.96235053923627	1.9520947	1.3971738
33.980676721799824	1.9238973	1.3870462
33.999003799912984	1.857246	1.3628081
34.01733177417592	1.7962261	1.3402336
34.03566064518901	1.8642966	1.3653924
34.0539904135529	1.9215543	1.3862014
34.07232107986846	1.8821143	1.3719018
34.090652644736785	1.9158334	1.3841363
34.108985108759235	1.9727906	1.4045607
34.12731847253742	2.0543053	1.4332848
34.14565273667313	2.0851855	1.4440172
34.16398790176847	2.0826592	1.4431422
34.18232396842574	2.0610754	1.4356446
34.20066093724749	2.0733488	1.4399128
34.21899880883651	2.0760648	1.4408556
34.23733758379583	2.0407467	1.428547
34.25567726272874	2.0096307	1.4176145
34.27401784623872	2.0017807	1.414843
34.29235933492957	1.9212408	1.3860883
34.31070172940526	1.863137	1.3649678
34.32904503027003	1.8207767	1.3493615
34.347389238128386	1.7229314	1.3126048
34.36573435358502	1.7787272	1.3336893
34.38408037724492	2.0037875	1.415552
34.402427309713296	2.2581954	1.5027293
34.42077515159559	2.2802155	1.5100383
34.43912390349752	2.1224704	1.4568701
34.45747356602499	2.0423315	1.4291016
34.47582413978423	1.8813195	1.3716121
34.49417562538163	1.7703176	1.3305328
34.51252802342388	1.9106721	1.3822706
34.53088133451789	2.0010886	1.4145983
34.54923555927084	1.859104	1.3634896
34.567590698290104	1.756386	1.3252871
34.58594675218336	1.9139942	1.3834718
34.6043037215585	1.9936419	1.4119638
34.62266160702365	1.8980314	1.3776906
34.641020409187234	1.8160007	1.3475907
34.65938012865785	1.8616263	1.3644142
34.677740766044394	1.9519968	1.3971388
34.69610232195598	1.9496508	1.396299
34.714464797002016	1.895787	1.3768758
34.73282819179208	1.8864571	1.3734835
34.751192506936064	1.965794	1.4020678
34.76955774304408	1.9334543	1.3904871
34.7879239007265	1.8830478	1.3722419
34.80629098059391	1.7985779	1.3411107
34.824658983257194	1.692047	1.3007871
34.843027909327446	1.8551346	1.3620332
34.86139775941603	2.1346817	1.461055
34.879768534134534	2.005468	1.4161454
34.89814023409483	1.8742728	1.3690408
34.91651285990901	1.8553725	1.3621206
34.93488641218944	1.7604837	1.3268322
34.95326089154871	1.7461613	1.321424
34.97163629859967	2.042513	1.4291651
34.99001263395542	2.2744842	1.5081393
35.00838989822934	2.1807737	1.4767443
35.02676809203499	2.0067847	1.4166102
35.04514721598624	1.9472882	1.3954526
35.063527270697215	1.9708745	1.4038785
35.081908256782256	2.0463827	1.4305183
35.10029017485597	2.0897188	1.445586
35.11867302553321	2.1176422	1.4552121
35.137056809429104	2.1327014	1.4603771
35.155441527159006	2.0037882	1.4155523
35.173827179338524	1.8762085	1.3697476
35.19221376658354	1.8794397	1.3709266
35.21060128951017	2.0621421	1.4360161
35.2289897487348	2.0810883	1.4425977
35.24737914487405	1.8365922	1.3552092
35.26576947854479	2.0727627	1.4397093
35.28416075036418	2.4606004	1.5686301
35.30255296094958	2.742806	1.6561419
35.32094611091867	2.3440087	1.5310155
35.33934020088932	1.9469386	1.3953274
35.35773523147969	1.8214046	1.3495942
35.3761312033082	1.9404598	1.393004
35.394528116993506	2.0950735	1.4474368
35.41292597315452	2.4408476	1.5623212
35.431324772410434	2.5825098	1.607019
35.449724515380666	2.5192187	1.5872047
35.46812520268491	2.437521	1.5612562
35.486526834943106	2.2683403	1.506101
35.504929412775454	2.0042806	1.4157262
35.52333293680242	1.9043162	1.3799696
35.54173740764471	2.0264392	1.4235306
35.560142825923286	1.7619245	1.327375
35.5785491922594	1.4437264	1.2015517
35.59695650727454	1.7072757	1.3066276
35.61536477159042	2.3342173	1.5278145
