0.008763373481513119	0.0	0.0
0.026290120649546365	0.17179282	0.414479
0.043816868432600686	0.25175577	0.5017527
0.06134361724069026	0.27935767	0.528543
0.07887036748382949	0.25888216	0.5088046
0.0963971195720331	0.12157126	0.3486707
0.11392387391531617	0.118763916	0.34462142
0.1314506309236943	0.085475214	0.29236144
0.1489773910071836	0.08099347	0.28459352
0.16650415457580078	0.10630085	0.32603812
0.18403092203956356	0.08039824	0.28354582
0.20155769380849	0.1227916	0.35041633
0.2190844702925996	0.18374428	0.42865404
0.2366112519019124	0.18840256	0.43405363
0.2541380390464497	0.15906253	0.39882645
0.27166483213623416	0.15395413	0.3923699
0.28919163158128947	0.1080595	0.32872406
0.3067184377916406	0.11096178	0.33310926
0.324245251177314	0.08587591	0.29304594
0.34177207214833777	0.12825558	0.35812786
0.3592989011147415	0.15423559	0.3927284
0.37682573848655654	0.20315702	0.45072943
0.39435258467381573	0.18717958	0.43264255
0.41187944008655414	0.16863994	0.41065794
0.42940630513480854	0.14883551	0.38579205
0.446933180228618	0.1634273	0.4042614
0.4644600657780234	0.19208205	0.43827167
0.48198696219306775	0.18666586	0.43204844
0.49951386988379676	0.16078816	0.400984
0.5170407892602581	0.13428654	0.36645126
0.5345677207325025	0.11298706	0.33613548
0.5520946647105822	0.14707892	0.38350868
0.5696216216045534	0.14291431	0.3780401
0.5871485918244737	0.15088011	0.3884329
0.6046755757804043	0.12886298	0.3589749
0.6222025738824094	0.144859	0.38060346
0.6397295865405557	0.13827579	0.3718545
0.6572566141649129	0.13022253	0.3608636
0.6747836571655547	0.0951922	0.30853233
0.6923107159525568	0.09857519	0.31396687
0.7098377909359992	0.11627201	0.34098682
0.7273648825259653	0.16304056	0.4037828
0.7448919911325411	0.17808211	0.42199776
0.762419117165817	0.19989467	0.4470958
0.7799462610358868	0.1762697	0.41984484
0.7974734231528482	0.14504588	0.38084888
0.8150006039268024	0.12506822	0.35364985
0.8325278037678551	0.1281717	0.35801074
0.8500550230861152	0.13432601	0.36650512
0.8675822622916969	0.14783196	0.3844892
0.8851095217947171	0.17682806	0.42050928
0.9026368020052984	0.22139515	0.47052646
0.9201641033335665	0.27552393	0.5249037
0.9376914261896523	0.28115618	0.5302416
0.9552187709836915	0.288657	0.5372681
0.9727461381258234	0.24480443	0.49477714
0.990273528026193	0.22498785	0.47432885
1.0078009410949496	0.1879315	0.43351066
1.0253283777422473	0.18382628	0.42874968
1.0428558383782454	0.20425649	0.45194745
1.0603833234131086	0.20119825	0.44855127
1.0779108332570058	0.25489995	0.5048762
1.0954383683201119	0.2821534	0.53118116
1.112965929012607	0.37991488	0.61637235
1.1304935157446763	0.51523364	0.71779776
1.1480211289265108	0.5559659	0.7456312
1.1655487689683062	1.4602507	1.2084084
1.1830764362802655	1.6875794	1.2990687
1.200604131272596	2.0375473	1.4274268
1.2181318543555117	2.295832	1.5152003
1.235659605939232	2.3486927	1.5325445
1.253187386433982	3.952137	1.9879982
1.270715196249994	6.34631	2.5191884
1.2882430357975057	11.747646	3.427484
1.3057709054867608	16.396255	4.049229
1.3232988057280106	22.362957	4.7289486
1.3408267369315112	27.195105	5.2148924
1.358354699507526	30.877184	5.556724
1.3758826938663256	34.513416	5.874812
1.3934107204181858	36.528946	6.043918
1.410938779573391	37.186935	6.0981092
1.4284668717422309	38.06872	6.169986
1.4459949973350033	38.05055	6.168513
1.4635231567620117	38.294556	6.1882596
1.4810513504335687	37.886227	6.155179
1.4985795787599925	37.18849	6.0982366
1.5161078421516088	36.814816	6.0675216
1.5336361410187505	35.932163	5.994344
1.5511644757717598	35.97167	5.9976387
1.5686928468209842	36.597984	6.049627
1.58622125457678	37.100082	6.090984
1.6037496994495108	37.772614	6.1459427
1.621278181849548	37.09721	6.090748
1.6388067021872719	37.39816	6.1154037
1.6563352608730693	37.001514	6.082887
1.673863858317336	36.249176	6.020729
1.6913924949304753	35.712257	5.975973
1.7089211711228998	34.75992	5.8957543
1.7264498873050296	34.131977	5.842258
1.7439786438872935	33.247993	5.766107
1.7615074412801288	32.254623	5.6793156
1.779036279893981	31.357924	5.5998144
1.796565160139305	30.322834	5.506617
1.814094082426564	29.493725	5.4308124
1.8316230471662298	28.91263	5.3770466
1.849152054768784	28.202673	5.310619
1.8666811056447168	27.931545	5.2850304
1.8842102002045273	27.32856	5.2276726
1.901739338858724	26.82286	5.179079
1.9192685220178245	26.075783	5.1064453
1.9367977500923557	25.209293	5.020886
1.9543270234928547	24.603832	4.960225
1.971856342629867	23.825361	4.881123
1.9893857079139496	23.345358	4.831703
2.006915119755667	22.85764	4.7809663
2.0244445785655945	22.476957	4.740987
2.0419740847543175	22.044827	4.695192
2.0595036387324317	21.586746	4.646154
2.0770332409105414	20.817604	4.562631
2.094562891699263	20.42601	4.5195146
2.1120925915092217	19.634134	4.431042
2.129622340751053	19.464222	4.4118276
2.1471521398354043	187.70311	13.700479
2.1646819891729323	444.2067	21.076212
2.182211889174303	440.53845	20.989008
2.1997418402501974	452.99915	21.283777
2.2172718428113023	432.97107	20.807957
2.234801897268317	320.959	17.915329
2.2523320040319548	17.445412	4.1767707
2.269862163512935	17.226635	4.1504984
2.287392376121992	16.860006	4.106094
2.304922642269869	16.404476	4.050244
2.322452962367322	16.070171	4.008762
2.3399833368251164	15.578517	3.946963
2.357513766054032	15.423466	3.927272
2.3750442504648586	15.034812	3.877475
2.3925747904683963	14.837647	3.8519666
2.410105386475459	14.6870575	3.8323698
2.4276360388968707	14.240992	3.7737238
2.445166748143469	13.894584	3.7275438
2.4626975146261025	13.502747	3.6746085
2.4802283387556323	13.368467	3.6562915
2.4977592209429305	13.275852	3.6436043
2.5152901615988825	13.063682	3.6143715
2.5328211611343865	13.112574	3.6211288
2.5503522199603523	12.817514	3.5801556
2.5678833384877024	12.654566	3.5573256
2.5854145171273712	12.338334	3.5125964
2.6029457562903064	11.975468	3.460559
2.620477056387469	11.734966	3.4256337
2.6380084178298326	11.580776	3.403054
2.655539841028383	11.538239	3.3967984
2.673071326394119	11.426854	3.380363
2.6906028743380523	11.362767	3.3708704
2.708134485271211	11.20065	3.3467371
2.7256661596046325	11.245983	3.3535032
2.743197897749369	10.906422	3.3024871
2.760729700116486	10.819583	3.2893136
2.778261567117063	10.452537	3.2330382
2.795793499162193	10.289153	3.207671
2.8133254966629817	10.212396	3.195684
2.830857560030551	10.178178	3.1903257
2.8483896896760337	10.147734	3.1855507
2.865921886010578	9.948644	3.1541471
2.883454149445347	9.803661	3.13108
2.9009864803915177	9.439203	3.0723286
2.91851887926028	9.19662	3.032593
2.9360513464628384	9.091983	3.0152915
2.953583882410413	9.17118	3.0283957
2.9711164875142373	9.153533	3.0254805
2.9886491621855606	8.912503	2.9853816
3.0061819068356455	8.82321	2.970389
3.023714721875769	8.675765	2.945465
3.041247607717225	8.660391	2.9428542
3.0587805647713213	8.459341	2.9084947
3.0763135934493806	8.307517	2.8822763
3.0938466941627407	8.191634	2.862103
3.1113798673227544	8.14951	2.8547347
3.1289131133407904	8.049744	2.837207
3.1464464326282315	7.8915167	2.8091843
3.1639798255964786	7.8162584	2.7957573
3.1815132926569443	7.7312865	2.780519
3.1990468342210603	7.624385	2.7612288
3.216580450700272	7.5713463	2.751608
3.2341141425060416	7.457841	2.7309048
3.251647910049847	7.404058	2.7210398
3.2691817537431813	7.196792	2.6826837
3.286715673997555	7.195081	2.682365
3.3042496712244938	7.1165056	2.6676779
3.32178374583554	7.1350045	2.6711428
3.339317898242251	7.1036015	2.6652582
3.3568521288562034	7.0702806	2.659
3.3743864380889876	6.8726287	2.6215699
3.3919208263522127	6.7443933	2.596997
3.4094552940575023	6.6118	2.571342
3.4269898416164972	6.5478206	2.558871
3.444524469440858	6.4749346	2.5445893
3.4620591779422587	6.4566383	2.5409915
3.479593967532391	6.3963466	2.5291
3.4971288386229658	6.3339124	2.5167265
3.5146637916257086	6.3856864	2.5269916
3.5321988269523628	6.3388386	2.517705
3.5497339450146903	6.254136	2.500827
3.5672691462244708	6.2864485	2.5072792
3.5848044309934988	6.346792	2.519284
3.60233979973359	6.4067063	2.5311472
3.619875252856575	6.48732	2.5470219
3.6374107907743034	6.410586	2.5319135
3.6549464138986427	6.364045	2.522706
3.6724821226414788	6.20553	2.49109
3.690017917414714	6.1935186	2.488678
3.7075537986302702	6.2366896	2.4973364
3.7250897667000857	6.2685666	2.5037105
3.7426258220361235	6.3532963	2.5205746
3.7601619650503553	6.685898	2.5857103
3.777698196154779	7.4085736	2.7218695
3.7952345157614067	8.634265	2.938412
3.8127709242822716	9.466612	3.076786
3.830307422129425	11.776742	3.4317257
3.847844009714936	30.613314	5.53293
3.8653806874508954	97.98849	9.898913
3.882917455749409	97.12921	9.855415
3.900454315022606	96.84305	9.840886
3.917991265682631	41.337456	6.429421
3.9355283081416506	11.070359	3.327215
3.9530654428118495	8.853725	2.975521
3.970602670105433	7.5275793	2.7436435
3.9881399904346244	6.6845374	2.5854473
4.005677404211669	6.5749474	2.564166
4.023214911848827	6.598203	2.5686967
4.0407525137583855	6.532807	2.5559356
4.058290210352644	6.5551047	2.560294
4.075828002043927	6.4866724	2.5468946
4.0933658892445814	6.3854766	2.5269501
4.110903872366966	6.311608	2.5122914
4.128441951823468	6.123313	2.4745328
4.145980128026488	6.088951	2.46758
4.163518401388452	6.0052524	2.4505615
4.181056772321807	6.135851	2.477065
4.1985952412390155	6.27806	2.5056057
4.216133808552567	6.4938016	2.5482938
4.233672474674966	6.536375	2.5566335
4.251211240018741	6.6495376	2.5786698
4.268750104996445	6.8502812	2.617304
4.286289070020643	7.7944303	2.7918508
4.303828135503928	9.37409	3.0617137
4.3213673018589125	29.607943	5.441318
4.3389065694982305	90.74301	9.525912
4.356445938834537	166.00606	12.884334
4.3739854102805085	171.30658	13.088414
4.391524984248844	172.19301	13.122233
4.409064661152262	136.2408	11.672223
4.426604441403504	96.79224	9.8383045
4.444144325415337	75.99144	8.717307
4.461684313600543	22.110304	4.7021594
4.47922440637193	22.484793	4.741813
4.496764604142329	20.909286	4.572667
4.5143049073245916	19.031946	4.3625617
4.531845316331589	16.816616	4.1008067
4.5493858315762195	13.7555275	3.7088444
4.566926453471405	11.313946	3.363621
4.584467182430081	9.114111	3.0189586
4.602008018865218	8.05693	2.838473
4.619548963189798	7.4162946	2.7232873
4.637090015816834	6.9519296	2.6366513
4.654631177159353	6.6875734	2.5860343
4.672172447630417	6.3441777	2.5187652
4.689713827643102	6.134705	2.4768336
4.7072553176105085	5.928249	2.4347997
4.724796917945764	5.887852	2.4264896
4.742338629062015	5.9109554	2.4312456
4.759880451372434	5.8264866	2.4138117
4.777422385290215	5.7199683	2.3916454
4.794964431228581	5.6308403	2.372939
4.812506589600768	5.629935	2.3727484
4.830048860820047	5.6248693	2.3716807
4.847591245299709	5.660287	2.3791358
4.8651337434530655	5.7091823	2.3893895
4.882676355693457	5.696557	2.3867462
4.900219082434242	5.692344	2.3858633
4.917761924088813	5.563171	2.3586376
4.935304881070575	5.6054406	2.3675811
4.952847953792969	5.6053677	2.3675659
4.970391142669449	5.555968	2.35711
4.9879344481135055	5.4945536	2.3440464
5.005477870538642	5.365502	2.3163552
5.023021410358394	5.426551	2.329496
5.040565067986324	5.4248366	2.3291278
5.05810884383601	5.465491	2.337839
5.075652738321066	5.366279	2.316523
5.09319675185512	5.3490586	2.3128033
5.110740884851836	5.3445606	2.3118305
5.128285137724894	5.3749595	2.3183959
5.145829510888007	5.28426	2.2987518
5.163374004754908	5.2260475	2.286055
5.1809186197393595	5.2268662	2.2862341
5.198463356255145	5.330544	2.3087971
5.216008214716077	5.375843	2.3185863
5.233553195535998	5.32687	2.3080013
5.251098299128764	5.2721004	2.2961054
5.268643525908272	5.2898927	2.2999766
5.286188876288432	5.28202	2.2982645
5.3037343506831895	5.2798777	2.2977984
5.32127994950651	5.2134037	2.283288
5.3388256731723915	5.2592244	2.2933
5.356371522094851	5.287444	2.2994442
5.373917496687938	5.334623	2.3096802
5.391463597365729	5.2345643	2.2879171
5.40900982454232	5.1618085	2.2719615
5.426556178631843	5.1745834	2.274771
5.444102660048449	5.2214212	2.285043
5.4616492692063225	5.282109	2.2982838
5.479196006519669	5.2468185	2.2905934
5.496742872402727	5.1897526	2.2781029
5.514289867269756	5.130898	2.2651486
5.531836991535049	5.146896	2.2686772
5.549384245612924	5.1139445	2.2614033
5.566931629917724	5.1341395	2.265864
5.584479144863822	5.159182	2.2713833
5.6020267908656205	5.19459	2.2791643
5.619574568337545	5.1913424	2.2784517
5.637122477694054	5.150605	2.2694945
5.654670519349629	5.1308255	2.2651327
5.672218693718784	5.128084	2.2645273
5.689767001216059	5.119185	2.2625616
5.707315442256021	5.1114025	2.2608411
5.724864017253266	5.088935	2.2558668
5.7424127266224225	5.049575	2.2471259
5.75996157077814	4.968114	2.2289267
5.777510550135105	4.9586186	2.2267957
5.795059665108022	4.9821296	2.2320685
5.812608916111639	5.056714	2.248714
5.830158303560715	5.223533	2.285505
5.847707827870055	5.214429	2.2835124
5.86525748945448	5.3767076	2.3187728
5.8828072887288485	5.581286	2.3624744
5.900357226108044	5.7613363	2.4002783
5.917907302006979	5.8413334	2.4168851
5.9354575168406	6.457972	2.541254
5.9530078710238765	7.0549436	2.6561143
5.970558364971812	7.4929705	2.737329
5.988108999099438	7.6953635	2.774052
6.005659773821818	8.225928	2.868088
6.023210689554039	7.9891653	2.8265111
6.040761746711227	8.501584	2.9157476
6.058312945708531	7.8443274	2.8007727
6.075864286961132	7.348875	2.7108808
6.093415770884244	6.725151	2.5932896
6.1109673978931065	6.2297106	2.4959388
6.128519168402993	5.5785155	2.3618882
6.146071082829204	5.5036154	2.3459785
6.163623141587075	5.342268	2.3113346
6.181175345091969	5.262516	2.2940176
6.198727693759281	5.148428	2.2690148
6.216280188004435	5.1445885	2.2681684
6.233832828242885	5.1582355	2.271175
6.251385614890126	5.1949835	2.2792506
6.268938548361669	5.1177692	2.2622488
6.286491629073067	5.037588	2.2444572
6.304044857439898	5.122349	2.2632606
6.321598233877777	5.0584326	2.249096
6.339151758802344	5.059609	2.2493575
6.356705432629277	4.973339	2.2300985
6.37425925577428	4.945204	2.2237813
6.391813228653095	4.960845	2.2272954
6.409367351681486	5.0715904	2.2520192
6.426921625275259	5.1262894	2.264131
6.44447604985025	5.1387796	2.2668877
6.46203062582232	5.105684	2.259576
6.47958535360737	5.143155	2.2678525
6.497140233621328	5.122523	2.263299
6.514695266280161	5.097946	2.2578633
6.532250451999859	5.0125217	2.238866
6.549805791196454	5.004826	2.2371469
6.567361284286002	5.00486	2.2371545
6.584916931684597	5.0519567	2.2476559
6.602472733808367	5.0319266	2.2431955
6.6200286910734665	5.0377364	2.2444901
6.637584803896092	5.004372	2.2370453
6.655141072692462	4.956833	2.2263947
6.672697497878842	4.9330616	2.2210495
6.690254079871514	4.932748	2.220979
6.707810819086808	4.9355445	2.2216086
6.725367715941078	4.977601	2.2310538
6.742924770850719	5.009342	2.238156
6.760481984232151	5.014522	2.239313
6.778039356501836	5.012042	2.238759
6.795596888076266	5.06339	2.2501976
6.813154579371963	5.1204405	2.262839
6.830712430805492	5.157816	2.2710826
6.84827044279344	5.1435313	2.2679355
6.865828615752445	5.059641	2.2493646
6.883386950099159	5.055056	2.2483451
6.900945446250287	5.040065	2.245009
6.918504104622553	5.074417	2.2526467
6.936062925632727	5.1121435	2.261005
6.953621909697607	5.1305017	2.2650611
6.971181057234028	5.181642	2.2763221
6.988740368658859	5.28521	2.2989585
7.006299844389007	5.3828964	2.320107
7.023859484841407	5.3831635	2.3201644
7.041419290433036	5.36945	2.3172073
7.058979261580902	5.4170585	2.3274574
7.0765393987020495	5.592053	2.3647523
7.094099702213559	5.976826	2.4447548
7.111660172532549	6.3610687	2.522116
7.129220810076164	6.749397	2.5979602
7.146781615261595	7.30574	2.7029133
7.16434258850606	7.5245094	2.743084
7.181903730226821	7.8626447	2.8040407
7.1994650408411704	8.016471	2.8313372
7.217026520766437	8.207637	2.8648973
7.234588170419983	8.440037	2.9051743
7.252149990219215	8.402526	2.898711
7.269711980581568	8.265103	2.8749092
7.2872741419245175	8.131395	2.85156
7.304836474665574	7.7513633	2.784127
7.322398979222286	7.3987327	2.720061
7.339961656012233	7.1791334	2.6793904
7.357524505453039	6.8867364	2.6242592
7.375087527962357	6.658584	2.5804234
7.392650723957886	6.346574	2.5192406
7.410214093857353	6.0243526	2.4544556
7.427777638078528	5.829876	2.4145136
7.445341357039213	5.602361	2.3669307
7.4629052511572525	5.386048	2.320786
7.480469320850524	5.2945805	2.3009956
7.498033566536948	5.286416	2.2992208
7.5155979886344735	5.2511134	2.2915308
7.5331625875610975	5.171064	2.2739973
7.550727363734844	5.117505	2.2621903
7.568292317573788	5.1424108	2.2676885
7.585857449496025	5.205739	2.2816088
7.603422759919705	5.2806983	2.297977
7.620988249263007	5.2652335	2.2946095
7.638553917944147	5.2752285	2.2967865
7.656119766381391	5.212142	2.2830117
7.673685794993023	5.2119975	2.28298
7.691252004197388	5.220984	2.2849472
7.70881839441285	5.2389393	2.288873
7.726384966057826	5.297085	2.3015397
7.743951719550762	5.310303	2.3044095
7.761518655310149	5.3778286	2.3190145
7.779085773754511	5.394366	2.3225775
7.796653075302419	5.4107795	2.3261082
7.814220560372475	5.3494296	2.3128834
7.831788229383323	5.358338	2.3148084
7.8493560827536495	5.3215666	2.306852
7.866924120902174	5.3203673	2.3065922
7.884492344247663	5.346127	2.3121693
7.9020607532089135	5.357838	2.3147004
7.919629348204771	5.355585	2.3142138
7.937198129654115	5.3073874	2.3037767
7.954767097975865	5.2456856	2.2903461
7.972336253588986	5.2824693	2.2983623
7.989905596912472	5.3918266	2.3220308
8.007475128365371	5.445992	2.333665
8.025044848366756	5.4655776	2.3378575
8.042614757335754	5.5335083	2.352341
8.060184855691523	5.639033	2.3746648
8.07775514385327	5.795017	2.407284
8.095325622240228	5.9454765	2.4383347
8.112896291271687	5.965706	2.4424794
8.130467151366968	5.9208674	2.4332833
8.148038202945436	5.9082627	2.4306917
8.165609446426497	5.895495	2.428064
8.183180882229594	6.0149217	2.4525337
8.200752510774217	6.0466595	2.4589956
8.218324332479893	6.099817	2.4697807
8.235896347766193	6.0827885	2.466331
8.253468557052724	6.077007	2.4651585
8.27104096075914	6.0635133	2.4624202
8.288613559305137	6.077132	2.465184
8.306186353110448	6.135077	2.4769087
8.32375934259485	6.2180023	2.4935923
8.341332528178162	6.248896	2.4997792
8.358905910280246	6.3046484	2.510906
8.376479489321003	6.2640285	2.502804
8.394053265720377	6.324408	2.5148375
8.411627239898356	6.2574635	2.5014923
8.42920141227497	6.2163687	2.4932647
8.44677578327029	6.212901	2.4925692
8.464350353304427	6.1965923	2.4892955
8.48192512279754	6.242054	2.4984102
8.499500092169827	6.247724	2.4995449
8.51707526184153	6.2313466	2.4962666
8.534650632232934	6.191691	2.4883108
8.552226203764365	6.179738	2.4859078
8.569801976856192	6.21029	2.4920454
8.587377951928834	6.286397	2.507269
8.60495412940274	6.336161	2.5171733
8.622530509698416	6.346404	2.519207
8.6401070932364	6.4337177	2.5364773
8.657683880437283	6.488925	2.5473368
8.675260871721695	6.612681	2.5715134
8.692838067510303	6.8005786	2.607792
8.710415468223834	6.9412193	2.6346195
8.727993074283043	7.1504836	2.674039
8.745570886108737	7.1371593	2.6715462
8.763148904121765	7.186862	2.6808324
8.78072712874302	7.2566795	2.6938224
8.798305560393441	7.471527	2.7334094
8.815884199494006	7.5103827	2.7405078
8.833463046465745	7.5951276	2.755926
8.851042101729728	7.683122	2.7718446
8.86862136570707	8.052468	2.8376873
8.886200838818924	8.298739	2.8807533
8.903780521486505	8.444508	2.9059434
8.921360414131055	8.506281	2.916553
8.938940517173874	8.573419	2.92804
8.956520831036297	8.734785	2.955467
8.97410135613971	8.9932575	2.998876
8.99168209290554	9.235486	3.0389943
9.009263041755265	9.505132	3.0830393
9.026844203110405	9.643213	3.1053524
9.044425577392525	9.784356	3.1279955
9.062007165023239	9.864271	3.1407437
9.079588966424197	10.189441	3.1920903
9.097170982017108	10.346719	3.2166317
9.11475321222372	11.372384	3.3722966
9.132335657465825	12.379225	3.5184124
9.149918318165264	12.474644	3.5319462
9.167501194743924	13.021476	3.6085281
9.18508428762374	12.682743	3.5612838
9.202667597226693	12.643779	3.5558093
9.220251123974803	12.382825	3.5189238
9.237834868290143	12.028092	3.468154
9.255418830594836	11.827558	3.4391217
9.273003011311046	11.285116	3.3593328
9.290587410860985	11.168819	3.3419783
9.308172029666911	10.64768	3.2630785
9.32575686815113	10.355436	3.2179863
9.343341926735997	9.014347	3.0023901
9.360927205843916	8.681365	2.9464157
9.378512705897327	8.367982	2.8927464
9.396098427318728	8.127674	2.8509076
9.413684370530664	8.095008	2.8451726
9.431270535955722	8.028224	2.8334122
9.448856924016539	7.8704658	2.805435
9.466443535135806	7.7092667	2.7765567
9.484030369736251	7.704178	2.77564
9.501617428240658	7.8090205	2.7944624
9.519204711071852	7.7921953	2.7914505
9.536792218652714	7.792653	2.7915323
9.55437995140617	7.8080635	2.7942913
9.571967909755191	7.898872	2.8104932
9.589556094122802	7.940399	2.8178713
9.60714450493207	7.9802556	2.8249347
9.624733142606116	8.019463	2.8318655
9.642322007568108	8.085147	2.8434393
9.659911100241267	8.093024	2.844824
9.677500421048851	8.117006	2.849036
9.695089970414175	8.169911	2.8583057
9.712679748760609	8.137873	2.8526957
9.730269756511557	8.152111	2.8551903
9.747859994090492	8.200658	2.8636792
9.765450461920915	8.205262	2.8644829
9.78304116042639	8.198535	2.8633084
9.800632090030527	8.1997175	2.863515
9.81822325115699	8.218257	2.8667502
9.835814644229481	8.222515	2.867493
9.853406269671762	8.202219	2.8639517
9.870998127907646	8.144657	2.8538845
9.888590219360985	8.187858	2.8614433
9.906182544455698	8.154521	2.8556123
9.923775103615734	8.2890415	2.8790696
9.941367897265108	8.284607	2.8782992
9.958960925827878	8.292305	2.8796363
9.97655418972816	8.232187	2.8691788
9.994147689390106	8.21639	2.8664246
10.011741425237934	8.220453	2.8671334
10.029335397695904	8.272842	2.876255
10.04692960718833	8.280632	2.8776088
10.06452405413958	8.340945	2.8880694
10.082118738974064	8.258303	2.8737264
10.099713662116246	8.263487	2.874628
10.117308823990651	8.306107	2.8820317
10.134904225021844	8.307674	2.8823037
10.152499865634445	8.245436	2.8714867
10.170095746253125	8.245579	2.8715117
10.18769186730261	8.230729	2.8689246
10.205288229207675	8.29359	2.8798592
10.222884832393145	8.276058	2.876814
10.2404816772839	8.227234	2.8683155
10.258078764304868	8.244028	2.8712416
10.275676093881035	8.129157	2.8511677
10.293273666437438	8.131325	2.8515477
10.310871482399158	8.127635	2.8509007
10.32846954219134	8.112198	2.848192
10.346067846239173	8.118253	2.8492548
10.363666394967908	8.172004	2.8586717
10.38126518880283	8.242867	2.8710394
10.398864228169298	8.331871	2.886498
10.416463513492713	8.332986	2.886691
10.434063045198531	8.260367	2.8740854
10.451662823712262	8.201962	2.8639069
10.469262849459467	8.189675	2.8617609
10.486863122865758	8.153369	2.8554106
10.504463644356806	8.169915	2.8583064
10.522064414358338	8.106097	2.8471208
10.539665433296118	8.027822	2.8333411
10.557266701595987	7.970463	2.8232007
10.574868219683818	7.8601127	2.8035893
10.592469987985552	7.764396	2.7864666
10.610072006927185	7.6233015	2.7610326
10.627674276934751	7.556453	2.7489004
10.64527679843435	7.4203696	2.7240355
10.662879571852143	7.3599634	2.7129252
10.680482597614331	7.253377	2.6932094
10.698085876147173	7.063185	2.6576653
10.715689407876988	6.90497	2.627731
10.733293193230146	6.7706594	2.602049
10.750897232633072	6.760242	2.6000466
10.76850152651225	6.7208824	2.5924664
10.786106075294207	6.6864867	2.5858243
10.803710879405534	6.603738	2.569774
10.821315939272877	6.4903293	2.5476124
10.83892125532294	6.4851627	2.5465982
10.856526827982472	6.3834977	2.5265584
10.874132657678285	6.3923798	2.5283155
10.891738744837243	6.3131375	2.512596
10.909345089886271	6.272909	2.5045776
10.926951693252343	6.134785	2.4768498
10.944558555362494	6.039989	2.457639
10.96216567664381	6.0116825	2.4518733
10.979773057523436	5.9489684	2.4390507
10.997380698428573	5.8647304	2.4217205
11.014988599786477	5.7229557	2.39227
11.032596762024461	5.6831503	2.383936
11.050205185569892	5.693703	2.3861482
11.067813870850198	5.714547	2.390512
11.085422818292859	5.6684976	2.3808606
11.10303202832541	5.5434303	2.354449
11.120641501375454	5.4727764	2.3393965
11.138251237870636	5.423512	2.3288436
11.155861238238671	5.420131	2.3281176
11.173471502907317	5.3444986	2.3118172
11.191082032304402	5.2394495	2.2889843
11.208692826857805	5.141633	2.2675169
11.226303886995465	5.041835	2.245403
11.243915213145371	5.0114527	2.2386274
11.261526805735578	4.9796104	2.231504
11.279138665194196	4.925108	2.2192583
11.296750791949393	4.8868	2.2106106
11.314363186429393	4.79588	2.1899498
11.331975849062479	4.8027797	2.1915245
11.34958878027699	4.7076616	2.1697147
11.36720198050133	4.6308107	2.1519318
11.384815450163948	4.5563173	2.1345532
11.402429189693366	4.5307636	2.128559
11.420043199518153	4.507537	2.123096
11.437657480066942	63.514133	7.9695754
11.455272031768422	85.2063	9.230726
11.472886855051353	107.54525	10.370402
11.490501950344528	99.16009	9.957916
11.508117318076819	84.542206	9.194684
11.52573295867715	45.961723	6.7795076
11.543348872574514	4.2667713	2.0656164
11.560965060197946	4.2038546	2.0503304
11.57858152197655	4.1473002	2.036492
11.59619825833949	4.1064982	2.0264497
11.613815269715985	4.1078577	2.0267851
11.631432556535323	38.640854	6.216177
11.649050119226837	83.14069	9.118152
11.666667958219929	93.44253	9.666568
11.68428607394406	107.648315	10.375371
11.701904466828756	82.48399	9.08207
11.719523137303586	65.371666	8.085275
11.737142085798196	4.6581903	2.1582842
11.754761312742286	3.781765	1.944676
11.772380818565619	3.7840211	1.9452561
11.790000603698015	3.7104032	1.9262407
11.80762066856935	3.6427698	1.9086041
11.825241013609572	3.5357277	1.8803531
11.842861639248683	3.49008	1.8681756
11.860482545916748	3.4829247	1.8662596
11.878103734043883	3.4779127	1.8649162
11.895725204060282	3.423737	1.8503343
11.91334695639619	3.3831682	1.839339
11.930968991481919	3.3699856	1.835752
11.948591309747824	3.3347173	1.8261209
11.966213911624347	3.3396802	1.8274792
11.98383679754198	3.3181567	1.8215809
12.001459967931268	3.3450816	1.8289564
12.019083423222835	3.2695792	1.8081977
12.036707163847352	3.263622	1.8065498
12.05433119023556	3.25166	1.803236
12.071955502818259	3.2533488	1.8037041
12.089580102026313	3.2559538	1.8044262
12.107204988290643	3.2302926	1.7973014
12.12483016204224	3.2235312	1.7954196
12.142455623712152	3.2104723	1.791779
12.16008137373149	3.187154	1.7852602
12.177707412531431	3.1339295	1.7702909
12.19533374054321	3.1012707	1.7610425
12.212960358198126	3.0689173	1.7518326
12.230587265927545	3.0702968	1.7522262
12.248214464162889	3.050177	1.7464756
12.265841953335649	3.042982	1.7444146
12.283469733877375	3.0029154	1.7328922
12.301097806219685	2.972961	1.7242277
12.31872617079425	2.956581	1.7194712
12.336354828032825	2.9627008	1.7212498
12.353983778367205	2.95116	1.7178941
12.371613022229262	2.9638844	1.7215935
12.389242560050928	2.9511487	1.7178907
12.406872392264201	2.9935207	1.7301794
12.424502519301143	2.965175	1.7219683
12.442132941593874	2.967602	1.7226729
12.459763659574586	2.9192	1.7085667
12.477394673675532	2.9220421	1.7093982
12.49502598432903	2.8784232	1.6965916
12.51265759196746	2.8543406	1.6894794
12.530289497023267	2.84222	1.6858885
12.547921699928967	2.828456	1.6818014
12.565554201117134	2.8181207	1.678726
12.583187001020404	2.8184443	1.6788223
12.600820100071486	2.7823362	1.6680336
12.618453498703152	2.7885423	1.6698929
12.636087197348235	2.7919974	1.6709272
12.65372119643964	2.7827673	1.6681628
12.671355496410326	2.770665	1.6645315
12.68899009769333	2.7530577	1.659234
12.706625000721749	2.7874146	1.6695552
12.724260205928752	2.8808851	1.697317
12.741895713747551	2.9696517	1.7232678
12.759531524611454	3.0531404	1.7473238
12.777167638953818	3.020354	1.7379166
12.794804057208072	2.9836423	1.7273223
12.812440779807702	3.0174892	1.7370921
12.830077807186271	3.2328026	1.7979996
12.847715139777405	3.3041675	1.8177369
12.865352778014795	3.5374973	1.8808236
12.882990722332197	3.6727145	1.9164327
12.90062897316344	3.7593443	1.9389029
12.918267530942412	3.8174639	1.9538331
12.935906396103071	3.6890454	1.9206887
12.953545569079449	3.8234515	1.9553648
12.971185050305628	3.6413841	1.9082412
12.988824840215775	3.6282425	1.9047946
13.006464939244115	3.622827	1.9033725
13.024105347824943	3.4776378	1.8648425
13.041746066392617	3.5670793	1.8886713
13.05938709538157	3.3800828	1.8385001
13.077028435226296	3.3756597	1.8372968
13.094670086361363	3.2811098	1.8113834
13.112312049221401	3.1839933	1.7843748
13.129954324241112	3.049993	1.7464229
13.147596911855258	2.8469899	1.6873026
13.165239812498685	2.8415513	1.6856902
13.182883026606293	2.7956462	1.6720186
13.200526554613058	2.7534325	1.659347
13.218170396954017	2.6913066	1.6405202
13.235814554064284	2.678052	1.6364754
13.253459026379034	2.647762	1.6271945
13.271103814333523	2.633297	1.6227436
13.288748918363058	2.6649318	1.6324619
13.306394338903031	2.7188816	1.6489031
13.32404007638889	2.739635	1.6551843
13.341686131256164	2.7407787	1.6555297
13.359332503940449	2.710133	1.6462482
13.376979194877402	2.7025251	1.6439359
13.394626204502751	2.7253354	1.650859
13.412273533252307	2.7363596	1.6541946
13.429921181561937	2.7157257	1.6479459
13.447569149867581	2.708086	1.6456263
13.465217438605247	2.673984	1.6352321
13.482866048211022	2.6569324	1.6300099
13.500514979121052	2.691993	1.6407294
13.518164231771568	2.6813767	1.637491
13.535813806598844	2.7044888	1.644533
13.553463704039254	2.7180774	1.6486592
13.571113924529229	2.717964	1.6486249
13.588764468505275	2.7424698	1.6560404
13.606415336403956	2.7412665	1.6556771
13.624066528661917	2.77056	1.6644999
13.641718045715882	2.8292098	1.6820256
13.659369888002635	2.8857725	1.6987561
13.67702205595903	2.9536018	1.7186046
13.694674550021993	3.0257323	1.7394632
13.712327370628532	3.0997977	1.7606243
13.729980518215713	3.1861587	1.7849814
13.747633993220681	3.2264273	1.7962259
13.765287796080647	3.2680793	1.807783
13.7829419272329	3.3192894	1.8218917
13.800596387114801	3.3748298	1.837071
13.818251176163775	3.4150178	1.8479767
13.835906294817324	3.4280722	1.8515054
13.853561743513023	3.452427	1.8580707
13.871217522688525	3.5041714	1.8719432
13.888873632781538	3.542434	1.8821355
13.906530074229858	3.5782442	1.8916248
13.92418684747135	3.5756576	1.8909409
13.941843952943948	3.5813534	1.8924464
13.959501391085665	3.5514786	1.8845367
13.977159162334578	3.4693398	1.8626164
13.994817267128846	3.4039795	1.8449876
14.012475705906693	3.2778704	1.810489
14.030134479106424	3.1706874	1.7806424
14.047793587166414	3.1012468	1.7610357
14.065453030525108	3.0748303	1.7535194
14.083112809621026	3.0196836	1.7377237
14.100772924892766	2.9710832	1.723683
14.118433376778997	2.873931	1.6952672
14.136094165718458	2.8262465	1.6811444
14.153755292149969	2.7609043	1.6615969
14.171416756512416	2.6996617	1.6430647
14.189078559244768	2.691882	1.6406956
14.20674070078606	2.6249702	1.620176
14.224403181575408	2.5836098	1.6073611
14.242066002051999	2.543915	1.5949656
14.259729162655093	2.5241582	1.58876
14.277392663824022	2.5342019	1.5919176
14.295056505998208	2.4891186	1.577694
14.312720689617128	2.4580927	1.5678306
14.330385215120348	2.3897834	1.5458925
14.348050082947497	2.380337	1.542834
14.3657152935383	2.393057	1.5469509
14.383380847332528	2.3885322	1.5454876
14.401046744770051	2.4104514	1.5525628
14.418712986290798	2.3967159	1.548133
14.436379572334793	2.411507	1.5529027
14.454046503342123	2.4422371	1.5627658
14.471713779752946	2.4376168	1.5612869
14.489381402007504	2.4031796	1.5502192
14.507049370546113	2.360042	1.5362428
14.524717685809168	2.3487895	1.5325761
14.542386348237134	2.3596725	1.5361226
14.560055358270553	2.3666759	1.5384004
14.577724716350051	2.418241	1.5550694
14.595394422916325	2.4563158	1.5672637
14.61306447841015	2.510584	1.5844823
14.63073488327237	2.5050223	1.5827262
14.648405637943917	2.5014408	1.5815943
14.6660767428658	2.4605725	1.5686212
14.683748198479094	2.4926603	1.578816
14.701420005224954	2.5726259	1.6039407
14.719092163544628	2.6656642	1.6326861
14.73676467387942	2.6636605	1.6320724
14.754437536670727	2.6665819	1.6329672
14.772110752360014	2.6669273	1.633073
14.78978432138882	2.6591232	1.6306819
14.807458244198777	2.656345	1.6298298
14.82513252123159	2.6562214	1.6297919
14.842807152929028	2.6725123	1.6347821
14.860482139732962	2.6558135	1.6296667
14.87815748208531	2.6713505	1.6344266
14.8958331804281	2.7020056	1.6437778
14.91350923520342	2.6778162	1.6364034
14.931185646853438	2.6672316	1.6331661
14.948862415820408	2.6149087	1.6170679
14.966539542546656	2.5957587	1.6111358
14.98421702747459	2.5595374	1.5998554
15.001894871046696	2.584629	1.6076782
15.019573073705542	2.6002142	1.612518
15.037251635893766	2.6294372	1.6215539
15.054930558054092	2.6655881	1.6326629
15.072609840629323	2.7198443	1.6491951
15.090289484062351	2.828377	1.681778
15.107969488796124	3.096455	1.7596747
15.125649855273691	3.4244537	1.850528
15.14333058393817	3.9527519	1.9881529
15.161011675232768	4.992314	2.2343485
15.17869312960076	6.4097586	2.5317502
15.196374947485506	8.291861	2.879559
15.214057129330447	11.4059925	3.377276
15.231739675579114	16.238668	4.029723
15.249422586675102	21.416517	4.627798
15.267105863062092	24.627604	4.9626207
15.284789505183847	24.970127	4.9970117
15.302473513484218	22.848536	4.780014
15.320157888407127	19.283834	4.3913364
15.337842630396578	15.040119	3.8781593
15.355527739896656	11.7286415	3.4247105
15.37321321735153	9.113243	3.0188148
15.39089906320545	6.5962567	2.568318
15.408585277902748	4.8949037	2.2124429
15.42627186188783	3.7188299	1.9284267
15.443958815605198	3.1638062	1.7787092
15.461646139499424	2.9260278	1.7105635
15.479333834015168	2.769794	1.6642698
15.497021899597165	2.7225373	1.6500113
15.514710336690234	2.651516	1.6283476
15.53239914573928	2.6064584	1.614453
15.550088327189297	2.5522044	1.597562
15.567777881485336	2.5162039	1.5862547
15.58546780907256	2.4906018	1.5781641
15.6031581103962	2.5027306	1.582002
15.620848785901568	2.5021636	1.5818229
15.638539836034063	2.4810748	1.5751427
15.656231261239173	2.459192	1.5681812
15.673923061962451	2.448162	1.5646604
15.691615238649552	2.4762025	1.5735954
15.709307791746202	2.4680996	1.5710187
15.727000721698221	2.4734435	1.5727185
15.744694028951498	2.4826577	1.5756452
15.76238771395202	2.4424553	1.5628357
15.780081777145844	2.4124014	1.5531907
15.797776218979125	2.3498037	1.5329069
15.815471039898094	2.3545904	1.5344675
15.833166240349064	2.3496072	1.5328429
15.850861820778437	2.3536232	1.5341523
15.868557781632699	2.3471923	1.5320549
15.886254123358412	2.3818173	1.5433137
15.903950846402232	2.4038284	1.5504285
15.921647951210897	2.4143841	1.5538288
15.939345438231225	2.4354095	1.5605799
15.957043307910133	2.4414577	1.5625165
15.974741560694602	2.4623506	1.5691879
15.992440197031714	2.425942	1.5575435
16.01013921736862	2.4115696	1.552923
16.02783862215259	2.4193676	1.5554316
16.045538411830933	2.434291	1.5602214
16.06323858685107	2.3882332	1.545391
16.080939147660512	2.3641102	1.5375663
16.09864009470684	2.3926895	1.5468321
16.11634142843774	2.465206	1.5700974
16.134043149300954	2.4691248	1.5713449
16.15174525774433	2.434022	1.5601352
16.169447754215817	2.3897367	1.5458773
16.18715063916342	2.4159706	1.5543393
16.204853913035244	2.4684925	1.5711437
16.222557576279478	2.5127237	1.5851573
16.240261629344403	22.47945	4.74125
16.257966072678386	43.00578	6.557879
16.275670906729868	38.09006	6.171715
16.293376131947387	2.509612	1.5841755
16.31108174877957	2.5095103	1.5841434
16.328787757675133	2.5815358	1.6067158
16.34649415908287	2.636175	1.6236302
16.364200953451657	2.6961095	1.6419834
16.38190814123048	2.6987312	1.6427815
16.39961572286839	2.6816094	1.637562
16.41732369881455	2.6968126	1.6421975
16.43503206951817	2.7650275	1.6628371
16.45274083542859	2.795529	1.6719835
16.47044999699522	2.8327153	1.6830672
16.488159554667558	2.8739543	1.6952741
16.505869508895184	2.8824654	1.6977825
16.523579860127786	2.8896353	1.6998928
16.541290608815117	2.9173787	1.7080336
16.559001755407035	3.0077343	1.734282
16.57671330035348	3.0317843	1.741202
16.59442524410448	3.1092231	1.763299
16.61213758711015	3.1329489	1.7700138
16.629850329820705	3.2323735	1.7978803
16.647563472686436	3.328407	1.8243922
16.665277016157724	3.4135556	1.847581
16.682990960685053	3.4783728	1.8650396
16.70070530671898	3.4913309	1.8685104
16.718420054710155	3.5454805	1.8829446
16.736135205109335	3.5997832	1.8973094
16.753850758367335	3.654785	1.9117491
16.771566714935087	3.6969101	1.9227351
16.789283075263597	3.7579753	1.9385498
16.80699983980398	3.839277	1.9594073
16.82471700900741	3.8995564	1.9747294
16.84243458332518	3.901218	1.9751501
16.860152563208665	3.948675	1.9871273
16.87787094910932	3.9820974	1.9955193
16.89558974147871	4.0313077	2.0078118
16.913308940768466	4.1378093	2.0341606
16.931028547430333	4.246913	2.060804
16.94874856191613	4.3220916	2.078964
16.966468984677785	4.359819	2.088018
16.98418981616729	4.390962	2.0954623
17.00191105683676	4.4682164	2.1138155
17.019632707138374	4.540248	2.1307857
17.03735476752442	4.5812173	2.1403778
17.05507723844728	4.630317	2.151817
17.072800120359403	4.6277523	2.151221
17.090523413713353	4.6609745	2.158929
17.108247118961785	4.6651044	2.1598852
17.125971236557437	4.7006474	2.1680977
17.143695766953133	4.6932397	2.1663885
17.161420710601806	4.682073	2.1638098
17.179146067956477	4.671104	2.1612737
17.19687183947025	4.7016125	2.1683202
17.21459802559634	4.6817317	2.1637309
17.232324626788028	4.654896	2.1575208
17.25005164349871	4.6540666	2.1573286
17.267779076181863	4.67503	2.1621819
17.285506925291074	4.6545625	2.1574435
17.30323519127999	4.6384377	2.1537032
17.320963874602384	4.594187	2.1434054
17.33869297571211	4.5944757	2.143473
17.356422495063114	4.5749288	2.1389084
17.37415243310944	4.574761	2.138869
17.391882790305218	4.5455723	2.1320348
17.40961356710468	4.521826	2.1264584
17.42734476396215	4.5316086	2.1287575
17.445076381332044	4.520684	2.12619
17.462808419668868	4.568924	2.137504
17.48054087942723	4.665707	2.160025
17.498273761061835	4.992868	2.2344728
17.51600706502747	5.50042	2.3452973
17.533740791779024	6.2221074	2.4944153
17.551474941771485	7.6476884	2.7654455
17.56920951545993	8.802907	2.9669693
17.586944513299528	11.13549	3.3369882
17.60467993574556	12.981975	3.6030507
17.622415783253373	14.812143	3.8486547
17.64015205627843	16.299387	4.03725
17.657888755276293	17.483393	4.181315
17.675625880702604	18.029837	4.2461557
17.69336343301311	17.871061	4.227418
17.71110141266366	16.99013	4.1219087
17.728839820110178	15.921136	3.9901297
17.746578655808705	14.8713	3.8563325
17.764317920215372	13.242654	3.6390457
17.7820576137864	11.560341	3.4000502
17.79979773697811	9.418015	3.0688784
17.81753829024692	7.479311	2.734833
17.835279274049356	5.880541	2.4249825
17.85302068884201	4.8765335	2.2082875
17.870762535081607	4.269049	2.0661678
17.888504813224934	3.9952066	1.9988012
17.90624752372891	3.8392396	1.9593978
17.923990667050536	3.6917672	1.9213972
17.941734243646895	3.6072624	1.8992795
17.959478253975185	3.5084107	1.8730752
17.9772226984927	3.4903977	1.8682606
17.994967577656833	3.4357767	1.8535849
18.01271289192506	3.43555	1.8535236
18.030458641754965	3.4411	1.8550202
18.04820482760425	3.394004	1.8422823
18.06595144993067	3.3459785	1.8292016
18.083698509192125	3.3129907	1.8201623
18.101446005846576	3.2863808	1.8128377
18.119193940352105	3.2956073	1.8153808
18.136942313166887	3.2479258	1.8022002
18.1546911247492	3.230471	1.7973511
18.1724403755574	3.174309	1.781659
18.19019006604997	3.176945	1.7823987
18.207940196685467	3.1593668	1.7774608
18.225690767922575	3.1361363	1.770914
18.243441780220046	3.1395402	1.7718748
18.261193234036764	3.1009586	1.7609539
18.278945129831676	3.0972824	1.7599097
18.29669746806386	3.058273	1.7487919
18.314450249192483	3.0425525	1.7442914
18.3322034736768	3.015992	1.7366612
18.349957141976184	3.050162	1.7464713
18.3677112545501	3.0762513	1.7539245
18.385465811858108	3.1107101	1.7637205
18.403220814359884	3.0838616	1.7560927
18.420976262515172	3.1328518	1.7699864
18.43873215678387	3.1752362	1.7819192
18.456488497625923	3.2090678	1.7913871
18.474245285501407	3.2741508	1.8094615
18.492002520870486	3.3437593	1.8285949
18.50976020419343	3.47477	1.8640735
18.527518335930615	3.715565	1.9275801
18.545276916542516	4.2727375	2.06706
18.563035946489688	4.381523	2.0932088
18.580795426232832	4.8551183	2.2034333
18.598555356232698	4.7353888	2.1760948
18.616315736950185	5.0730057	2.2523334
18.63407656884626	4.7274885	2.1742787
18.65183785238201	4.8787293	2.2087846
18.669599588018617	4.6278877	2.1512525
18.68736177621737	4.669921	2.161
18.705124417439652	4.594802	2.143549
18.72288751214696	4.412361	2.100562
18.740651060800886	4.5712767	2.1380544
18.758415063863115	4.3670535	2.0897496
18.77617952179546	4.4986134	2.1209934
18.793944435059814	4.1952806	2.0482385
18.811709804118184	4.2059746	2.0508473
18.829475629432675	4.210888	2.0520449
18.8472419114655	4.090139	2.0224092
18.86500865067897	4.201282	2.049703
18.88277584753551	3.8737738	1.9681906
18.90054350249763	3.8349395	1.9583001
18.918311616027957	3.5010927	1.8711207
18.936080188589226	3.37377	1.8367825
18.953849220644265	3.0609996	1.7495713
18.971618712656007	2.862099	1.6917739
18.9893886650875	2.8044908	1.6746614
19.007159078401887	7.9894643	2.826564
19.024929953062408	32.894444	5.735368
19.042701289532435	32.86065	5.732421
19.060473088275405	25.412518	5.041083
19.07824534975489	2.6620476	1.6315782
19.096018074434568	2.6443827	1.6261559
19.113791262778197	2.6489577	1.6275619
19.13156491524966	2.6208065	1.6188905
19.149339032312945	2.6268451	1.6207545
19.167113614432136	2.6444213	1.6261677
19.184888662071433	2.6294935	1.6215713
19.202664175695123	2.5749	1.6046494
19.220440155767623	2.5181987	1.5868833
19.238216602753447	2.5122852	1.585019
19.2559935171172	2.5449626	1.5952939
19.27377089932361	2.5943348	1.6106939
19.291548749837514	2.5837014	1.6073896
19.309327069123835	2.5229282	1.5883728
19.32710585764763	2.5178967	1.5867882
19.344885115874032	2.550582	1.5970541
19.362664844268313	2.5704396	1.6032591
19.380445043295822	2.5324697	1.5913736
19.39822571342203	2.4891007	1.5776885
19.41600685511252	2.464434	1.5698515
19.43378846883297	2.483263	1.5758373
19.451570555049173	2.4903038	1.5780697
19.469353114227037	2.5079672	1.5836563
19.48713614683254	2.486561	1.5768833
19.50491965333182	2.4793503	1.5745953
19.52270363419109	2.501359	1.5815685
19.540488089876686	2.5599916	1.5999974
19.55827302085503	2.5442107	1.5950582
19.576058427592674	2.5180452	1.5868349
19.593844310556282	2.5049484	1.5827029
19.611630670212598	2.5169353	1.5864853
19.629417507028506	2.5147562	1.5857983
19.64720482147098	2.5208733	1.5877259
19.6649926140071	2.5177326	1.5867364
19.682780885104084	2.5326493	1.59143
19.70056963522921	2.550447	1.5970119
19.718358864849908	2.5814676	1.6066946
19.7361485744337	2.574511	1.6045283
19.753938764448215	2.5473251	1.5960342
19.771729435361202	2.535355	1.5922798
19.789520587640506	2.5130692	1.5852662
19.807312221754092	2.52255	1.5882537
19.825104338170043	2.5404146	1.5938678
19.842896937356517	2.5467045	1.5958397
19.860690019781824	2.5426264	1.5945615
19.87848358591436	2.5638256	1.6011951
19.896277636222635	2.5641851	1.6013073
19.914072171175278	2.5424433	1.5945041
19.931867191241015	2.5238266	1.5886556
19.94966269688869	2.5030224	1.5820943
19.967458688587264	2.4686978	1.5712091
19.985255166805807	2.4790142	1.5744885
20.00305213201348	2.5066526	1.5832412
20.020849584679578	2.4897153	1.5778831
20.038647525273507	2.472763	1.5725021
20.05644595426477	2.4747038	1.5731192
20.07424487212299	2.468152	1.5710354
20.092044279317903	2.431803	1.5594239
20.109844176319353	2.3795302	1.5425726
20.127644563597304	2.3849013	1.5443126
20.145445441621817	2.4150796	1.5540526
20.16324681086307	2.4623857	1.5691991
20.181048671791373	2.4326987	1.5597111
20.198851024877122	2.4234035	1.5567285
20.216653870590836	2.4309657	1.5591555
20.234457209403146	2.4451425	1.5636952
20.252261041784802	2.3994408	1.5490128
20.270065368206662	2.35017	1.5330263
20.287870189139685	2.3634455	1.5373502
20.305675505054968	2.392855	1.5468856
20.323481316423702	2.4054465	1.5509502
20.341287623717207	2.384816	1.5442849
20.359094427406884	2.381526	1.5432193
20.376901727964288	2.3871167	1.5450296
20.39470952586107	2.3810365	1.5430608
20.41251782156899	2.352212	1.5336922
20.430326615559935	2.3594224	1.5360411
20.448135908305886	2.3648422	1.5378044
20.465945700278965	2.3711982	1.5398695
20.483755991951384	2.3426852	1.5305833
20.50156678379548	2.3399475	1.5296887
20.519378076283708	2.3384528	1.5292001
20.537189869888635	2.3349893	1.5280672
20.55500216508294	2.35382	1.5342164
20.572814962339415	2.3591774	1.5359614
20.59062826213098	2.382348	1.5434856
20.60844206493066	2.3447886	1.5312703
20.626256371211593	2.3016102	1.5171058
20.644071181447032	2.3019993	1.5172341
20.66188649611036	2.3262482	1.5252043
20.67970231567506	2.3322394	1.5271671
20.697518640614742	2.3317757	1.5270153
20.715335471403122	2.3344724	1.5278981
20.73315280851404	2.331938	1.5270685
20.750970652421447	2.333358	1.5275333
20.768789003599412	2.3189251	1.5228018
20.786607862522136	2.320356	1.5232714
20.8044272296639	2.3303425	1.526546
20.82224710549913	2.3028984	1.5175303
20.84006749050237	2.3063283	1.5186601
20.857888385148268	3.8618546	1.9651601
20.8757097899116	45.96231	6.779551
20.893531705267254	64.792946	8.049407
20.911354131690224	83.81421	9.15501
20.92917706965566	69.095245	8.312355
20.94700051963877	50.169605	7.0830507
20.96482448211493	29.44088	5.4259453
20.982648957559622	4.1811337	2.0447822
21.00047394644843	2.2764225	1.5087818
21.01829944925707	2.2099352	1.486585
21.036125466461375	2.2106206	1.4868156
21.053951998537297	2.2252378	1.4917231
21.071779045960906	2.2353349	1.4951036
21.089606609208378	2.2422001	1.4973978
21.10743468875603	2.264444	1.504807
21.12526328508028	2.2614944	1.5038266
21.143092398657675	2.2631197	1.5043669
21.16092202996488	2.253057	1.5010186
21.17875217947867	2.2486184	1.4995394
21.19658284767596	2.2447152	1.4982374
21.21441403503377	2.2124612	1.4874344
21.232245742029225	2.1909578	1.4801884
21.2500779691396	2.1753194	1.4748964
21.26791071684227	2.1743088	1.4745537
21.28574398561475	2.1567514	1.4685882
21.30357777593465	2.1370683	1.4618715
21.321412088279704	2.1792693	1.4762348
21.339246923127792	2.201272	1.4836684
21.357082280956888	2.2012916	1.483675
21.3749181622451	2.177146	1.4755155
21.392754567470647	2.1801507	1.4765334
21.41059149711187	2.174854	1.4747386
21.42842895164726	2.154099	1.4676849
21.446266931555378	2.1387248	1.462438
21.464105437314945	2.1007962	1.4494123
21.481944469404798	2.1220007	1.4567089
21.49978402830388	2.1375718	1.4620438
21.51762411449127	2.1789324	1.4761207
21.53546472844617	2.158795	1.4692839
21.553305870647876	2.1122103	1.4533445
21.571147541575865	2.0615175	1.4357985
21.58898974170967	2.0603576	1.4353945
21.60683247152899	2.0615425	1.4358072
21.62467573151363	2.076917	1.4411513
21.642519522143523	2.08426	1.4436966
21.660363843898722	2.0913694	1.4461567
21.6782086972594	2.0937788	1.4469895
21.696054082705864	2.0785475	1.4417169
21.713900000718535	2.0737252	1.4400434
21.73174645177795	2.0508404	1.4320755
21.749593436364794	2.0479116	1.4310527
21.767440954959845	2.0499258	1.4317561
21.785289008044032	2.0488732	1.4313885
21.803137596098388	2.0329592	1.4258188
21.820986719604086	2.0330427	1.425848
21.838836379042412	2.01997	1.4212564
21.85668657489478	2.0404098	1.4284291
21.87453730764273	2.0226207	1.4221886
21.892388577767914	2.0393293	1.4280509
21.91024038575213	2.057534	1.4344107
21.928092732077285	2.0214052	1.4217613
21.945945617225426	2.006445	1.4164903
21.963799041678694	2.0084124	1.4171847
21.981653005919398	31.348135	5.5989404
21.999507510429943	78.16682	8.8412
22.01736255569286	73.11489	8.550725
22.035218142190818	4.1764336	2.0436325
22.05307427040661	1.969456	1.4033731
22.07093094082315	1.9459852	1.3949857
22.088788153923474	1.9519565	1.3971244
22.106645910190746	1.9555223	1.3984
22.12450421010827	1.9757566	1.4056162
22.142363054159464	1.9987204	1.4137611
22.16022244282787	2.0237	1.4225681
22.178082376597164	2.0322154	1.4255579
22.195942855951145	2.0442312	1.4297662
22.213803881373742	2.020365	1.4213954
22.231665453349002	1.9916668	1.4112643
22.24952757236111	1.9760734	1.4057288
22.26739023889438	1.9731318	1.404682
22.28525345343323	1.9596612	1.399879
22.30311721646225	1.9697195	1.4034669
22.320981528466113	1.9789202	1.406741
22.33884638992964	1.9719305	1.4042544
22.356711801337788	1.9376605	1.3919988
22.37457776317561	1.9361273	1.3914479
22.392444275928337	1.9873099	1.4097198
22.410311340081282	1.9666256	1.4023643
22.428178956119904	1.9715071	1.4041036
22.446047124529805	1.9851673	1.4089596
22.46391584579669	1.9862992	1.4093612
22.481785120406414	1.9364469	1.3915627
22.49965494884496	1.9226894	1.3866107
22.51752533159841	1.8989406	1.3780205
22.53539626915302	1.922953	1.3867058
22.553267761995137	1.9494005	1.3962094
22.571139810611264	1.9905293	1.4108611
22.589012415488025	1.977573	1.406262
22.60688557711216	1.9579697	1.3992747
22.624759295970566	1.9008094	1.3786985
22.642633572550263	1.9004017	1.3785505
22.660508407338362	1.9273028	1.3882734
22.67838380082217	1.9682927	1.4029585
22.696259753489077	1.9231709	1.3867844
22.714136265826614	1.9233454	1.3868473
22.73201333832246	1.9011165	1.3788098
22.74989097146439	1.9368211	1.3916972
22.76776916574035	1.9127718	1.3830299
22.785647921638393	1.8925709	1.3757074
22.803527239646712	1.885691	1.3732047
22.82140712025363	1.8814633	1.3716644
22.839287563947593	1.8810166	1.3715016
22.85716857121719	1.8276846	1.3519188
22.875050142551135	1.8128123	1.3464072
22.892932278438277	1.7932956	1.3391399
22.910814979367604	1.8367321	1.355261
22.928698245828222	1.8629574	1.3649019
22.946582078309387	1.9047264	1.3801183
22.96446647730047	1.896997	1.3773152
22.98235144329098	1.9101728	1.38209
23.000236976770562	1.9073972	1.3810855
23.018123078229	1.956558	1.3987702
23.03600974815619	1.9672705	1.4025942
23.053896987042194	1.9834993	1.4083676
23.071784795377173	1.9718207	1.4042153
23.08967317365145	1.9672778	1.4025968
23.10756212235546	1.9413571	1.3933259
23.125451641979787	1.9473947	1.3954909
23.143341733015134	1.9414098	1.3933449
23.161232395952357	1.9178967	1.3848815
23.179123631282426	1.9004881	1.3785819
23.197015439496468	1.9247453	1.3873519
23.214907821085717	1.910193	1.3820974
23.23280077654157	1.9325243	1.3901526
23.250694306355538	1.9041568	1.3799119
23.268588411019277	1.9332308	1.3904067
23.28648309102458	1.9493546	1.3961929
23.304378346863356	1.9531256	1.3975427
23.322274179027676	1.9497787	1.3963448
23.340170588009723	1.9393244	1.3925962
23.358067574301852	1.9513873	1.3969207
23.37596513839651	1.9727346	1.4045407
23.39386328078629	1.945294	1.394738
23.411762001963947	1.9345785	1.3908913
23.429661302422353	1.9166687	1.384438
23.4475611826545	1.9669422	1.4024771
23.46546164315356	1.9634895	1.4012457
23.48336268441279	1.9921807	1.4114463
23.501264306925638	1.9927462	1.4116466
23.51916651118564	2.038244	1.4276708
23.537069297686497	2.0508978	1.4320956
23.554972666922037	2.0198169	1.4212027
23.57287661938623	1.9850355	1.4089129
23.59078115557318	1.9494861	1.39624
23.608686275977128	1.9306234	1.3894688
23.62659198109246	1.9387171	1.3923782
23.6444982714137	1.9504464	1.3965838
23.66240514743549	1.9773487	1.4061823
23.68031260965263	1.9610525	1.4003758
23.698220658560068	1.9194849	1.3854548
23.716129294652845	1.9171067	1.3845962
23.7340385184262	1.9397935	1.3927647
23.75194833037546	1.9396946	1.3927292
23.769858730996123	1.927443	1.3883238
23.78776972078382	1.9161754	1.3842598
23.80568130023431	1.9130242	1.3831211
23.823593469843495	1.9139773	1.3834656
23.841506230107424	1.8632363	1.3650042
23.859419581522275	1.8648494	1.3655949
23.87733352458438	1.9028076	1.3794229
23.89524805979019	1.9478005	1.3956362
23.913163187636318	1.9412647	1.3932928
23.931078908619508	1.9523708	1.3972726
23.948995223236633	2.0181952	1.420632
23.966912131984735	2.0133827	1.4189372
23.98482963536096	2.0349805	1.4265274
24.002747733862616	2.0063167	1.4164451
24.020666427987155	2.0418363	1.4289284
24.038585718232156	2.0184076	1.4207067
24.056505605095353	2.0282357	1.4241614
24.074426089074617	2.0839062	1.4435741
24.092347170667946	2.0665576	1.4375527
24.110268850373515	2.073331	1.4399066
24.128191128689586	2.050815	1.4320667
24.146114006114626	2.0738926	1.4401016
24.164037483147187	2.0620296	1.4359769
24.181961560286005	2.026946	1.4237086
24.199886238029926	2.037131	1.427281
24.21781151687797	2.0831053	1.4432967
24.235737397329274	2.126658	1.4583066
24.253663879883135	2.1228616	1.4570043
24.271590965038975	2.0953586	1.4475354
24.289518653296376	2.0691435	1.4384518
24.30744694515505	2.069664	1.4386327
24.32537584111486	2.1004655	1.4492983
24.34330534167581	2.092835	1.4466634
24.361235447338046	2.0551527	1.4335804
24.379166158601876	2.0207152	1.4215187
24.39709747596772	2.0034184	1.4154216
24.41502939993615	2.0247178	1.4229258
24.432961931007917	2.0294116	1.4245741
24.450895069683856	2.0435688	1.4295344
24.468828816465	2.0095003	1.4175684
24.4867631718525	1.9863397	1.4093757
24.504698136347656	1.9462945	1.3950967
24.52263371045192	1.9330345	1.3903362
24.540569894666874	1.9557899	1.3984956
24.558506689494266	1.9898139	1.4106077
24.57644409543597	2.0339499	1.4261662
24.594382112994012	2.0165446	1.4200509
24.61232074267057	1.9727435	1.4045439
24.630259984967953	1.9506836	1.3966688
24.64819984038863	1.9861293	1.409301
24.66614030943522	1.994845	1.4123899
24.684081392610462	2.0252345	1.4231073
24.702023090417274	2.0010495	1.4145845
24.7199654033587	1.9738705	1.404945
24.737908331937927	1.9768983	1.4060222
24.755851876658305	2.004159	1.4156833
24.773796038023324	2.0663412	1.4374774
24.79174081653661	2.047167	1.4307925
24.809686212701962	2.0959823	1.4477508
24.827632227023294	2.1234114	1.457193
24.8455788600047	2.1459677	1.4649122
24.8635261121504	2.1578157	1.4689505
24.88147398396475	2.1634116	1.470854
24.899422475952303	2.141758	1.4634746
24.917371588617698	2.1396987	1.4627709
24.935321322465768	2.1982434	1.4826474
24.953271678001478	2.3241057	1.5245018
24.97122265572994	2.5054584	1.5828639
24.989174256156414	2.8115046	1.6767542
25.00712647978632	3.3151288	1.8207495
25.02507932712521	3.9509046	1.9876883
25.043032798678798	4.613102	2.1478133
25.060986894952933	5.261712	2.2938423
25.078941616453637	5.961679	2.441655
25.096896963687055	6.8182983	2.6111872
25.114852937159508	8.012568	2.8306482
25.132809537377444	8.498074	2.9151456
25.150766764847468	8.510474	2.9172716
25.168724620076347	7.884147	2.8078723
25.186683103570985	6.829549	2.6133406
25.204642215838426	5.6497345	2.3769171
25.222601957385894	4.2841744	2.0698247
25.24056232872074	3.2233922	1.7953808
25.25852333035048	2.6164196	1.617535
25.276484962782778	2.2280946	1.4926803
25.294447226525435	2.0560906	1.4339075
25.312410122086423	2.0210729	1.4216444
25.330373649973843	2.0206268	1.4214876
25.348337810695988	1.9842533	1.4086353
25.366302604761245	1.9382101	1.3921962
25.384268032678207	1.9349228	1.391015
25.40223409495558	1.9480375	1.3957212
25.420200792102257	1.9069759	1.3809329
25.438168124627246	1.9216092	1.3862212
25.45613609303974	1.9228238	1.3866593
25.474104697849057	1.93462	1.3909062
25.492073939564698	1.8906877	1.3750228
25.510043818696285	1.8566117	1.3625754
25.528014335753614	1.855499	1.362167
25.54598549124664	1.8732072	1.3686516
25.56395728568544	1.9219812	1.3863554
25.58192971958028	1.9261099	1.3878436
25.59990279344156	1.908767	1.3815813
25.617876507779833	1.8985186	1.3778673
25.635850863105826	1.875062	1.369329
25.653825859930386	1.9053681	1.3803507
25.671801498764548	1.8641572	1.3653414
25.68977778011949	1.814894	1.34718
25.707754704506524	1.7819965	1.3349144
25.725732272437153	1.8429278	1.3575448
25.743710484423012	1.9059098	1.3805469
25.761689340975888	1.9589481	1.3996242
25.77966884260774	1.9223541	1.3864899
25.797648989830662	1.8896424	1.3746426
25.815629783156922	1.8324165	1.3536679
25.83361122309895	1.822678	1.350066
25.85159331016929	1.8271136	1.3517077
25.869576044880695	1.8318826	1.3534706
25.887559427746034	1.8457284	1.3585758
25.90554345927836	1.8787376	1.3706704
25.92352813999086	1.924075	1.3871104
25.94151347039689	1.9434879	1.3940903
25.959499451009965	1.9054724	1.3803885
25.97748608234374	1.8845164	1.3727769
25.995473364912062	1.8940457	1.3762434
26.013461299228904	1.8785058	1.3705859
26.03144988580839	1.8731635	1.3686357
26.04943912516483	1.8556747	1.3622315
26.067429017812675	1.8088038	1.3449178
26.085419564266537	1.7698832	1.3303696
26.103410765041186	1.8042943	1.3432403
26.12140262065155	1.83285	1.353828
26.139395131612723	1.8512442	1.3606044
26.157388298439948	1.8207327	1.3493453
26.17538212164861	1.8137746	1.3467644
26.193376601754295	1.8400524	1.3564852
26.211371739272714	1.8262901	1.351403
26.229367534719746	1.7841212	1.3357099
26.247363988611433	1.8474451	1.3592075
26.26536110146397	1.8604184	1.3639716
26.283358873793727	1.835085	1.3546531
26.301357306117204	1.797133	1.3405719
26.319356398951104	1.772551	1.3313718
26.33735615281224	1.786261	1.3365108
26.35535656821762	1.8256946	1.3511827
26.373357645684404	1.8902416	1.3748605
26.39135938572991	1.8918911	1.3754604
26.409361788871614	1.8088715	1.3449429
26.427364855627165	1.7902261	1.3379933
26.445368586514352	1.7813587	1.3346756
26.46337298205115	1.7966383	1.3403873
26.48137804275568	1.7995247	1.3414637
26.499383769146217	1.8474715	1.3592173
26.517390161741215	1.8896034	1.3746284
26.53539722105928	1.8359013	1.3549544
26.553404947619182	1.7856236	1.3362722
26.571413341939856	1.8013134	1.3421302
26.589422404540397	1.8657938	1.3659407
26.60743213594006	1.8258237	1.3512304
26.62544253665827	1.7999978	1.34164
26.64345360721459	1.823988	1.350551
26.66146534812879	1.8219044	1.3497794
26.679477759920758	1.7724718	1.3313421
26.69749084311057	1.7902856	1.3380156
26.71550459821847	1.8437263	1.3578389
26.733519025764842	1.8671299	1.3664296
26.751534126270258	1.8594602	1.3636203
26.769549900255434	1.8459219	1.3586471
26.787566348241267	1.8483902	1.3595551
26.80558347074881	1.8796736	1.3710119
26.823601268299267	1.9031463	1.3795457
26.841619741414036	1.8512167	1.3605943
26.85963889061465	1.8103287	1.3454846
26.877658716422832	1.7735631	1.331752
26.89567921936045	1.7611456	1.3270816
26.913700399949544	1.7759337	1.3326416
26.93172225871233	1.7850478	1.3360568
26.949744796171174	1.7942698	1.3395035
26.967768012848605	1.8190408	1.3487182
26.98579190926733	1.8443165	1.3580562
27.003816485950225	1.8390188	1.3561043
27.021841743420318	1.8212723	1.3495452
27.039867682200814	1.7996751	1.3415197
27.057894302815072	1.7964728	1.3403256
27.07592160578664	1.819887	1.3490319
27.0939495916392	1.8355435	1.3548223
27.111978260896635	1.8300601	1.3527972
27.13000761408296	1.8366268	1.355222
27.148037651722397	1.8167126	1.3478549
27.166068374339304	1.7856853	1.3362954
27.184099782458215	1.7500435	1.3228921
27.20213187660384	1.7656955	1.3287947
27.22016465730105	1.7686518	1.3299067
27.23819812507487	1.7370377	1.3179673
27.256232280450533	1.7191373	1.3111588
27.274267123953383	1.7749221	1.332262
27.292302656108987	1.7965146	1.3403412
27.31033887744306	1.7963977	1.3402976
27.32837578848146	1.7718487	1.3311081
27.34641338975026	1.7898545	1.3378545
27.364451681775673	1.7887988	1.3374598
27.382490665084074	1.8148024	1.347146
27.400530340202046	1.8314914	1.3533261
27.41857070765629	1.8276708	1.3519138
27.436611767973726	1.8238922	1.3505156
27.454653521681404	1.8001958	1.3417138
27.472695969306564	1.7816014	1.3347664
27.490739111376627	1.770082	1.3304443
27.508782948419153	1.7752677	1.3323917
27.526827480961902	1.7828317	1.3352273
27.54487270953279	1.7839292	1.3356382
27.562918634659898	1.7536205	1.3242434
27.580965256871508	1.7626797	1.3276595
27.599012576696026	1.810909	1.3457001
27.617060594662068	1.8699148	1.3674482
27.63510931129842	1.8963065	1.3770645
27.65315872713401	1.8733077	1.3686883
27.67120884269797	1.8180364	1.3483458
27.68925965851958	1.7787745	1.3337071
27.707311175128307	1.8393683	1.3562331
27.725363393053787	1.8544316	1.3617752
27.74341631282583	1.864493	1.3654644
27.7614699349744	1.9081111	1.381344
27.77952426002968	2.0775135	1.4413582
27.797579288521973	2.1123726	1.4534004
27.815635020981784	2.5024445	1.5819117
27.83369145793979	2.557252	1.599141
27.85174859992682	2.3933284	1.5470386
27.869806447473923	2.2439413	1.497979
27.887865001112267	1.993094	1.4117697
27.905924261373233	1.9095321	1.3818582
27.92398422878836	1.8852243	1.3730347
27.94204490388936	1.837235	1.3554465
27.96010628720813	1.8016169	1.3422432
27.978168379276728	1.8522536	1.3609753
27.9962311806274	1.9034156	1.3796433
28.014294691792568	1.919882	1.3855981
28.0323589133048	1.866812	1.3663133
28.050423845696887	1.8461365	1.358726
28.068489489501758	1.8945711	1.3764342
28.086555845252523	1.889709	1.3746668
28.104622913482487	1.8654068	1.365799
28.122690694725115	1.8655479	1.3658506
28.14075918951405	1.8864734	1.3734895
28.15882839838312	1.9466877	1.3952376
28.176898321866304	1.9760468	1.4057193
28.1949689604978	1.9719867	1.4042745
28.213040314811945	1.9706942	1.4038142
28.23111238534327	1.9373741	1.3918959
28.249185172626493	1.9183388	1.3850411
28.267258677196473	1.944684	1.3945193
28.285332899588294	1.9555379	1.3984054
28.303407840337172	1.9291829	1.3889502
28.321483499978545	1.8972846	1.3774196
28.33955987904799	1.9314044	1.3897498
28.357636978081285	1.9577072	1.3991809
28.37571479761439	1.9169314	1.3845329
28.393793338183425	1.9384936	1.392298
28.41187260032469	1.9740105	1.4049948
28.429952584574686	1.9391762	1.3925431
28.448033291470065	1.9230163	1.3867286
28.46611472154769	1.9701802	1.4036311
28.484196875344566	1.9709024	1.4038883
28.502279753397914	1.944756	1.3945451
28.52036335624511	1.9649055	1.4017509
28.538447684423716	1.9966594	1.4130319
28.556532738471482	2.0139391	1.4191332
28.574618518926325	2.0022488	1.4150084
28.59270502632635	1.999903	1.4141792
28.61079226120985	1.9960426	1.4128137
28.628880224115274	1.9794501	1.4069294
28.646968915581287	2.0055916	1.4161891
28.66505833614671	2.0533955	1.4329674
28.68314848635055	2.1103377	1.4527001
28.701239366732004	2.0319529	1.4254658
28.71933097783044	2.0405416	1.4284753
28.737423320185403	2.1134439	1.4537688
28.75551639433665	2.153552	1.4674985
28.773610200824074	2.1461864	1.4649868
28.791704740187793	2.129754	1.4593678
28.80980001296809	2.086404	1.444439
28.827896019705413	2.0879874	1.4449869
28.845992760940433	2.1431177	1.4639391
28.86409023721397	2.2220957	1.4906696
28.88218844906704	2.224817	1.491582
28.900287397040845	2.2377987	1.4959273
28.918387081676755	2.171997	1.4737697
28.936487503516343	2.212554	1.4874656
28.954588663101365	2.3056552	1.5184385
28.97269056097374	2.3339732	1.5277346
28.990793197675597	2.306425	1.5186919
29.00889657374923	2.32625	1.5252049
29.027000689737125	2.3718646	1.5400859
29.04510554618196	2.410521	1.5525852
29.06321114362659	2.4339159	1.5601013
29.08131748261405	2.4981735	1.5805612
29.099424563687567	2.549095	1.5965885
29.11753238739057	2.581944	1.6068429
29.13564095426663	2.6067243	1.6145353
29.15375026485954	2.5625057	1.6007829
29.171860319713275	2.5973356	1.6116252
29.18997111937199	2.6404324	1.6249408
29.20808266438002	2.71103	1.6465206
29.226194955281898	2.722866	1.650111
29.244307992622335	2.7766047	1.6663147
29.26242177694624	2.8552744	1.6897557
29.2805363087987	2.882366	1.6977532
29.29865158872498	2.8559608	1.6899588
29.316767617270557	2.8639336	1.692316
29.334884394981064	2.8564837	1.6901135
29.353001922402367	2.94293	1.715497
29.37112020008047	3.0260053	1.7395416
29.389239228561596	3.1865275	1.7850847
29.407359008392152	3.4986484	1.8704674
29.42547954011872	3.8040235	1.9503906
29.44360082428809	4.338693	2.082953
29.46172286144722	5.4519644	2.3349442
29.479845652143283	7.1369896	2.6715145
29.497969196923606	9.367789	3.0606844
29.516093496335728	12.14027	3.4842892
29.5342185509274	15.254597	3.9057133
29.55234436124651	17.69765	4.2068577
29.570470927841175	18.875404	4.3445835
29.588598251259686	18.506807	4.301954
29.60672633205055	17.101458	4.1353908
29.624855170762405	14.74162	3.8394818
29.642984767944146	11.778638	3.432002
29.66111512414481	8.930335	2.9883666
29.67924623991366	6.663143	2.5813065
29.697378115800138	5.1742296	2.2746933
29.71551075235387	4.250193	2.0615997
29.733644150124675	3.7485137	1.9361079
29.751778309662576	3.5522416	1.8847392
29.769913231517766	3.434074	1.8531255
29.78804891624066	3.3471897	1.8295326
29.806185364381818	3.3494492	1.83015
29.82432257649206	3.3057947	1.8181845
29.842460553122333	3.224817	1.7957776
29.86059929482382	3.1933973	1.7870079
29.878738802147872	3.2418005	1.8005
29.896879075646048	3.300187	1.8166417
29.915020115870114	3.3266656	1.8239149
29.933161923371976	3.2994304	1.8164334
29.951304498703777	3.2515416	1.8032031
29.969447842417857	3.2328382	1.7980095
29.987591955066733	3.188944	1.7857615
30.005736837203123	3.186195	1.7849916
30.023882489379943	3.1771696	1.7824616
30.04202891215028	3.1758544	1.7820927
30.060176106067455	3.2134287	1.7926039
30.078324071684946	3.2481039	1.8022497
30.09647280955646	3.3092563	1.8191361
30.114622320235863	3.2541409	1.8039237
30.132772604277257	3.1861293	1.7849731
30.1509236622349	3.1523726	1.7754922
30.16907549466328	3.115783	1.765158
30.18722810211705	3.0995893	1.760565
30.205381485151097	3.1494539	1.7746701
30.22353564432045	3.1560862	1.7765377
30.241690580180403	3.0385616	1.743147
30.25984629328638	2.9872742	1.7283733
30.278002784194037	3.0281892	1.7401693
30.296160053459246	3.0374022	1.7428144
30.314318101638033	2.9773722	1.7255063
30.332476929286646	2.9488075	1.7172092
30.35063653696153	2.9407299	1.7148557
30.368796925219307	2.9260597	1.710573
30.386958094616844	2.8947022	1.7013824
30.40512004571115	2.832973	1.6831437
30.423282779059463	2.8541703	1.689429
30.441446295219233	2.9046843	1.7043134
30.459610594748067	2.8683696	1.6936262
30.47777567820382	2.8395307	1.6850907
30.495941546144504	2.848966	1.687888
30.51410819912835	2.8592067	1.6909189
30.532275637713795	2.746283	1.6571913
30.55044386245946	2.7545056	1.6596704
30.56861287392416	2.80538	1.6749269
30.586782672666956	2.8474803	1.6874479
30.604953259247047	2.86214	1.691786
30.623124634223885	2.867743	1.6934412
30.641296798157075	2.841597	1.6857038
30.659469751606462	2.8294227	1.6820889
30.677643495132074	2.808091	1.675736
30.695818029294152	2.7222643	1.6499286
30.713993354653116	2.663216	1.6319363
30.73216947176962	2.7148108	1.6476684
30.75034638120448	2.7289882	1.6519649
30.768524083518756	2.7649996	1.6628288
30.786702579273673	2.8027434	1.6741396
30.80488186903069	2.8755012	1.6957303
30.82306195335144	2.949174	1.7173159
30.841242832797782	3.1333241	1.7701198
30.85942450793176	3.4882264	1.8676795
30.877606979315637	3.8340194	1.9580653
30.895790247511883	4.1167355	2.028974
30.913974313083134	4.513984	2.124614
30.932159176592283	4.9283237	2.2199829
30.95034483860237	5.0653768	2.2506392
30.968531299676698	4.8010883	2.1911385
30.98671856037873	4.388755	2.0949354
31.00490662127215	4.0232453	2.0058029
31.023095482920848	3.6157348	1.9015086
31.04128514588892	3.180572	1.7834158
31.059475610740662	2.796274	1.6722063
31.07766687804056	2.5993233	1.6122417
31.09585894835335	2.5010786	1.5814799
31.11405182224393	2.4395256	1.5618981
31.132245500277417	2.428276	1.5582926
31.15043998301914	2.476118	1.5735686
31.168635271034628	2.4505126	1.5654113
31.18683136488964	2.436043	1.5607828
31.20502826515008	2.4910214	1.578297
31.223225972382135	2.4797885	1.5747344
31.241424487152155	2.432894	1.5597737
31.259623810026692	2.4233816	1.5567214
31.27782394157253	2.4205518	1.5558122
31.296024882356644	2.4636214	1.5695927
31.314226632946237	2.5201178	1.5874879
31.332429193908684	2.5356736	1.5923798
31.350632565811598	2.5255194	1.5891882
31.368836749222787	2.436045	1.5607834
31.387041744710295	2.4092455	1.5521744
31.40524755284232	2.4709601	1.5719287
31.423454174187317	2.5418432	1.5943159
31.441661609313922	2.5805132	1.6063976
31.459869858791002	2.585681	1.6080053
31.478078923187628	2.509129	1.584023
31.496288803073064	2.4424307	1.5628278
31.514499499016807	2.371023	1.5398127
31.532711011588546	2.2410233	1.4970047
31.550923341358178	2.245341	1.4984462
31.56913648889584	2.2883909	1.5127429
31.587350454771844	2.3088636	1.5194945
31.605565239556732	2.3440702	1.5310357
31.62378084382127	2.3031535	1.5176144
31.641997268136382	2.290135	1.5133191
31.660214513073274	2.2936802	1.5144901
31.67843257920331	2.2507722	1.5002574
31.6966514670981	2.2592776	1.5030893
31.71487117732944	2.3436148	1.5308869
31.733091710469346	2.3943918	1.5473822
31.751313067090052	2.3872812	1.5450829
31.769535247764008	2.3183172	1.5226021
31.787758253063878	2.2682204	1.5060612
31.805982083562526	2.2706027	1.5068519
31.824206739833024	2.2959635	1.5152438
31.84243222244869	2.3198307	1.5230991
31.860658531983013	2.3450494	1.5313554
31.878885669009737	2.272315	1.50742
31.897113634102784	2.2137463	1.4878664
31.91534242783632	2.2139997	1.4879515
31.933572050784694	2.2363741	1.4954511
31.951802503522508	2.2496815	1.4998938
31.970033786624548	2.2202177	1.4900395
31.988265900665834	2.1742141	1.4745216
32.006498846221575	2.1275225	1.4586029
32.02473262386724	2.1834028	1.4776342
32.04296723417845	2.199926	1.4832147
32.0612026777311	2.1523263	1.467081
32.07943895510129	2.1336207	1.4606919
32.097676066865304	2.1141908	1.4540257
32.115914013599685	2.1071107	1.451589
32.13415279588115	2.1590204	1.4693606
32.152392414286666	2.1326988	1.4603763
32.1706328693934	2.1350281	1.4611735
32.18887416177875	2.109471	1.4524019
32.20711629202032	2.0840962	1.4436399
32.225359260695924	2.2018332	1.4838575
32.243603068383614	2.289598	1.5131418
32.26184771566166	2.1605973	1.469897
32.28009320310852	2.045434	1.4301867
32.2983395313029	2.112663	1.4535003
32.31658670082372	2.1331248	1.460522
32.33483471225012	2.16918	1.4728136
32.35308356616143	2.209064	1.486292
32.371333263137245	2.1337972	1.4607522
32.38958380375734	2.1894758	1.4796877
32.407835188601744	2.1816072	1.4770265
32.42608741825067	2.1443229	1.4643507
32.444340493284585	2.1032238	1.4502496
32.46259441428416	2.0835636	1.4434555
32.48084918183028	2.040572	1.4284859
32.49910479650405	2.0691173	1.4384427
32.51736125888683	2.1255994	1.4579436
32.53561856956014	2.0930126	1.4467248
32.5538767291058	1.9664438	1.4022994
32.572135738105764	1.9096609	1.3819048
32.59039559714228	1.9544575	1.3980192
32.608656306797776	2.110486	1.4527512
32.62691786765491	2.211338	1.4870569
32.645180280296586	2.1697767	1.4730161
32.663443545305896	2.0821366	1.4429611
32.68170766326619	2.0555913	1.4337333
32.69997263476099	2.0633028	1.4364201
32.7182384603741	2.0406835	1.428525
32.7365051406895	2.0446384	1.4299085
32.75477267629144	1.9865913	1.409465
32.77304106776434	1.938838	1.3924216
32.79131031569289	1.974735	1.4052527
32.809580420661966	2.0363882	1.4270207
32.827851383256714	1.9855756	1.4091045
32.84612320406245	1.9650569	1.4018049
32.86439588366476	1.9867276	1.4095132
32.88266942264945	2.0493786	1.431565
32.9009438216025	2.064158	1.4367177
32.9192190811102	1.9624153	1.4008623
32.937495201758985	1.8757272	1.3695719
32.95577218413556	1.9188468	1.3852245
32.974050028826866	1.971488	1.4040968
32.992328736420035	2.087747	1.4449039
33.010608307502444	2.0567522	1.4341382
33.02888874266169	1.9625783	1.4009205
33.047170042485604	1.8568075	1.3626472
33.06545220756225	1.8651557	1.365707
33.083735238479896	1.9189267	1.3852533
33.10201913582707	1.911894	1.3827125
33.12030390019248	1.8860993	1.3733534
33.138589532165135	1.8907944	1.3750616
33.15687603233419	1.8458798	1.3586316
33.17516340128909	1.8067544	1.3441557
33.19345163961947	1.8797005	1.3710217
33.211740747915215	1.9602047	1.4000732
33.23003072676643	2.000466	1.4143784
33.248321576763466	1.9652809	1.4018848
33.266613298496885	1.9183153	1.3850327
33.28490589255747	1.9637626	1.4013431
33.30319935953626	2.0510247	1.4321399
33.32149370002451	2.0964522	1.447913
33.339788914613706	2.0110285	1.4181074
33.358085003895575	1.9583303	1.3994036
33.376381968462034	2.0836308	1.4434787
33.39467980890529	2.1123812	1.4534034
33.41297852581774	1.9996699	1.4140968
33.43127811979204	1.9574368	1.3990843
33.44957859142105	1.9543647	1.3979859
33.467879941297866	1.9358016	1.3913308
33.486182170015844	1.9424635	1.3937229
33.50448527816853	1.920027	1.3856504
33.522789266349754	1.9108658	1.3823407
33.541094135153514	1.8838104	1.3725197
33.55939988517411	1.9551917	1.3982817
33.57770651700602	1.9829649	1.4081779
33.59601403124398	1.9433705	1.3940482
33.61432242848296	1.9539517	1.3978382
33.632631709318154	2.0483632	1.4312104
33.650941874344994	2.0129447	1.4187828
33.66925292415916	1.8133893	1.3466214
33.68756485935654	1.808419	1.3447747
33.70587768053328	1.9284548	1.3886881
33.724191388285746	2.0235233	1.422506
33.74250598321054	1.9678952	1.4028169
33.760821465904506	1.7999067	1.341606
33.77913783696474	1.7806948	1.3344268
33.79745509698852	1.8162309	1.3476762
33.815773246573414	1.8276871	1.3519198
33.8340922863172	1.7615194	1.3272225
33.852412216817896	1.6950532	1.3019421
33.87073303867377	1.8156447	1.3474586
33.889054752483304	1.9805021	1.4073031
33.907377358845245	2.1025417	1.4500144
33.92570085835853	2.0949204	1.447384
33.94402525162239	2.0538714	1.4331334
33.96235053923627	2.0147095	1.4194046
33.980676721799824	2.064606	1.4368737
33.999003799912984	2.072124	1.4394875
34.01733177417592	1.9850603	1.4089217
34.03566064518901	1.9158229	1.3841325
34.0539904135529	1.885142	1.3730047
34.07232107986846	1.8388953	1.3560587
34.090652644736785	1.8547046	1.3618754
34.108985108759235	1.9136802	1.3833584
34.12731847253742	1.8960638	1.3769764
34.14565273667313	1.7798799	1.3341215
34.16398790176847	1.7580378	1.3259102
34.18232396842574	1.8993704	1.3781765
34.20066093724749	1.9912298	1.4111094
34.21899880883651	1.9650066	1.4017869
34.23733758379583	1.9032632	1.379588
34.25567726272874	1.8919845	1.3754942
34.27401784623872	1.9319962	1.3899627
34.29235933492957	2.0739985	1.4401383
34.31070172940526	2.1896436	1.4797444
34.32904503027003	2.1439946	1.4642385
34.347389238128386	2.0445836	1.4298893
34.36573435358502	1.916447	1.384358
34.38408037724492	1.9322828	1.3900658
34.402427309713296	1.9809002	1.4074446
34.42077515159559	2.066532	1.4375437
34.43912390349752	2.0415392	1.4288244
34.45747356602499	1.9115171	1.3825762
34.47582413978423	1.8781788	1.3704666
34.49417562538163	1.8444308	1.3580983
34.51252802342388	1.836555	1.3551955
34.53088133451789	1.8263052	1.3514086
34.54923555927084	1.9485273	1.3958966
34.567590698290104	1.8948126	1.376522
34.58594675218336	1.8164424	1.3477546
34.6043037215585	1.9096082	1.3818858
34.62266160702365	2.021375	1.4217507
34.641020409187234	2.1792605	1.4762318
34.65938012865785	2.2441516	1.4980493
34.677740766044394	2.0360808	1.426913
34.69610232195598	1.8987675	1.3779577
34.714464797002016	1.89038	1.374911
34.73282819179208	1.8707008	1.3677356
34.751192506936064	1.8667235	1.3662809
34.76955774304408	1.9805058	1.4073044
34.7879239007265	2.0238297	1.4226137
34.80629098059391	2.047746	1.4309947
34.824658983257194	2.139861	1.4628264
34.843027909327446	1.9716552	1.4041564
34.86139775941603	1.8532146	1.3613282
34.879768534134534	1.9759798	1.4056954
34.89814023409483	1.9543923	1.3979958
34.91651285990901	1.8877776	1.3739642
34.93488641218944	1.8723129	1.3683249
34.95326089154871	1.947168	1.3954096
34.97163629859967	2.0154588	1.4196686
34.99001263395542	1.9659863	1.4021363
35.00838989822934	1.9419724	1.3935467
35.02676809203499	2.1674345	1.4722209
35.04514721598624	2.1183984	1.4554719
35.063527270697215	1.9101963	1.3820986
35.081908256782256	1.8949553	1.3765738
35.10029017485597	1.697668	1.3029459
35.11867302553321	1.6080605	1.2680932
35.137056809429104	1.8832102	1.3723011
35.155441527159006	2.1836445	1.477716
35.173827179338524	2.0987742	1.4487146
35.19221376658354	1.986435	1.4094095
35.21060128951017	1.8943603	1.3763577
35.2289897487348	1.7821081	1.3349562
35.24737914487405	1.8835186	1.3724134
35.26576947854479	2.0648956	1.4369745
35.28416075036418	2.3016675	1.5171248
35.30255296094958	2.2270417	1.4923276
35.32094611091867	1.9970946	1.413186
35.33934020088932	2.0868914	1.4446077
35.35773523147969	2.2685535	1.5061718
35.3761312033082	2.220691	1.4901983
35.394528116993506	2.301544	1.517084
35.41292597315452	2.1352015	1.4612329
35.431324772410434	1.8965259	1.3771441
35.449724515380666	1.9142585	1.3835673
35.46812520268491	1.9849987	1.4088998
35.486526834943106	2.0933335	1.4468356
35.504929412775454	2.1386302	1.4624056
35.52333293680242	2.0661924	1.4374256
35.54173740764471	2.044145	1.429736
35.560142825923286	1.9991858	1.4139256
35.5785491922594	1.7679683	1.3296497
35.59695650727454	1.3837215	1.1763169
35.61536477159042	1.1140177	1.0554703
