0.008763373481513119	0.0	0.0
0.026290120649546365	0.17179282	0.414479
0.043816868432600686	0.12005361	0.34648752
0.06134361724069026	0.13910435	0.37296695
0.07887036748382949	0.22582416	0.4752096
0.0963971195720331	0.27699113	0.5262995
0.11392387391531617	0.2613877	0.5112609
0.1314506309236943	0.191685	0.43781847
0.1489773910071836	0.12090665	0.34771633
0.16650415457580078	0.16144231	0.40179884
0.18403092203956356	0.24247958	0.49242216
0.20155769380849	0.29480302	0.54295766
0.2190844702925996	0.2644391	0.51423645
0.2366112519019124	0.24998094	0.49998093
0.2541380390464497	0.1808679	0.42528567
0.27166483213623416	0.24234991	0.49229047
0.28919163158128947	0.20002046	0.44723648
0.3067184377916406	0.24246901	0.49241143
0.324245251177314	0.228039	0.4775343
0.34177207214833777	0.2821598	0.5311872
0.3592989011147415	0.24341345	0.4933695
0.37682573848655654	0.24811476	0.4981112
0.39435258467381573	0.21794766	0.46684864
0.41187944008655414	0.22103353	0.47014204
0.42940630513480854	0.21686453	0.46568716
0.446933180228618	0.16801693	0.40989867
0.4644600657780234	0.17424886	0.41743127
0.48198696219306775	0.12365876	0.3516515
0.49951386988379676	0.12894756	0.35909268
0.5170407892602581	0.10921255	0.3304732
0.5345677207325025	0.13320777	0.3649764
0.5520946647105822	0.15342483	0.3916948
0.5696216216045534	0.16525503	0.40651572
0.5871485918244737	0.1693799	0.4115579
0.6046755757804043	0.14440905	0.38001192
0.6222025738824094	0.13396038	0.366006
0.6397295865405557	0.17217511	0.41493988
0.6572566141649129	0.17423525	0.41741496
0.6747836571655547	0.21268474	0.46117756
0.6923107159525568	0.21753742	0.46640906
0.7098377909359992	0.22071254	0.46980053
0.7273648825259653	0.20562164	0.45345524
0.7448919911325411	0.23126662	0.48090187
0.762419117165817	0.22053747	0.46961418
0.7799462610358868	0.25301817	0.50300914
0.7974734231528482	0.27124637	0.52081317
0.8150006039268024	0.2721588	0.5216884
0.8325278037678551	0.28519407	0.5340356
0.8500550230861152	0.25834778	0.5082792
0.8675822622916969	0.23245642	0.48213735
0.8851095217947171	0.20719889	0.45519105
0.9026368020052984	0.18221553	0.4268671
0.9201641033335665	0.21687323	0.46569648
0.9376914261896523	0.25757745	0.5075209
0.9552187709836915	0.28098318	0.5300785
0.9727461381258234	0.2662641	0.51600784
0.990273528026193	0.2638662	0.5136791
1.0078009410949496	0.23884726	0.48872003
1.0253283777422473	0.23550524	0.48528883
1.0428558383782454	0.25224078	0.5022358
1.0603833234131086	0.2388912	0.48876497
1.0779108332570058	0.28939557	0.537955
1.0954383683201119	0.28320244	0.5321677
1.112965929012607	0.3261819	0.57112336
1.1304935157446763	0.44410968	0.6664156
1.1480211289265108	0.5050407	0.7106622
1.1655487689683062	1.3757116	1.1729074
1.1830764362802655	1.6827543	1.2972102
1.200604131272596	2.1568122	1.468609
1.2181318543555117	2.454051	1.5665411
1.235659605939232	2.4433382	1.5631181
1.253187386433982	4.029276	2.0073056
1.270715196249994	6.3927317	2.5283852
1.2882430357975057	11.538344	3.3968139
1.3057709054867608	16.140457	4.017519
1.3232988057280106	21.43991	4.6303253
1.3408267369315112	26.262552	5.1247
1.358354699507526	30.129755	5.4890575
1.3758826938663256	34.44537	5.8690176
1.3934107204181858	36.69664	6.057775
1.410938779573391	36.484272	6.040221
1.4284668717422309	36.905495	6.0749893
1.4459949973350033	36.10144	6.0084476
1.4635231567620117	36.432335	6.0359206
1.4810513504335687	36.01349	6.001124
1.4985795787599925	35.307705	5.9420285
1.5161078421516088	34.979145	5.914317
1.5336361410187505	34.190777	5.847288
1.5511644757717598	34.06536	5.836554
1.5686928468209842	34.565918	5.8792787
1.58622125457678	34.960796	5.9127655
1.6037496994495108	36.202377	6.016841
1.621278181849548	35.979343	5.998278
1.6388067021872719	36.493237	6.040963
1.6563352608730693	36.1452	6.012088
1.673863858317336	35.644478	5.9702997
1.6913924949304753	35.347366	5.945365
1.7089211711228998	34.522724	5.875604
1.7264498873050296	33.576466	5.7945204
1.7439786438872935	32.48949	5.6999555
1.7615074412801288	31.379805	5.601768
1.779036279893981	30.678314	5.5388007
1.796565160139305	29.969547	5.474445
1.814094082426564	29.115223	5.3958526
1.8316230471662298	28.215143	5.311793
1.849152054768784	27.217112	5.2170024
1.8666811056447168	26.856007	5.182278
1.8842102002045273	26.28728	5.1271124
1.901739338858724	25.706757	5.0701833
1.9192685220178245	24.934147	4.99341
1.9367977500923557	24.069794	4.9060974
1.9543270234928547	23.810484	4.8795986
1.971856342629867	23.246311	4.821443
1.9893857079139496	22.932352	4.7887735
2.006915119755667	22.222672	4.7140927
2.0244445785655945	21.685024	4.6567183
2.0419740847543175	21.258131	4.610654
2.0595036387324317	21.03734	4.586648
2.0770332409105414	20.453789	4.5225863
2.094562891699263	20.253561	4.500396
2.1120925915092217	19.841982	4.454434
2.129622340751053	19.810139	4.450858
2.1471521398354043	188.09915	13.714925
2.1646819891729323	444.4398	21.081741
2.182211889174303	440.47415	20.987476
2.1997418402501974	452.74277	21.277752
2.2172718428113023	432.53854	20.797562
2.234801897268317	320.28204	17.896425
2.2523320040319548	16.544363	4.0674763
2.269862163512935	16.359818	4.0447273
2.287392376121992	16.016348	4.002043
2.304922642269869	15.8552885	3.98187
2.322452962367322	15.615783	3.951681
2.3399833368251164	15.556701	3.9441984
2.357513766054032	15.297305	3.911177
2.3750442504648586	14.812996	3.8487656
2.3925747904683963	14.396717	3.7943006
2.410105386475459	14.113473	3.7567902
2.4276360388968707	13.79011	3.7135036
2.445166748143469	13.651673	3.694817
2.4626975146261025	13.525871	3.6777534
2.4802283387556323	13.395499	3.6599863
2.4977592209429305	13.331845	3.65128
2.5152901615988825	12.981515	3.602987
2.5328211611343865	12.735814	3.5687273
2.5503522199603523	12.355834	3.5150867
2.5678833384877024	12.267485	3.502497
2.5854145171273712	12.029841	3.4684062
2.6029457562903064	11.902995	3.4500718
2.620477056387469	11.76173	3.429538
2.6380084178298326	11.57832	3.402693
2.655539841028383	11.414108	3.378477
2.673071326394119	11.313671	3.36358
2.6906028743380523	11.062307	3.3260047
2.708134485271211	10.880763	3.2986002
2.7256661596046325	10.4916725	3.2390852
2.743197897749369	10.294855	3.2085598
2.760729700116486	10.141177	3.1845214
2.778261567117063	9.925297	3.1504438
2.795793499162193	9.790469	3.1289725
2.8133254966629817	9.627645	3.1028445
2.830857560030551	9.530678	3.0871797
2.8483896896760337	9.482502	3.0793672
2.865921886010578	9.395844	3.0652642
2.883454149445347	9.242038	3.040072
2.9009864803915177	9.14018	3.023273
2.91851887926028	8.99557	2.9992616
2.9360513464628384	8.965635	2.994267
2.953583882410413	8.805746	2.9674478
2.9711164875142373	8.566088	2.9267879
2.9886491621855606	8.306615	2.88212
3.0061819068356455	8.165352	2.857508
3.023714721875769	8.176262	2.8594162
3.041247607717225	8.200651	2.863678
3.0587805647713213	8.190631	2.8619277
3.0763135934493806	8.144601	2.8538747
3.0938466941627407	8.063153	2.839569
3.1113798673227544	7.909759	2.8124294
3.1289131133407904	7.8643074	2.8043373
3.1464464326282315	7.7877746	2.7906585
3.1639798255964786	7.7786326	2.78902
3.1815132926569443	7.524693	2.7431173
3.1990468342210603	7.29522	2.7009664
3.216580450700272	7.1438284	2.672794
3.2341141425060416	7.0672126	2.658423
3.251647910049847	7.026433	2.650742
3.2691817537431813	7.0198574	2.6495013
3.286715673997555	6.9989796	2.6455584
3.3042496712244938	6.900441	2.626869
3.32178374583554	6.793471	2.6064289
3.339317898242251	6.6771235	2.584013
3.3568521288562034	6.5333543	2.5560427
3.3743864380889876	6.512423	2.551945
3.3919208263522127	6.598671	2.5687878
3.4094552940575023	6.61793	2.5725338
3.4269898416164972	6.6786895	2.584316
3.444524469440858	6.539894	2.5573215
3.4620591779422587	6.4112473	2.5320442
3.479593967532391	6.370156	2.5239167
3.4971288386229658	6.335173	2.516977
3.5146637916257086	6.455406	2.540749
3.5321988269523628	6.3815017	2.5261633
3.5497339450146903	6.266288	2.5032554
3.5672691462244708	6.142545	2.478416
3.5848044309934988	6.0623436	2.4621828
3.60233979973359	6.076378	2.465031
3.619875252856575	6.1432443	2.4785569
3.6374107907743034	6.146113	2.4791355
3.6549464138986427	6.161542	2.4822454
3.6724821226414788	6.2103534	2.492058
3.690017917414714	6.2062955	2.4912438
3.7075537986302702	6.204173	2.4908178
3.7250897667000857	6.2640133	2.5028012
3.7426258220361235	6.3576746	2.521443
3.7601619650503553	6.6125293	2.5714839
3.777698196154779	7.065529	2.6581063
3.7952345157614067	8.240393	2.8706083
3.8127709242822716	9.057063	3.0094955
3.830307422129425	11.280496	3.358645
3.847844009714936	30.032543	5.4801955
3.8653806874508954	97.48245	9.873321
3.882917455749409	96.73963	9.83563
3.900454315022606	96.52736	9.824834
3.917991265682631	41.051125	6.407115
3.9355283081416506	10.724979	3.2749014
3.9530654428118495	8.541239	2.9225397
3.970602670105433	7.3295507	2.7073143
3.9881399904346244	6.4421983	2.5381486
4.005677404211669	6.3885465	2.5275574
4.023214911848827	6.3596425	2.5218332
4.0407525137583855	6.2800865	2.50601
4.058290210352644	6.248446	2.499689
4.075828002043927	6.070279	2.4637938
4.0933658892445814	5.957723	2.4408448
4.110903872366966	5.9422445	2.437672
4.128441951823468	5.9095526	2.430957
4.145980128026488	5.918206	2.4327364
4.163518401388452	5.911861	2.4314318
4.181056772321807	5.9254165	2.434218
4.1985952412390155	5.9806724	2.4455414
4.216133808552567	6.0601583	2.4617388
4.233672474674966	6.0987597	2.4695666
4.251211240018741	6.2385473	2.4977083
4.268750104996445	6.43186	2.536111
4.286289070020643	7.285465	2.69916
4.303828135503928	9.017018	3.002835
4.3213673018589125	29.533598	5.434482
4.3389065694982305	90.918076	9.535097
4.356445938834537	166.02716	12.885153
4.3739854102805085	171.40083	13.092014
4.391524984248844	172.05644	13.117028
4.409064661152262	136.19382	11.670211
4.426604441403504	96.608315	9.828953
4.444144325415337	75.82728	8.707886
4.461684313600543	21.81322	4.6704626
4.47922440637193	22.068306	4.6976914
4.496764604142329	20.146063	4.4884367
4.5143049073245916	18.29279	4.277007
4.531845316331589	16.262276	4.0326514
4.5493858315762195	13.397049	3.660198
4.566926453471405	11.064305	3.3263052
4.584467182430081	8.975437	2.9959035
4.602008018865218	7.9607415	2.8214786
4.619548963189798	7.2559114	2.6936798
4.637090015816834	6.81856	2.6112373
4.654631177159353	6.5181584	2.5530684
4.672172447630417	6.2382946	2.4976578
4.689713827643102	6.1237454	2.4746203
4.7072553176105085	5.9829254	2.446002
4.724796917945764	5.954133	2.4401093
4.742338629062015	5.803623	2.409071
4.759880451372434	5.6452894	2.3759818
4.777422385290215	5.5297046	2.3515325
4.794964431228581	5.5605617	2.3580842
4.812506589600768	5.553602	2.3566082
4.830048860820047	5.5708594	2.360267
4.847591245299709	5.5732393	2.360771
4.8651337434530655	5.57888	2.3619652
4.882676355693457	5.554144	2.356723
4.900219082434242	5.5271482	2.3509889
4.917761924088813	5.499226	2.345043
4.935304881070575	5.4624496	2.3371885
4.952847953792969	5.3663864	2.3165462
4.970391142669449	5.3597636	2.3151164
4.9879344481135055	5.3308735	2.3088684
5.005477870538642	5.387651	2.3211315
5.023021410358394	5.428426	2.329898
5.040565067986324	5.3916516	2.321993
5.05810884383601	5.37096	2.3175333
5.075652738321066	5.3832555	2.3201845
5.09319675185512	5.3103914	2.3044286
5.110740884851836	5.2409844	2.2893198
5.128285137724894	5.179178	2.275781
5.145829510888007	5.176262	2.27514
5.163374004754908	5.1661267	2.2729115
5.1809186197393595	5.202364	2.280869
5.198463356255145	5.2325506	2.287477
5.216008214716077	5.2225223	2.2852838
5.233553195535998	5.190776	2.2783275
5.251098299128764	5.1794605	2.275843
5.268643525908272	5.226344	2.28612
5.286188876288432	5.2193165	2.2845824
5.3037343506831895	5.3137217	2.3051512
5.32127994950651	5.235124	2.2880394
5.3388256731723915	5.1878037	2.2776752
5.356371522094851	5.083805	2.2547295
5.373917496687938	5.006418	2.2375026
5.391463597365729	5.075747	2.2529418
5.40900982454232	5.0788746	2.253636
5.426556178631843	5.1108828	2.2607262
5.444102660048449	5.061536	2.2497857
5.4616492692063225	5.058336	2.2490745
5.479196006519669	5.0465903	2.2464616
5.496742872402727	5.0126343	2.2388914
5.514289867269756	5.0036535	2.2368848
5.531836991535049	5.02624	2.2419276
5.549384245612924	5.079638	2.2538052
5.566931629917724	5.0562024	2.2486
5.584479144863822	5.0278673	2.2422907
5.6020267908656205	4.947084	2.224204
5.619574568337545	4.8878565	2.2108498
5.637122477694054	4.823989	2.1963582
5.654670519349629	4.9024696	2.214152
5.672218693718784	4.9959936	2.235172
5.689767001216059	5.058921	2.2492044
5.707315442256021	5.1162066	2.2619033
5.724864017253266	5.1555896	2.2705925
5.7424127266224225	5.220728	2.2848911
5.75996157077814	5.14859	2.2690506
5.777510550135105	5.010573	2.238431
5.795059665108022	4.914896	2.2169564
5.812608916111639	4.8790674	2.208861
5.830158303560715	5.080906	2.2540865
5.847707827870055	5.1564984	2.2707925
5.86525748945448	5.2673445	2.2950697
5.8828072887288485	5.3710732	2.3175576
5.900357226108044	5.4516788	2.334883
5.917907302006979	5.5447087	2.3547206
5.9354575168406	6.154988	2.4809248
5.9530078710238765	6.6727757	2.5831716
5.970558364971812	7.20211	2.6836746
5.988108999099438	7.5802293	2.7532215
6.005659773821818	8.211106	2.8655028
6.023210689554039	7.978717	2.8246622
6.040761746711227	8.333341	2.8867526
6.058312945708531	7.764153	2.786423
6.075864286961132	7.2821984	2.698555
6.093415770884244	6.6215935	2.5732458
6.1109673978931065	6.0856094	2.4669027
6.128519168402993	5.445203	2.3334959
6.146071082829204	5.273871	2.296491
6.163623141587075	5.0695114	2.2515576
6.181175345091969	5.020184	2.2405767
6.198727693759281	5.024428	2.2415235
6.216280188004435	5.05479	2.248286
6.233832828242885	5.0656667	2.2507036
6.251385614890126	5.128918	2.2647114
6.268938548361669	5.1861954	2.277322
6.286491629073067	5.0781612	2.2534776
6.304044857439898	5.098851	2.2580636
6.321598233877777	4.949333	2.2247097
6.339151758802344	4.969444	2.229225
6.356705432629277	4.8810453	2.2093089
6.37425925577428	4.8858967	2.2104065
6.391813228653095	4.893431	2.21211
6.409367351681486	4.91646	2.2173092
6.426921625275259	4.874408	2.207806
6.44447604985025	4.8541775	2.20322
6.46203062582232	4.8716373	2.2071786
6.47958535360737	4.947779	2.2243605
6.497140233621328	4.975846	2.2306604
6.514695266280161	4.9544873	2.2258677
6.532250451999859	4.9111786	2.2161179
6.549805791196454	4.828306	2.1973407
6.567361284286002	4.820727	2.1956153
6.584916931684597	4.834636	2.1987805
6.602472733808367	4.868094	2.2063758
6.6200286910734665	4.964096	2.2280252
6.637584803896092	4.94558	2.223866
6.655141072692462	4.962447	2.2276552
6.672697497878842	4.96837	2.228984
6.690254079871514	4.947414	2.2242782
6.707810819086808	4.923287	2.218848
6.725367715941078	4.858508	2.2042024
6.742924770850719	4.8402014	2.2000458
6.760481984232151	4.8610363	2.2047758
6.778039356501836	4.925474	2.219341
6.795596888076266	4.978058	2.231156
6.813154579371963	5.0057564	2.2373548
6.830712430805492	4.971385	2.2296603
6.84827044279344	4.902806	2.2142282
6.865828615752445	4.885744	2.210372
6.883386950099159	4.8847146	2.210139
6.900945446250287	4.9240184	2.219013
6.918504104622553	4.946928	2.224169
6.936062925632727	5.000577	2.236197
6.953621909697607	4.9993086	2.2359133
6.971181057234028	4.95958	2.2270114
6.988740368658859	4.8938184	2.2121975
7.006299844389007	4.9591703	2.2269194
7.023859484841407	5.05891	2.249202
7.041419290433036	5.171283	2.2740455
7.058979261580902	5.337457	2.3102937
7.0765393987020495	5.567668	2.3595905
7.094099702213559	5.948749	2.4390059
7.111660172532549	6.2857375	2.5071373
7.129220810076164	6.639895	2.5767994
7.146781615261595	7.1557083	2.6750157
7.16434258850606	7.377117	2.716085
7.181903730226821	7.8240013	2.7971416
7.1994650408411704	7.9737387	2.823781
7.217026520766437	8.110077	2.8478196
7.234588170419983	8.327528	2.8857458
7.252149990219215	8.308992	2.8825324
7.269711980581568	8.21782	2.866674
7.2872741419245175	7.9993014	2.8283036
7.304836474665574	7.5317845	2.7444098
7.322398979222286	7.2799015	2.6981292
7.339961656012233	7.0946527	2.663579
7.357524505453039	6.79444	2.6066146
7.375087527962357	6.5413427	2.5576048
7.392650723957886	6.181197	2.4862013
7.410214093857353	5.787153	2.4056501
7.427777638078528	5.5465446	2.3551104
7.445341357039213	5.3937864	2.3224528
7.4629052511572525	5.2858677	2.2991016
7.480469320850524	5.243732	2.2899196
7.498033566536948	5.2414165	2.289414
7.5155979886344735	5.2005053	2.2804615
7.5331625875610975	5.1499987	2.2693608
7.550727363734844	5.0928307	2.25673
7.568292317573788	5.0398097	2.244952
7.585857449496025	5.043485	2.2457705
7.603422759919705	5.0322585	2.2432697
7.620988249263007	5.0918293	2.256508
7.638553917944147	5.088235	2.2557116
7.656119766381391	5.1073008	2.2599337
7.673685794993023	5.0988636	2.2580664
7.691252004197388	5.1252227	2.2638955
7.70881839441285	5.167378	2.2731867
7.726384966057826	5.183966	2.2768326
7.743951719550762	5.1584935	2.2712317
7.761518655310149	5.183408	2.2767098
7.779085773754511	5.2548885	2.2923543
7.796653075302419	5.21737	2.2841563
7.814220560372475	5.2027216	2.2809474
7.831788229383323	5.2075934	2.2820153
7.8493560827536495	5.232949	2.287564
7.866924120902174	5.239398	2.288973
7.884492344247663	5.2254944	2.285934
7.9020607532089135	5.219194	2.2845554
7.919629348204771	5.2553205	2.2924485
7.937198129654115	5.2716546	2.2960083
7.954767097975865	5.253041	2.2919514
7.972336253588986	5.2990847	2.301974
7.989905596912472	5.3054204	2.3033497
8.007475128365371	5.3534017	2.313742
8.025044848366756	5.3879623	2.3211985
8.042614757335754	5.57632	2.3614233
8.060184855691523	5.6076407	2.3680458
8.07775514385327	5.7239084	2.3924692
8.095325622240228	5.689793	2.3853288
8.112896291271687	5.7287292	2.3934765
8.130467151366968	5.7535906	2.3986642
8.148038202945436	5.8287897	2.4142888
8.165609446426497	5.870586	2.4229293
8.183180882229594	5.8919363	2.4273312
8.200752510774217	5.8685603	2.422511
8.218324332479893	5.9669123	2.4427264
8.235896347766193	5.9405355	2.4373214
8.253468557052724	5.961674	2.441654
8.27104096075914	5.8986278	2.428709
8.288613559305137	5.9550486	2.440297
8.306186353110448	6.0057015	2.4506533
8.32375934259485	6.0906553	2.4679253
8.341332528178162	6.0991015	2.469636
8.358905910280246	6.0513644	2.459952
8.376479489321003	6.077042	2.4651659
8.394053265720377	6.1284637	2.4755733
8.411627239898356	6.1503444	2.4799888
8.42920141227497	6.1549344	2.480914
8.44677578327029	6.1131907	2.4724867
8.464350353304427	6.1027894	2.4703825
8.48192512279754	6.063578	2.4624333
8.499500092169827	6.0579996	2.4613004
8.51707526184153	6.0559063	2.460875
8.534650632232934	6.0654263	2.4628086
8.552226203764365	6.0527015	2.460224
8.569801976856192	6.0271792	2.4550314
8.587377951928834	6.1102324	2.4718883
8.60495412940274	6.188791	2.487728
8.622530509698416	6.231979	2.4963932
8.6401070932364	6.3470273	2.5193307
8.657683880437283	6.496548	2.5488327
8.675260871721695	6.633436	2.5755458
8.692838067510303	6.7952986	2.6067793
8.710415468223834	6.933767	2.6332047
8.727993074283043	7.0849447	2.661756
8.745570886108737	7.031432	2.6516848
8.763148904121765	7.0153637	2.6486533
8.78072712874302	6.995079	2.6448212
8.798305560393441	7.2549696	2.693505
8.815884199494006	7.439858	2.7276103
8.833463046465745	7.5282907	2.743773
8.851042101729728	7.6182604	2.7601197
8.86862136570707	7.8928533	2.8094223
8.886200838818924	8.1363	2.85242
8.903780521486505	8.195024	2.8626952
8.921360414131055	8.249241	2.8721492
8.938940517173874	8.361201	2.8915741
8.956520831036297	8.579669	2.9291072
8.97410135613971	8.879663	2.9798765
8.99168209290554	9.027354	3.0045555
9.009263041755265	9.323258	3.0534012
9.026844203110405	9.544259	3.0893784
9.044425577392525	9.764061	3.1247497
9.062007165023239	9.781255	3.1274998
9.079588966424197	10.052578	3.1705801
9.097170982017108	10.205736	3.1946418
9.11475321222372	11.223003	3.3500752
9.132335657465825	12.017535	3.4666317
9.149918318165264	12.079127	3.475504
9.167501194743924	12.62874	3.553694
9.18508428762374	12.447562	3.5281103
9.202667597226693	12.480197	3.5327322
9.220251123974803	12.112773	3.480341
9.237834868290143	11.672681	3.4165306
9.255418830594836	11.469317	3.3866382
9.273003011311046	11.001639	3.316872
9.290587410860985	10.822745	3.2897942
9.308172029666911	10.205483	3.1946023
9.32575686815113	9.887928	3.1445076
9.343341926735997	8.662573	2.943225
9.360927205843916	8.380431	2.8948975
9.378512705897327	8.20221	2.8639503
9.396098427318728	7.9297643	2.8159838
9.413684370530664	7.861935	2.8039143
9.431270535955722	7.756441	2.7850387
9.448856924016539	7.6796613	2.7712202
9.466443535135806	7.615672	2.7596507
9.484030369736251	7.667664	2.7690547
9.501617428240658	7.6911826	2.7732983
9.519204711071852	7.6540713	2.7665992
9.536792218652714	7.6423583	2.7644815
9.55437995140617	7.6348886	2.7631302
9.571967909755191	7.7552066	2.7848172
9.589556094122802	7.8253293	2.797379
9.60714450493207	7.8524013	2.8022137
9.624733142606116	7.839248	2.7998657
9.642322007568108	7.8801327	2.8071575
9.659911100241267	7.922246	2.8146484
9.677500421048851	7.9347515	2.816869
9.695089970414175	7.918429	2.8139703
9.712679748760609	7.9126897	2.8129504
9.730269756511557	7.9044447	2.8114843
9.747859994090492	7.9751005	2.824022
9.765450461920915	8.024459	2.8327477
9.78304116042639	8.082607	2.8429925
9.800632090030527	8.114251	2.8485525
9.81822325115699	8.073351	2.8413644
9.835814644229481	8.140758	2.8532014
9.853406269671762	8.195401	2.862761
9.870998127907646	8.248869	2.8720844
9.888590219360985	8.216835	2.8665023
9.906182544455698	8.202358	2.863976
9.923775103615734	8.139416	2.852966
9.941367897265108	8.099018	2.8458774
9.958960925827878	8.058577	2.8387632
9.97655418972816	8.135098	2.8522093
9.994147689390106	8.186267	2.8611653
10.011741425237934	8.210056	2.8653195
10.029335397695904	8.159293	2.8564477
10.04692960718833	8.095805	2.8453128
10.06452405413958	8.045644	2.8364844
10.082118738974064	8.112775	2.8482933
10.099713662116246	8.163052	2.8571055
10.117308823990651	8.21087	2.8654616
10.134904225021844	8.174346	2.8590813
10.152499865634445	8.112345	2.8482177
10.170095746253125	8.064601	2.8398242
10.18769186730261	8.022035	2.8323197
10.205288229207675	8.053385	2.8378487
10.222884832393145	8.057846	2.8386345
10.2404816772839	8.1077385	2.847409
10.258078764304868	8.107314	2.8473346
10.275676093881035	8.038556	2.8352346
10.293273666437438	7.9553175	2.8205173
10.310871482399158	7.979664	2.8248298
10.32846954219134	7.9928675	2.827166
10.346067846239173	7.987732	2.8262575
10.363666394967908	7.978341	2.8245957
10.38126518880283	8.072356	2.8411891
10.398864228169298	8.200133	2.8635874
10.416463513492713	8.208506	2.865049
10.434063045198531	8.104332	2.8468108
10.451662823712262	8.057812	2.8386285
10.469262849459467	8.058105	2.8386803
10.486863122865758	8.049188	2.837109
10.504463644356806	8.030749	2.8338578
10.522064414358338	7.9974446	2.8279753
10.539665433296118	7.8805733	2.807236
10.557266701595987	7.798223	2.7925298
10.574868219683818	7.6793365	2.7711616
10.592469987985552	7.626789	2.7616642
10.610072006927185	7.493454	2.7374175
10.627674276934751	7.361212	2.7131553
10.64527679843435	7.1940928	2.6821806
10.662879571852143	7.1314054	2.670469
10.680482597614331	7.087004	2.6621428
10.698085876147173	7.041335	2.6535513
10.715689407876988	6.9235373	2.6312616
10.733293193230146	6.853514	2.6179218
10.750897232633072	6.7614427	2.6002774
10.76850152651225	6.672658	2.583149
10.786106075294207	6.59455	2.5679855
10.803710879405534	6.4780164	2.5451949
10.821315939272877	6.3790574	2.5256796
10.83892125532294	6.269642	2.5039253
10.856526827982472	6.217289	2.4934492
10.874132657678285	6.1822968	2.4864225
10.891738744837243	6.190662	2.488104
10.909345089886271	6.152906	2.4805052
10.926951693252343	6.0798855	2.4657423
10.944558555362494	6.0057516	2.4506636
10.96216567664381	5.931786	2.435526
10.979773057523436	5.8213077	2.4127386
10.997380698428573	5.7748275	2.4030871
11.014988599786477	5.7267566	2.3930643
11.032596762024461	5.671245	2.3814375
11.050205185569892	5.5581107	2.3575647
11.067813870850198	5.491679	2.3434331
11.085422818292859	5.4705462	2.3389199
11.10303202832541	5.4626203	2.337225
11.120641501375454	5.434967	2.3313017
11.138251237870636	5.296003	2.3013046
11.155861238238671	5.2713356	2.295939
11.173471502907317	5.211898	2.282958
11.191082032304402	5.107218	2.2599154
11.208692826857805	5.043339	2.245738
11.226303886995465	5.010582	2.238433
11.243915213145371	5.001855	2.2364826
11.261526805735578	4.8570848	2.2038796
11.279138665194196	4.723428	2.1733449
11.296750791949393	4.6742635	2.1620045
11.314363186429393	4.7234373	2.173347
11.331975849062479	4.692679	2.1662593
11.34958878027699	4.5983386	2.1443737
11.36720198050133	4.560136	2.1354475
11.384815450163948	4.5489917	2.1328366
11.402429189693366	4.5354905	2.1296692
11.420043199518153	4.4986806	2.1210093
11.437657480066942	63.414246	7.9633064
11.455272031768422	85.10759	9.225377
11.472886855051353	107.43332	10.365005
11.490501950344528	99.03677	9.951722
11.508117318076819	84.36849	9.185232
11.52573295867715	45.7414	6.763239
11.543348872574514	4.0747423	2.018599
11.560965060197946	4.0047855	2.0011961
11.57858152197655	3.9219894	1.9804013
11.59619825833949	3.8623245	1.9652797
11.613815269715985	3.861325	1.9650254
11.631432556535323	38.34348	6.192211
11.649050119226837	82.86491	9.103016
11.666667958219929	93.32536	9.660505
11.68428607394406	107.636375	10.374795
11.701904466828756	82.50626	9.083296
11.719523137303586	65.32356	8.082299
11.737142085798196	4.5603576	2.1354995
11.754761312742286	3.7016692	1.9239722
11.772380818565619	3.707022	1.9253628
11.790000603698015	3.6612701	1.9134445
11.80762066856935	3.5655968	1.8882788
11.825241013609572	3.5198312	1.8761213
11.842861639248683	3.4502795	1.8574928
11.860482545916748	3.43641	1.8537556
11.878103734043883	3.445861	1.8563031
11.895725204060282	3.443294	1.8556114
11.91334695639619	3.4482815	1.8569549
11.930968991481919	3.4190705	1.8490728
11.948591309747824	3.3620403	1.8335867
11.966213911624347	3.3249881	1.823455
11.98383679754198	3.275202	1.8097519
12.001459967931268	3.260968	1.8058151
12.019083423222835	3.1948426	1.7874123
12.036707163847352	3.1405282	1.7721535
12.05433119023556	3.1276972	1.7685297
12.071955502818259	3.0901346	1.7578778
12.089580102026313	3.0989175	1.7603742
12.107204988290643	3.0637178	1.750348
12.12483016204224	3.0817657	1.7554958
12.142455623712152	3.0918586	1.7583681
12.16008137373149	3.0564065	1.7482581
12.177707412531431	3.0299263	1.7406683
12.19533374054321	3.0105808	1.7351025
12.212960358198126	2.987371	1.7284013
12.230587265927545	2.9726646	1.7241417
12.248214464162889	2.9215744	1.7092613
12.265841953335649	2.8869267	1.6990958
12.283469733877375	2.8706133	1.6942885
12.301097806219685	2.8637893	1.6922734
12.31872617079425	2.8580155	1.6905667
12.336354828032825	2.887688	1.6993198
12.353983778367205	2.8988857	1.7026114
12.371613022229262	2.9055834	1.7045772
12.389242560050928	2.866493	1.6930721
12.406872392264201	2.8621068	1.6917763
12.424502519301143	2.8348093	1.6836892
12.442132941593874	2.8446243	1.6866014
12.459763659574586	2.84568	1.6869143
12.477394673675532	2.8413603	1.6856335
12.49502598432903	2.836511	1.6841944
12.51265759196746	2.7894557	1.6701664
12.530289497023267	2.7719254	1.6649101
12.547921699928967	2.7507806	1.6585478
12.565554201117134	2.7689857	1.664027
12.583187001020404	2.7524548	1.6590524
12.600820100071486	2.728391	1.6517842
12.618453498703152	2.7023659	1.6438874
12.636087197348235	2.6811402	1.6374187
12.65372119643964	2.6826987	1.6378946
12.671355496410326	2.7048569	1.6446449
12.68899009769333	2.8088446	1.6759608
12.706625000721749	2.8961346	1.7018033
12.724260205928752	2.9501343	1.7175955
12.741895713747551	2.924969	1.7102541
12.759531524611454	2.9347224	1.7131032
12.777167638953818	2.9226048	1.7095628
12.794804057208072	2.8877141	1.6993276
12.812440779807702	2.9203377	1.7088995
12.830077807186271	3.108667	1.7631412
12.847715139777405	3.2140357	1.7927732
12.865352778014795	3.4090512	1.8463616
12.882990722332197	3.4456728	1.8562523
12.90062897316344	3.4930174	1.8689616
12.918267530942412	3.6025965	1.8980507
12.935906396103071	3.5615005	1.8871938
12.953545569079449	3.730089	1.9313438
12.971185050305628	3.5488882	1.8838493
12.988824840215775	3.5304496	1.878949
13.006464939244115	3.4981427	1.8703322
13.024105347824943	3.3392406	1.8273588
13.041746066392617	3.423838	1.8503616
13.05938709538157	3.2588856	1.8052384
13.077028435226296	3.2989352	1.816297
13.094670086361363	3.2478967	1.8021922
13.112312049221401	3.1325781	1.769909
13.129954324241112	3.023158	1.7387232
13.147596911855258	2.8478682	1.6875628
13.165239812498685	2.8437479	1.6863415
13.182883026606293	2.770222	1.6643984
13.200526554613058	2.7235582	1.6503206
13.218170396954017	2.6677582	1.6333274
13.235814554064284	2.668898	1.6336763
13.253459026379034	2.6789098	1.6367376
13.271103814333523	2.6522276	1.6285661
13.288748918363058	2.659838	1.630901
13.306394338903031	2.6678607	1.6333587
13.32404007638889	2.6600883	1.6309777
13.341686131256164	2.6549	1.6293864
13.359332503940449	2.5977418	1.6117512
13.376979194877402	2.5818532	1.6068146
13.394626204502751	2.6018393	1.6130219
13.412273533252307	2.6486757	1.6274753
13.429921181561937	2.6207705	1.6188794
13.447569149867581	2.602467	1.6132164
13.465217438605247	2.6166894	1.6176184
13.482866048211022	2.6409514	1.6251004
13.500514979121052	2.6687112	1.6336191
13.518164231771568	2.6544242	1.6292404
13.535813806598844	2.656735	1.6299493
13.553463704039254	2.6399877	1.6248039
13.571113924529229	2.6703389	1.6341171
13.588764468505275	2.6532824	1.6288899
13.606415336403956	2.6863582	1.6390114
13.624066528661917	2.7020879	1.6438029
13.641718045715882	2.7564979	1.6602705
13.659369888002635	2.8085573	1.6758751
13.67702205595903	2.8749628	1.6955715
13.694674550021993	2.9526298	1.7183218
13.712327370628532	3.019981	1.7378092
13.729980518215713	3.0696793	1.75205
13.747633993220681	3.1194339	1.766192
13.765287796080647	3.1406393	1.7721848
13.7829419272329	3.1971693	1.788063
13.800596387114801	3.2313266	1.7975891
13.818251176163775	3.2704828	1.8084476
13.835906294817324	3.3578382	1.8324405
13.853561743513023	3.4069657	1.8457968
13.871217522688525	3.4625394	1.86079
13.888873632781538	3.4742272	1.8639278
13.906530074229858	3.487597	1.8675109
13.92418684747135	3.4735315	1.8637413
13.941843952943948	3.4386997	1.8543731
13.959501391085665	3.4267921	1.8511597
13.977159162334578	3.3952088	1.8426093
13.994817267128846	3.3542755	1.8314681
14.012475705906693	3.2570531	1.8047308
14.030134479106424	3.174964	1.7818428
14.047793587166414	3.099993	1.7606797
14.065453030525108	3.0921843	1.7584608
14.083112809621026	3.0307055	1.7408922
14.100772924892766	2.9419584	1.7152138
14.118433376778997	2.8611555	1.6914951
14.136094165718458	2.7916062	1.67081
14.153755292149969	2.7166893	1.6482383
14.171416756512416	2.6414778	1.6252624
14.189078559244768	2.6123767	1.6162848
14.20674070078606	2.5374928	1.5929509
14.224403181575408	2.5232298	1.5884677
14.242066002051999	2.485906	1.5766755
14.259729162655093	2.4671638	1.5707208
14.277392663824022	2.4301114	1.5588814
14.295056505998208	2.446199	1.5640329
14.312720689617128	2.4509017	1.5655357
14.330385215120348	2.4481204	1.5646471
14.348050082947497	2.4153073	1.5541259
14.3657152935383	2.39182	1.546551
14.383380847332528	2.3724933	1.54029
14.401046744770051	2.3487444	1.5325614
14.418712986290798	2.317933	1.522476
14.436379572334793	2.316798	1.5221032
14.454046503342123	2.350545	1.5331486
14.471713779752946	2.3609822	1.5365487
14.489381402007504	2.3702803	1.5395714
14.507049370546113	2.3440208	1.5310196
14.524717685809168	2.3462322	1.5317415
14.542386348237134	2.3165772	1.5220306
14.560055358270553	2.3223693	1.5239322
14.577724716350051	2.3493068	1.5327449
14.595394422916325	2.4109976	1.5527388
14.61306447841015	2.4431767	1.5630665
14.63073488327237	2.4589057	1.5680898
14.648405637943917	2.4837918	1.576005
14.6660767428658	2.50474	1.5826371
14.683748198479094	2.5321038	1.5912585
14.701420005224954	2.5364814	1.5926335
14.719092163544628	2.561759	1.6005496
14.73676467387942	2.5848732	1.6077541
14.754437536670727	2.6149123	1.617069
14.772110752360014	2.6429725	1.6257222
14.78978432138882	2.6181257	1.6180624
14.807458244198777	2.6320033	1.622345
14.82513252123159	2.5987835	1.6120743
14.842807152929028	2.607355	1.6147307
14.860482139732962	2.5765896	1.6051759
14.87815748208531	2.5639286	1.6012272
14.8958331804281	2.5791574	1.6059755
14.91350923520342	2.5834045	1.6072973
14.931185646853438	2.6168218	1.6176593
14.948862415820408	2.6386034	1.6243778
14.966539542546656	2.6761312	1.6358886
14.98421702747459	2.6634054	1.6319944
15.001894871046696	2.6456568	1.6265476
15.019573073705542	2.626799	1.6207403
15.037251635893766	2.6190963	1.6183622
15.054930558054092	2.660882	1.631221
15.072609840629323	2.6571684	1.6300824
15.090289484062351	2.6982923	1.642648
15.107969488796124	2.8377316	1.6845568
15.125649855273691	3.0767086	1.7540549
15.14333058393817	3.4720933	1.8633554
15.161011675232768	4.0460124	2.0114703
15.17869312960076	4.656672	2.1579323
15.196374947485506	5.366232	2.3165128
15.214057129330447	6.7791343	2.603677
15.231739675579114	8.991274	2.9985454
15.249422586675102	13.508614	3.6754067
15.267105863062092	17.900251	4.230869
15.284789505183847	24.89946	4.989936
15.302473513484218	29.843294	5.4629016
15.320157888407127	34.089073	5.838585
15.337842630396578	33.131855	5.7560277
15.355527739896656	30.19725	5.4952025
15.37321321735153	23.465584	4.8441286
15.39089906320545	15.928782	3.991088
15.408585277902748	10.198691	3.193539
15.42627186188783	6.334225	2.5167887
15.443958815605198	4.5629964	2.1361172
15.461646139499424	3.7633018	1.9399232
15.479333834015168	3.330858	1.8250638
15.497021899597165	3.0170033	1.7369523
15.514710336690234	2.777911	1.6667066
15.53239914573928	2.6450334	1.6263559
15.550088327189297	2.576507	1.6051502
15.567777881485336	2.5857573	1.608029
15.58546780907256	2.5616267	1.6005082
15.6031581103962	2.497351	1.5803009
15.620848785901568	2.4650838	1.5700586
15.638539836034063	2.4596102	1.5683144
15.656231261239173	2.486595	1.576894
15.673923061962451	2.4776793	1.5740646
15.691615238649552	2.4983318	1.5806112
15.709307791746202	2.4782693	1.574252
15.727000721698221	2.4355776	1.5606338
15.744694028951498	2.4041872	1.5505441
15.76238771395202	2.3800373	1.542737
15.780081777145844	2.3590608	1.5359235
15.797776218979125	2.3427293	1.5305977
15.815471039898094	2.3615596	1.5367367
15.833166240349064	2.38238	1.543496
15.850861820778437	2.4016922	1.5497394
15.868557781632699	2.380249	1.5428056
15.886254123358412	2.3643992	1.5376602
15.903950846402232	2.4011784	1.5495737
15.921647951210897	2.4359844	1.5607641
15.939345438231225	2.4751444	1.5732591
15.957043307910133	2.4723988	1.5723864
15.974741560694602	2.4285922	1.5583941
15.992440197031714	2.4488382	1.5648764
16.01013921736862	2.465349	1.570143
16.02783862215259	2.4936094	1.5791167
16.045538411830933	2.4491894	1.5649886
16.06323858685107	2.4012444	1.5495949
16.080939147660512	2.374547	1.5409565
16.09864009470684	2.3843646	1.5441388
16.11634142843774	2.428079	1.5582294
16.134043149300954	2.411826	1.5530055
16.15174525774433	2.397012	1.5482286
16.169447754215817	2.3751533	1.5411532
16.18715063916342	2.4092362	1.5521715
16.204853913035244	2.4403684	1.5621679
16.222557576279478	2.4660594	1.5703692
16.240261629344403	22.449472	4.7380877
16.257966072678386	42.957485	6.554196
16.275670906729868	38.07996	6.170896
16.293376131947387	2.5159893	1.586187
16.31108174877957	2.5427053	1.5945863
16.328787757675133	2.5508907	1.5971508
16.34649415908287	2.592209	1.6100339
16.364200953451657	2.6157033	1.6173136
16.38190814123048	2.6374798	1.6240319
16.39961572286839	2.601268	1.6128447
16.41732369881455	2.634851	1.6232224
16.43503206951817	2.680478	1.6372166
16.45274083542859	2.7415164	1.6557525
16.47044999699522	2.7845454	1.6686957
16.488159554667558	2.8274133	1.6814914
16.505869508895184	2.858756	1.6907856
16.523579860127786	2.8993194	1.7027388
16.541290608815117	2.9677358	1.7227118
16.559001755407035	3.0505245	1.7465751
16.57671330035348	3.1334295	1.7701496
16.59442524410448	3.208166	1.7911353
16.61213758711015	3.3273697	1.8241079
16.629850329820705	3.3835418	1.8394406
16.647563472686436	3.4517398	1.8578858
16.665277016157724	3.4379218	1.8541634
16.682990960685053	3.4650288	1.8614588
16.70070530671898	3.460682	1.8602908
16.718420054710155	3.4675634	1.8621395
16.736135205109335	3.4930966	1.8689828
16.753850758367335	3.5339332	1.8798758
16.771566714935087	3.5775971	1.8914537
16.789283075263597	3.6139941	1.9010508
16.80699983980398	3.6658018	1.9146284
16.82471700900741	3.7528465	1.9372265
16.84243458332518	3.8038423	1.9503442
16.860152563208665	3.8733966	1.9680947
16.87787094910932	3.920417	1.9800043
16.89558974147871	4.0107703	2.0026908
16.913308940768466	4.0996447	2.0247579
16.931028547430333	4.1750245	2.0432878
16.94874856191613	4.2194734	2.0541356
16.966468984677785	4.2570553	2.0632632
16.98418981616729	4.293729	2.0721314
17.00191105683676	4.340892	2.0834806
17.019632707138374	4.410872	2.1002076
17.03735476752442	4.501067	2.1215718
17.05507723844728	4.5681257	2.1373174
17.072800120359403	4.5338125	2.129275
17.090523413713353	4.481222	2.1168897
17.108247118961785	4.448545	2.1091573
17.125971236557437	4.486015	2.1180215
17.143695766953133	4.527564	2.1278074
17.161420710601806	4.638887	2.1538076
17.179146067956477	4.661649	2.1590853
17.19687183947025	4.677066	2.1626525
17.21459802559634	4.6648283	2.1598213
17.232324626788028	4.680933	2.1635463
17.25005164349871	4.659937	2.1586888
17.267779076181863	4.6184616	2.1490607
17.285506925291074	4.5595803	2.1353173
17.30323519127999	4.568749	2.137463
17.320963874602384	4.542776	2.131379
17.33869297571211	4.5614614	2.135758
17.356422495063114	4.572527	2.1383467
17.37415243310944	4.585054	2.141274
17.391882790305218	4.570374	2.1378434
17.40961356710468	4.5535197	2.1338978
17.42734476396215	4.5495653	2.132971
17.445076381332044	4.5541344	2.1340418
17.462808419668868	4.599855	2.1447272
17.48054087942723	4.666692	2.1602528
17.498273761061835	4.8748775	2.2079124
17.51600706502747	5.250077	2.2913046
17.533740791779024	5.8645854	2.4216907
17.551474941771485	6.6958876	2.5876412
17.56920951545993	8.587319	2.9304128
17.586944513299528	9.788079	3.1285906
17.60467993574556	12.666593	3.5590158
17.622415783253373	15.184643	3.8967478
17.64015205627843	17.950228	4.236771
17.657888755276293	20.348469	4.5109277
17.675625880702604	21.903679	4.6801367
17.69336343301311	20.590206	4.5376434
17.71110141266366	18.493162	4.300368
17.728839820110178	15.798095	3.9746816
17.746578655808705	12.558473	3.5437934
17.764317920215372	10.323241	3.21298
17.7820576137864	8.589624	2.9308062
17.79979773697811	7.228985	2.688677
17.81753829024692	5.9923973	2.4479373
17.835279274049356	5.2362223	2.2882793
17.85302068884201	4.4979324	2.120833
17.870762535081607	4.079217	2.0197072
17.888504813224934	3.8678746	1.9666913
17.90624752372891	3.7226126	1.9294074
17.923990667050536	3.6205325	1.9027697
17.941734243646895	3.5156229	1.8749994
17.959478253975185	3.4206524	1.8495005
17.9772226984927	3.386729	1.8403068
17.994967577656833	3.336196	1.8265257
18.01271289192506	3.2999394	1.8165735
18.030458641754965	3.2582543	1.8050635
18.04820482760425	3.2600732	1.8055673
18.06595144993067	3.2756777	1.8098834
18.083698509192125	3.279114	1.8108324
18.101446005846576	3.2158992	1.7932929
18.119193940352105	3.159956	1.7776265
18.136942313166887	3.1195061	1.7662123
18.1546911247492	3.091475	1.758259
18.1724403755574	3.09648	1.7596817
18.19019006604997	3.108699	1.7631503
18.207940196685467	3.099882	1.7606481
18.225690767922575	3.0473988	1.7456801
18.243441780220046	3.0377488	1.7429138
18.261193234036764	3.0099862	1.7349311
18.278945129831676	2.9774857	1.7255392
18.29669746806386	2.9748607	1.7247784
18.314450249192483	2.9419696	1.7152171
18.3322034736768	2.925145	1.7103055
18.349957141976184	2.8920288	1.7005966
18.3677112545501	2.9176633	1.7081169
18.385465811858108	2.9524531	1.7182704
18.403220814359884	2.987445	1.7284228
18.420976262515172	3.01396	1.736076
18.43873215678387	3.0858626	1.7566624
18.456488497625923	3.1460602	1.7737137
18.474245285501407	3.2513325	1.8031452
18.492002520870486	3.3094947	1.8192017
18.50976020419343	3.3582547	1.8325541
18.527518335930615	3.6169767	1.9018351
18.545276916542516	4.155307	2.038457
18.563035946489688	4.2921953	2.0717614
18.580795426232832	4.6535296	2.1572042
18.598555356232698	4.567134	2.1370854
18.616315736950185	4.9065847	2.2150812
18.63407656884626	4.5902877	2.1424956
18.65183785238201	4.753323	2.1802118
18.669599588018617	4.557676	2.1348715
18.68736177621737	4.577037	2.139401
18.705124417439652	4.573284	2.1385238
18.72288751214696	4.3424478	2.083854
18.740651060800886	4.3854446	2.0941453
18.758415063863115	4.0967913	2.024053
18.77617952179546	4.289359	2.0710769
18.793944435059814	4.1284227	2.031852
18.811709804118184	4.150176	2.037198
18.829475629432675	4.115053	2.0285594
18.8472419114655	3.8887687	1.9719961
18.86500865067897	3.9275167	1.9817964
18.88277584753551	3.6257253	1.9041337
18.90054350249763	3.669578	1.9156142
18.918311616027957	3.4228756	1.8501015
18.936080188589226	3.324269	1.8232578
18.953849220644265	3.0024207	1.7327495
18.971618712656007	2.8142395	1.6775695
18.9893886650875	2.726045	1.6510738
19.007159078401887	7.934717	2.816863
19.024929953062408	32.814266	5.728374
19.042701289532435	32.75173	5.722913
19.060473088275405	25.336214	5.0335093
19.07824534975489	2.640146	1.6248527
19.096018074434568	2.6459742	1.6266451
19.113791262778197	2.609054	1.6152567
19.13156491524966	2.6280968	1.6211406
19.149339032312945	2.6075523	1.6147918
19.167113614432136	2.578302	1.6057092
19.184888662071433	2.5255773	1.5892065
19.202664175695123	2.5051594	1.5827695
19.220440155767623	2.4992278	1.5808946
19.238216602753447	2.4823573	1.5755498
19.2559935171172	2.4713912	1.572066
19.27377089932361	2.4733078	1.5726753
19.291548749837514	2.4791512	1.574532
19.309327069123835	2.4905324	1.578142
19.32710585764763	2.5061636	1.5830867
19.344885115874032	2.5315454	1.591083
19.362664844268313	2.529234	1.5903566
19.380445043295822	2.4956555	1.5797644
19.39822571342203	2.4615092	1.5689198
19.41600685511252	2.4365711	1.560952
19.43378846883297	2.4428704	1.5629685
19.451570555049173	2.4392374	1.5618058
19.469353114227037	2.4211142	1.555993
19.48713614683254	2.423409	1.5567303
19.50491965333182	2.4564037	1.5672919
19.52270363419109	2.4542499	1.5666046
19.540488089876686	2.4762778	1.5736194
19.55827302085503	2.4901776	1.5780296
19.576058427592674	2.4948468	1.5795084
19.593844310556282	2.4827752	1.5756824
19.611630670212598	2.4896448	1.5778608
19.629417507028506	2.4394202	1.5618644
19.64720482147098	2.4339051	1.5600978
19.6649926140071	2.4286244	1.5584044
19.682780885104084	2.4499574	1.565234
19.70056963522921	2.4316688	1.5593809
19.718358864849908	2.4465117	1.5641329
19.7361485744337	2.4580739	1.5678246
19.753938764448215	2.500592	1.581326
19.771729435361202	2.470009	1.5716263
19.789520587640506	2.44412	1.5633681
19.807312221754092	2.4256418	1.5574472
19.825104338170043	2.4873602	1.5771368
19.842896937356517	2.5032425	1.5821638
19.860690019781824	2.4683568	1.5711005
19.87848358591436	2.4344227	1.5602636
19.896277636222635	2.4505553	1.5654249
19.914072171175278	2.469883	1.5715861
19.931867191241015	2.4728072	1.5725162
19.94966269688869	2.4678721	1.5709462
19.967458688587264	2.465684	1.5702497
19.985255166805807	2.4534168	1.5663387
20.00305213201348	2.4548955	1.5668106
20.020849584679578	2.4382122	1.5614775
20.038647525273507	2.442162	1.5627419
20.05644595426477	2.476817	1.5737907
20.07424487212299	2.4761283	1.5735718
20.092044279317903	2.4517186	1.5657965
20.109844176319353	2.3988948	1.5488366
20.127644563597304	2.3785946	1.5422693
20.145445441621817	2.3908784	1.5462465
20.16324681086307	2.4101002	1.5524497
20.181048671791373	2.4140859	1.5537329
20.198851024877122	2.4019973	1.5498378
20.216653870590836	2.3895202	1.5458072
20.234457209403146	2.357355	1.5353681
20.252261041784802	2.3179016	1.5224656
20.270065368206662	2.2960691	1.5152786
20.287870189139685	2.3191411	1.5228727
20.305675505054968	2.308891	1.5195036
20.323481316423702	2.3027463	1.5174803
20.341287623717207	2.310655	1.5200839
20.359094427406884	2.3053977	1.5183536
20.376901727964288	2.2719395	1.5072955
20.39470952586107	2.272843	1.5075951
20.41251782156899	2.301474	1.517061
20.430326615559935	2.3010864	1.5169332
20.448135908305886	2.31419	1.5212462
20.465945700278965	2.3077013	1.519112
20.483755991951384	2.308805	1.5194752
20.50156678379548	2.3225768	1.5240003
20.519378076283708	2.3561985	1.5349914
20.537189869888635	2.3275335	1.5256256
20.55500216508294	2.278655	1.5095215
20.572814962339415	2.2468615	1.4989535
20.59062826213098	2.251356	1.5004519
20.60844206493066	2.28878	1.5128714
20.626256371211593	2.3039777	1.5178859
20.644071181447032	2.2954326	1.5150685
20.66188649611036	2.284574	1.5114807
20.67970231567506	2.3171663	1.5222242
20.697518640614742	2.3246005	1.524664
20.715335471403122	2.3112748	1.5202878
20.73315280851404	2.2773762	1.5090978
20.750970652421447	2.2958078	1.5151924
20.768789003599412	2.290809	1.5135418
20.786607862522136	2.2926414	1.514147
20.8044272296639	2.2801564	1.5100187
20.82224710549913	2.2874818	1.5124424
20.84006749050237	2.2820926	1.5106597
20.857888385148268	3.8506882	1.9623171
20.8757097899116	45.92373	6.776705
20.893531705267254	64.78965	8.049202
20.911354131690224	83.79447	9.153932
20.92917706965566	69.05108	8.309698
20.94700051963877	50.073933	7.076294
20.96482448211493	29.345211	5.417122
20.982648957559622	4.09432	2.0234425
21.00047394644843	2.2113814	1.4870714
21.01829944925707	2.2321296	1.4940313
21.036125466461375	2.228339	1.4927622
21.053951998537297	2.2294219	1.4931248
21.071779045960906	2.214783	1.4882147
21.089606609208378	2.218435	1.4894412
21.10743468875603	2.1945937	1.4814161
21.12526328508028	2.156647	1.4685527
21.143092398657675	2.145832	1.4648659
21.16092202996488	2.1745813	1.4746462
21.17875217947867	2.1837542	1.477753
21.19658284767596	2.2117183	1.4871846
21.21441403503377	2.2355473	1.4951746
21.232245742029225	2.2085037	1.4861035
21.2500779691396	2.14021	1.4629456
21.26791071684227	2.112526	1.4534531
21.28574398561475	2.1232686	1.457144
21.30357777593465	2.12775	1.4586809
21.321412088279704	2.1212757	1.45646
21.339246923127792	2.1258936	1.4580444
21.357082280956888	2.1236622	1.4572791
21.3749181622451	2.111917	1.4532436
21.392754567470647	2.1049132	1.4508319
21.41059149711187	2.1133747	1.453745
21.42842895164726	2.1151693	1.4543622
21.446266931555378	2.0951195	1.4474528
21.464105437314945	2.080152	1.4422733
21.481944469404798	2.077904	1.4414936
21.49978402830388	2.0464633	1.4305465
21.51762411449127	2.0377133	1.427485
21.53546472844617	2.0279112	1.4240475
21.553305870647876	2.0443342	1.4298022
21.571147541575865	2.026721	1.4236295
21.58898974170967	2.0088544	1.4173406
21.60683247152899	2.0104446	1.4179015
21.62467573151363	2.02049	1.4214394
21.642519522143523	2.0154245	1.4196565
21.660363843898722	2.034194	1.4262518
21.6782086972594	2.0432277	1.4294151
21.696054082705864	2.0384998	1.4277605
21.713900000718535	2.0063426	1.4164542
21.73174645177795	2.0064344	1.4164866
21.749593436364794	2.0122511	1.4185383
21.767440954959845	2.018359	1.4206896
21.785289008044032	2.0378757	1.4275419
21.803137596098388	2.0405772	1.4284878
21.820986719604086	2.0307019	1.425027
21.838836379042412	2.0263753	1.423508
21.85668657489478	2.03266	1.4257139
21.87453730764273	2.060242	1.4353542
21.892388577767914	2.0742984	1.4402425
21.91024038575213	2.0992036	1.4488629
21.928092732077285	2.061204	1.4356893
21.945945617225426	2.0207515	1.4215314
21.963799041678694	1.9839388	1.4085237
21.981653005919398	31.310507	5.595579
21.999507510429943	78.11518	8.83828
22.01736255569286	73.08716	8.549103
22.035218142190818	4.1705065	2.0421817
22.05307427040661	1.9676404	1.402726
22.07093094082315	1.9786102	1.4066308
22.088788153923474	1.9979982	1.4135057
22.106645910190746	1.9919648	1.4113698
22.12450421010827	1.9301136	1.3892853
22.142363054159464	1.9320706	1.3899894
22.16022244282787	1.9586947	1.3995337
22.178082376597164	1.9716914	1.4041693
22.195942855951145	1.9642769	1.4015267
22.213803881373742	1.9707286	1.4038265
22.231665453349002	1.9743955	1.4051318
22.24952757236111	1.9329005	1.390288
22.26739023889438	1.9363776	1.3915379
22.28525345343323	1.9691477	1.4032632
22.30311721646225	1.9837179	1.4084452
22.320981528466113	1.942732	1.3938192
22.33884638992964	1.949525	1.396254
22.356711801337788	1.9517817	1.3970618
22.37457776317561	1.9676737	1.4027379
22.392444275928337	1.9512019	1.3968543
22.410311340081282	1.9446907	1.3945217
22.428178956119904	1.9546372	1.3980834
22.446047124529805	1.9451641	1.3946913
22.46391584579669	1.8901179	1.3748156
22.481785120406414	1.8844153	1.37274
22.49965494884496	1.9011561	1.3788241
22.51752533159841	1.9529004	1.3974621
22.53539626915302	1.9606129	1.4002188
22.553267761995137	1.9435881	1.3941263
22.571139810611264	1.8926353	1.3757309
22.589012415488025	1.9094586	1.3818316
22.60688557711216	1.9477977	1.3956352
22.624759295970566	1.9879996	1.4099643
22.642633572550263	1.9768423	1.4060023
22.660508407338362	1.9367303	1.3916646
22.67838380082217	1.9189671	1.3852679
22.696259753489077	1.9394615	1.3926455
22.714136265826614	1.9552212	1.3982922
22.73201333832246	1.9615974	1.4005704
22.74989097146439	1.89862	1.3779042
22.76776916574035	1.8988245	1.3779784
22.785647921638393	1.913839	1.3834157
22.803527239646712	1.9407467	1.3931068
22.82140712025363	1.9311898	1.3896725
22.839287563947593	1.92919	1.3889529
22.85716857121719	1.9057112	1.3804749
22.875050142551135	1.9067495	1.380851
22.892932278438277	1.8955346	1.3767842
22.910814979367604	1.9168141	1.3844906
22.928698245828222	1.8986058	1.377899
22.946582078309387	1.9033239	1.3796101
22.96446647730047	1.8843946	1.3727325
22.98235144329098	1.8784432	1.3705631
23.000236976770562	1.8383298	1.3558502
23.018123078229	1.8561087	1.3623908
23.03600974815619	1.9011636	1.3788269
23.053896987042194	1.9250196	1.3874508
23.071784795377173	1.9039968	1.379854
23.08967317365145	1.898143	1.3777311
23.10756212235546	1.9080956	1.3813384
23.125451641979787	1.8940372	1.3762403
23.143341733015134	1.9041932	1.379925
23.161232395952357	1.9123394	1.3828737
23.179123631282426	1.9106367	1.3822578
23.197015439496468	1.8911988	1.3752086
23.214907821085717	1.9117227	1.3826506
23.23280077654157	1.9362235	1.3914825
23.250694306355538	1.968291	1.4029579
23.268588411019277	1.9732611	1.4047282
23.28648309102458	1.9592104	1.3997179
23.304378346863356	1.9188309	1.3852187
23.322274179027676	1.9300928	1.3892778
23.340170588009723	1.9362783	1.3915021
23.358067574301852	1.9301604	1.3893021
23.37596513839651	1.9352789	1.391143
23.39386328078629	1.9473832	1.3954867
23.411762001963947	1.9308097	1.3895358
23.429661302422353	1.9149754	1.3838264
23.4475611826545	1.8909223	1.3751081
23.46546164315356	1.8998935	1.3783662
23.48336268441279	1.9281818	1.3885899
23.501264306925638	1.9427925	1.3938409
23.51916651118564	1.9264129	1.3879528
23.537069297686497	1.8976971	1.3775693
23.554972666922037	1.9041419	1.3799065
23.57287661938623	1.9234108	1.3868709
23.59078115557318	1.9002329	1.3784894
23.608686275977128	1.8960917	1.3769865
23.62659198109246	1.9045634	1.3800592
23.6444982714137	1.9084147	1.3814539
23.66240514743549	1.9005467	1.3786031
23.68031260965263	1.8636193	1.3651445
23.698220658560068	1.8511354	1.3605644
23.716129294652845	1.8665948	1.3662338
23.7340385184262	1.8789327	1.3707417
23.75194833037546	1.9009984	1.378767
23.769858730996123	1.9232098	1.3867984
23.78776972078382	1.9034618	1.37966
23.80568130023431	1.9023906	1.3792717
23.823593469843495	1.8668463	1.3663259
23.841506230107424	1.8887652	1.3743236
23.859419581522275	1.9047694	1.3801339
23.87733352458438	1.9142458	1.3835627
23.89524805979019	1.8958505	1.3768989
23.913163187636318	1.864977	1.3656416
23.931078908619508	1.8792448	1.3708555
23.948995223236633	1.9153364	1.3839568
23.966912131984735	1.964951	1.4017671
23.98482963536096	2.0035605	1.4154718
24.002747733862616	1.9708979	1.4038867
24.020666427987155	1.992546	1.4115757
24.038585718232156	2.0279658	1.4240667
24.056505605095353	2.0335855	1.4260384
24.074426089074617	2.0312881	1.4252326
24.092347170667946	2.0565221	1.434058
24.110268850373515	2.0875323	1.4448295
24.128191128689586	2.091536	1.4462144
24.146114006114626	2.0261328	1.4234229
24.164037483147187	2.00152	1.4147508
24.181961560286005	2.0347347	1.4264413
24.199886238029926	2.038127	1.4276298
24.21781151687797	2.0331109	1.425872
24.235737397329274	1.9958462	1.4127442
24.253663879883135	2.0096784	1.4176313
24.271590965038975	2.0262504	1.4234642
24.289518653296376	2.0538392	1.4331222
24.30744694515505	2.065895	1.4373221
24.32537584111486	2.0058358	1.4162753
24.34330534167581	1.9963847	1.4129348
24.361235447338046	2.0035014	1.4154509
24.379166158601876	2.0163176	1.419971
24.39709747596772	1.9550014	1.3982136
24.41502939993615	1.9372517	1.3918519
24.432961931007917	1.9263537	1.3879315
24.450895069683856	1.9354157	1.3911922
24.468828816465	1.9437319	1.3941779
24.4867631718525	1.9589831	1.3996367
24.504698136347656	1.9527855	1.397421
24.52263371045192	1.9112806	1.3824908
24.540569894666874	1.9171025	1.3845947
24.558506689494266	1.9042639	1.3799506
24.57644409543597	1.9257604	1.3877177
24.594382112994012	1.934954	1.3910263
24.61232074267057	2.0054772	1.4161487
24.630259984967953	2.0071578	1.416742
24.64819984038863	2.0144107	1.4192994
24.66614030943522	2.0004563	1.414375
24.684081392610462	1.9930053	1.4117384
24.702023090417274	1.9624553	1.4008766
24.7199654033587	1.939143	1.3925312
24.737908331937927	1.963149	1.4011241
24.755851876658305	1.9690034	1.4032118
24.773796038023324	2.0047162	1.41588
24.79174081653661	2.013116	1.4188432
24.809686212701962	2.0335238	1.4260168
24.827632227023294	2.0494862	1.4316026
24.8455788600047	2.107923	1.4518688
24.8635261121504	2.1457715	1.4648452
24.88147398396475	2.1545503	1.4678386
24.899422475952303	2.1302369	1.4595331
24.917371588617698	2.0920405	1.4463888
24.935321322465768	2.1318767	1.4600948
24.953271678001478	2.2539082	1.5013021
24.97122265572994	2.480406	1.5749305
24.989174256156414	2.773351	1.665338
25.00712647978632	3.331357	1.8252006
25.02507932712521	4.2993317	2.073483
25.043032798678798	5.793612	2.4069922
25.060986894952933	7.4426036	2.7281137
25.078941616453637	8.832681	2.9719827
25.096896963687055	9.710011	3.1160889
25.114852937159508	10.454783	3.2333858
25.132809537377444	10.429522	3.229477
25.150766764847468	9.791372	3.1291168
25.168724620076347	8.405426	2.8992112
25.186683103570985	7.2242985	2.6878054
25.204642215838426	5.778896	2.4039335
25.222601957385894	4.6698427	2.160982
25.24056232872074	3.6421883	1.9084518
25.25852333035048	3.0054858	1.7336336
25.276484962782778	2.487654	1.5772299
25.294447226525435	2.1578062	1.4689473
25.312410122086423	2.0034864	1.4154457
25.330373649973843	1.9645014	1.4016067
25.348337810695988	2.0076218	1.4169056
25.366302604761245	1.9865214	1.40944
25.384268032678207	1.9635519	1.401268
25.40223409495558	1.913878	1.3834298
25.420200792102257	1.8514798	1.360691
25.438168124627246	1.827237	1.3517534
25.45613609303974	1.8153843	1.3473619
25.474104697849057	1.8059517	1.343857
25.492073939564698	1.8471926	1.3591146
25.510043818696285	1.8481528	1.3594679
25.528014335753614	1.84304	1.3575861
25.54598549124664	1.8738661	1.3688923
25.56395728568544	1.8942384	1.3763133
25.58192971958028	1.833512	1.3540723
25.59990279344156	1.7754302	1.3324527
25.617876507779833	1.8245671	1.3507653
25.635850863105826	1.8290306	1.3524166
25.653825859930386	1.8541583	1.3616748
25.671801498764548	1.8602917	1.3639251
25.68977778011949	1.8578031	1.3630126
25.707754704506524	1.8437303	1.3578403
25.725732272437153	1.8176575	1.3482053
25.743710484423012	1.8010186	1.3420204
25.761689340975888	1.842358	1.3573349
25.77966884260774	1.8517314	1.3607833
25.797648989830662	1.8495841	1.3599942
25.815629783156922	1.8419069	1.3571687
25.83361122309895	1.7946224	1.3396351
25.85159331016929	1.7773784	1.3331835
25.869576044880695	1.8201894	1.349144
25.887559427746034	1.8616097	1.3644081
25.90554345927836	1.8437395	1.3578438
25.92352813999086	1.8349658	1.3546091
25.94151347039689	1.8988711	1.3779953
25.959499451009965	1.9210526	1.3860204
25.97748608234374	1.8842019	1.3726623
25.995473364912062	1.8390954	1.3561325
26.013461299228904	1.8303802	1.3529154
26.03144988580839	1.8114997	1.3459196
26.04943912516483	1.8469225	1.3590152
26.067429017812675	1.8781714	1.370464
26.085419564266537	1.8731285	1.3686229
26.103410765041186	1.8291467	1.3524595
26.12140262065155	1.8221563	1.3498727
26.139395131612723	1.835488	1.3548018
26.157388298439948	1.8511372	1.3605651
26.17538212164861	1.8044518	1.3432989
26.193376601754295	1.8019804	1.3423786
26.211371739272714	1.8468045	1.3589718
26.229367534719746	1.8561177	1.3623941
26.247363988611433	1.8523775	1.3610208
26.26536110146397	1.8403562	1.3565973
26.283358873793727	1.8848408	1.372895
26.301357306117204	1.879219	1.3708462
26.319356398951104	1.8849602	1.3729385
26.33735615281224	1.8964463	1.3771152
26.35535656821762	1.83924	1.3561858
26.373357645684404	1.7873497	1.336918
26.39135938572991	1.7523876	1.3237778
26.409361788871614	1.7395209	1.3189089
26.427364855627165	1.7499417	1.3228536
26.445368586514352	1.7541307	1.324436
26.46337298205115	1.7507839	1.323172
26.48137804275568	1.7604883	1.326834
26.499383769146217	1.7812988	1.334653
26.517390161741215	1.822451	1.3499819
26.53539722105928	1.8217566	1.3497247
26.553404947619182	1.8068339	1.3441852
26.571413341939856	1.7852207	1.3361216
26.589422404540397	1.8218086	1.3497438
26.60743213594006	1.8053102	1.3436184
26.62544253665827	1.7448646	1.3209332
26.64345360721459	1.7121894	1.3085066
26.66146534812879	1.7648318	1.3284698
26.679477759920758	1.7992225	1.341351
26.69749084311057	1.8227803	1.3501037
26.71550459821847	1.8473703	1.35918
26.733519025764842	1.8123273	1.346227
26.751534126270258	1.7858576	1.3363599
26.769549900255434	1.8083097	1.3447341
26.787566348241267	1.8139185	1.3468179
26.80558347074881	1.8043543	1.3432626
26.823601268299267	1.8073012	1.344359
26.841619741414036	1.7960811	1.3401794
26.85963889061465	1.8183935	1.3484782
26.877658716422832	1.8375914	1.355578
26.89567921936045	1.8659041	1.365981
26.913700399949544	1.8339285	1.3542261
26.93172225871233	1.8300276	1.3527851
26.949744796171174	1.8129076	1.3464426
26.967768012848605	1.7993609	1.3414025
26.98579190926733	1.7347057	1.3170823
27.003816485950225	1.7172648	1.3104445
27.021841743420318	1.7209574	1.3118527
27.039867682200814	1.7932578	1.3391258
27.057894302815072	1.8095027	1.3451775
27.07592160578664	1.81354	1.3466774
27.0939495916392	1.8208691	1.3493959
27.111978260896635	1.8852633	1.3730489
27.13000761408296	1.9107006	1.382281
27.148037651722397	1.8893317	1.3745296
27.166068374339304	1.8820237	1.3718687
27.184099782458215	1.8158755	1.3475443
27.20213187660384	1.7922493	1.3387492
27.22016465730105	1.8318925	1.3534743
27.23819812507487	1.8602592	1.3639132
27.256232280450533	1.8743942	1.3690852
27.274267123953383	1.8489105	1.3597465
27.292302656108987	1.8387047	1.3559885
27.31033887744306	1.788763	1.3374465
27.32837578848146	1.7628733	1.3277324
27.34641338975026	1.8080654	1.3446432
27.364451681775673	1.8642021	1.3653579
27.382490665084074	1.866064	1.3660395
27.400530340202046	1.8064742	1.3440514
27.41857070765629	1.793583	1.3392472
27.436611767973726	1.7963864	1.3402934
27.454653521681404	1.7834746	1.3354679
27.472695969306564	1.8187792	1.3486212
27.490739111376627	1.8366989	1.3552487
27.508782948419153	1.8777581	1.3703132
27.526827480961902	1.8700057	1.3674815
27.54487270953279	1.8426205	1.3574315
27.562918634659898	1.8040537	1.3431506
27.580965256871508	1.8095692	1.3452023
27.599012576696026	1.7912316	1.338369
27.617060594662068	1.7586547	1.3261428
27.63510931129842	1.7877542	1.3370693
27.65315872713401	1.8854855	1.3731298
27.67120884269797	1.9434091	1.394062
27.68925965851958	1.8763028	1.3697821
27.707311175128307	1.8484794	1.3595879
27.725363393053787	1.8354311	1.3547808
27.74341631282583	1.8882064	1.3741202
27.7614699349744	1.8850137	1.3729581
27.77952426002968	2.0708308	1.4390382
27.797579288521973	2.1960456	1.481906
27.815635020981784	2.6253276	1.6202862
27.83369145793979	2.6474874	1.6271101
27.85174859992682	2.5047433	1.5826381
27.869806447473923	2.356221	1.5349987
27.887865001112267	2.02265	1.422199
27.905924261373233	1.9198477	1.3855857
27.92398422878836	1.905383	1.3803561
27.94204490388936	1.8686148	1.3669728
27.96010628720813	1.8303549	1.3529061
27.978168379276728	1.8737341	1.368844
27.9962311806274	1.8586069	1.3633074
28.014294691792568	1.8313899	1.3532885
28.0323589133048	1.7940066	1.3394053
28.050423845696887	1.8333465	1.3540113
28.068489489501758	1.8618375	1.3644917
28.086555845252523	1.9079499	1.3812855
28.104622913482487	1.9023362	1.3792521
28.122690694725115	1.919819	1.3855753
28.14075918951405	1.8959676	1.3769414
28.15882839838312	1.9277276	1.3884263
28.176898321866304	1.9269104	1.388132
28.1949689604978	1.9150147	1.3838406
28.213040314811945	1.9005853	1.3786172
28.23111238534327	1.9187472	1.3851885
28.249185172626493	1.95086	1.3967319
28.267258677196473	1.9824377	1.4079907
28.285332899588294	2.0039055	1.4155937
28.303407840337172	1.9808629	1.4074312
28.321483499978545	1.9465319	1.3951817
28.33955987904799	1.9487077	1.3959612
28.357636978081285	1.9709882	1.4039189
28.37571479761439	1.9339833	1.3906773
28.393793338183425	1.9231603	1.3867805
28.41187260032469	1.9706247	1.4037894
28.429952584574686	1.9884771	1.4101337
28.448033291470065	1.9547892	1.3981377
28.46611472154769	1.9925058	1.4115615
28.484196875344566	2.0224462	1.4221274
28.502279753397914	2.0118558	1.4183991
28.52036335624511	2.0088491	1.4173387
28.538447684423716	2.0331156	1.4258736
28.556532738471482	2.058406	1.4347147
28.574618518926325	2.050786	1.4320565
28.59270502632635	2.0185187	1.4207458
28.61079226120985	2.0158563	1.4198085
28.628880224115274	2.0005162	1.414396
28.646968915581287	2.0152018	1.4195781
28.66505833614671	2.0505626	1.4319786
28.68314848635055	2.0778368	1.4414704
28.701239366732004	2.0856025	1.4441615
28.71933097783044	2.1147633	1.4542226
28.737423320185403	2.1266396	1.4583002
28.75551639433665	2.1352458	1.461248
28.773610200824074	2.181	1.476821
28.791704740187793	2.1498232	1.4662275
28.80980001296809	2.0984147	1.4485906
28.827896019705413	2.1145103	1.4541355
28.845992760940433	2.1143668	1.4540862
28.86409023721397	2.1745114	1.4746225
28.88218844906704	2.2211912	1.4903661
28.900287397040845	2.2216752	1.4905285
28.918387081676755	2.1802967	1.4765828
28.936487503516343	2.1654527	1.4715477
28.954588663101365	2.1921344	1.4805858
28.97269056097374	2.2458801	1.4986261
28.990793197675597	2.2735956	1.5078447
29.00889657374923	2.34437	1.5311335
29.027000689737125	2.3778265	1.5420202
29.04510554618196	2.418821	1.555256
29.06321114362659	2.4008615	1.5494714
29.08131748261405	2.378819	1.5423421
29.099424563687567	2.4463704	1.5640877
29.11753238739057	2.57621	1.6050576
29.13564095426663	2.6078808	1.6148934
29.15375026485954	2.5730412	1.6040702
29.171860319713275	2.5639026	1.601219
29.18997111937199	2.5724573	1.6038882
29.20808266438002	2.6414862	1.625265
29.226194955281898	2.7394748	1.6551359
29.244307992622335	2.7949867	1.6718214
29.26242177694624	2.809922	1.6762822
29.2805363087987	2.8710454	1.6944159
29.29865158872498	2.894021	1.7011822
29.316767617270557	2.9310136	1.7120203
29.334884394981064	2.9389772	1.7143445
29.353001922402367	2.9963481	1.7309963
29.37112020008047	3.0627317	1.7500662
29.389239228561596	3.2108407	1.7918819
29.407359008392152	3.4368985	1.8538874
29.42547954011872	3.616079	1.901599
29.44360082428809	4.0443735	2.0110629
29.46172286144722	5.003871	2.2369335
29.479845652143283	6.683833	2.585311
29.497969196923606	9.433166	3.0713458
29.516093496335728	13.332648	3.6513898
29.5342185509274	16.971611	4.1196613
29.55234436124651	20.205973	4.4951053
29.570470927841175	21.555262	4.6427646
29.588598251259686	21.361635	4.621865
29.60672633205055	19.732647	4.4421444
29.624855170762405	16.70537	4.08722
29.642984767944146	13.110537	3.6208475
29.66111512414481	9.536366	3.0881007
29.67924623991366	6.915394	2.6297135
29.697378115800138	5.1505337	2.2694788
29.71551075235387	4.270926	2.0666218
29.733644150124675	3.8237884	1.9554509
29.751778309662576	3.6149583	1.9013044
29.769913231517766	3.491908	1.8686647
29.78804891624066	3.426319	1.8510319
29.806185364381818	3.4130287	1.8474385
29.82432257649206	3.3425772	1.8282716
29.842460553122333	3.2986014	1.8162053
29.86059929482382	3.3160422	1.8210003
29.878738802147872	3.3098338	1.8192948
29.896879075646048	3.3349774	1.826192
29.915020115870114	3.2835562	1.8120586
29.933161923371976	3.2496712	1.8026844
29.951304498703777	3.2333374	1.7981483
29.969447842417857	3.2535005	1.8037462
29.987591955066733	3.2800636	1.8110946
30.005736837203123	3.2453482	1.8014851
30.023882489379943	3.2024632	1.7895427
30.04202891215028	3.19716	1.7880604
30.060176106067455	3.146244	1.7737654
30.078324071684946	3.09818	1.7601647
30.09647280955646	3.0894344	1.7576787
30.114622320235863	3.172566	1.7811698
30.132772604277257	3.1876123	1.7853886
30.1509236622349	3.1175766	1.765666
30.16907549466328	3.1414196	1.772405
30.18722810211705	3.1294436	1.7690234
30.205381485151097	3.04421	1.7447665
30.22353564432045	2.9524176	1.71826
30.241690580180403	2.9446752	1.7160056
30.25984629328638	3.0142791	1.7361679
30.278002784194037	3.0429611	1.7444085
30.296160053459246	3.0122745	1.7355906
30.314318101638033	2.9706404	1.7235546
30.332476929286646	2.938859	1.71431
30.35063653696153	2.9432552	1.7155918
30.368796925219307	2.890645	1.7001897
30.386958094616844	2.8111558	1.6766502
30.40512004571115	2.8272746	1.6814501
30.423282779059463	2.8554082	1.6897953
30.441446295219233	2.84146	1.6856631
30.459610594748067	2.8207326	1.6795037
30.47777567820382	2.8108172	1.6765492
30.495941546144504	2.829772	1.6821926
30.51410819912835	2.841907	1.6857957
30.532275637713795	2.8591251	1.6908947
30.55044386245946	2.8754506	1.6957154
30.56861287392416	2.8662994	1.6930149
30.586782672666956	2.7929006	1.6711973
30.604953259247047	2.783337	1.6683336
30.623124634223885	2.7823772	1.6680459
30.641296798157075	2.7415242	1.6557549
30.659469751606462	2.7474675	1.6575487
30.677643495132074	2.7684171	1.6638561
30.695818029294152	2.6920602	1.6407499
30.713993354653116	2.6644106	1.6323023
30.73216947176962	2.666669	1.6329938
30.75034638120448	2.6980815	1.6425837
30.768524083518756	2.7067888	1.6452321
30.786702579273673	2.7364006	1.654207
30.80488186903069	2.8104568	1.6764417
30.82306195335144	2.9422905	1.7153106
30.841242832797782	3.1972787	1.7880936
30.85942450793176	3.5465987	1.8832415
30.877606979315637	3.9606318	1.9901336
30.895790247511883	4.3946023	2.0963306
30.913974313083134	4.739155	2.17696
30.932159176592283	5.1670847	2.2731223
30.95034483860237	5.578806	2.3619497
30.968531299676698	5.609501	2.3684385
30.98671856037873	5.2251997	2.2858696
31.00490662127215	4.7385993	2.1768324
31.023095482920848	4.1939797	2.047921
31.04128514588892	3.6281836	1.9047792
31.059475610740662	3.138261	1.7715138
31.07766687804056	2.7959554	1.672111
31.09585894835335	2.617967	1.6180133
31.11405182224393	2.5163367	1.5862966
31.132245500277417	2.4708953	1.5719081
31.15043998301914	2.4743714	1.5730135
31.168635271034628	2.537931	1.5930885
31.18683136488964	2.5062537	1.5831152
31.20502826515008	2.4856834	1.5766051
31.223225972382135	2.5101159	1.5843345
31.241424487152155	2.5666986	1.6020919
31.259623810026692	2.5732472	1.6041344
31.27782394157253	2.548154	1.5962939
31.296024882356644	2.509368	1.5840985
31.314226632946237	2.4512105	1.5656343
31.332429193908684	2.4236033	1.5567926
31.350632565811598	2.4433532	1.5631229
31.368836749222787	2.4319348	1.5594662
31.387041744710295	2.4732306	1.5726508
31.40524755284232	2.5140913	1.5855886
31.423454174187317	2.4974403	1.5803292
31.441661609313922	2.541498	1.5942076
31.459869858791002	2.5900688	1.609369
31.478078923187628	2.5232472	1.5884732
31.496288803073064	2.361696	1.5367811
31.514499499016807	2.3333664	1.527536
31.532711011588546	2.3605883	1.5364206
31.550923341358178	2.3331969	1.5274806
31.56913648889584	2.2558494	1.5019485
31.587350454771844	2.2776968	1.509204
31.605565239556732	2.2038515	1.4845375
31.62378084382127	2.1765575	1.475316
31.641997268136382	2.2446625	1.4982197
31.660214513073274	2.3684602	1.5389802
31.67843257920331	2.4216006	1.5561492
31.6966514670981	2.3544316	1.5344157
31.71487117732944	2.3108156	1.5201367
31.733091710469346	2.3562744	1.5350161
31.751313067090052	2.3492048	1.5327116
31.769535247764008	2.3513129	1.5333991
31.787758253063878	2.338125	1.5290929
31.805982083562526	2.346542	1.5318426
31.824206739833024	2.3231456	1.5241868
31.84243222244869	2.3311977	1.526826
31.860658531983013	2.2845786	1.5114822
31.878885669009737	2.260487	1.5034916
31.897113634102784	2.2971585	1.515638
31.91534242783632	2.292758	1.5141855
31.933572050784694	2.211527	1.4871204
31.951802503522508	2.1743646	1.4745727
31.970033786624548	2.1733637	1.4742333
31.988265900665834	2.2068422	1.4855444
32.006498846221575	2.224259	1.491395
32.02473262386724	2.127557	1.4586148
32.04296723417845	2.0833628	1.4433858
32.0612026777311	2.1399534	1.462858
32.07943895510129	2.2091763	1.4863298
32.097676066865304	2.247482	1.4991604
32.115914013599685	2.2447927	1.4982632
32.13415279588115	2.0960374	1.4477698
32.152392414286666	2.023402	1.4224633
32.1706328693934	2.1160963	1.4546808
32.18887416177875	2.1509519	1.4666123
32.20711629202032	2.1228948	1.4570158
32.225359260695924	2.0658164	1.4372948
32.243603068383614	2.1194172	1.4558219
32.26184771566166	2.1156957	1.4545431
32.28009320310852	2.093888	1.4470273
32.2983395313029	2.2072396	1.4856782
32.31658670082372	2.2424743	1.4974893
32.33483471225012	2.1894982	1.4796953
32.35308356616143	2.1406388	1.4630922
32.371333263137245	2.2026794	1.4841427
32.38958380375734	2.162745	1.4706274
32.407835188601744	2.1327572	1.4603963
32.42608741825067	2.1375585	1.4620391
32.444340493284585	2.109026	1.4522486
32.46259441428416	2.0716596	1.439326
32.48084918183028	2.111439	1.4530791
32.49910479650405	2.0820272	1.4429232
32.51736125888683	2.1102436	1.4526677
32.53561856956014	2.070298	1.438853
32.5538767291058	2.1645231	1.4712318
32.572135738105764	2.224367	1.4914311
32.59039559714228	2.0824075	1.4430549
32.608656306797776	1.9428612	1.3938656
32.62691786765491	1.9523141	1.3972523
32.645180280296586	2.0174437	1.4203675
32.663443545305896	2.0309944	1.4251297
32.68170766326619	1.9012098	1.3788437
32.69997263476099	1.8990695	1.3780674
32.7182384603741	1.9487324	1.3959701
32.7365051406895	1.9730281	1.4046452
32.75477267629144	2.0353074	1.4266421
32.77304106776434	2.0419836	1.4289799
32.79131031569289	1.9977915	1.4134325
32.809580420661966	1.978877	1.4067256
32.827851383256714	2.04444	1.4298391
32.84612320406245	2.021338	1.4217377
32.86439588366476	1.935732	1.3913059
32.88266942264945	1.8911855	1.3752038
32.9009438216025	1.964496	1.4016048
32.9192190811102	1.9574803	1.3990998
32.937495201758985	2.0063164	1.416445
32.95577218413556	2.05476	1.4334434
32.974050028826866	1.9832504	1.4082792
32.992328736420035	1.9425733	1.3937622
33.010608307502444	1.9301558	1.3893005
33.02888874266169	1.9013981	1.378912
33.047170042485604	1.8752106	1.3693833
33.06545220756225	1.8431661	1.3576325
33.083735238479896	1.9210733	1.3860279
33.10201913582707	2.0218313	1.4219111
33.12030390019248	2.0576153	1.4344391
33.138589532165135	2.0134373	1.4189564
33.15687603233419	1.9814574	1.4076425
33.17516340128909	1.9239485	1.3870647
33.19345163961947	1.9576249	1.3991514
33.211740747915215	1.9991648	1.4139183
33.23003072676643	2.0105608	1.4179424
33.248321576763466	1.9170824	1.3845874
33.266613298496885	1.844306	1.3580523
33.28490589255747	1.8218379	1.3497548
33.30319935953626	1.7713282	1.3309126
33.32149370002451	1.7950859	1.3398081
33.339788914613706	1.8446016	1.3581611
33.358085003895575	1.8362914	1.3550984
33.376381968462034	1.8542806	1.3617197
33.39467980890529	1.9421424	1.3936077
33.41297852581774	2.0035665	1.4154739
33.43127811979204	2.0166435	1.4200858
33.44957859142105	1.987523	1.4097954
33.467879941297866	2.0621614	1.4360228
33.486182170015844	2.1084704	1.4520574
33.50448527816853	1.9591076	1.3996812
33.522789266349754	1.9873464	1.4097327
33.541094135153514	2.025111	1.423064
33.55939988517411	1.9693737	1.4033438
33.57770651700602	1.8861908	1.3733866
33.59601403124398	1.8155236	1.3474137
33.61432242848296	1.7484776	1.3223001
33.632631709318154	1.7343128	1.316933
33.650941874344994	1.7540457	1.3244039
33.66925292415916	1.802582	1.3426027
33.68756485935654	1.8702662	1.3675767
33.70587768053328	1.92856	1.388726
33.724191388285746	2.0213602	1.4217454
33.74250598321054	2.0816398	1.4427888
33.760821465904506	2.0927892	1.4466475
33.77913783696474	2.0584795	1.4347402
33.79745509698852	1.9401004	1.3928748
33.815773246573414	1.8855238	1.3731438
33.8340922863172	1.9028345	1.3794327
33.852412216817896	1.921061	1.3860235
33.87073303867377	1.9624213	1.4008645
33.889054752483304	2.0435634	1.4295325
33.907377358845245	2.0764844	1.4410012
33.92570085835853	1.9377345	1.3920254
33.94402525162239	1.9534599	1.3976623
33.96235053923627	2.0010743	1.4145933
33.980676721799824	1.9615344	1.4005479
33.999003799912984	1.9017948	1.3790557
34.01733177417592	1.8679559	1.3667319
34.03566064518901	1.8628824	1.3648745
34.0539904135529	1.8986247	1.3779058
34.07232107986846	1.9331623	1.390382
34.090652644736785	1.891902	1.3754643
34.108985108759235	1.8115746	1.3459475
34.12731847253742	1.8887281	1.37431
34.14565273667313	1.8455555	1.3585123
34.16398790176847	1.8460561	1.3586965
34.18232396842574	1.9197044	1.385534
34.20066093724749	1.9828041	1.4081208
34.21899880883651	2.0642998	1.4367671
34.23733758379583	2.064382	1.4367957
34.25567726272874	1.904604	1.3800739
34.27401784623872	1.7742769	1.3320198
34.29235933492957	1.7759757	1.3326573
34.31070172940526	1.8902683	1.3748703
34.32904503027003	2.0432477	1.4294221
34.347389238128386	2.0868127	1.4445804
34.36573435358502	2.021894	1.4219332
34.38408037724492	1.8558644	1.3623011
34.402427309713296	1.8211555	1.349502
34.42077515159559	1.8471972	1.3591163
34.43912390349752	1.9624479	1.400874
34.45747356602499	2.0564935	1.4340479
34.47582413978423	2.042964	1.429323
34.49417562538163	2.0370576	1.4272553
34.51252802342388	2.0903647	1.4458094
34.53088133451789	1.9118792	1.3827072
34.54923555927084	1.8429751	1.3575622
34.567590698290104	1.9690098	1.4032141
34.58594675218336	1.9602133	1.4000762
34.6043037215585	1.8230096	1.3501887
34.62266160702365	1.804815	1.3434341
34.641020409187234	1.8645408	1.3654819
34.65938012865785	1.8216527	1.3496861
34.677740766044394	1.8947942	1.3765153
34.69610232195598	2.0442867	1.4297856
34.714464797002016	1.9833007	1.4082971
34.73282819179208	1.8445102	1.3581275
34.751192506936064	1.8025417	1.3425877
34.76955774304408	1.8139987	1.3468477
34.7879239007265	1.8474191	1.359198
34.80629098059391	1.7489462	1.3224773
34.824658983257194	1.8468027	1.3589712
34.843027909327446	2.1178942	1.4552987
34.86139775941603	2.2117147	1.4871835
34.879768534134534	2.0060904	1.4163653
34.89814023409483	1.87006	1.3675014
34.91651285990901	1.9299146	1.3892137
34.93488641218944	2.0045407	1.415818
34.95326089154871	1.7851387	1.3360908
34.97163629859967	1.6909245	1.3003556
34.99001263395542	1.9347097	1.3909384
35.00838989822934	2.2240362	1.4913203
35.02676809203499	2.0159051	1.4198258
35.04514721598624	1.8827764	1.372143
35.063527270697215	2.0733495	1.439913
35.081908256782256	1.9929016	1.4117017
35.10029017485597	1.8032749	1.3428607
35.11867302553321	1.7501177	1.3229201
35.137056809429104	1.8707681	1.3677602
35.155441527159006	1.8339446	1.3542321
35.173827179338524	1.8842503	1.37268
35.19221376658354	2.120073	1.456047
35.21060128951017	2.139936	1.462852
35.2289897487348	2.027681	1.4239666
35.24737914487405	1.8176188	1.3481909
35.26576947854479	1.9509791	1.3967745
35.28416075036418	1.9666686	1.4023796
35.30255296094958	1.8478235	1.3593467
35.32094611091867	1.8019634	1.3423723
35.33934020088932	1.7411828	1.3195388
35.35773523147969	1.5634546	1.2503818
35.3761312033082	1.5805007	1.2571796
35.394528116993506	1.6075634	1.2678972
35.41292597315452	1.8690716	1.3671399
35.431324772410434	2.1319182	1.460109
35.449724515380666	1.9244215	1.3872352
35.46812520268491	1.6224753	1.2737643
35.486526834943106	1.8977238	1.377579
35.504929412775454	2.6016412	1.6129603
35.52333293680242	2.5312884	1.5910023
35.54173740764471	1.7839638	1.335651
35.560142825923286	1.5914989	1.2615463
35.5785491922594	1.6309152	1.2770729
35.59695650727454	1.4111835	1.1879325
35.61536477159042	0.6898081	0.83054686
