0.008763373481513119	0.0	0.0
0.026290120649546365	0.0	0.0
0.043816868432600686	0.0	0.0
0.06134361724069026	0.0	0.0
0.07887036748382949	0.031202517	0.17664234
0.0963971195720331	0.12041188	0.34700415
0.11392387391531617	0.11893932	0.3448758
0.1314506309236943	0.15110373	0.38872063
0.1489773910071836	0.18506087	0.43018702
0.16650415457580078	0.19532622	0.44195727
0.18403092203956356	0.16793106	0.40979394
0.20155769380849	0.111100994	0.33331814
0.2190844702925996	0.07237355	0.26902333
0.2366112519019124	0.06761039	0.26002
0.2541380390464497	0.11090828	0.33302894
0.27166483213623416	0.22887298	0.47840673
0.28919163158128947	0.3008462	0.54849446
0.3067184377916406	0.29628408	0.5443198
0.324245251177314	0.21955675	0.46856883
0.34177207214833777	0.14680465	0.38315094
0.3592989011147415	0.11847179	0.3441973
0.37682573848655654	0.09295841	0.3048908
0.39435258467381573	0.09424649	0.30699593
0.41187944008655414	0.07792575	0.27915183
0.42940630513480854	0.08447095	0.29063886
0.446933180228618	0.116107024	0.3407448
0.4644600657780234	0.12886329	0.35897532
0.48198696219306775	0.1368191	0.36989066
0.49951386988379676	0.17647906	0.4200941
0.5170407892602581	0.17345183	0.41647547
0.5345677207325025	0.16057006	0.40071192
0.5520946647105822	0.15731333	0.39662746
0.5696216216045534	0.1784627	0.42244846
0.5871485918244737	0.17297122	0.41589808
0.6046755757804043	0.12795222	0.3577041
0.6222025738824094	0.09747643	0.31221217
0.6397295865405557	0.1226646	0.35023507
0.6572566141649129	0.15211357	0.3900174
0.6747836571655547	0.22066396	0.46974882
0.6923107159525568	0.25055474	0.50055444
0.7098377909359992	0.23029229	0.47988778
0.7273648825259653	0.2221017	0.47127667
0.7448919911325411	0.2037664	0.45140493
0.762419117165817	0.20169812	0.44910815
0.7799462610358868	0.17739697	0.4211852
0.7974734231528482	0.16595237	0.40737253
0.8150006039268024	0.1850801	0.43020937
0.8325278037678551	0.2076276	0.4556617
0.8500550230861152	0.23701131	0.48683807
0.8675822622916969	0.22843987	0.47795382
0.8851095217947171	0.21699296	0.46582502
0.9026368020052984	0.23615126	0.485954
0.9201641033335665	0.23785062	0.4876993
0.9376914261896523	0.20890927	0.45706594
0.9552187709836915	0.18144356	0.4259619
0.9727461381258234	0.21007435	0.45833868
0.990273528026193	0.21397446	0.46257374
1.0078009410949496	0.20818283	0.45627058
1.0253283777422473	0.20568201	0.4535218
1.0428558383782454	0.21509206	0.4637802
1.0603833234131086	0.23596665	0.485764
1.0779108332570058	0.26890498	0.51856047
1.0954383683201119	0.29366344	0.54190725
1.112965929012607	0.35497046	0.59579396
1.1304935157446763	0.5438619	0.73747
1.1480211289265108	0.56543964	0.7519572
1.1655487689683062	1.3684199	1.1697948
1.1830764362802655	1.623982	1.2743555
1.200604131272596	2.048375	1.4312145
1.2181318543555117	2.3723161	1.5402325
1.235659605939232	2.34408	1.5310389
1.253187386433982	3.8623176	1.965278
1.270715196249994	6.298067	2.509595
1.2882430357975057	11.805916	3.435974
1.3057709054867608	16.599989	4.0743084
1.3232988057280106	22.497925	4.743198
1.3408267369315112	27.40471	5.234951
1.358354699507526	31.395876	5.6032023
1.3758826938663256	35.12264	5.9264355
1.3934107204181858	36.98964	6.0819106
1.410938779573391	37.203526	6.099469
1.4284668717422309	38.074547	6.1704574
1.4459949973350033	37.57911	6.1301804
1.4635231567620117	37.496216	6.1234155
1.4810513504335687	36.204304	6.017001
1.4985795787599925	35.39373	5.949263
1.5161078421516088	34.810417	5.9000354
1.5336361410187505	34.154343	5.8441715
1.5511644757717598	34.65473	5.886827
1.5686928468209842	35.42427	5.951829
1.58622125457678	35.960697	5.9967237
1.6037496994495108	36.93163	6.07714
1.621278181849548	36.437347	6.0363355
1.6388067021872719	37.10745	6.0915885
1.6563352608730693	36.706455	6.058585
1.673863858317336	35.95529	5.996273
1.6913924949304753	35.74852	5.979007
1.7089211711228998	34.58987	5.881315
1.7264498873050296	33.89463	5.8219094
1.7439786438872935	32.803535	5.727437
1.7615074412801288	31.809233	5.6399674
1.779036279893981	30.856548	5.5548673
1.796565160139305	30.005102	5.477691
1.814094082426564	29.702005	5.4499545
1.8316230471662298	29.219255	5.4054837
1.849152054768784	28.39582	5.328773
1.8666811056447168	27.692492	5.262366
1.8842102002045273	26.80482	5.177337
1.901739338858724	26.129232	5.111676
1.9192685220178245	25.754189	5.0748587
1.9367977500923557	25.300158	5.0299263
1.9543270234928547	25.05942	5.0059385
1.971856342629867	24.066776	4.90579
1.9893857079139496	23.430521	4.8405085
2.006915119755667	22.859556	4.781167
2.0244445785655945	22.32015	4.7244205
2.0419740847543175	21.740875	4.662711
2.0595036387324317	21.056805	4.5887694
2.0770332409105414	20.532925	4.5313272
2.094562891699263	20.217386	4.4963746
2.1120925915092217	19.739052	4.4428654
2.129622340751053	19.449064	4.4101095
2.1471521398354043	187.54553	13.694726
2.1646819891729323	443.8011	21.066587
2.182211889174303	439.96512	20.975346
2.1997418402501974	452.34448	21.268393
2.2172718428113023	432.34766	20.79297
2.234801897268317	320.25876	17.895775
2.2523320040319548	16.644169	4.0797267
2.269862163512935	16.385384	4.0478864
2.287392376121992	16.185045	4.023064
2.304922642269869	16.024342	4.0030417
2.322452962367322	15.735854	3.9668443
2.3399833368251164	15.531382	3.9409873
2.357513766054032	15.409107	3.9254436
2.3750442504648586	15.203858	3.8992126
2.3925747904683963	14.688709	3.832585
2.410105386475459	14.33788	3.7865393
2.4276360388968707	13.952887	3.7353563
2.445166748143469	13.775346	3.7115152
2.4626975146261025	13.556555	3.6819227
2.4802283387556323	13.528166	3.6780655
2.4977592209429305	13.3525095	3.6541085
2.5152901615988825	13.045282	3.6118255
2.5328211611343865	12.806071	3.5785573
2.5503522199603523	12.418468	3.5239847
2.5678833384877024	12.200121	3.4928672
2.5854145171273712	12.03063	3.46852
2.6029457562903064	11.907093	3.4506657
2.620477056387469	11.752295	3.4281619
2.6380084178298326	11.545924	3.3979294
2.655539841028383	11.243599	3.3531475
2.673071326394119	11.023302	3.3201358
2.6906028743380523	10.8968725	3.3010411
2.708134485271211	10.768916	3.2816026
2.7256661596046325	10.65492	3.2641873
2.743197897749369	10.435183	3.2303534
2.760729700116486	10.291288	3.2080038
2.778261567117063	10.210706	3.1954195
2.795793499162193	10.1929455	3.1926394
2.8133254966629817	9.9643755	3.1566398
2.830857560030551	9.838657	3.1366634
2.8483896896760337	9.628389	3.1029646
2.865921886010578	9.459609	3.0756478
2.883454149445347	9.338096	3.0558298
2.9009864803915177	9.2649765	3.0438423
2.91851887926028	9.17005	3.028209
2.9360513464628384	9.113793	3.0189059
2.953583882410413	9.03047	3.005074
2.9711164875142373	8.86627	2.9776282
2.9886491621855606	8.698688	2.9493537
3.0061819068356455	8.484875	2.912881
3.023714721875769	8.448552	2.9066393
3.041247607717225	8.344519	2.888688
3.0587805647713213	8.28289	2.8780012
3.0763135934493806	8.327123	2.8856754
3.0938466941627407	8.156465	2.8559525
3.1113798673227544	8.102933	2.846565
3.1289131133407904	7.910234	2.8125138
3.1464464326282315	7.798861	2.792644
3.1639798255964786	7.749534	2.7837985
3.1815132926569443	7.6191077	2.7602732
3.1990468342210603	7.561791	2.749871
3.216580450700272	7.4494214	2.7293627
3.2341141425060416	7.3326993	2.7078958
3.251647910049847	7.3146405	2.7045593
3.2691817537431813	7.1451373	2.673039
3.286715673997555	7.130842	2.6703637
3.3042496712244938	6.9673824	2.63958
3.32178374583554	6.879739	2.6229255
3.339317898242251	6.7646956	2.6009028
3.3568521288562034	6.642055	2.5772185
3.3743864380889876	6.5213227	2.553688
3.3919208263522127	6.5014396	2.549792
3.4094552940575023	6.521566	2.5537357
3.4269898416164972	6.5869055	2.5664968
3.444524469440858	6.488065	2.547168
3.4620591779422587	6.413347	2.5324585
3.479593967532391	6.3702765	2.5239406
3.4971288386229658	6.380797	2.5260239
3.5146637916257086	6.340339	2.518003
3.5321988269523628	6.3520446	2.5203264
3.5497339450146903	6.3634977	2.5225973
3.5672691462244708	6.33672	2.5172842
3.5848044309934988	6.2463517	2.4992702
3.60233979973359	6.1298957	2.4758625
3.619875252856575	6.0440245	2.4584599
3.6374107907743034	6.052637	2.4602108
3.6549464138986427	6.18363	2.4866905
3.6724821226414788	6.2672215	2.5034418
3.690017917414714	6.250692	2.5001383
3.7075537986302702	6.275777	2.50515
3.7250897667000857	6.3229337	2.5145445
3.7426258220361235	6.5001535	2.5495398
3.7601619650503553	6.757136	2.5994492
3.777698196154779	7.243059	2.6912932
3.7952345157614067	8.217205	2.8665667
3.8127709242822716	9.078567	3.013066
3.830307422129425	11.219042	3.3494837
3.847844009714936	12.588572	3.5480378
3.8653806874508954	16.007832	4.000979
3.882917455749409	15.609037	3.9508274
3.900454315022606	15.699732	3.9622886
3.917991265682631	12.668131	3.5592318
3.9355283081416506	10.736173	3.27661
3.9530654428118495	8.66865	2.944257
3.970602670105433	7.3644643	2.7137547
3.9881399904346244	6.4509377	2.5398695
4.005677404211669	6.381239	2.5261114
4.023214911848827	6.3833714	2.5265334
4.0407525137583855	6.4339194	2.5365171
4.058290210352644	6.367762	2.5234425
4.075828002043927	6.228743	2.495745
4.0933658892445814	6.1362324	2.477142
4.110903872366966	6.107276	2.4712903
4.128441951823468	6.0573845	2.4611754
4.145980128026488	6.0841045	2.4665978
4.163518401388452	6.154163	2.4807584
4.181056772321807	6.2122574	2.49244
4.1985952412390155	6.316534	2.5132716
4.216133808552567	6.348382	2.5195997
4.233672474674966	6.327863	2.5155244
4.251211240018741	6.455816	2.5408297
4.268750104996445	6.5736966	2.5639222
4.286289070020643	7.5586486	2.7492998
4.303828135503928	9.235722	3.039033
4.3213673018589125	29.607756	5.441301
4.3389065694982305	90.80201	9.529009
4.356445938834537	165.79536	12.876155
4.3739854102805085	171.15028	13.082442
4.391524984248844	172.00854	13.115203
4.409064661152262	136.23312	11.671895
4.426604441403504	96.72644	9.83496
4.444144325415337	75.901566	8.712151
4.461684313600543	21.846992	4.6740766
4.47922440637193	22.213245	4.713093
4.496764604142329	20.476469	4.525093
4.5143049073245916	18.537796	4.305554
4.531845316331589	16.386879	4.048071
4.5493858315762195	13.451845	3.6676757
4.566926453471405	11.1609	3.3407934
4.584467182430081	9.246167	3.040751
4.602008018865218	8.056899	2.8384678
4.619548963189798	7.417871	2.7235768
4.637090015816834	6.873813	2.621796
4.654631177159353	6.562224	2.561684
4.672172447630417	6.195704	2.4891171
4.689713827643102	5.98778	2.446994
4.7072553176105085	5.85179	2.4190474
4.724796917945764	5.826545	2.4138236
4.742338629062015	5.7689967	2.4018736
4.759880451372434	5.69449	2.386313
4.777422385290215	5.662625	2.379627
4.794964431228581	5.6229186	2.3712695
4.812506589600768	5.5369587	2.3530743
4.830048860820047	5.5422072	2.3541894
4.847591245299709	5.587193	2.3637245
4.8651337434530655	5.616805	2.3699799
4.882676355693457	5.601417	2.3667314
4.900219082434242	5.532901	2.352212
4.917761924088813	5.511502	2.3476589
4.935304881070575	5.3971353	2.3231735
4.952847953792969	5.399654	2.3237154
4.970391142669449	5.3959675	2.3229222
4.9879344481135055	5.498685	2.3449275
5.005477870538642	5.428926	2.3300056
5.023021410358394	5.3390493	2.3106382
5.040565067986324	5.3161135	2.3056698
5.05810884383601	5.382202	2.3199573
5.075652738321066	5.4238787	2.3289223
5.09319675185512	5.4042826	2.3247113
5.110740884851836	5.379299	2.3193316
5.128285137724894	5.313521	2.3051076
5.145829510888007	5.330427	2.3087718
5.163374004754908	5.3209476	2.3067179
5.1809186197393595	5.346588	2.312269
5.198463356255145	5.3467546	2.312305
5.216008214716077	5.341533	2.3111758
5.233553195535998	5.2947187	2.3010256
5.251098299128764	5.272244	2.2961369
5.268643525908272	5.2636304	2.2942603
5.286188876288432	5.1858845	2.2772536
5.3037343506831895	5.190789	2.2783303
5.32127994950651	5.170662	2.2739089
5.3388256731723915	5.2184324	2.2843888
5.356371522094851	5.2141566	2.2834527
5.373917496687938	5.1627154	2.272161
5.391463597365729	5.2005987	2.280482
5.40900982454232	5.1658754	2.2728562
5.426556178631843	5.1468205	2.2686605
5.444102660048449	5.0991683	2.258134
5.4616492692063225	5.05386	2.2480793
5.479196006519669	5.021029	2.2407653
5.496742872402727	5.0444236	2.2459793
5.514289867269756	5.0150547	2.2394319
5.531836991535049	5.0167785	2.2398167
5.549384245612924	5.0182476	2.2401445
5.566931629917724	5.0852633	2.2550528
5.584479144863822	5.081085	2.2541263
5.6020267908656205	5.0781946	2.253485
5.619574568337545	5.0628443	2.2500765
5.637122477694054	5.085211	2.2550411
5.654670519349629	5.102444	2.2588592
5.672218693718784	5.134608	2.2659674
5.689767001216059	5.148541	2.2690396
5.707315442256021	5.13073	2.2651114
5.724864017253266	5.066777	2.2509503
5.7424127266224225	5.0437136	2.2458215
5.75996157077814	5.0381045	2.2445722
5.777510550135105	5.0502753	2.2472818
5.795059665108022	5.0704007	2.251755
5.812608916111639	5.0876694	2.2555861
5.830158303560715	5.20574	2.281609
5.847707827870055	5.2632737	2.2941825
5.86525748945448	5.4059687	2.325074
5.8828072887288485	5.4589734	2.3364446
5.900357226108044	5.4977975	2.3447382
5.917907302006979	5.5239167	2.3503015
5.9354575168406	6.195623	2.489101
5.9530078710238765	6.8518453	2.617603
5.970558364971812	7.395245	2.71942
5.988108999099438	7.6461473	2.7651668
6.005659773821818	8.076245	2.8418736
6.023210689554039	7.778864	2.7890615
6.040761746711227	8.096433	2.8454232
6.058312945708531	7.4997125	2.7385602
6.075864286961132	7.0633535	2.657697
6.093415770884244	6.494976	2.5485244
6.1109673978931065	5.958542	2.4410124
6.128519168402993	5.4305625	2.3303568
6.146071082829204	5.3139424	2.305199
6.163623141587075	5.168244	2.2733772
6.181175345091969	5.094109	2.2570133
6.198727693759281	5.043196	2.245706
6.216280188004435	5.0647	2.2504888
6.233832828242885	5.076011	2.2530005
6.251385614890126	5.0963135	2.2575016
6.268938548361669	5.029156	2.242578
6.286491629073067	4.988482	2.233491
6.304044857439898	4.9673185	2.228748
6.321598233877777	5.01613	2.239672
6.339151758802344	5.03016	2.242802
6.356705432629277	4.960363	2.2271872
6.37425925577428	4.908647	2.2155466
6.391813228653095	4.918388	2.2177439
6.409367351681486	5.0148244	2.2393804
6.426921625275259	4.998005	2.235622
6.44447604985025	5.023296	2.241271
6.46203062582232	4.9814134	2.231908
6.47958535360737	5.0034904	2.2368484
6.497140233621328	4.961215	2.2273786
6.514695266280161	4.953235	2.2255864
6.532250451999859	4.967456	2.228779
6.549805791196454	4.9948897	2.234925
6.567361284286002	5.0036426	2.2368824
6.584916931684597	4.9451857	2.2237773
6.602472733808367	4.8183312	2.1950698
6.6200286910734665	4.816842	2.1947305
6.637584803896092	4.851141	2.2025306
6.655141072692462	4.8898153	2.2112927
6.672697497878842	4.963344	2.2278564
6.690254079871514	4.9234443	2.2188835
6.707810819086808	4.937269	2.2219968
6.725367715941078	4.9889007	2.2335846
6.742924770850719	4.987265	2.2332187
6.760481984232151	5.018425	2.240184
6.778039356501836	4.9835954	2.2323968
6.795596888076266	4.8885202	2.2109997
6.813154579371963	4.8478923	2.201793
6.830712430805492	4.864777	2.2056239
6.84827044279344	4.931787	2.2207627
6.865828615752445	4.934717	2.2214224
6.883386950099159	4.885359	2.2102847
6.900945446250287	4.892528	2.211906
6.918504104622553	4.908705	2.2155597
6.936062925632727	4.965909	2.228432
6.953621909697607	4.9827666	2.232211
6.971181057234028	4.991067	2.2340696
6.988740368658859	5.024371	2.2415109
7.006299844389007	5.115992	2.2618558
7.023859484841407	5.1997075	2.2802868
7.041419290433036	5.2388644	2.2888565
7.058979261580902	5.348562	2.3126957
7.0765393987020495	5.556174	2.3571537
7.094099702213559	5.896746	2.4283216
7.111660172532549	6.2182045	2.4936328
7.129220810076164	6.6526513	2.5792735
7.146781615261595	7.2455635	2.6917584
7.16434258850606	7.5026145	2.7390902
7.181903730226821	7.960429	2.8214233
7.1994650408411704	8.0881195	2.843962
7.217026520766437	8.206618	2.8647196
7.234588170419983	8.429673	2.90339
7.252149990219215	8.378742	2.8946056
7.269711980581568	8.219084	2.8668945
7.2872741419245175	8.05678	2.8384466
7.304836474665574	7.72002	2.7784925
7.322398979222286	7.5442104	2.7466726
7.339961656012233	7.287441	2.699526
7.357524505453039	6.858687	2.6189096
7.375087527962357	6.5740786	2.5639966
7.392650723957886	6.299008	2.5097826
7.410214093857353	5.9540606	2.4400945
7.427777638078528	5.700885	2.3876526
7.445341357039213	5.5162835	2.348677
7.4629052511572525	5.380168	2.3195188
7.480469320850524	5.190652	2.2783003
7.498033566536948	5.112728	2.2611341
7.5155979886344735	5.063966	2.2503257
7.5331625875610975	5.0662546	2.2508342
7.550727363734844	5.1509094	2.2695615
7.568292317573788	5.148423	2.2690136
7.585857449496025	5.1696897	2.2736952
7.603422759919705	5.179671	2.275889
7.620988249263007	5.161431	2.2718782
7.638553917944147	5.185279	2.2771208
7.656119766381391	5.168396	2.2734106
7.673685794993023	5.1765795	2.2752097
7.691252004197388	5.2172046	2.28412
7.70881839441285	5.1957297	2.2794144
7.726384966057826	5.1941376	2.2790651
7.743951719550762	5.2027473	2.2809532
7.761518655310149	5.2094774	2.282428
7.779085773754511	5.182019	2.2764049
7.796653075302419	5.15373	2.2701828
7.814220560372475	5.162461	2.272105
7.831788229383323	5.1254478	2.263945
7.8493560827536495	5.1579995	2.271123
7.866924120902174	5.1952996	2.27932
7.884492344247663	5.288444	2.2996616
7.9020607532089135	5.3412294	2.31111
7.919629348204771	5.383108	2.3201525
7.937198129654115	5.349394	2.3128757
7.954767097975865	5.341343	2.3111346
7.972336253588986	5.3525567	2.3135593
7.989905596912472	5.395798	2.3228858
8.007475128365371	5.4210916	2.3283238
8.025044848366756	5.4753113	2.3399384
8.042614757335754	5.5544343	2.3567848
8.060184855691523	5.5944886	2.365267
8.07775514385327	5.7106442	2.3896954
8.095325622240228	5.8082376	2.4100285
8.112896291271687	5.8058534	2.4095337
8.130467151366968	5.7918496	2.4066262
8.148038202945436	5.78606	2.405423
8.165609446426497	5.8058863	2.4095407
8.183180882229594	5.934383	2.436059
8.200752510774217	5.9619727	2.441715
8.218324332479893	5.962188	2.441759
8.235896347766193	5.9372706	2.4366515
8.253468557052724	5.8923783	2.427422
8.27104096075914	5.8639383	2.421557
8.288613559305137	5.90601	2.4302285
8.306186353110448	5.98165	2.4457412
8.32375934259485	6.115885	2.4730315
8.341332528178162	6.1661654	2.4831765
8.358905910280246	6.2043924	2.490862
8.376479489321003	6.2406683	2.498133
8.394053265720377	6.2402506	2.4980493
8.411627239898356	6.2694416	2.5038853
8.42920141227497	6.280489	2.5060904
8.44677578327029	6.2832527	2.5066416
8.464350353304427	6.2241526	2.4948251
8.48192512279754	6.1194444	2.473751
8.499500092169827	6.071101	2.4639604
8.51707526184153	6.083864	2.4665492
8.534650632232934	6.093058	2.4684122
8.552226203764365	6.1643386	2.4828086
8.569801976856192	6.16605	2.4831533
8.587377951928834	6.177995	2.4855573
8.60495412940274	6.224361	2.4948668
8.622530509698416	6.256142	2.501228
8.6401070932364	6.4205103	2.5338726
8.657683880437283	6.5092254	2.5513184
8.675260871721695	6.595479	2.5681665
8.692838067510303	6.759077	2.5998225
8.710415468223834	6.8786445	2.622717
8.727993074283043	7.066288	2.6582491
8.745570886108737	7.161811	2.676156
8.763148904121765	7.2307696	2.689009
8.78072712874302	7.2007985	2.6834304
8.798305560393441	7.3540063	2.711827
8.815884199494006	7.425819	2.7250357
8.833463046465745	7.5937657	2.755679
8.851042101729728	7.747448	2.783424
8.86862136570707	8.06521	2.8399315
8.886200838818924	8.243591	2.8711655
8.903780521486505	8.24842	2.8720062
8.921360414131055	8.392324	2.896951
8.938940517173874	8.570439	2.9275312
8.956520831036297	8.791072	2.9649742
8.97410135613971	8.9935465	2.9989243
8.99168209290554	9.113071	3.0187864
9.009263041755265	9.358369	3.0591452
9.026844203110405	9.587386	3.0963504
9.044425577392525	9.814838	3.1328642
9.062007165023239	9.905539	3.1473064
9.079588966424197	10.218765	3.1966803
9.097170982017108	10.302887	3.209811
9.11475321222372	11.279516	3.358499
9.132335657465825	12.123824	3.481928
9.149918318165264	12.198322	3.4926097
9.167501194743924	12.956879	3.5995665
9.18508428762374	12.681399	3.5610952
9.202667597226693	12.584693	3.547491
9.220251123974803	12.006194	3.4649956
9.237834868290143	11.64331	3.4122293
9.255418830594836	11.4805155	3.388291
9.273003011311046	11.092946	3.3306074
9.290587410860985	10.903796	3.3020897
9.308172029666911	10.236695	3.1994836
9.32575686815113	9.938889	3.1526003
9.343341926735997	8.67172	2.9447784
9.360927205843916	8.526399	2.9199998
9.378512705897327	8.369418	2.8929946
9.396098427318728	8.10563	2.8470387
9.413684370530664	7.958937	2.821159
9.431270535955722	7.8044467	2.793644
9.448856924016539	7.760486	2.785765
9.466443535135806	7.6443124	2.764835
9.484030369736251	7.6706467	2.7695932
9.501617428240658	7.6807218	2.7714114
9.519204711071852	7.752809	2.7843866
9.536792218652714	7.7040434	2.775616
9.55437995140617	7.733066	2.7808392
9.571967909755191	7.837643	2.7995791
9.589556094122802	7.8895454	2.8088334
9.60714450493207	7.9289756	2.8158436
9.624733142606116	7.8886085	2.8086667
9.642322007568108	7.8683124	2.8050513
9.659911100241267	7.833566	2.7988508
9.677500421048851	7.9230123	2.8147845
9.695089970414175	8.047296	2.8367755
9.712679748760609	8.136187	2.8524
9.730269756511557	8.180662	2.8601856
9.747859994090492	8.159621	2.8565052
9.765450461920915	8.165175	2.8574772
9.78304116042639	8.187441	2.8613706
9.800632090030527	8.139862	2.8530443
9.81822325115699	8.104211	2.8467896
9.835814644229481	8.122459	2.849993
9.853406269671762	8.2737875	2.8764193
9.870998127907646	8.401949	2.8986115
9.888590219360985	8.46105	2.9087884
9.906182544455698	8.398787	2.898066
9.923775103615734	8.383624	2.895449
9.941367897265108	8.267017	2.8752422
9.958960925827878	8.179968	2.8600643
9.97655418972816	8.075921	2.8418164
9.994147689390106	8.107164	2.8473082
10.011741425237934	8.165953	2.857613
10.029335397695904	8.203896	2.8642442
10.04692960718833	8.214101	2.8660252
10.06452405413958	8.1643095	2.8573256
10.082118738974064	8.125026	2.8504431
10.099713662116246	8.057523	2.8385775
10.117308823990651	8.001567	2.828704
10.134904225021844	8.080953	2.8427017
10.152499865634445	8.111901	2.84814
10.170095746253125	8.166448	2.8576996
10.18769186730261	8.113834	2.8484793
10.205288229207675	8.04908	2.83709
10.222884832393145	8.099706	2.8459983
10.2404816772839	8.1063	2.8471565
10.258078764304868	8.114957	2.8486764
10.275676093881035	8.074608	2.8415854
10.293273666437438	8.01701	2.8314323
10.310871482399158	8.088235	2.8439822
10.32846954219134	8.1349325	2.8521802
10.346067846239173	8.147618	2.8544033
10.363666394967908	8.114482	2.848593
10.38126518880283	8.131163	2.8515193
10.398864228169298	8.193823	2.8624854
10.416463513492713	8.228497	2.8685355
10.434063045198531	8.183501	2.860682
10.451662823712262	8.120399	2.8496315
10.469262849459467	8.157487	2.8561316
10.486863122865758	8.092162	2.8446727
10.504463644356806	8.083223	2.843101
10.522064414358338	7.9714932	2.8233833
10.539665433296118	7.844438	2.8007925
10.557266701595987	7.776282	2.7885985
10.574868219683818	7.691115	2.7732859
10.592469987985552	7.632578	2.762712
10.610072006927185	7.49165	2.737088
10.627674276934751	7.3818445	2.716955
10.64527679843435	7.3110156	2.703889
10.662879571852143	7.2435265	2.69138
10.680482597614331	7.1552234	2.6749249
10.698085876147173	6.9714847	2.640357
10.715689407876988	6.8601575	2.6191902
10.733293193230146	6.7189546	2.5920947
10.750897232633072	6.6420865	2.5772245
10.76850152651225	6.625613	2.5740266
10.786106075294207	6.539586	2.5572615
10.803710879405534	6.423067	2.534377
10.821315939272877	6.3017116	2.510321
10.83892125532294	6.2159534	2.4931815
10.856526827982472	6.1678705	2.4835198
10.874132657678285	6.1508336	2.4800875
10.891738744837243	6.137965	2.4774916
10.909345089886271	6.1096587	2.4717724
10.926951693252343	6.090783	2.4679513
10.944558555362494	6.026155	2.4548228
10.96216567664381	5.9055843	2.4301407
10.979773057523436	5.8156385	2.4115634
10.997380698428573	5.7659225	2.4012334
11.014988599786477	5.755669	2.3990977
11.032596762024461	5.7215066	2.391967
11.050205185569892	5.6607013	2.3792229
11.067813870850198	5.6217318	2.3710191
11.085422818292859	5.5281487	2.3512015
11.10303202832541	5.4652834	2.3377945
11.120641501375454	5.3937917	2.3224537
11.138251237870636	5.3288336	2.3084266
11.155861238238671	5.2039857	2.2812245
11.173471502907317	5.1265726	2.2641935
11.191082032304402	5.091978	2.2565413
11.208692826857805	5.0991178	2.2581227
11.226303886995465	5.049067	2.2470129
11.243915213145371	5.0088253	2.2380404
11.261526805735578	4.870926	2.2070174
11.279138665194196	4.8356304	2.1990068
11.296750791949393	4.762782	2.18238
11.314363186429393	4.7436843	2.178
11.331975849062479	4.7288265	2.1745865
11.34958878027699	4.642095	2.1545522
11.36720198050133	4.5403776	2.1308162
11.384815450163948	4.477389	2.1159842
11.402429189693366	4.484613	2.1176906
11.420043199518153	4.4684973	2.113882
11.437657480066942	63.44742	7.965389
11.455272031768422	85.13363	9.2267885
11.472886855051353	107.53758	10.370033
11.490501950344528	99.112404	9.955522
11.508117318076819	84.46226	9.190335
11.52573295867715	45.858395	6.7718825
11.543348872574514	4.1658983	2.0410533
11.560965060197946	4.1386337	2.0343633
11.57858152197655	4.0518584	2.0129228
11.59619825833949	3.9617782	1.9904217
11.613815269715985	3.925784	1.9813591
11.631432556535323	38.45785	6.2014394
11.649050119226837	82.997734	9.11031
11.666667958219929	93.44795	9.666848
11.68428607394406	107.67114	10.376471
11.701904466828756	82.52412	9.084278
11.719523137303586	65.32327	8.082281
11.737142085798196	4.553792	2.1339617
11.754761312742286	3.6573262	1.9124137
11.772380818565619	3.619185	1.9024155
11.790000603698015	3.621174	1.9029382
11.80762066856935	3.6163108	1.90166
11.825241013609572	3.6046808	1.8985997
11.842861639248683	3.5446434	1.8827224
11.860482545916748	3.4949224	1.8694712
11.878103734043883	3.445131	1.8561064
11.895725204060282	3.458684	1.8597537
11.91334695639619	3.4537826	1.8584355
11.930968991481919	3.4055068	1.8454015
11.948591309747824	3.3285673	1.8244362
11.966213911624347	3.2784655	1.8106533
11.98383679754198	3.2694595	1.8081647
12.001459967931268	3.2548392	1.8041173
12.019083423222835	3.2502248	1.802838
12.036707163847352	3.2034366	1.7898147
12.05433119023556	3.190633	1.7862344
12.071955502818259	3.1745863	1.7817369
12.089580102026313	3.2217522	1.794924
12.107204988290643	3.2326355	1.7979531
12.12483016204224	3.1913967	1.7864481
12.142455623712152	3.166337	1.7794204
12.16008137373149	3.1189852	1.7660649
12.177707412531431	3.089382	1.7576637
12.19533374054321	3.0218277	1.7383405
12.212960358198126	2.9977918	1.7314132
12.230587265927545	3.012613	1.7356881
12.248214464162889	2.9751146	1.7248521
12.265841953335649	2.9650037	1.7219186
12.283469733877375	2.9109304	1.7061449
12.301097806219685	2.9067771	1.7049273
12.31872617079425	2.8716943	1.6946074
12.336354828032825	2.8785949	1.6966423
12.353983778367205	2.8866155	1.6990043
12.371613022229262	2.912452	1.7065908
12.389242560050928	2.9271162	1.7108817
12.406872392264201	2.8952868	1.7015542
12.424502519301143	2.8907263	1.7002137
12.442132941593874	2.886065	1.6988423
12.459763659574586	2.8486197	1.6877854
12.477394673675532	2.8217363	1.6798024
12.49502598432903	2.7856152	1.6690162
12.51265759196746	2.7763493	1.6662381
12.530289497023267	2.764524	1.6626858
12.547921699928967	2.7482173	1.6577748
12.565554201117134	2.7411928	1.6556548
12.583187001020404	2.7191627	1.6489884
12.600820100071486	2.7613535	1.6617321
12.618453498703152	2.805242	1.6748856
12.636087197348235	2.8026261	1.6741046
12.65372119643964	2.7435155	1.6563561
12.671355496410326	2.7198997	1.6492119
12.68899009769333	2.8013244	1.6737157
12.706625000721749	2.8774877	1.6963159
12.724260205928752	2.9662156	1.7222705
12.741895713747551	2.991099	1.7294794
12.759531524611454	3.031082	1.7410003
12.777167638953818	2.9923043	1.7298279
12.794804057208072	3.0143688	1.7361938
12.812440779807702	3.0386767	1.74318
12.830077807186271	3.1866946	1.7851316
12.847715139777405	3.2104666	1.7917775
12.865352778014795	3.4330792	1.852857
12.882990722332197	3.5178344	1.8755891
12.90062897316344	3.58121	1.8924085
12.918267530942412	3.632439	1.9058958
12.935906396103071	3.5442264	1.8826116
12.953545569079449	3.7103093	1.9262164
12.971185050305628	3.5424502	1.8821398
12.988824840215775	3.5382783	1.8810312
13.006464939244115	3.577636	1.891464
13.024105347824943	3.4398582	1.8546854
13.041746066392617	3.57108	1.8897301
13.05938709538157	3.3898358	1.8411506
13.077028435226296	3.377732	1.8378607
13.094670086361363	3.2552843	1.8042407
13.112312049221401	3.145317	1.7735041
13.129954324241112	3.0606391	1.7494682
13.147596911855258	2.8587902	1.6907957
13.165239812498685	2.8301926	1.6823176
13.182883026606293	2.7637422	1.6624507
13.200526554613058	2.741397	1.6557164
13.218170396954017	2.7138717	1.6473833
13.235814554064284	2.6678267	1.6333483
13.253459026379034	2.676314	1.6359444
13.271103814333523	2.623519	1.6197281
13.288748918363058	2.638413	1.6243192
13.306394338903031	2.684055	1.6383086
13.32404007638889	2.6815526	1.6375448
13.341686131256164	2.6955972	1.6418273
13.359332503940449	2.6550908	1.629445
13.376979194877402	2.6683917	1.6335213
13.394626204502751	2.7040663	1.6444045
13.412273533252307	2.7194579	1.6490779
13.429921181561937	2.6842232	1.6383599
13.447569149867581	2.6370852	1.6239104
13.465217438605247	2.6650507	1.6324983
13.482866048211022	2.64695	1.626945
13.500514979121052	2.6646578	1.632378
13.518164231771568	2.616444	1.6175426
13.535813806598844	2.6172376	1.6177878
13.553463704039254	2.638223	1.6242608
13.571113924529229	2.6463413	1.6267579
13.588764468505275	2.6732693	1.6350136
13.606415336403956	2.7019525	1.6437616
13.624066528661917	2.765399	1.6629488
13.641718045715882	2.813367	1.6773094
13.659369888002635	2.872367	1.6948059
13.67702205595903	2.9178803	1.7081804
13.694674550021993	2.990086	1.7291865
13.712327370628532	3.0141098	1.7361192
13.729980518215713	3.0863192	1.7567923
13.747633993220681	3.1237273	1.767407
13.765287796080647	3.1879203	1.7854748
13.7829419272329	3.2718573	1.8088276
13.800596387114801	3.3295372	1.8247019
13.818251176163775	3.361678	1.8334879
13.835906294817324	3.3551056	1.8316947
13.853561743513023	3.3825085	1.8391597
13.871217522688525	3.4090717	1.8463671
13.888873632781538	3.4559789	1.8590263
13.906530074229858	3.5033731	1.87173
13.92418684747135	3.5271626	1.8780742
13.941843952943948	3.5834942	1.8930119
13.959501391085665	3.552656	1.8848491
13.977159162334578	3.4265852	1.8511038
13.994817267128846	3.3204587	1.8222126
14.012475705906693	3.1851459	1.7846977
14.030134479106424	3.1030495	1.7615474
14.047793587166414	3.0131528	1.7358435
14.065453030525108	3.0151374	1.7364151
14.083112809621026	2.9943225	1.730411
14.100772924892766	2.9606578	1.7206563
14.118433376778997	2.9453096	1.7161905
14.136094165718458	2.8684645	1.6936542
14.153755292149969	2.8124747	1.6770434
14.171416756512416	2.7147002	1.6476347
14.189078559244768	2.6105063	1.6157061
14.20674070078606	2.5699806	1.6031159
14.224403181575408	2.5437431	1.5949117
14.242066002051999	2.5097828	1.5842294
14.259729162655093	2.446315	1.56407
14.277392663824022	2.4280038	1.5582054
14.295056505998208	2.4264028	1.5576915
14.312720689617128	2.4267278	1.5577958
14.330385215120348	2.4103074	1.5525165
14.348050082947497	2.4199119	1.5556066
14.3657152935383	2.3891518	1.5456882
14.383380847332528	2.383481	1.5438527
14.401046744770051	2.3941956	1.5473188
14.418712986290798	2.4046314	1.5506874
14.436379572334793	2.4077506	1.5516928
14.454046503342123	2.4217308	1.5561911
14.471713779752946	2.4442725	1.563417
14.489381402007504	2.4694362	1.571444
14.507049370546113	2.4604075	1.5685686
14.524717685809168	2.4315033	1.5593278
14.542386348237134	2.4334915	1.5599653
14.560055358270553	2.4509156	1.5655401
14.577724716350051	2.4699805	1.5716171
14.595394422916325	2.4612634	1.5688415
14.61306447841015	2.4764817	1.5736841
14.63073488327237	2.4551084	1.5668786
14.648405637943917	2.4786217	1.574364
14.6660767428658	2.4514897	1.5657234
14.683748198479094	2.4770384	1.573861
14.701420005224954	2.5103805	1.584418
14.719092163544628	2.588304	1.6088207
14.73676467387942	2.6382802	1.6242783
14.754437536670727	2.659952	1.6309359
14.772110752360014	2.6904657	1.6402639
14.78978432138882	2.700975	1.6434643
14.807458244198777	2.685249	1.638673
14.82513252123159	2.6558301	1.6296718
14.842807152929028	2.6642146	1.6322422
14.860482139732962	2.6345224	1.6231213
14.87815748208531	2.631351	1.622144
14.8958331804281	2.6639311	1.6321554
14.91350923520342	2.6330073	1.6226544
14.931185646853438	2.6884768	1.6396575
14.948862415820408	2.6963904	1.642069
14.966539542546656	2.7655609	1.6629976
14.98421702747459	2.7208574	1.6495022
15.001894871046696	2.715218	1.6477919
15.019573073705542	2.689546	1.6399835
15.037251635893766	2.6218688	1.6192186
15.054930558054092	2.602751	1.6133044
15.072609840629323	2.6131995	1.6165394
15.090289484062351	2.748871	1.657972
15.107969488796124	2.9240701	1.7099912
15.125649855273691	3.1732123	1.7813512
15.14333058393817	3.5527425	1.884872
15.161011675232768	4.1364865	2.0338354
15.17869312960076	4.733528	2.1756673
15.196374947485506	5.3983746	2.3234403
15.214057129330447	6.7094607	2.5902627
15.231739675579114	8.935206	2.9891815
15.249422586675102	13.548524	3.680832
15.267105863062092	18.10507	4.2550054
15.284789505183847	25.368698	5.036735
15.302473513484218	30.310022	5.505454
15.320157888407127	34.21227	5.8491254
15.337842630396578	32.901417	5.7359757
15.355527739896656	29.889032	5.4670863
15.37321321735153	23.443556	4.8418546
15.39089906320545	16.016813	4.002101
15.408585277902748	10.22121	3.1970627
15.42627186188783	6.306273	2.5112293
15.443958815605198	4.555276	2.1343093
15.461646139499424	3.8467238	1.9613067
15.479333834015168	3.4592946	1.8599179
15.497021899597165	3.127777	1.7685523
15.514710336690234	2.8115442	1.676766
15.53239914573928	2.6406674	1.6250131
15.550088327189297	2.5785646	1.605791
15.567777881485336	2.550392	1.5969946
15.58546780907256	2.5544214	1.5982558
15.6031581103962	2.5283163	1.590068
15.620848785901568	2.5067637	1.5832763
15.638539836034063	2.4868948	1.5769892
15.656231261239173	2.4472215	1.5643598
15.673923061962451	2.474345	1.5730051
15.691615238649552	2.476434	1.573669
15.709307791746202	2.4488406	1.5648772
15.727000721698221	2.4319174	1.5594606
15.744694028951498	2.4383173	1.5615113
15.76238771395202	2.4240766	1.5569446
15.780081777145844	2.4329967	1.5598066
15.797776218979125	2.3975255	1.5483946
15.815471039898094	2.378719	1.5423096
15.833166240349064	2.3818517	1.5433248
15.850861820778437	2.4374638	1.5612379
15.868557781632699	2.4479058	1.5645784
15.886254123358412	2.4257867	1.5574937
15.903950846402232	2.4426627	1.562902
15.921647951210897	2.5090847	1.584009
15.939345438231225	2.57551	1.6048396
15.957043307910133	2.584031	1.6074922
15.974741560694602	2.5848193	1.6077373
15.992440197031714	2.5074964	1.5835077
16.01013921736862	2.4520988	1.5659178
16.02783862215259	2.4447486	1.5635692
16.045538411830933	2.448139	1.564653
16.06323858685107	2.4394674	1.5618794
16.080939147660512	2.4628327	1.5693415
16.09864009470684	2.4602344	1.5685134
16.11634142843774	2.424696	1.5571436
16.134043149300954	2.3900974	1.5459939
16.15174525774433	2.3606522	1.5364414
16.169447754215817	2.3461406	1.5317117
16.18715063916342	2.3259933	1.5251207
16.204853913035244	2.381275	1.543138
16.222557576279478	2.4265137	1.5577271
16.240261629344403	22.402447	4.7331223
16.257966072678386	42.981606	6.556036
16.275670906729868	38.092487	6.1719112
16.293376131947387	2.5096126	1.5841757
16.31108174877957	2.4824543	1.5755806
16.328787757675133	2.5056946	1.5829386
16.34649415908287	2.5573509	1.5991719
16.364200953451657	2.612349	1.6162763
16.38190814123048	2.6435194	1.6258904
16.39961572286839	2.6410043	1.6251167
16.41732369881455	2.6433218	1.6258296
16.43503206951817	2.6701417	1.6340568
16.45274083542859	2.716968	1.6483228
16.47044999699522	2.7932146	1.6712912
16.488159554667558	2.828679	1.6818677
16.505869508895184	2.8693342	1.693911
16.523579860127786	2.9279413	1.7111229
16.541290608815117	2.974531	1.7246828
16.559001755407035	3.0342417	1.7419075
16.57671330035348	3.097761	1.7600458
16.59442524410448	3.2217286	1.7949175
16.61213758711015	3.4039872	1.8449898
16.629850329820705	3.479274	1.8652812
16.647563472686436	3.5056534	1.872339
16.665277016157724	3.418919	1.8490319
16.682990960685053	3.4384832	1.8543148
16.70070530671898	3.433003	1.8528365
16.718420054710155	3.469191	1.8625765
16.736135205109335	3.5322673	1.8794327
16.753850758367335	3.6228476	1.9033779
16.771566714935087	3.6595955	1.9130069
16.789283075263597	3.705399	1.9249413
16.80699983980398	3.725192	1.9300756
16.82471700900741	3.8009055	1.9495912
16.84243458332518	3.8724155	1.9678454
16.860152563208665	3.950037	1.98747
16.87787094910932	3.9814317	1.9953525
16.89558974147871	4.042535	2.0106056
16.913308940768466	4.1188135	2.029486
16.931028547430333	4.215812	2.0532444
16.94874856191613	4.286066	2.0702817
16.966468984677785	4.3173475	2.0778227
16.98418981616729	4.3853393	2.0941203
17.00191105683676	4.429127	2.1045492
17.019632707138374	4.4359856	2.106178
17.03735476752442	4.456607	2.1110678
17.05507723844728	4.504398	2.1223567
17.072800120359403	4.5854106	2.1413572
17.090523413713353	4.5846353	2.1411762
17.108247118961785	4.673375	2.161799
17.125971236557437	4.724813	2.1736634
17.143695766953133	4.740169	2.177193
17.161420710601806	4.686553	2.1648448
17.179146067956477	4.674529	2.162066
17.19687183947025	4.658212	2.1582892
17.21459802559634	4.6774974	2.1627524
17.232324626788028	4.7076774	2.1697183
17.25005164349871	4.729345	2.1747057
17.267779076181863	4.7013803	2.1682665
17.285506925291074	4.6566443	2.1579258
17.30323519127999	4.614217	2.1480727
17.320963874602384	4.545495	2.1320167
17.33869297571211	4.5494876	2.1329527
17.356422495063114	4.5436516	2.1315844
17.37415243310944	4.5773244	2.1394682
17.391882790305218	4.547487	2.1324837
17.40961356710468	4.532393	2.1289418
17.42734476396215	4.5682287	2.1373415
17.445076381332044	4.61183	2.1475172
17.462808419668868	4.7008886	2.1681533
17.48054087942723	4.7822733	2.186841
17.498273761061835	4.9190702	2.2178977
17.51600706502747	5.1683884	2.273409
17.533740791779024	5.7107134	2.38971
17.551474941771485	6.617383	2.5724275
17.56920951545993	8.590091	2.9308856
17.586944513299528	9.918446	3.1493564
17.60467993574556	12.7348	3.5685852
17.622415783253373	15.40507	3.9249294
17.64015205627843	18.163246	4.261836
17.657888755276293	20.531881	4.531212
17.675625880702604	22.062204	4.697042
17.69336343301311	20.572264	4.5356655
17.71110141266366	18.347425	4.2833896
17.728839820110178	15.585296	3.9478216
17.746578655808705	12.438289	3.5267959
17.764317920215372	10.287186	3.2073643
17.7820576137864	8.583781	2.929809
17.79979773697811	7.223841	2.6877205
17.81753829024692	6.011988	2.4519355
17.835279274049356	5.2291765	2.2867393
17.85302068884201	4.4893785	2.1188154
17.870762535081607	4.0760884	2.0189326
17.888504813224934	3.8453622	1.9609596
17.90624752372891	3.6702144	1.9157804
17.923990667050536	3.5612977	1.88714
17.941734243646895	3.515414	1.8749437
17.959478253975185	3.5074222	1.8728113
17.9772226984927	3.4922323	1.8687515
17.994967577656833	3.441082	1.8550154
18.01271289192506	3.3952236	1.8426132
18.030458641754965	3.3441827	1.8287107
18.04820482760425	3.3156307	1.8208873
18.06595144993067	3.2984807	1.816172
18.083698509192125	3.2680666	1.8077794
18.101446005846576	3.2388737	1.7996871
18.119193940352105	3.2108862	1.7918946
18.136942313166887	3.1718543	1.78097
18.1546911247492	3.1744227	1.781691
18.1724403755574	3.173212	1.7813512
18.19019006604997	3.2204268	1.7945547
18.207940196685467	3.2259443	1.7960914
18.225690767922575	3.2100039	1.7916484
18.243441780220046	3.1522422	1.7754555
18.261193234036764	3.0842953	1.7562162
18.278945129831676	3.0570867	1.7484527
18.29669746806386	3.0535529	1.7474418
18.314450249192483	3.045875	1.7452435
18.3322034736768	3.0485868	1.7460203
18.349957141976184	3.0900123	1.7578431
18.3677112545501	3.1018703	1.7612127
18.385465811858108	3.1169314	1.7654834
18.403220814359884	3.0726144	1.7528875
18.420976262515172	3.1139786	1.7646469
18.43873215678387	3.1524541	1.7755152
18.456488497625923	3.196003	1.7877368
18.474245285501407	3.2859776	1.8127266
18.492002520870486	3.3087254	1.8189902
18.50976020419343	3.3648732	1.834359
18.527518335930615	3.6156485	1.9014859
18.545276916542516	4.215373	2.0531373
18.563035946489688	4.4356036	2.1060872
18.580795426232832	4.921641	2.2184772
18.598555356232698	4.8141966	2.1941278
18.616315736950185	5.0786285	2.2535813
18.63407656884626	4.736132	2.1762657
18.65183785238201	4.9141717	2.216793
18.669599588018617	4.706131	2.1693618
18.68736177621737	4.672746	2.1616535
18.705124417439652	4.646412	2.1555538
18.72288751214696	4.4351544	2.1059806
18.740651060800886	4.5581355	2.134979
18.758415063863115	4.2516246	2.0619469
18.77617952179546	4.404235	2.0986269
18.793944435059814	4.1963544	2.0485005
18.811709804118184	4.2116413	2.0522285
18.829475629432675	4.1796894	2.0444288
18.8472419114655	3.9615555	1.9903656
18.86500865067897	4.036585	2.0091255
18.88277584753551	3.69204	1.9214681
18.90054350249763	3.6984546	1.9231367
18.918311616027957	3.4025865	1.8446101
18.936080188589226	3.3349411	1.8261821
18.953849220644265	3.0759006	1.7538246
18.971618712656007	2.8999412	1.7029214
18.9893886650875	2.848674	1.6878016
19.007159078401887	8.007205	2.8297005
19.024929953062408	32.86775	5.73304
19.042701289532435	32.813446	5.728302
19.060473088275405	25.38217	5.038072
19.07824534975489	2.6820738	1.6377038
19.096018074434568	2.6739469	1.6352208
19.113791262778197	2.629217	1.6214861
19.13156491524966	2.5908751	1.6096196
19.149339032312945	2.5626824	1.6008381
19.167113614432136	2.5545883	1.598308
19.184888662071433	2.5697956	1.6030582
19.202664175695123	2.555754	1.5986725
19.220440155767623	2.5368497	1.5927491
19.238216602753447	2.5338233	1.5917988
19.2559935171172	2.5195105	1.5872966
19.27377089932361	2.5063672	1.583151
19.291548749837514	2.4997773	1.5810684
19.309327069123835	2.5077426	1.5835854
19.32710585764763	2.5053885	1.5828419
19.344885115874032	2.5170872	1.5865331
19.362664844268313	2.533849	1.5918069
19.380445043295822	2.4925196	1.5787716
19.39822571342203	2.5019238	1.581747
19.41600685511252	2.4745343	1.5730653
19.43378846883297	2.515746	1.5861104
19.451570555049173	2.5014925	1.5816107
19.469353114227037	2.468116	1.571024
19.48713614683254	2.4634645	1.5695428
19.50491965333182	2.439413	1.5618621
19.52270363419109	2.4402351	1.5621252
19.540488089876686	2.4575279	1.5676504
19.55827302085503	2.5040255	1.5824113
19.576058427592674	2.5322719	1.5913113
19.593844310556282	2.562278	1.6007117
19.611630670212598	2.5298965	1.5905648
19.629417507028506	2.5069149	1.583324
19.64720482147098	2.4642804	1.5698026
19.6649926140071	2.4554634	1.5669918
19.682780885104084	2.4967623	1.5801146
19.70056963522921	2.5050864	1.5827465
19.718358864849908	2.4892235	1.5777273
19.7361485744337	2.4679952	1.5709854
19.753938764448215	2.49705	1.5802057
19.771729435361202	2.5139065	1.5855304
19.789520587640506	2.487409	1.5771523
19.807312221754092	2.4896624	1.5778664
19.825104338170043	2.5340114	1.5918578
19.842896937356517	2.5439928	1.5949899
19.860690019781824	2.5495715	1.5967377
19.87848358591436	2.4883943	1.5774645
19.896277636222635	2.473953	1.5728805
19.914072171175278	2.4864576	1.5768505
19.931867191241015	2.490489	1.5781283
19.94966269688869	2.4862964	1.5767994
19.967458688587264	2.4780102	1.5741696
19.985255166805807	2.4819028	1.5754056
20.00305213201348	2.4934986	1.5790815
20.020849584679578	2.5176253	1.5867027
20.038647525273507	2.536892	1.5927624
20.05644595426477	2.5034087	1.5822164
20.07424487212299	2.4538803	1.5664866
20.092044279317903	2.412735	1.5532981
20.109844176319353	2.3831854	1.543757
20.127644563597304	2.3622885	1.5369738
20.145445441621817	2.3992746	1.5489591
20.16324681086307	2.4315348	1.559338
20.181048671791373	2.4570682	1.5675038
20.198851024877122	2.4756534	1.5734209
20.216653870590836	2.477164	1.5739009
20.234457209403146	2.4495096	1.5650909
20.252261041784802	2.4123034	1.5531592
20.270065368206662	2.3945885	1.5474458
20.287870189139685	2.3741064	1.5408136
20.305675505054968	2.3660223	1.538188
20.323481316423702	2.3494906	1.5328048
20.341287623717207	2.3665502	1.5383596
20.359094427406884	2.3958302	1.5478469
20.376901727964288	2.3814514	1.5431951
20.39470952586107	2.3811722	1.5431048
20.41251782156899	2.3773944	1.5418801
20.430326615559935	2.3727841	1.5403844
20.448135908305886	2.393514	1.5470985
20.465945700278965	2.4091082	1.5521302
20.483755991951384	2.398136	1.5485916
20.50156678379548	2.3156602	1.5217294
20.519378076283708	2.261682	1.503889
20.537189869888635	2.258645	1.5028789
20.55500216508294	2.3065596	1.5187361
20.572814962339415	2.3431706	1.5307418
20.59062826213098	2.3520577	1.5336419
20.60844206493066	2.3286438	1.5259894
20.626256371211593	2.3373754	1.5288477
20.644071181447032	2.3213842	1.5236089
20.66188649611036	2.3365085	1.5285642
20.67970231567506	2.348108	1.5323538
20.697518640614742	2.3323169	1.5271925
20.715335471403122	2.31241	1.5206611
20.73315280851404	2.3242912	1.5245626
20.750970652421447	2.3383687	1.5291725
20.768789003599412	2.3314884	1.5269212
20.786607862522136	2.3467033	1.5318953
20.8044272296639	2.3312473	1.5268422
20.82224710549913	2.301983	1.5172287
20.84006749050237	2.2940981	1.514628
20.857888385148268	3.9123456	1.977965
20.8757097899116	46.007805	6.7829056
20.893531705267254	64.84516	8.0526495
20.911354131690224	83.84808	9.15686
20.92917706965566	69.09512	8.312347
20.94700051963877	50.181465	7.0838876
20.96482448211493	29.444588	5.4262867
20.982648957559622	4.188397	2.0465574
21.00047394644843	2.311376	1.520321
21.01829944925707	2.302216	1.5173055
21.036125466461375	2.2888858	1.5129064
21.053951998537297	2.2247415	1.4915568
21.071779045960906	2.2012265	1.4836531
21.089606609208378	2.1822608	1.4772477
21.10743468875603	2.2065728	1.4854537
21.12526328508028	2.1946394	1.4814316
21.143092398657675	2.1943073	1.4813194
21.16092202996488	2.201527	1.4837544
21.17875217947867	2.2157729	1.4885472
21.19658284767596	2.2437186	1.4979048
21.21441403503377	2.235091	1.495022
21.232245742029225	2.2114801	1.4871047
21.2500779691396	2.1688747	1.47271
21.26791071684227	2.1527262	1.4672172
21.28574398561475	2.1773446	1.4755828
21.30357777593465	2.1524825	1.4671341
21.321412088279704	2.1035748	1.4503706
21.339246923127792	2.117048	1.4550079
21.357082280956888	2.1472511	1.4653502
21.3749181622451	2.189688	1.4797595
21.392754567470647	2.187725	1.479096
21.41059149711187	2.1923993	1.4806752
21.42842895164726	2.1667082	1.4719743
21.446266931555378	2.1812928	1.47692
21.464105437314945	2.1575887	1.4688733
21.481944469404798	2.1522691	1.4670614
21.49978402830388	2.1282938	1.4588673
21.51762411449127	2.1023507	1.4499485
21.53546472844617	2.0621235	1.4360096
21.553305870647876	2.0471065	1.4307714
21.571147541575865	2.065035	1.437023
21.58898974170967	2.0650759	1.4370372
21.60683247152899	2.0531461	1.4328804
21.62467573151363	2.055136	1.4335746
21.642519522143523	2.0368023	1.4271659
21.660363843898722	2.032018	1.4254887
21.6782086972594	2.0324712	1.4256476
21.696054082705864	2.049762	1.431699
21.713900000718535	2.075593	1.4406918
21.73174645177795	2.061284	1.4357172
21.749593436364794	2.0038702	1.4155812
21.767440954959845	2.0031486	1.4153264
21.785289008044032	2.047812	1.4310178
21.803137596098388	2.0656323	1.4372308
21.820986719604086	2.0523193	1.4325918
21.838836379042412	2.050763	1.4320484
21.85668657489478	2.0656183	1.4372259
21.87453730764273	2.0399027	1.4282516
21.892388577767914	2.0396974	1.4281797
21.91024038575213	2.028324	1.4241923
21.928092732077285	2.0475535	1.4309275
21.945945617225426	2.045234	1.4301168
21.963799041678694	2.0693283	1.438516
21.981653005919398	31.349018	5.5990195
21.999507510429943	78.12739	8.83897
22.01736255569286	73.054115	8.54717
22.035218142190818	4.153717	2.038067
22.05307427040661	1.9628512	1.4010179
22.07093094082315	1.9368523	1.3917084
22.088788153923474	1.942922	1.3938874
22.106645910190746	1.9735057	1.4048152
22.12450421010827	1.9772646	1.4061524
22.142363054159464	1.969539	1.4034027
22.16022244282787	1.9746671	1.4052285
22.178082376597164	2.0079305	1.4170146
22.195942855951145	2.0200675	1.4212908
22.213803881373742	1.9854562	1.4090621
22.231665453349002	1.9382029	1.3921936
22.24952757236111	1.9539502	1.3978376
22.26739023889438	1.9761778	1.4057659
22.28525345343323	1.9800509	1.4071429
22.30311721646225	2.0035176	1.4154567
22.320981528466113	1.9687765	1.403131
22.33884638992964	1.9719824	1.4042729
22.356711801337788	1.9728421	1.4045789
22.37457776317561	1.9577267	1.3991879
22.392444275928337	1.9052299	1.3803006
22.410311340081282	1.9078432	1.381247
22.428178956119904	1.9398137	1.392772
22.446047124529805	1.9254961	1.3876225
22.46391584579669	1.9132491	1.3832024
22.481785120406414	1.9267597	1.3880777
22.49965494884496	1.9598607	1.3999503
22.51752533159841	1.9914225	1.4111778
22.53539626915302	1.9585346	1.3994765
22.553267761995137	1.9340538	1.3907026
22.571139810611264	1.9352386	1.3911285
22.589012415488025	1.978489	1.4065877
22.60688557711216	1.983209	1.4082645
22.624759295970566	1.9531114	1.3975376
22.642633572550263	1.972618	1.4044992
22.660508407338362	1.9724263	1.404431
22.67838380082217	1.9732553	1.404726
22.696259753489077	1.9708071	1.4038544
22.714136265826614	1.9447925	1.3945582
22.73201333832246	1.9418484	1.3935022
22.74989097146439	1.9136702	1.3833547
22.76776916574035	1.9002652	1.378501
22.785647921638393	1.846534	1.3588723
22.803527239646712	1.8419487	1.3571842
22.82140712025363	1.8689637	1.3671005
22.839287563947593	1.8878316	1.3739839
22.85716857121719	1.8685287	1.3669413
22.875050142551135	1.9180079	1.3849216
22.892932278438277	1.9301807	1.3893094
22.910814979367604	1.960012	1.4000043
22.928698245828222	1.9426032	1.3937731
22.946582078309387	1.9706274	1.4037904
22.96446647730047	1.935311	1.3911545
22.98235144329098	1.8929923	1.3758606
23.000236976770562	1.8925171	1.3756878
23.018123078229	1.9334884	1.3904994
23.03600974815619	1.9354938	1.3912202
23.053896987042194	1.9155947	1.3840501
23.071784795377173	1.8994415	1.3782023
23.08967317365145	1.9262232	1.3878844
23.10756212235546	1.9670857	1.4025283
23.125451641979787	1.9981751	1.4135683
23.143341733015134	1.9806932	1.407371
23.161232395952357	1.9459622	1.3949775
23.179123631282426	1.9145043	1.3836561
23.197015439496468	1.9052761	1.3803173
23.214907821085717	1.9164569	1.3843615
23.23280077654157	1.9215686	1.3862065
23.250694306355538	1.9672141	1.4025741
23.268588411019277	1.955045	1.3982292
23.28648309102458	1.9611027	1.4003937
23.304378346863356	1.9387735	1.3923985
23.322274179027676	1.9611633	1.4004154
23.340170588009723	2.002359	1.4150473
23.358067574301852	2.011771	1.4183692
23.37596513839651	1.9603076	1.4001099
23.39386328078629	1.9080218	1.3813117
23.411762001963947	1.8745657	1.3691478
23.429661302422353	1.8850069	1.3729556
23.4475611826545	1.895866	1.3769045
23.46546164315356	1.9550524	1.3982319
23.48336268441279	1.9265074	1.3879868
23.501264306925638	1.9108993	1.3823528
23.51916651118564	1.9013816	1.3789059
23.537069297686497	1.9228147	1.3866559
23.554972666922037	1.927472	1.3883343
23.57287661938623	1.9064368	1.3807378
23.59078115557318	1.9213881	1.3861414
23.608686275977128	1.9099369	1.3820046
23.62659198109246	1.9239187	1.387054
23.6444982714137	1.9282738	1.388623
23.66240514743549	1.9122517	1.382842
23.68031260965263	1.8807665	1.3714104
23.698220658560068	1.8605199	1.3640088
23.716129294652845	1.8811741	1.371559
23.7340385184262	1.9183826	1.3850569
23.75194833037546	1.9283938	1.3886662
23.769858730996123	1.9400388	1.3928528
23.78776972078382	1.8876175	1.3739059
23.80568130023431	1.9071214	1.3809856
23.823593469843495	1.9384403	1.3922788
23.841506230107424	1.963533	1.4012612
23.859419581522275	1.9702184	1.4036447
23.87733352458438	1.9345008	1.3908633
23.89524805979019	1.9432185	1.3939937
23.913163187636318	1.9655287	1.4019731
23.931078908619508	2.0119212	1.4184221
23.948995223236633	2.0136013	1.4190142
23.966912131984735	1.9890325	1.4103307
23.98482963536096	2.0024903	1.4150938
24.002747733862616	1.9817367	1.4077417
24.020666427987155	2.026122	1.4234191
24.038585718232156	2.075301	1.4405905
24.056505605095353	2.1135423	1.4538027
24.074426089074617	2.119607	1.455887
24.092347170667946	2.0729697	1.4397811
24.110268850373515	2.052019	1.432487
24.128191128689586	2.0771837	1.4412438
24.146114006114626	2.0567985	1.4341543
24.164037483147187	2.0964718	1.4479198
24.181961560286005	2.1167328	1.4548995
24.199886238029926	2.0637991	1.4365929
24.21781151687797	2.0547829	1.4334514
24.235737397329274	2.0687947	1.4383305
24.253663879883135	2.0646281	1.4368814
24.271590965038975	2.0723042	1.43955
24.289518653296376	2.0841773	1.443668
24.30744694515505	2.1104515	1.4527392
24.32537584111486	2.0625105	1.4361444
24.34330534167581	2.0690348	1.438414
24.361235447338046	2.079225	1.4419519
24.379166158601876	2.015583	1.4197123
24.39709747596772	2.008615	1.4172561
24.41502939993615	2.0011735	1.4146284
24.432961931007917	2.0261524	1.4234298
24.450895069683856	2.0086708	1.4172758
24.468828816465	2.0131707	1.4188625
24.4867631718525	2.0307605	1.4250475
24.504698136347656	2.0325956	1.4256912
24.52263371045192	1.989021	1.4103265
24.540569894666874	1.9248229	1.3873799
24.558506689494266	1.912513	1.3829364
24.57644409543597	1.9151258	1.3838807
24.594382112994012	1.9574156	1.3990767
24.61232074267057	1.9817598	1.4077499
24.630259984967953	2.0025613	1.4151188
24.64819984038863	1.9670242	1.4025064
24.66614030943522	1.9656569	1.4020189
24.684081392610462	1.991907	1.4113493
24.702023090417274	2.0176532	1.4204412
24.7199654033587	2.0042908	1.4157298
24.737908331937927	1.9688529	1.4031582
24.755851876658305	1.9875115	1.4097914
24.773796038023324	2.046019	1.4303912
24.79174081653661	2.0855641	1.4441482
24.809686212701962	2.1032224	1.4502491
24.827632227023294	2.0867665	1.4445645
24.8455788600047	2.0510082	1.4321342
24.8635261121504	2.0381494	1.4276377
24.88147398396475	2.0361798	1.4269477
24.899422475952303	2.1122346	1.4533529
24.917371588617698	2.1834695	1.4776567
24.935321322465768	2.225918	1.4919511
24.953271678001478	2.31161	1.520398
24.97122265572994	2.5058506	1.5829879
24.989174256156414	2.8366997	1.6842505
25.00712647978632	3.4397411	1.854654
25.02507932712521	4.448697	2.1091936
25.043032798678798	5.991342	2.4477217
25.060986894952933	7.6695824	2.769401
25.078941616453637	9.175779	3.0291548
25.096896963687055	10.093593	3.1770415
25.114852937159508	10.842928	3.29286
25.132809537377444	10.642378	3.2622657
25.150766764847468	9.988371	3.1604383
25.168724620076347	8.545631	2.9232912
25.186683103570985	7.193252	2.6820238
25.204642215838426	5.7845836	2.405116
25.222601957385894	4.6521444	2.156883
25.24056232872074	3.622631	1.903321
25.25852333035048	2.8786614	1.6966618
25.276484962782778	2.4702315	1.571697
25.294447226525435	2.2580104	1.5026678
25.312410122086423	2.1305394	1.4596367
25.330373649973843	2.002022	1.4149283
25.348337810695988	1.9859407	1.409234
25.366302604761245	1.981929	1.40781
25.384268032678207	1.9707094	1.4038196
25.40223409495558	1.961258	1.4004493
25.420200792102257	1.9593886	1.3997816
25.438168124627246	1.900617	1.3786286
25.45613609303974	1.829846	1.352718
25.474104697849057	1.8552486	1.3620751
25.492073939564698	1.8887366	1.3743131
25.510043818696285	1.8827145	1.3721205
25.528014335753614	1.8429322	1.3575464
25.54598549124664	1.8512398	1.3606027
25.56395728568544	1.9293458	1.389009
25.58192971958028	1.9231375	1.3867724
25.59990279344156	1.8812277	1.3715786
25.617876507779833	1.8348112	1.354552
25.635850863105826	1.8494291	1.3599372
25.653825859930386	1.8348304	1.3545591
25.671801498764548	1.8381177	1.355772
25.68977778011949	1.860557	1.3640224
25.707754704506524	1.8713787	1.3679835
25.725732272437153	1.8555827	1.3621978
25.743710484423012	1.8113986	1.345882
25.761689340975888	1.7789959	1.3337901
25.77966884260774	1.821297	1.3495544
25.797648989830662	1.8611017	1.364222
25.815629783156922	1.8987856	1.3779643
25.83361122309895	1.9026186	1.3793545
25.85159331016929	1.9182703	1.3850163
25.869576044880695	1.922351	1.3864887
25.887559427746034	1.9329883	1.3903195
25.90554345927836	1.8783097	1.3705144
25.92352813999086	1.8527428	1.3611549
25.94151347039689	1.7959278	1.3401223
25.959499451009965	1.8117515	1.3460132
25.97748608234374	1.8383932	1.3558736
25.995473364912062	1.8583486	1.3632126
26.013461299228904	1.8380343	1.3557413
26.03144988580839	1.7744902	1.3320999
26.04943912516483	1.7997656	1.3415534
26.067429017812675	1.8361399	1.3550425
26.085419564266537	1.8265067	1.3514831
26.103410765041186	1.8301333	1.3528242
26.12140262065155	1.8529172	1.361219
26.139395131612723	1.8639436	1.3652632
26.157388298439948	1.8232626	1.3502824
26.17538212164861	1.852566	1.3610901
26.193376601754295	1.8732626	1.3686719
26.211371739272714	1.844801	1.3582345
26.229367534719746	1.7994525	1.3414367
26.247363988611433	1.7318531	1.3159989
26.26536110146397	1.7032076	1.3050699
26.283358873793727	1.7519491	1.3236121
26.301357306117204	1.8484107	1.3595628
26.319356398951104	1.8653221	1.365768
26.33735615281224	1.8784745	1.3705745
26.35535656821762	1.8651643	1.3657101
26.373357645684404	1.8408047	1.3567625
26.39135938572991	1.8196428	1.3489413
26.409361788871614	1.8475126	1.3592323
26.427364855627165	1.878209	1.3704777
26.445368586514352	1.877075	1.3700639
26.46337298205115	1.8220129	1.3498195
26.48137804275568	1.766225	1.3289939
26.499383769146217	1.7949803	1.3397688
26.517390161741215	1.8294243	1.3525621
26.53539722105928	1.8195286	1.348899
26.553404947619182	1.8454796	1.3584843
26.571413341939856	1.81745	1.3481283
26.589422404540397	1.806234	1.3439621
26.60743213594006	1.8196461	1.3489426
26.62544253665827	1.8718354	1.3681504
26.64345360721459	1.8998536	1.3783518
26.66146534812879	1.8668458	1.3663256
26.679477759920758	1.7944294	1.3395631
26.69749084311057	1.8370969	1.3553954
26.71550459821847	1.841851	1.3571482
26.733519025764842	1.7884952	1.3373463
26.751534126270258	1.7761277	1.3327144
26.769549900255434	1.7870445	1.3368038
26.787566348241267	1.7801963	1.33424
26.80558347074881	1.7749835	1.332285
26.823601268299267	1.7909636	1.3382689
26.841619741414036	1.8416865	1.3570875
26.85963889061465	1.9130307	1.3831235
26.877658716422832	1.895268	1.3766873
26.89567921936045	1.8755292	1.3694996
26.913700399949544	1.8822973	1.3719684
26.93172225871233	1.8849428	1.3729322
26.949744796171174	1.8912611	1.3752313
26.967768012848605	1.8616221	1.3644128
26.98579190926733	1.8131601	1.3465363
27.003816485950225	1.8069108	1.3442138
27.021841743420318	1.810398	1.3455104
27.039867682200814	1.8218338	1.3497533
27.057894302815072	1.8134198	1.3466327
27.07592160578664	1.816591	1.3478097
27.0939495916392	1.7764686	1.3328424
27.111978260896635	1.7513707	1.3233936
27.13000761408296	1.8057222	1.3437717
27.148037651722397	1.8594627	1.3636212
27.166068374339304	1.8272122	1.3517442
27.184099782458215	1.7955693	1.3399886
27.20213187660384	1.7520223	1.3236398
27.22016465730105	1.7390809	1.3187422
27.23819812507487	1.7877725	1.3370761
27.256232280450533	1.8334346	1.3540438
27.274267123953383	1.8468982	1.3590063
27.292302656108987	1.814819	1.3471521
27.31033887744306	1.785854	1.3363584
27.32837578848146	1.8279285	1.352009
27.34641338975026	1.8158722	1.347543
27.364451681775673	1.82935	1.3525347
27.382490665084074	1.8124708	1.3462803
27.400530340202046	1.7814722	1.334718
27.41857070765629	1.7237136	1.3129028
27.436611767973726	1.7506025	1.3231033
27.454653521681404	1.7817081	1.3348064
27.472695969306564	1.8568968	1.36268
27.490739111376627	1.8469524	1.3590263
27.508782948419153	1.8325992	1.3537352
27.526827480961902	1.7830219	1.3352984
27.54487270953279	1.7861233	1.3364593
27.562918634659898	1.8001738	1.3417056
27.580965256871508	1.8004558	1.3418107
27.599012576696026	1.770609	1.3306423
27.617060594662068	1.848486	1.3595904
27.63510931129842	1.8886307	1.3742746
27.65315872713401	1.8975242	1.3775065
27.67120884269797	1.855408	1.3621336
27.68925965851958	1.8274918	1.3518475
27.707311175128307	1.8657624	1.3659291
27.725363393053787	1.8876084	1.3739027
27.74341631282583	1.8896023	1.3746281
27.7614699349744	1.883841	1.3725309
27.77952426002968	2.0931978	1.4467888
27.797579288521973	2.1341722	1.4608806
27.815635020981784	2.6422148	1.6254891
27.83369145793979	2.7723148	1.665027
27.85174859992682	2.6536212	1.6289939
27.869806447473923	2.5064456	1.5831758
27.887865001112267	2.1383483	1.4623092
27.905924261373233	1.9626626	1.4009506
27.92398422878836	1.8947966	1.3765161
27.94204490388936	1.892432	1.375657
27.96010628720813	1.9376465	1.3919938
27.978168379276728	1.9170837	1.3845879
27.9962311806274	1.855173	1.3620473
28.014294691792568	1.8267466	1.3515719
28.0323589133048	1.8489164	1.3597486
28.050423845696887	1.8375039	1.3555456
28.068489489501758	1.8601387	1.363869
28.086555845252523	1.891442	1.3752971
28.104622913482487	1.890002	1.3747734
28.122690694725115	1.8861423	1.373369
28.14075918951405	1.9249154	1.3874133
28.15882839838312	1.8724523	1.3683758
28.176898321866304	1.8449713	1.3582972
28.1949689604978	1.8833637	1.372357
28.213040314811945	1.9241914	1.3871522
28.23111238534327	1.9176363	1.3847874
28.249185172626493	1.9512544	1.3968731
28.267258677196473	1.9446888	1.394521
28.285332899588294	1.9401076	1.3928775
28.303407840337172	1.8789375	1.3707434
28.321483499978545	1.894345	1.3763521
28.33955987904799	1.9490464	1.3960825
28.357636978081285	1.9714044	1.4040672
28.37571479761439	1.9972723	1.4132488
28.393793338183425	2.0235379	1.4225111
28.41187260032469	2.0053086	1.4160892
28.429952584574686	2.0245523	1.4228677
28.448033291470065	2.0176	1.4204224
28.46611472154769	1.9534168	1.3976469
28.484196875344566	1.9379911	1.3921175
28.502279753397914	1.9528478	1.3974433
28.52036335624511	2.0010283	1.4145771
28.538447684423716	2.043406	1.4294776
28.556532738471482	2.1047387	1.4507718
28.574618518926325	2.0772998	1.4412841
28.59270502632635	2.0303628	1.424908
28.61079226120985	1.9845437	1.4087384
28.628880224115274	1.9897985	1.4106022
28.646968915581287	1.9546571	1.3980905
28.66505833614671	2.009613	1.4176083
28.68314848635055	2.086487	1.4444678
28.701239366732004	2.121465	1.456525
28.71933097783044	2.1288128	1.4590452
28.737423320185403	2.1407583	1.463133
28.75551639433665	2.1051822	1.4509246
28.773610200824074	2.0926557	1.4466014
28.791704740187793	2.1414795	1.4633795
28.80980001296809	2.1783874	1.475936
28.827896019705413	2.1994498	1.4830542
28.845992760940433	2.1952422	1.481635
28.86409023721397	2.2747598	1.5082307
28.88218844906704	2.2903605	1.5133936
28.900287397040845	2.2365491	1.4955096
28.918387081676755	2.2396095	1.4965324
28.936487503516343	2.3121974	1.5205911
28.954588663101365	2.2923636	1.5140554
28.97269056097374	2.295537	1.515103
28.990793197675597	2.3447373	1.5312535
29.00889657374923	2.368668	1.5390478
29.027000689737125	2.3560185	1.5349327
29.04510554618196	2.3725796	1.540318
29.06321114362659	2.4547093	1.5667512
29.08131748261405	2.4949236	1.5795327
29.099424563687567	2.4818363	1.5753845
29.11753238739057	2.4588962	1.5680867
29.13564095426663	2.5030868	1.5821147
29.15375026485954	2.5730217	1.6040641
29.171860319713275	2.6312454	1.6221114
29.18997111937199	2.6636617	1.6320728
29.20808266438002	2.6808903	1.6373425
29.226194955281898	2.756164	1.6601698
29.244307992622335	2.8192596	1.6790651
29.26242177694624	2.8583965	1.6906793
29.2805363087987	2.933852	1.712849
29.29865158872498	2.9397695	1.7145756
29.316767617270557	2.8929167	1.7008576
29.334884394981064	2.8880455	1.6994251
29.353001922402367	3.0001113	1.732083
29.37112020008047	3.0721288	1.752749
29.389239228561596	3.1360352	1.7708855
29.407359008392152	3.3119135	1.8198663
29.42547954011872	3.6647031	1.9143414
29.44360082428809	4.174728	2.043215
29.46172286144722	4.94859	2.2245426
29.479845652143283	6.5507607	2.5594454
29.497969196923606	9.297935	3.0492516
29.516093496335728	12.91563	3.5938323
29.5342185509274	16.460009	4.0570936
29.55234436124651	19.762922	4.445551
29.570470927841175	21.322233	4.6176004
29.588598251259686	21.245056	4.609236
29.60672633205055	19.472357	4.4127493
29.624855170762405	16.21607	4.0269184
29.642984767944146	12.746932	3.5702846
29.66111512414481	9.398438	3.0656872
29.67924623991366	6.904724	2.627684
29.697378115800138	5.1363373	2.2663488
29.71551075235387	4.1996984	2.0493166
29.733644150124675	3.7050018	1.9248382
29.751778309662576	3.5057862	1.8723745
29.769913231517766	3.4827602	1.8662155
29.78804891624066	3.4620187	1.8606501
29.806185364381818	3.3530455	1.8311323
29.82432257649206	3.2720175	1.8088719
29.842460553122333	3.3005009	1.8167281
29.86059929482382	3.3868885	1.8403502
29.878738802147872	3.3256848	1.8236461
29.896879075646048	3.2433958	1.800943
29.915020115870114	3.263843	1.806611
29.933161923371976	3.3198185	1.8220369
29.951304498703777	3.3544903	1.8315268
29.969447842417857	3.4077878	1.8460195
29.987591955066733	3.36613	1.8347017
30.005736837203123	3.2487214	1.802421
30.023882489379943	3.2179472	1.7938638
30.04202891215028	3.2769644	1.8102387
30.060176106067455	3.1937866	1.7871169
30.078324071684946	3.1395223	1.7718698
30.09647280955646	3.1919532	1.7866038
30.114622320235863	3.19037	1.7861607
30.132772604277257	3.113666	1.7645583
30.1509236622349	3.1008022	1.7609094
30.16907549466328	3.111368	1.763907
30.18722810211705	3.078189	1.7544768
30.205381485151097	3.048174	1.7459021
30.22353564432045	3.0160904	1.7366894
30.241690580180403	3.015471	1.7365111
30.25984629328638	3.0673676	1.7513902
30.278002784194037	3.0365565	1.7425718
30.296160053459246	3.0396423	1.743457
30.314318101638033	2.9639025	1.7215989
30.332476929286646	2.9278243	1.7110887
30.35063653696153	2.955685	1.7192105
30.368796925219307	2.992502	1.729885
30.386958094616844	2.9688847	1.7230452
30.40512004571115	2.9573698	1.7197005
30.423282779059463	2.9229057	1.7096508
30.441446295219233	2.8620477	1.6917588
30.459610594748067	2.8484504	1.6877353
30.47777567820382	2.8492503	1.6879723
30.495941546144504	2.8364341	1.6841717
30.51410819912835	2.822626	1.6800673
30.532275637713795	2.821667	1.6797818
30.55044386245946	2.8156598	1.6779928
30.56861287392416	2.782436	1.6680635
30.586782672666956	2.7817698	1.6678638
30.604953259247047	2.7805011	1.6674834
30.623124634223885	2.7988286	1.6729699
30.641296798157075	2.8222244	1.6799477
30.659469751606462	2.8920014	1.7005886
30.677643495132074	2.8934004	1.7009999
30.695818029294152	2.8593447	1.6909597
30.713993354653116	2.8539135	1.689353
30.73216947176962	2.8198588	1.6792436
30.75034638120448	2.7507305	1.6585326
30.768524083518756	2.7004018	1.6432899
30.786702579273673	2.7769165	1.6664083
30.80488186903069	2.9229014	1.7096494
30.82306195335144	3.058306	1.7488014
30.841242832797782	3.322439	1.8227558
30.85942450793176	3.7129884	1.9269116
30.877606979315637	4.060601	2.0150933
30.895790247511883	4.384611	2.0939462
30.913974313083134	4.778024	2.1858692
30.932159176592283	5.272041	2.2960925
30.95034483860237	5.7435217	2.3965645
30.968531299676698	5.7926583	2.4067943
30.98671856037873	5.4373746	2.3318179
31.00490662127215	4.9281697	2.219948
31.023095482920848	4.3933234	2.0960257
31.04128514588892	3.894274	1.9733915
31.059475610740662	3.3403983	1.8276757
31.07766687804056	2.89272	1.7007998
31.09585894835335	2.566477	1.6020228
31.11405182224393	2.5001278	1.5811793
31.132245500277417	2.5164857	1.5863435
31.15043998301914	2.4353926	1.5605744
31.168635271034628	2.3703828	1.5396048
31.18683136488964	2.4332857	1.5598992
31.20502826515008	2.4199848	1.5556301
31.223225972382135	2.4107418	1.5526564
31.241424487152155	2.447018	1.5642947
31.259623810026692	2.4775066	1.5740098
31.27782394157253	2.4427025	1.5629147
31.296024882356644	2.4691372	1.5713488
31.314226632946237	2.5438085	1.5949321
31.332429193908684	2.5586824	1.5995882
31.350632565811598	2.5175674	1.5866843
31.368836749222787	2.5091474	1.5840288
31.387041744710295	2.5073006	1.5834458
31.40524755284232	2.5458395	1.5955688
31.423454174187317	2.5875902	1.6085988
31.441661609313922	2.5984333	1.6119657
31.459869858791002	2.5378413	1.5930604
31.478078923187628	2.427527	1.5580523
31.496288803073064	2.3831599	1.5437486
31.514499499016807	2.345569	1.531525
31.532711011588546	2.347049	1.5320082
31.550923341358178	2.391038	1.5462981
31.56913648889584	2.3743575	1.540895
31.587350454771844	2.352485	1.5337813
31.605565239556732	2.391193	1.5463482
31.62378084382127	2.4655154	1.5701959
31.641997268136382	2.4406796	1.5622674
31.660214513073274	2.3546135	1.534475
31.67843257920331	2.3010962	1.5169364
31.6966514670981	2.3708742	1.5397643
31.71487117732944	2.3700528	1.5394976
31.733091710469346	2.3627908	1.5371373
31.751313067090052	2.3417768	1.5302866
31.769535247764008	2.3560767	1.5349517
31.787758253063878	2.3570588	1.5352715
31.805982083562526	2.3438084	1.5309502
31.824206739833024	2.3327491	1.527334
31.84243222244869	2.3498282	1.532915
31.860658531983013	2.3665595	1.5383626
31.878885669009737	2.3166637	1.5220591
31.897113634102784	2.2432187	1.4977379
31.91534242783632	2.2448025	1.4982665
31.933572050784694	2.2629397	1.504307
31.951802503522508	2.2323542	1.4941065
31.970033786624548	2.1737788	1.474374
31.988265900665834	2.2099342	1.4865848
32.006498846221575	2.255166	1.501721
32.02473262386724	2.2800095	1.5099701
32.04296723417845	2.2210922	1.490333
32.0612026777311	2.104542	1.450704
32.07943895510129	2.139757	1.4627908
32.097676066865304	2.1767964	1.475397
32.115914013599685	2.2456715	1.4985565
32.13415279588115	2.216066	1.4886457
32.152392414286666	2.2016673	1.4838016
32.1706328693934	2.1644115	1.4711939
32.18887416177875	2.228268	1.4927384
32.20711629202032	2.1880412	1.4792029
32.225359260695924	2.1219761	1.4567004
32.243603068383614	2.1747031	1.4746875
32.26184771566166	2.2781293	1.5093473
32.28009320310852	2.2261982	1.4920449
32.2983395313029	2.0948684	1.447366
32.31658670082372	2.0418317	1.4289268
32.33483471225012	2.0454109	1.4301786
32.35308356616143	2.1527576	1.4672279
32.371333263137245	2.1339347	1.4607993
32.38958380375734	2.102165	1.4498844
32.407835188601744	2.0858908	1.4442613
32.42608741825067	2.1580937	1.4690452
32.444340493284585	2.1969564	1.4822134
32.46259441428416	2.2146032	1.4881543
32.48084918183028	2.1666317	1.4719483
32.49910479650405	2.118698	1.4555748
32.51736125888683	2.0670004	1.4377066
32.53561856956014	2.0269818	1.4237211
32.5538767291058	2.032276	1.4255792
32.572135738105764	2.0829294	1.4432358
32.59039559714228	2.0437353	1.4295927
32.608656306797776	1.9974241	1.4133025
32.62691786765491	2.0361178	1.426926
32.645180280296586	2.063896	1.4366266
32.663443545305896	2.0184083	1.420707
32.68170766326619	2.0142474	1.4192419
32.69997263476099	2.0653887	1.4371461
32.7182384603741	2.022969	1.4223112
32.7365051406895	1.9221188	1.386405
32.75477267629144	1.8760002	1.3696716
32.77304106776434	1.8699319	1.3674545
32.79131031569289	1.9013823	1.3789062
32.809580420661966	1.9554205	1.3983635
32.827851383256714	1.9261366	1.3878533
32.84612320406245	1.933781	1.3906045
32.86439588366476	1.9531304	1.3975444
32.88266942264945	1.9136721	1.3833554
32.9009438216025	1.9023739	1.3792657
32.9192190811102	1.9314301	1.3897591
32.937495201758985	1.9971184	1.4131944
32.95577218413556	1.99785	1.4134532
32.974050028826866	1.93634	1.3915243
32.992328736420035	1.9090891	1.3816979
33.010608307502444	1.8881298	1.3740923
33.02888874266169	1.8885658	1.374251
33.047170042485604	1.9800267	1.4071342
33.06545220756225	2.020975	1.42161
33.083735238479896	1.9921688	1.411442
33.10201913582707	1.9249687	1.3874325
33.12030390019248	1.9617474	1.4006239
33.138589532165135	1.9023988	1.3792747
33.15687603233419	1.8528148	1.3611814
33.17516340128909	1.9072466	1.381031
33.19345163961947	1.9658353	1.4020824
33.211740747915215	1.9987514	1.4137721
33.23003072676643	1.9648407	1.4017278
33.248321576763466	1.9967705	1.4130713
33.266613298496885	1.962635	1.4009408
33.28490589255747	1.9204936	1.3858187
33.30319935953626	1.8859478	1.3732982
33.32149370002451	1.9106042	1.3822461
33.339788914613706	1.9154673	1.3840041
33.358085003895575	1.9150238	1.3838439
33.376381968462034	1.9878794	1.4099218
33.39467980890529	1.9861554	1.4093102
33.41297852581774	1.927289	1.3882684
33.43127811979204	2.0281336	1.4241256
33.44957859142105	2.1108122	1.4528635
33.467879941297866	2.128384	1.4588983
33.486182170015844	2.055951	1.4338589
33.50448527816853	2.0625265	1.4361498
33.522789266349754	2.0531783	1.4328916
33.541094135153514	2.004268	1.4157217
33.55939988517411	1.8540858	1.3616482
33.57770651700602	1.862048	1.3645688
33.59601403124398	1.8869085	1.3736479
33.61432242848296	1.8324376	1.3536756
33.632631709318154	1.8760998	1.369708
33.650941874344994	1.9395258	1.3926686
33.66925292415916	1.9171044	1.3845954
33.68756485935654	1.922665	1.3866019
33.70587768053328	1.9786841	1.4066571
33.724191388285746	2.0229218	1.4222945
33.74250598321054	2.088959	1.4453231
33.760821465904506	2.0718668	1.439398
33.77913783696474	1.9240857	1.3871142
33.79745509698852	1.8281584	1.352094
33.815773246573414	1.7717052	1.3310541
33.8340922863172	1.8842047	1.3726634
33.852412216817896	1.9270964	1.388199
33.87073303867377	1.8839964	1.3725874
33.889054752483304	1.8400782	1.3564948
33.907377358845245	1.9128975	1.3830754
33.92570085835853	1.954228	1.397937
33.94402525162239	1.9785197	1.4065986
33.96235053923627	2.0191998	1.4209856
33.980676721799824	2.0535917	1.4330359
33.999003799912984	1.9999355	1.4141908
34.01733177417592	1.9063152	1.3806938
34.03566064518901	1.9778326	1.4063543
34.0539904135529	2.0122187	1.418527
34.07232107986846	2.0840328	1.4436179
34.090652644736785	2.1064882	1.4513747
34.108985108759235	2.0759292	1.4408085
34.12731847253742	1.9973123	1.413263
34.14565273667313	2.0527015	1.4327252
34.16398790176847	2.0872548	1.4447335
34.18232396842574	2.1029541	1.4501566
34.20066093724749	2.164717	1.4712977
34.21899880883651	2.0745537	1.4403311
34.23733758379583	1.9625458	1.400909
34.25567726272874	1.8666594	1.3662574
34.27401784623872	1.8232981	1.3502955
34.29235933492957	1.9052445	1.3803059
34.31070172940526	1.923887	1.3870425
34.32904503027003	1.9448242	1.3945695
34.347389238128386	1.8463372	1.3587999
34.36573435358502	1.8007617	1.3419247
34.38408037724492	1.8129085	1.3464429
34.402427309713296	1.7773621	1.3331774
34.42077515159559	1.8060298	1.3438861
34.43912390349752	1.9807963	1.4074076
34.45747356602499	2.089752	1.4455974
34.47582413978423	2.0783682	1.4416547
34.49417562538163	1.8870401	1.3736959
34.51252802342388	1.7505251	1.3230741
34.53088133451789	1.9202526	1.3857318
34.54923555927084	2.0010355	1.4145796
34.567590698290104	1.9623638	1.400844
34.58594675218336	1.9565784	1.3987775
34.6043037215585	1.8721722	1.3682735
34.62266160702365	1.8600978	1.363854
34.641020409187234	1.843647	1.3578097
34.65938012865785	1.913985	1.3834685
34.677740766044394	1.9544148	1.3980039
34.69610232195598	1.9140604	1.3834957
34.714464797002016	2.1162612	1.4547375
34.73282819179208	2.2499316	1.4999772
34.751192506936064	2.0507014	1.432027
34.76955774304408	1.9937637	1.412007
34.7879239007265	2.076971	1.44117
34.80629098059391	2.1405187	1.4630512
34.824658983257194	2.0915794	1.4462293
34.843027909327446	1.8343585	1.3543849
34.86139775941603	1.8275807	1.3518804
34.879768534134534	1.8894415	1.3745695
34.89814023409483	2.0087054	1.4172881
34.91651285990901	1.8100874	1.3453948
34.93488641218944	1.7280241	1.3145434
34.95326089154871	2.0272949	1.4238311
34.97163629859967	2.185368	1.478299
34.99001263395542	2.056703	1.434121
35.00838989822934	2.046857	1.4306841
35.02676809203499	1.9040803	1.3798841
35.04514721598624	1.8398123	1.3563968
35.063527270697215	1.6604729	1.2885934
35.081908256782256	1.5767466	1.2556857
35.10029017485597	1.7246546	1.313261
35.11867302553321	2.0476177	1.4309499
35.137056809429104	2.2761636	1.508696
35.155441527159006	2.1679482	1.4723954
35.173827179338524	1.8950161	1.3765959
35.19221376658354	1.8943202	1.376343
35.21060128951017	1.9492004	1.3961377
35.2289897487348	1.8522735	1.3609825
35.24737914487405	1.8625011	1.3647348
35.26576947854479	1.9205104	1.3858248
35.28416075036418	1.9129264	1.3830858
35.30255296094958	1.7806469	1.3344089
35.32094611091867	1.7939519	1.3393849
35.33934020088932	1.6873977	1.2989987
35.35773523147969	1.8713406	1.3679695
35.3761312033082	2.1062613	1.4512964
35.394528116993506	2.2491393	1.4997131
35.41292597315452	2.1334825	1.4606445
35.431324772410434	2.038872	1.4278908
35.449724515380666	1.9395646	1.3926826
35.46812520268491	1.9556953	1.3984617
35.486526834943106	2.0939364	1.447044
35.504929412775454	2.036754	1.4271488
35.52333293680242	1.7054079	1.3059126
35.54173740764471	1.7815328	1.3347408
35.560142825923286	2.207258	1.4856844
35.5785491922594	2.7309551	1.6525601
35.59695650727454	2.1687603	1.4726712
35.61536477159042	0.7646945	0.87446815
