0.008763373481513119	0.56609195	0.7523908
0.026290120649546365	0.18888974	0.43461448
0.043816868432600686	0.0908709	0.30144802
0.06134361724069026	0.0	0.0
0.07887036748382949	0.046105098	0.21472098
0.0963971195720331	0.05331249	0.23089498
0.11392387391531617	0.2030005	0.45055577
0.1314506309236943	0.20199387	0.4494373
0.1489773910071836	0.14847237	0.3853211
0.16650415457580078	0.060760655	0.24649677
0.18403092203956356	0.032050252	0.17902584
0.20155769380849	0.10117971	0.31808758
0.2190844702925996	0.103462555	0.32165596
0.2366112519019124	0.14223617	0.3771421
0.2541380390464497	0.1376479	0.3710093
0.27166483213623416	0.14869224	0.38560632
0.28919163158128947	0.18746057	0.4329672
0.3067184377916406	0.17969197	0.4239009
0.324245251177314	0.14777096	0.38440987
0.34177207214833777	0.11918857	0.345237
0.3592989011147415	0.12867676	0.35871542
0.37682573848655654	0.1687431	0.41078353
0.39435258467381573	0.15236689	0.39034203
0.41187944008655414	0.112580515	0.3355302
0.42940630513480854	0.077888265	0.27908468
0.446933180228618	0.12689625	0.35622498
0.4644600657780234	0.16989394	0.4121819
0.48198696219306775	0.18399069	0.42894137
0.49951386988379676	0.18183288	0.42641866
0.5170407892602581	0.2041128	0.45178846
0.5345677207325025	0.23331977	0.48303187
0.5520946647105822	0.24191217	0.49184567
0.5696216216045534	0.22516067	0.474511
0.5871485918244737	0.2094848	0.4576951
0.6046755757804043	0.20189933	0.4493321
0.6222025738824094	0.21354558	0.46210992
0.6397295865405557	0.20891768	0.45707512
0.6572566141649129	0.23066993	0.48028108
0.6747836571655547	0.22773857	0.47721964
0.6923107159525568	0.23511724	0.48488888
0.7098377909359992	0.23391476	0.48364735
0.7273648825259653	0.19740172	0.44429913
0.7448919911325411	0.18922089	0.43499526
0.762419117165817	0.17646414	0.42007634
0.7799462610358868	0.14315261	0.37835515
0.7974734231528482	0.14263804	0.37767452
0.8150006039268024	0.17880856	0.4228576
0.8325278037678551	0.21453218	0.4631762
0.8500550230861152	0.25199252	0.5019886
0.8675822622916969	0.23194186	0.48160344
0.8851095217947171	0.2138276	0.46241495
0.9026368020052984	0.18062505	0.42500007
0.9201641033335665	0.17387639	0.4169849
0.9376914261896523	0.19779764	0.44474447
0.9552187709836915	0.23762688	0.48746988
0.9727461381258234	0.24537191	0.4953503
0.990273528026193	0.2531959	0.50318575
1.0078009410949496	0.23290035	0.4825975
1.0253283777422473	0.23038787	0.47998735
1.0428558383782454	0.25975138	0.5096581
1.0603833234131086	0.27451345	0.5239403
1.0779108332570058	0.32327688	0.5685744
1.0954383683201119	0.32033315	0.56597984
1.112965929012607	0.3678117	0.6064748
1.1304935157446763	0.47652048	0.69030464
1.1480211289265108	0.5094445	0.7137538
1.1655487689683062	1.3907876	1.1793166
1.1830764362802655	1.7607181	1.3269205
1.200604131272596	2.1770878	1.4754958
1.2181318543555117	2.4025567	1.5500183
1.235659605939232	2.3677585	1.5387523
1.253187386433982	3.8293567	1.9568743
1.270715196249994	6.2282076	2.4956377
1.2882430357975057	11.673281	3.4166183
1.3057709054867608	16.740477	4.0915127
1.3232988057280106	22.479387	4.7412434
1.3408267369315112	27.269918	5.2220607
1.358354699507526	31.062635	5.573386
1.3758826938663256	35.432587	5.9525275
1.3934107204181858	37.61481	6.1330914
1.410938779573391	37.79461	6.1477323
1.4284668717422309	37.96988	6.1619706
1.4459949973350033	37.70872	6.140743
1.4635231567620117	37.859913	6.153041
1.4810513504335687	37.255013	6.1036882
1.4985795787599925	36.19511	6.0162373
1.5161078421516088	35.56844	5.963928
1.5336361410187505	34.67631	5.8886595
1.5511644757717598	34.515717	5.8750076
1.5686928468209842	34.9809	5.9144654
1.58622125457678	35.560406	5.9632545
1.6037496994495108	36.893417	6.073995
1.621278181849548	37.24434	6.102814
1.6388067021872719	38.131947	6.175107
1.6563352608730693	37.327545	6.1096272
1.673863858317336	36.018215	6.001518
1.6913924949304753	35.2568	5.9377437
1.7089211711228998	34.517944	5.8751974
1.7264498873050296	34.036556	5.834086
1.7439786438872935	33.11932	5.7549386
1.7615074412801288	32.11982	5.667435
1.779036279893981	31.405619	5.6040716
1.796565160139305	30.346174	5.508736
1.814094082426564	29.714195	5.4510727
1.8316230471662298	28.960749	5.3815193
1.849152054768784	28.357533	5.325179
1.8666811056447168	28.045053	5.2957582
1.8842102002045273	27.372162	5.231841
1.901739338858724	26.491497	5.1469893
1.9192685220178245	25.67423	5.0669746
1.9367977500923557	24.90735	4.9907265
1.9543270234928547	24.473162	4.947036
1.971856342629867	23.73627	4.8719883
1.9893857079139496	23.34918	4.832099
2.006915119755667	22.723543	4.766922
2.0244445785655945	22.30272	4.7225757
2.0419740847543175	22.19911	4.711593
2.0595036387324317	21.718708	4.6603336
2.0770332409105414	21.268366	4.611764
2.094562891699263	20.723413	4.5522976
2.1120925915092217	20.517159	4.529587
2.129622340751053	20.298786	4.5054173
2.1471521398354043	188.15105	13.716816
2.1646819891729323	444.2358	21.076902
2.182211889174303	440.55353	20.989367
2.1997418402501974	453.10797	21.286333
2.2172718428113023	433.2365	20.814335
2.234801897268317	320.99405	17.916307
2.2523320040319548	17.2627	4.1548405
2.269862163512935	16.946234	4.1165805
2.287392376121992	16.534912	4.066314
2.304922642269869	16.33805	4.0420356
2.322452962367322	15.979088	3.997385
2.3399833368251164	15.595673	3.9491358
2.357513766054032	15.350725	3.9180002
2.3750442504648586	15.201378	3.8988945
2.3925747904683963	15.07009	3.8820214
2.410105386475459	14.727189	3.837602
2.4276360388968707	14.235193	3.7729554
2.445166748143469	13.996787	3.741228
2.4626975146261025	13.8614025	3.7230904
2.4802283387556323	13.592404	3.6867878
2.4977592209429305	13.24376	3.6391978
2.5152901615988825	12.957325	3.5996284
2.5328211611343865	12.870498	3.5875475
2.5503522199603523	12.904768	3.5923207
2.5678833384877024	12.734711	3.5685728
2.5854145171273712	12.365891	3.516517
2.6029457562903064	12.190243	3.491453
2.620477056387469	12.143067	3.4846904
2.6380084178298326	11.929815	3.4539564
2.655539841028383	11.643564	3.4122667
2.673071326394119	11.446799	3.383312
2.6906028743380523	11.373641	3.372483
2.708134485271211	11.266512	3.3565626
2.7256661596046325	11.019371	3.3195438
2.743197897749369	10.707786	3.2722752
2.760729700116486	10.695638	3.2704186
2.778261567117063	10.462524	3.2345827
2.795793499162193	10.308417	3.2106724
2.8133254966629817	10.014099	3.1645062
2.830857560030551	9.825139	3.134508
2.8483896896760337	9.811647	3.132355
2.865921886010578	9.689603	3.1128128
2.883454149445347	9.581026	3.0953233
2.9009864803915177	9.430432	3.070901
2.91851887926028	9.277918	3.0459676
2.9360513464628384	9.248441	3.0411248
2.953583882410413	9.111677	3.0185554
2.9711164875142373	9.003081	3.0005136
2.9886491621855606	8.918483	2.986383
3.0061819068356455	8.639442	2.939293
3.023714721875769	8.541174	2.9225287
3.041247607717225	8.442173	2.9055417
3.0587805647713213	8.439333	2.905053
3.0763135934493806	8.371214	2.893305
3.0938466941627407	8.210109	2.8653288
3.1113798673227544	8.099392	2.845943
3.1289131133407904	7.8904033	2.8089862
3.1464464326282315	7.798054	2.7924995
3.1639798255964786	7.6808167	2.7714286
3.1815132926569443	7.566961	2.7508109
3.1990468342210603	7.534996	2.7449946
3.216580450700272	7.5253158	2.7432308
3.2341141425060416	7.462122	2.7316885
3.251647910049847	7.457996	2.7309332
3.2691817537431813	7.3300543	2.7074072
3.286715673997555	7.281855	2.6984913
3.3042496712244938	7.14717	2.6734192
3.32178374583554	7.1210036	2.668521
3.339317898242251	6.9364862	2.6337209
3.3568521288562034	6.877286	2.622458
3.3743864380889876	6.742443	2.5966215
3.3919208263522127	6.6830916	2.5851676
3.4094552940575023	6.596639	2.5683923
3.4269898416164972	6.5662484	2.5624692
3.444524469440858	6.4361334	2.5369534
3.4620591779422587	6.3862114	2.5270956
3.479593967532391	6.3450036	2.518929
3.4971288386229658	6.363898	2.5226767
3.5146637916257086	6.32522	2.514999
3.5321988269523628	6.338872	2.5177116
3.5497339450146903	6.3890185	2.5276508
3.5672691462244708	6.4523077	2.5401392
3.5848044309934988	6.4207582	2.5339215
3.60233979973359	6.323531	2.5146632
3.619875252856575	6.3001056	2.5100012
3.6374107907743034	6.320261	2.5140128
3.6549464138986427	6.338408	2.5176196
3.6724821226414788	6.2335725	2.4967124
3.690017917414714	6.2294955	2.4958956
3.7075537986302702	6.353371	2.5205894
3.7250897667000857	6.5322285	2.5558224
3.7426258220361235	6.676944	2.5839782
3.7601619650503553	6.8558207	2.6183622
3.777698196154779	7.2109337	2.6853182
3.7952345157614067	8.180323	2.8601263
3.8127709242822716	9.080372	3.0133655
3.830307422129425	11.184436	3.3443139
3.847844009714936	29.978485	5.475261
3.8653806874508954	97.4148	9.869894
3.882917455749409	96.81385	9.839403
3.900454315022606	96.77826	9.837594
3.917991265682631	41.40229	6.434461
3.9355283081416506	11.2075205	3.3477635
3.9530654428118495	8.935836	2.989287
3.970602670105433	7.7088633	2.776484
3.9881399904346244	6.6217546	2.573277
4.005677404211669	6.4328194	2.5363004
4.023214911848827	6.3351736	2.516977
4.0407525137583855	6.296768	2.5093362
4.058290210352644	6.338614	2.5176604
4.075828002043927	6.391642	2.5281696
4.0933658892445814	6.319617	2.5138848
4.110903872366966	6.2425833	2.4985163
4.128441951823468	6.146556	2.479225
4.145980128026488	6.153131	2.4805505
4.163518401388452	6.1601653	2.481968
4.181056772321807	6.1897697	2.4879248
4.1985952412390155	6.2285976	2.4957159
4.216133808552567	6.266748	2.5033474
4.233672474674966	6.2766347	2.5053213
4.251211240018741	6.4170527	2.5331903
4.268750104996445	6.5705495	2.5633082
4.286289070020643	7.4775047	2.7345026
4.303828135503928	9.211751	3.0350866
4.3213673018589125	29.49953	5.431347
4.3389065694982305	90.57934	9.517318
4.356445938834537	165.81494	12.876915
4.3739854102805085	171.71255	13.103913
4.391524984248844	172.5763	13.136829
4.409064661152262	136.56311	11.686022
4.426604441403504	96.78527	9.837951
4.444144325415337	75.64426	8.697371
4.461684313600543	21.70895	4.6592865
4.47922440637193	22.140186	4.705336
4.496764604142329	20.553381	4.5335836
4.5143049073245916	18.969204	4.355365
4.531845316331589	16.93879	4.115676
4.5493858315762195	14.057143	3.7492857
4.566926453471405	11.582459	3.4033012
4.584467182430081	9.3971615	3.065479
4.602008018865218	8.230226	2.8688369
4.619548963189798	7.562175	2.7499409
4.637090015816834	7.1159587	2.6675754
4.654631177159353	6.833639	2.614123
4.672172447630417	6.5123124	2.5519233
4.689713827643102	6.280133	2.5060194
4.7072553176105085	6.125931	2.4750617
4.724796917945764	6.057525	2.461204
4.742338629062015	5.957733	2.440847
4.759880451372434	5.8752594	2.4238935
4.777422385290215	5.798874	2.408085
4.794964431228581	5.8005714	2.4084375
4.812506589600768	5.8321037	2.414975
4.830048860820047	5.8257422	2.4136574
4.847591245299709	5.8102183	2.4104395
4.8651337434530655	5.7556705	2.399098
4.882676355693457	5.6777806	2.3828094
4.900219082434242	5.7499604	2.3979075
4.917761924088813	5.6813664	2.3835616
4.935304881070575	5.6315293	2.3730843
4.952847953792969	5.52343	2.3501978
4.970391142669449	5.423281	2.328794
4.9879344481135055	5.38916	2.3214564
5.005477870538642	5.324018	2.3073833
5.023021410358394	5.3661323	2.3164914
5.040565067986324	5.4546127	2.3355112
5.05810884383601	5.4603953	2.3367488
5.075652738321066	5.46178	2.3370452
5.09319675185512	5.3669662	2.3166714
5.110740884851836	5.458288	2.336298
5.128285137724894	5.4635806	2.3374302
5.145829510888007	5.4024897	2.3243256
5.163374004754908	5.375477	2.3185074
5.1809186197393595	5.399194	2.3236165
5.198463356255145	5.4616313	2.3370132
5.216008214716077	5.4428153	2.3329842
5.233553195535998	5.26753	2.29511
5.251098299128764	5.2196245	2.2846498
5.268643525908272	5.2546787	2.2923086
5.286188876288432	5.377955	2.3190417
5.3037343506831895	5.311322	2.3046305
5.32127994950651	5.215789	2.2838101
5.3388256731723915	5.194925	2.2792377
5.356371522094851	5.284824	2.2988744
5.373917496687938	5.2680383	2.2952209
5.391463597365729	5.224854	2.285794
5.40900982454232	5.2189617	2.2845047
5.426556178631843	5.20619	2.2817078
5.444102660048449	5.2360444	2.2882404
5.4616492692063225	5.2108073	2.2827194
5.479196006519669	5.266187	2.2948174
5.496742872402727	5.264401	2.2944283
5.514289867269756	5.2862663	2.2991881
5.531836991535049	5.1934533	2.278915
5.549384245612924	5.1703434	2.273839
5.566931629917724	5.124798	2.2638016
5.584479144863822	5.1852536	2.277115
5.6020267908656205	5.217013	2.2840781
5.619574568337545	5.2077556	2.2820508
5.637122477694054	5.207368	2.2819657
5.654670519349629	5.137018	2.266499
5.672218693718784	5.1132836	2.2612572
5.689767001216059	5.075235	2.2528281
5.707315442256021	5.09826	2.2579327
5.724864017253266	5.163265	2.272282
5.7424127266224225	5.184145	2.2768717
5.75996157077814	5.224618	2.2857423
5.777510550135105	5.3056874	2.3034077
5.795059665108022	5.3067985	2.303649
5.812608916111639	5.3602057	2.3152118
5.830158303560715	5.446599	2.333795
5.847707827870055	5.426632	2.3295133
5.86525748945448	5.4374995	2.3318446
5.8828072887288485	5.427601	2.3297212
5.900357226108044	5.489996	2.343074
5.917907302006979	5.5586295	2.3576746
5.9354575168406	6.168244	2.483595
5.9530078710238765	6.833588	2.6141133
5.970558364971812	7.385879	2.7176974
5.988108999099438	7.652403	2.7662976
6.005659773821818	8.122498	2.8499997
6.023210689554039	7.87497	2.8062377
6.040761746711227	8.323993	2.885133
6.058312945708531	7.7026434	2.7753637
6.075864286961132	7.224383	2.6878211
6.093415770884244	6.5996017	2.568969
6.1109673978931065	6.078428	2.4654467
6.128519168402993	5.542045	2.3541548
6.146071082829204	5.431338	2.330523
6.163623141587075	5.3775277	2.3189497
6.181175345091969	5.3130503	2.3050056
6.198727693759281	5.242399	2.2896285
6.216280188004435	5.2071	2.281907
6.233832828242885	5.1988616	2.2801013
6.251385614890126	5.14797	2.268914
6.268938548361669	5.14137	2.267459
6.286491629073067	5.0347853	2.2438328
6.304044857439898	5.0612416	2.2497203
6.321598233877777	4.999845	2.2360334
6.339151758802344	5.045277	2.2461693
6.356705432629277	5.019438	2.24041
6.37425925577428	4.9332557	2.2210934
6.391813228653095	4.9412737	2.2228975
6.409367351681486	4.9294815	2.2202435
6.426921625275259	4.973972	2.2302403
6.44447604985025	5.0147777	2.2393699
6.46203062582232	5.03462	2.2437959
6.47958535360737	5.1123896	2.2610593
6.497140233621328	5.180482	2.2760673
6.514695266280161	5.14511	2.2682836
6.532250451999859	5.1019177	2.2587426
6.549805791196454	5.0716853	2.2520401
6.567361284286002	5.145262	2.268317
6.584916931684597	5.1688766	2.2735164
6.602472733808367	5.148122	2.2689474
6.6200286910734665	5.085167	2.2550316
6.637584803896092	5.033231	2.2434864
6.655141072692462	4.973881	2.2302198
6.672697497878842	4.9748507	2.2304373
6.690254079871514	4.964964	2.22822
6.707810819086808	4.9882555	2.2334404
6.725367715941078	4.966902	2.2286546
6.742924770850719	4.965938	2.2284384
6.760481984232151	4.928172	2.2199488
6.778039356501836	4.9282274	2.2199612
6.795596888076266	4.919832	2.2180696
6.813154579371963	4.9581423	2.2266886
6.830712430805492	5.0041285	2.236991
6.84827044279344	5.0501175	2.2472467
6.865828615752445	4.9519377	2.225295
6.883386950099159	4.956669	2.2263577
6.900945446250287	4.926136	2.21949
6.918504104622553	5.0019045	2.2364938
6.936062925632727	5.0633807	2.2501957
6.953621909697607	5.0942955	2.2570546
6.971181057234028	5.1259546	2.2640572
6.988740368658859	5.1169834	2.262075
7.006299844389007	5.1206007	2.2628744
7.023859484841407	5.1243587	2.2637045
7.041419290433036	5.2150145	2.2836406
7.058979261580902	5.472772	2.3393958
7.0765393987020495	5.7432213	2.3965018
7.094099702213559	6.1550903	2.4809453
7.111660172532549	6.446521	2.539
7.129220810076164	6.826545	2.6127658
7.146781615261595	7.5804534	2.7532623
7.16434258850606	7.90425	2.8114498
7.181903730226821	8.347977	2.8892865
7.1994650408411704	8.400901	2.8984308
7.217026520766437	8.461803	2.908918
7.234588170419983	8.693018	2.9483924
7.252149990219215	8.575324	2.9283655
7.269711980581568	8.421907	2.9020522
7.2872741419245175	8.155819	2.8558395
7.304836474665574	7.742324	2.7825031
7.322398979222286	7.4396896	2.7275794
7.339961656012233	7.2198887	2.686985
7.357524505453039	6.9223714	2.63104
7.375087527962357	6.6419015	2.5771887
7.392650723957886	6.3242764	2.5148115
7.410214093857353	5.862778	2.4213173
7.427777638078528	5.6345024	2.3737106
7.445341357039213	5.5044894	2.346165
7.4629052511572525	5.3871684	2.3210275
7.480469320850524	5.344808	2.3118842
7.498033566536948	5.2871904	2.2993891
7.5155979886344735	5.3237977	2.3073356
7.5331625875610975	5.312835	2.3049588
7.550727363734844	5.2813945	2.2981284
7.568292317573788	5.2183433	2.2843692
7.585857449496025	5.1902657	2.2782154
7.603422759919705	5.213273	2.2832594
7.620988249263007	5.1747146	2.2747998
7.638553917944147	5.1153426	2.2617123
7.656119766381391	5.0814185	2.2542002
7.673685794993023	5.0923557	2.256625
7.691252004197388	5.195144	2.279286
7.70881839441285	5.1960416	2.2794828
7.726384966057826	5.2235613	2.2855113
7.743951719550762	5.181259	2.276238
7.761518655310149	5.1857324	2.2772202
7.779085773754511	5.1897755	2.278108
7.796653075302419	5.1917133	2.2785332
7.814220560372475	5.226712	2.2862003
7.831788229383323	5.1911383	2.2784069
7.8493560827536495	5.1889253	2.2779212
7.866924120902174	5.1688128	2.2735023
7.884492344247663	5.2031317	2.2810373
7.9020607532089135	5.3014655	2.3024912
7.919629348204771	5.374351	2.3182647
7.937198129654115	5.394122	2.322525
7.954767097975865	5.406673	2.3252254
7.972336253588986	5.4357696	2.3314736
7.989905596912472	5.4824867	2.341471
8.007475128365371	5.5011706	2.3454576
8.025044848366756	5.6150355	2.3696067
8.042614757335754	5.7201138	2.391676
8.060184855691523	5.7229786	2.3922749
8.07775514385327	5.7786145	2.4038749
8.095325622240228	5.8028836	2.4089174
8.112896291271687	5.9102798	2.4311068
8.130467151366968	6.023916	2.4543667
8.148038202945436	5.99472	2.4484117
8.165609446426497	5.983981	2.4462178
8.183180882229594	5.9190526	2.4329102
8.200752510774217	5.924855	2.4341025
8.218324332479893	5.9079876	2.4306352
8.235896347766193	5.977879	2.4449701
8.253468557052724	6.0409164	2.4578276
8.27104096075914	6.037563	2.4571452
8.288613559305137	6.10968	2.4717767
8.306186353110448	6.1495113	2.4798207
8.32375934259485	6.231585	2.4963143
8.341332528178162	6.2430897	2.4986176
8.358905910280246	6.3082094	2.5116148
8.376479489321003	6.275543	2.5051033
8.394053265720377	6.293165	2.508618
8.411627239898356	6.293022	2.5085897
8.42920141227497	6.266823	2.5033624
8.44677578327029	6.2843027	2.5068512
8.464350353304427	6.250625	2.500125
8.48192512279754	6.275661	2.505127
8.499500092169827	6.2422175	2.4984431
8.51707526184153	6.246628	2.4993255
8.534650632232934	6.238679	2.4977348
8.552226203764365	6.213685	2.4927263
8.569801976856192	6.195372	2.4890504
8.587377951928834	6.259769	2.5019531
8.60495412940274	6.2531176	2.5006235
8.622530509698416	6.278414	2.5056763
8.6401070932364	6.3474836	2.5194213
8.657683880437283	6.4822288	2.5460222
8.675260871721695	6.6658874	2.581838
8.692838067510303	6.8516655	2.6175687
8.710415468223834	7.0103416	2.647705
8.727993074283043	7.158146	2.675471
8.745570886108737	7.1852055	2.6805234
8.763148904121765	7.3267317	2.7067935
8.78072712874302	7.37637	2.7159474
8.798305560393441	7.5812836	2.753413
8.815884199494006	7.6398797	2.7640333
8.833463046465745	7.699054	2.7747169
8.851042101729728	7.8229127	2.796947
8.86862136570707	8.134389	2.852085
8.886200838818924	8.316004	2.8837483
8.903780521486505	8.375568	2.8940575
8.921360414131055	8.490736	2.9138868
8.938940517173874	8.740008	2.9563506
8.956520831036297	8.848706	2.9746776
8.97410135613971	9.126081	3.0209405
8.99168209290554	9.257498	3.0426137
9.009263041755265	9.491985	3.0809066
9.026844203110405	9.7620535	3.1244285
9.044425577392525	9.878354	3.1429849
9.062007165023239	9.988416	3.1604455
9.079588966424197	10.194015	3.1928067
9.097170982017108	10.311421	3.2111402
9.11475321222372	11.272174	3.357406
9.132335657465825	12.193421	3.491908
9.149918318165264	12.27667	3.503808
9.167501194743924	12.842735	3.5836763
9.18508428762374	12.520928	3.5384924
9.202667597226693	12.423633	3.5247173
9.220251123974803	12.019286	3.4668841
9.237834868290143	11.778873	3.4320364
9.255418830594836	11.643287	3.412226
9.273003011311046	11.215634	3.3489752
9.290587410860985	10.944917	3.3083103
9.308172029666911	10.343567	3.2161417
9.32575686815113	10.093548	3.1770344
9.343341926735997	8.854143	2.9755912
9.360927205843916	8.530111	2.9206355
9.378512705897327	8.282858	2.8779955
9.396098427318728	8.056932	2.8384736
9.413684370530664	7.9595766	2.8212721
9.431270535955722	7.8663282	2.8046975
9.448856924016539	7.852086	2.8021574
9.466443535135806	7.76491	2.7865589
9.484030369736251	7.7990537	2.7926786
9.501617428240658	7.819357	2.7963114
9.519204711071852	7.815081	2.7955468
9.536792218652714	7.808832	2.7944288
9.55437995140617	7.883781	2.8078072
9.571967909755191	7.9171333	2.81374
9.589556094122802	7.8974133	2.8102336
9.60714450493207	7.8915462	2.8091896
9.624733142606116	7.8606677	2.8036883
9.642322007568108	7.8974996	2.810249
9.659911100241267	7.934212	2.8167734
9.677500421048851	7.9846296	2.8257086
9.695089970414175	8.094015	2.8449984
9.712679748760609	8.152661	2.8552866
9.730269756511557	8.168198	2.858006
9.747859994090492	8.154461	2.8556018
9.765450461920915	8.1352215	2.852231
9.78304116042639	8.187152	2.86132
9.800632090030527	8.264132	2.8747404
9.81822325115699	8.317007	2.883922
9.835814644229481	8.302381	2.881385
9.853406269671762	8.363071	2.8918974
9.870998127907646	8.295081	2.8801181
9.888590219360985	8.294719	2.8800554
9.906182544455698	8.282353	2.8779078
9.923775103615734	8.240219	2.8705783
9.941367897265108	8.255715	2.873276
9.958960925827878	8.326841	2.8856268
9.97655418972816	8.397715	2.897881
9.994147689390106	8.423756	2.9023707
10.011741425237934	8.416989	2.9012048
10.029335397695904	8.359081	2.8912077
10.04692960718833	8.332025	2.8865247
10.06452405413958	8.296314	2.8803322
10.082118738974064	8.317981	2.884091
10.099713662116246	8.307334	2.8822446
10.117308823990651	8.371894	2.8934226
10.134904225021844	8.364471	2.8921397
10.152499865634445	8.353303	2.890208
10.170095746253125	8.272739	2.876237
10.18769186730261	8.189402	2.8617132
10.205288229207675	8.164445	2.8573494
10.222884832393145	8.155996	2.8558705
10.2404816772839	8.203574	2.8641882
10.258078764304868	8.227941	2.8684387
10.275676093881035	8.271365	2.875998
10.293273666437438	8.158607	2.8563275
10.310871482399158	8.025247	2.8328867
10.32846954219134	8.035907	2.8347676
10.346067846239173	8.157379	2.8561125
10.363666394967908	8.205581	2.8645384
10.38126518880283	8.134972	2.8521872
10.398864228169298	8.135328	2.8522496
10.416463513492713	8.143233	2.853635
10.434063045198531	8.142965	2.853588
10.451662823712262	8.17503	2.859201
10.469262849459467	8.200288	2.8636146
10.486863122865758	8.170224	2.8583603
10.504463644356806	8.166727	2.8577485
10.522064414358338	8.118533	2.849304
10.539665433296118	8.016053	2.8312635
10.557266701595987	7.8938622	2.8096018
10.574868219683818	7.7020493	2.7752566
10.592469987985552	7.601567	2.757094
10.610072006927185	7.5294867	2.743991
10.627674276934751	7.5156207	2.7414632
10.64527679843435	7.4229727	2.7245133
10.662879571852143	7.351528	2.7113702
10.680482597614331	7.1899447	2.6814072
10.698085876147173	7.0956316	2.6637626
10.715689407876988	7.01779	2.649111
10.733293193230146	6.865749	2.6202574
10.750897232633072	6.8027334	2.608205
10.76850152651225	6.6526384	2.5792708
10.786106075294207	6.5698423	2.5631704
10.803710879405534	6.4819064	2.5459588
10.821315939272877	6.4117084	2.5321352
10.83892125532294	6.3342376	2.516791
10.856526827982472	6.229679	2.4959326
10.874132657678285	6.179848	2.48593
10.891738744837243	6.159742	2.4818828
10.909345089886271	6.122562	2.4743812
10.926951693252343	6.1046276	2.4707544
10.944558555362494	6.1131463	2.4724777
10.96216567664381	6.056679	2.4610322
10.979773057523436	5.996612	2.4487982
10.997380698428573	5.8726177	2.4233484
11.014988599786477	5.8329268	2.4151454
11.032596762024461	5.7966914	2.4076319
11.050205185569892	5.713363	2.3902643
11.067813870850198	5.640891	2.375056
11.085422818292859	5.54779	2.3553748
11.10303202832541	5.4908834	2.3432634
11.120641501375454	5.457655	2.3361623
11.138251237870636	5.349365	2.3128695
11.155861238238671	5.3344693	2.309647
11.173471502907317	5.2453723	2.2902777
11.191082032304402	5.245712	2.2903519
11.208692826857805	5.1809454	2.276169
11.226303886995465	5.1057935	2.2596004
11.243915213145371	5.059761	2.2493913
11.261526805735578	4.957076	2.2264493
11.279138665194196	4.870467	2.2069135
11.296750791949393	4.8108296	2.1933603
11.314363186429393	4.778008	2.1858654
11.331975849062479	4.747882	2.1789634
11.34958878027699	4.707008	2.169564
11.36720198050133	4.659263	2.1585326
11.384815450163948	4.5832877	2.1408615
11.402429189693366	4.5671663	2.137093
11.420043199518153	4.503282	2.1220937
11.437657480066942	63.46199	7.9663033
11.455272031768422	85.19826	9.23029
11.472886855051353	107.57526	10.371849
11.490501950344528	99.164566	9.95814
11.508117318076819	84.52159	9.1935625
11.52573295867715	45.87983	6.773465
11.543348872574514	4.1952744	2.0482368
11.560965060197946	4.1276097	2.031652
11.57858152197655	4.0591993	2.0147455
11.59619825833949	4.036439	2.009089
11.613815269715985	3.9948695	1.998717
11.631432556535323	38.522438	6.2066445
11.649050119226837	83.07445	9.114518
11.666667958219929	93.47348	9.668168
11.68428607394406	107.70689	10.378193
11.701904466828756	82.533844	9.084814
11.719523137303586	65.36578	8.08491
11.737142085798196	4.617633	2.1488678
11.754761312742286	3.7741091	1.9427067
11.772380818565619	3.7470484	1.9357294
11.790000603698015	3.7334523	1.9322144
11.80762066856935	3.6772952	1.9176275
11.825241013609572	3.6288693	1.9049591
11.842861639248683	3.606945	1.8991959
11.860482545916748	3.5604684	1.8869203
11.878103734043883	3.5419137	1.8819972
11.895725204060282	3.4953582	1.8695877
11.91334695639619	3.4735546	1.8637475
11.930968991481919	3.4452295	1.856133
11.948591309747824	3.4365172	1.8537846
11.966213911624347	3.393231	1.8420725
11.98383679754198	3.349534	1.8301733
12.001459967931268	3.34446	1.8287865
12.019083423222835	3.284206	1.8122379
12.036707163847352	3.264459	1.8067814
12.05433119023556	3.2250957	1.7958552
12.071955502818259	3.2206733	1.7946235
12.089580102026313	3.2240431	1.795562
12.107204988290643	3.1588507	1.7773156
12.12483016204224	3.0948155	1.7592088
12.142455623712152	3.111241	1.7638711
12.16008137373149	3.1383097	1.7715275
12.177707412531431	3.1258085	1.7679956
12.19533374054321	3.0884228	1.7573909
12.212960358198126	3.0828114	1.7557937
12.230587265927545	3.1143458	1.764751
12.248214464162889	3.0593364	1.7490959
12.265841953335649	3.0258107	1.7394857
12.283469733877375	2.9840114	1.7274292
12.301097806219685	3.0148344	1.7363279
12.31872617079425	3.029807	1.7406341
12.336354828032825	3.0034065	1.7330339
12.353983778367205	2.9555526	1.7191721
12.371613022229262	2.924223	1.7100359
12.389242560050928	2.8728502	1.6949484
12.406872392264201	2.8693392	1.6939124
12.424502519301143	2.8370101	1.6843426
12.442132941593874	2.8663666	1.6930348
12.459763659574586	2.891313	1.7003862
12.477394673675532	2.9207606	1.7090234
12.49502598432903	2.9080522	1.7053012
12.51265759196746	2.8636987	1.6922467
12.530289497023267	2.8041787	1.6745682
12.547921699928967	2.7915683	1.6707987
12.565554201117134	2.7754383	1.6659647
12.583187001020404	2.8089733	1.6759992
12.600820100071486	2.805414	1.674937
12.618453498703152	2.7964742	1.6722662
12.636087197348235	2.7800074	1.6673354
12.65372119643964	2.788173	1.6697823
12.671355496410326	2.8011584	1.6736661
12.68899009769333	2.8340228	1.6834556
12.706625000721749	2.863352	1.6921443
12.724260205928752	2.91855	1.7083764
12.741895713747551	2.9050274	1.7044141
12.759531524611454	2.922727	1.7095985
12.777167638953818	2.9559793	1.7192962
12.794804057208072	2.9673388	1.7225965
12.812440779807702	3.0366595	1.7426014
12.830077807186271	3.1847177	1.7845777
12.847715139777405	3.236049	1.7989022
12.865352778014795	3.4432256	1.8555931
12.882990722332197	3.5389824	1.8812183
12.90062897316344	3.5895832	1.8946196
12.918267530942412	3.663822	1.9141113
12.935906396103071	3.591538	1.8951353
12.953545569079449	3.717006	1.9279538
12.971185050305628	3.5162575	1.8751687
12.988824840215775	3.5135598	1.8744493
13.006464939244115	3.5370739	1.880711
13.024105347824943	3.371162	1.8360724
13.041746066392617	3.4467018	1.8565295
13.05938709538157	3.2847626	1.8123914
13.077028435226296	3.3476255	1.8296517
13.094670086361363	3.2510695	1.8030722
13.112312049221401	3.1511538	1.775149
13.129954324241112	3.0605426	1.7494407
13.147596911855258	2.9139524	1.7070303
13.165239812498685	2.922016	1.7093905
13.182883026606293	2.867863	1.6934766
13.200526554613058	2.8054004	1.674933
13.218170396954017	2.783801	1.6684726
13.235814554064284	2.755679	1.6600238
13.253459026379034	2.765911	1.6631029
13.271103814333523	2.7382946	1.6547793
13.288748918363058	2.7199097	1.6492149
13.306394338903031	2.6742294	1.6353071
13.32404007638889	2.6496706	1.6277809
13.341686131256164	2.66629	1.6328778
13.359332503940449	2.6806881	1.6372807
13.376979194877402	2.6944027	1.6414636
13.394626204502751	2.746903	1.6573783
13.412273533252307	2.7686048	1.6639125
13.429921181561937	2.750323	1.6584098
13.447569149867581	2.7345872	1.6536587
13.465217438605247	2.747154	1.657454
13.482866048211022	2.7204957	1.6493925
13.500514979121052	2.7618022	1.661867
13.518164231771568	2.7296946	1.6521788
13.535813806598844	2.766116	1.6631644
13.553463704039254	2.7233598	1.6502606
13.571113924529229	2.7366586	1.654285
13.588764468505275	2.722333	1.6499494
13.606415336403956	2.7616751	1.6618289
13.624066528661917	2.7646532	1.6627246
13.641718045715882	2.797011	1.6724267
13.659369888002635	2.8231833	1.6802331
13.67702205595903	2.8865716	1.6989914
13.694674550021993	2.9808762	1.7265214
13.712327370628532	3.0356538	1.7423128
13.729980518215713	3.1117404	1.7640126
13.747633993220681	3.1661344	1.7793635
13.765287796080647	3.2263403	1.7962016
13.7829419272329	3.289784	1.8137761
13.800596387114801	3.2910042	1.8141125
13.818251176163775	3.3173466	1.8213584
13.835906294817324	3.32527	1.8235322
13.853561743513023	3.3730779	1.8365941
13.871217522688525	3.4179232	1.8487626
13.888873632781538	3.466515	1.861858
13.906530074229858	3.497142	1.8700647
13.92418684747135	3.49843	1.870409
13.941843952943948	3.466492	1.8618517
13.959501391085665	3.4411223	1.8550262
13.977159162334578	3.3756998	1.8373077
13.994817267128846	3.3483236	1.8298424
14.012475705906693	3.2874658	1.813137
14.030134479106424	3.266639	1.8073846
14.047793587166414	3.2141306	1.7927997
14.065453030525108	3.1356838	1.7707862
14.083112809621026	2.9995632	1.7319248
14.100772924892766	2.9269447	1.7108316
14.118433376778997	2.8777797	1.696402
14.136094165718458	2.8399088	1.685203
14.153755292149969	2.8171332	1.6784317
14.171416756512416	2.7704422	1.6644646
14.189078559244768	2.6917505	1.6406555
14.20674070078606	2.5877612	1.608652
14.224403181575408	2.5202305	1.5875233
14.242066002051999	2.5116477	1.5848179
14.259729162655093	2.492797	1.5788593
14.277392663824022	2.5155509	1.5860488
14.295056505998208	2.4716892	1.5721607
14.312720689617128	2.467857	1.5709414
14.330385215120348	2.410888	1.5527034
14.348050082947497	2.390023	1.54597
14.3657152935383	2.386881	1.5449535
14.383380847332528	2.4265845	1.5577499
14.401046744770051	2.455527	1.5670122
14.418712986290798	2.4487565	1.5648503
14.436379572334793	2.4379733	1.561401
14.454046503342123	2.4262302	1.5576361
14.471713779752946	2.4258943	1.5575283
14.489381402007504	2.4142623	1.5537896
14.507049370546113	2.3877804	1.5452445
14.524717685809168	2.3738444	1.5407286
14.542386348237134	2.3568118	1.535191
14.560055358270553	2.360291	1.5363239
14.577724716350051	2.3883822	1.5454391
14.595394422916325	2.3957427	1.5478187
14.61306447841015	2.413442	1.5535257
14.63073488327237	2.4036834	1.5503817
14.648405637943917	2.4561484	1.5672104
14.6660767428658	2.5089245	1.5839585
14.683748198479094	2.56297	1.6009278
14.701420005224954	2.5855286	1.607958
14.719092163544628	2.6066206	1.6145031
14.73676467387942	2.6182957	1.6181148
14.754437536670727	2.6180341	1.618034
14.772110752360014	2.6384115	1.6243188
14.78978432138882	2.6244998	1.6200308
14.807458244198777	2.6623523	1.6316717
14.82513252123159	2.6696744	1.6339139
14.842807152929028	2.7101407	1.6462505
14.860482139732962	2.702424	1.6439052
14.87815748208531	2.688576	1.6396878
14.8958331804281	2.7049358	1.6446689
14.91350923520342	2.668144	1.6334454
14.931185646853438	2.7380686	1.654711
14.948862415820408	2.706119	1.6450286
14.966539542546656	2.6949122	1.6416187
14.98421702747459	2.642399	1.6255457
15.001894871046696	2.6397052	1.624717
15.019573073705542	2.6616974	1.6314709
15.037251635893766	2.671658	1.6345208
15.054930558054092	2.6715248	1.63448
15.072609840629323	2.7134297	1.6472491
15.090289484062351	2.8483374	1.6877018
15.107969488796124	3.1695373	1.7803195
15.125649855273691	3.6046712	1.8985971
15.14333058393817	4.1382565	2.0342705
15.161011675232768	5.140301	2.2672234
15.17869312960076	6.5024147	2.5499833
15.196374947485506	8.266706	2.875188
15.214057129330447	11.24321	3.3530896
15.231739675579114	15.857544	3.9821532
15.249422586675102	20.844265	4.5655518
15.267105863062092	23.918962	4.890702
15.284789505183847	24.078756	4.907011
15.302473513484218	21.868446	4.676371
15.320157888407127	18.287191	4.2763524
15.337842630396578	14.241243	3.7737572
15.355527739896656	11.135727	3.3370237
15.37321321735153	8.658596	2.9425492
15.39089906320545	6.3447204	2.5188727
15.408585277902748	4.776555	2.185533
15.42627186188783	3.7285817	1.9309536
15.443958815605198	3.2397118	1.79992
15.461646139499424	2.9728172	1.724186
15.479333834015168	2.8408465	1.6854811
15.497021899597165	2.7781665	1.6667833
15.514710336690234	2.6845448	1.638458
15.53239914573928	2.621442	1.6190869
15.550088327189297	2.5714927	1.6035874
15.567777881485336	2.5637681	1.6011771
15.58546780907256	2.5473218	1.5960331
15.6031581103962	2.4943893	1.5793636
15.620848785901568	2.4656334	1.5702336
15.638539836034063	2.4556754	1.5670595
15.656231261239173	2.4440053	1.5633315
15.673923061962451	2.405771	1.5510548
15.691615238649552	2.3819249	1.5433486
15.709307791746202	2.3420186	1.5303655
15.727000721698221	2.3592544	1.5359864
15.744694028951498	2.3853757	1.5444661
15.76238771395202	2.4167576	1.5545924
15.780081777145844	2.442974	1.5630016
15.797776218979125	2.4457982	1.5639048
15.815471039898094	2.403522	1.5503297
15.833166240349064	2.3812172	1.5431193
15.850861820778437	2.379077	1.5424256
15.868557781632699	2.3851917	1.5444065
15.886254123358412	2.370021	1.5394872
15.903950846402232	2.362628	1.5370842
15.921647951210897	2.3396711	1.5295984
15.939345438231225	2.317608	1.5223693
15.957043307910133	2.2929692	1.5142553
15.974741560694602	2.30177	1.5171585
15.992440197031714	2.3423743	1.5304817
16.01013921736862	2.3525724	1.5338098
16.02783862215259	2.3950493	1.5475947
16.045538411830933	2.408613	1.5519707
16.06323858685107	2.4326797	1.559705
16.080939147660512	2.4232101	1.5566664
16.09864009470684	2.41683	1.5546157
16.11634142843774	2.392101	1.5466418
16.134043149300954	2.364347	1.5376433
16.15174525774433	2.361187	1.5366154
16.169447754215817	2.426973	1.5578746
16.18715063916342	2.4790633	1.5745041
16.204853913035244	2.488343	1.5774482
16.222557576279478	2.4454794	1.5638028
16.240261629344403	22.435722	4.736636
16.257966072678386	42.957314	6.554183
16.275670906729868	38.06636	6.169794
16.293376131947387	2.49558	1.5797405
16.31108174877957	2.4975111	1.5803516
16.328787757675133	2.513838	1.5855088
16.34649415908287	2.529938	1.5905778
16.364200953451657	2.5867345	1.6083329
16.38190814123048	2.639727	1.6247237
16.39961572286839	2.6970692	1.6422756
16.41732369881455	2.6993976	1.6429844
16.43503206951817	2.7071388	1.6453385
16.45274083542859	2.747315	1.6575027
16.47044999699522	2.7890615	1.6700484
16.488159554667558	2.853764	1.6893088
16.505869508895184	2.8675973	1.6933981
16.523579860127786	2.869776	1.6940414
16.541290608815117	2.9108934	1.7061341
16.559001755407035	2.977998	1.7256877
16.57671330035348	3.0704858	1.7522802
16.59442524410448	3.160297	1.7777224
16.61213758711015	3.2323842	1.7978833
16.629850329820705	3.2202857	1.7945155
16.647563472686436	3.2587726	1.8052071
16.665277016157724	3.2992337	1.8163793
16.682990960685053	3.4061205	1.8455678
16.70070530671898	3.4480474	1.8568919
16.718420054710155	3.487896	1.8675909
16.736135205109335	3.5309305	1.8790771
16.753850758367335	3.5958688	1.8962777
16.771566714935087	3.654134	1.9115789
16.789283075263597	3.685214	1.9196911
16.80699983980398	3.6918085	1.9214079
16.82471700900741	3.7528243	1.9372208
16.84243458332518	3.8517306	1.9625826
16.860152563208665	3.9259136	1.9813918
16.87787094910932	4.0184674	2.0046115
16.89558974147871	4.0744176	2.0185187
16.913308940768466	4.1674786	2.0414402
16.931028547430333	4.231303	2.0570133
16.94874856191613	4.291856	2.0716794
16.966468984677785	4.367574	2.0898743
16.98418981616729	4.44065	2.107285
17.00191105683676	4.4778004	2.1160815
17.019632707138374	4.514549	2.1247468
17.03735476752442	4.533275	2.129149
17.05507723844728	4.6019254	2.1452098
17.072800120359403	4.5914054	2.1427565
17.090523413713353	4.554913	2.1342242
17.108247118961785	4.5649066	2.1365643
17.125971236557437	4.6183763	2.1490407
17.143695766953133	4.690369	2.165726
17.161420710601806	4.679976	2.1633253
17.179146067956477	4.667031	2.1603312
17.19687183947025	4.6543984	2.1574054
17.21459802559634	4.647959	2.1559126
17.232324626788028	4.6391196	2.1538615
17.25005164349871	4.6084895	2.1467392
17.267779076181863	4.6007957	2.1449466
17.285506925291074	4.60804	2.1466346
17.30323519127999	4.632726	2.152377
17.320963874602384	4.623936	2.150334
17.33869297571211	4.5587916	2.1351328
17.356422495063114	4.5253043	2.1272762
17.37415243310944	4.5164804	2.1252012
17.391882790305218	4.533387	2.1291752
17.40961356710468	4.550404	2.1331675
17.42734476396215	4.549353	2.1329212
17.445076381332044	4.5520587	2.1335554
17.462808419668868	4.617273	2.148784
17.48054087942723	4.7251196	2.173734
17.498273761061835	5.007557	2.2377572
17.51600706502747	5.5025554	2.3457527
17.533740791779024	6.2814536	2.5062828
17.551474941771485	7.746481	2.78325
17.56920951545993	8.82785	2.97117
17.586944513299528	10.877102	3.2980452
17.60467993574556	12.381703	3.5187645
17.622415783253373	13.960175	3.7363317
17.64015205627843	15.181039	3.8962853
17.657888755276293	16.134094	4.016727
17.675625880702604	16.599478	4.0742455
17.69336343301311	16.435806	4.0541096
17.71110141266366	15.756347	3.9694264
17.728839820110178	14.882104	3.857733
17.746578655808705	14.0798025	3.7523062
17.764317920215372	12.866044	3.586927
17.7820576137864	11.547848	3.3982124
17.79979773697811	9.648236	3.106161
17.81753829024692	7.718638	2.7782438
17.835279274049356	5.953768	2.4400344
17.85302068884201	4.8254457	2.1966896
17.870762535081607	4.1949463	2.0481567
17.888504813224934	3.923835	1.9808673
17.90624752372891	3.7488265	1.9361887
17.923990667050536	3.6460521	1.9094639
17.941734243646895	3.5157363	1.8750297
17.959478253975185	3.483632	1.8664491
17.9772226984927	3.4568157	1.8592514
17.994967577656833	3.4396205	1.8546214
18.01271289192506	3.4152	1.8480259
18.030458641754965	3.3693051	1.8355668
18.04820482760425	3.350487	1.8304336
18.06595144993067	3.3160117	1.820992
18.083698509192125	3.2686546	1.807942
18.101446005846576	3.203784	1.7899117
18.119193940352105	3.1881084	1.7855275
18.136942313166887	3.204404	1.790085
18.1546911247492	3.20144	1.7892568
18.1724403755574	3.1740057	1.781574
18.19019006604997	3.1499784	1.7748178
18.207940196685467	3.1140943	1.7646797
18.225690767922575	3.1147103	1.7648542
18.243441780220046	3.1135411	1.7645229
18.261193234036764	3.1142492	1.7647235
18.278945129831676	3.0931723	1.7587417
18.29669746806386	3.0718715	1.7526755
18.314450249192483	3.0563197	1.7482333
18.3322034736768	3.0625985	1.7500281
18.349957141976184	3.0840714	1.7561524
18.3677112545501	3.0706913	1.7523388
18.385465811858108	3.0534	1.747398
18.403220814359884	3.047883	1.7458187
18.420976262515172	3.0395288	1.7434244
18.43873215678387	3.0557556	1.748072
18.456488497625923	3.102737	1.7614588
18.474245285501407	3.211579	1.7920879
18.492002520870486	3.2695162	1.8081803
18.50976020419343	3.3247056	1.8233775
18.527518335930615	3.6177082	1.9020274
18.545276916542516	4.202752	2.0500615
18.563035946489688	4.3956485	2.0965803
18.580795426232832	4.8694797	2.2066898
18.598555356232698	4.7987056	2.190595
18.616315736950185	5.1193705	2.2626026
18.63407656884626	4.779928	2.1863048
18.65183785238201	4.932194	2.2208543
18.669599588018617	4.6859665	2.1647093
18.68736177621737	4.6712317	2.1613033
18.705124417439652	4.6761045	2.1624303
18.72288751214696	4.489169	2.1187658
18.740651060800886	4.640368	2.1541514
18.758415063863115	4.3206472	2.0786166
18.77617952179546	4.5094543	2.1235476
18.793944435059814	4.219262	2.0540843
18.811709804118184	4.265762	2.065372
18.829475629432675	4.2522736	2.0621042
18.8472419114655	4.0698376	2.0173838
18.86500865067897	4.123064	2.0305328
18.88277584753551	3.7557995	1.9379885
18.90054350249763	3.7584424	1.9386703
18.918311616027957	3.4269614	1.8512053
18.936080188589226	3.3374734	1.8268753
18.953849220644265	3.049435	1.7462631
18.971618712656007	2.9133182	1.7068444
18.9893886650875	2.8547575	1.6896027
19.007159078401887	8.07631	2.8418849
19.024929953062408	32.93757	5.739126
19.042701289532435	32.861	5.7324514
19.060473088275405	25.386267	5.0384784
19.07824534975489	2.662517	1.6317221
19.096018074434568	2.624768	1.6201136
19.113791262778197	2.59963	1.6123369
19.13156491524966	2.5817573	1.6067848
19.149339032312945	2.583861	1.6074393
19.167113614432136	2.5994554	1.6122826
19.184888662071433	2.5960903	1.6112387
19.202664175695123	2.590722	1.609572
19.220440155767623	2.54844	1.5963835
19.238216602753447	2.528575	1.5901494
19.2559935171172	2.4969072	1.5801605
19.27377089932361	2.5025773	1.5819536
19.291548749837514	2.498673	1.5807191
19.309327069123835	2.5091882	1.5840417
19.32710585764763	2.4895084	1.5778176
19.344885115874032	2.4844918	1.5762271
19.362664844268313	2.4597247	1.5683509
19.380445043295822	2.448109	1.5646434
19.39822571342203	2.4596758	1.5683354
19.41600685511252	2.4792502	1.5745635
19.43378846883297	2.4739003	1.5728637
19.451570555049173	2.486947	1.5770057
19.469353114227037	2.4841223	1.5761099
19.48713614683254	2.4829388	1.5757344
19.50491965333182	2.4565313	1.5673325
19.52270363419109	2.443859	1.5632848
19.540488089876686	2.4621105	1.5691113
19.55827302085503	2.4531748	1.5662614
19.576058427592674	2.4443972	1.5634568
19.593844310556282	2.4719417	1.572241
19.611630670212598	2.4932988	1.5790182
19.629417507028506	2.4742496	1.5729748
19.64720482147098	2.4566727	1.5673777
19.6649926140071	2.4780986	1.5741978
19.682780885104084	2.4937465	1.5791601
19.70056963522921	2.4647071	1.5699385
19.718358864849908	2.45887	1.5680784
19.7361485744337	2.502713	1.5819966
19.753938764448215	2.5334435	1.5916795
19.771729435361202	2.5358262	1.5924277
19.789520587640506	2.5181985	1.5868833
19.807312221754092	2.494316	1.5793405
19.825104338170043	2.489453	1.5778
19.842896937356517	2.5016766	1.581669
19.860690019781824	2.4871864	1.5770816
19.87848358591436	2.4860137	1.5767097
19.896277636222635	2.496891	1.5801554
19.914072171175278	2.471263	1.5720251
19.931867191241015	2.424832	1.5571872
19.94966269688869	2.4145398	1.5538789
19.967458688587264	2.4597428	1.5683568
19.985255166805807	2.498882	1.5807853
20.00305213201348	2.5166178	1.5863851
20.020849584679578	2.48822	1.5774093
20.038647525273507	2.4519954	1.5658848
20.05644595426477	2.4745646	1.5730748
20.07424487212299	2.4989195	1.5807971
20.092044279317903	2.5407104	1.5939606
20.109844176319353	2.5214062	1.5878936
20.127644563597304	2.4837039	1.5759771
20.145445441621817	2.4080138	1.5517776
20.16324681086307	2.3707938	1.5397382
20.181048671791373	2.3501248	1.5330117
20.198851024877122	2.39122	1.546357
20.216653870590836	2.395273	1.5476669
20.234457209403146	2.3916945	1.5465105
20.252261041784802	2.3852186	1.5444154
20.270065368206662	2.3831804	1.5437553
20.287870189139685	2.3802028	1.5427905
20.305675505054968	2.3468235	1.5319345
20.323481316423702	2.314519	1.5213543
20.341287623717207	2.3001196	1.5166146
20.359094427406884	2.3000548	1.5165931
20.376901727964288	2.3340266	1.5277522
20.39470952586107	2.3414204	1.5301701
20.41251782156899	2.3318589	1.5270425
20.430326615559935	2.3114216	1.520336
20.448135908305886	2.3055515	1.5184042
20.465945700278965	2.319771	1.5230795
20.483755991951384	2.2958164	1.5151951
20.50156678379548	2.3206446	1.5233662
20.519378076283708	2.3036103	1.5177649
20.537189869888635	2.2757177	1.5085483
20.55500216508294	2.2663832	1.5054512
20.572814962339415	2.2993512	1.5163611
20.59062826213098	2.3148975	1.5214788
20.60844206493066	2.2965	1.5154207
20.626256371211593	2.2804823	1.5101266
20.644071181447032	2.2657425	1.5052384
20.66188649611036	2.2678995	1.5059547
20.67970231567506	2.2779527	1.5092888
20.697518640614742	2.319563	1.5230111
20.715335471403122	2.3675084	1.538671
20.73315280851404	2.3733613	1.5405718
20.750970652421447	2.3347256	1.5279809
20.768789003599412	2.2653086	1.5050942
20.786607862522136	2.2611165	1.503701
20.8044272296639	2.2650597	1.5050116
20.82224710549913	2.2779179	1.5092772
20.84006749050237	2.2908611	1.5135591
20.857888385148268	3.8607776	1.9648862
20.8757097899116	45.970325	6.780142
20.893531705267254	64.83079	8.051757
20.911354131690224	83.82911	9.155824
20.92917706965566	69.088036	8.311921
20.94700051963877	50.14944	7.081627
20.96482448211493	29.396677	5.42187
20.982648957559622	4.101532	2.025224
21.00047394644843	2.2017725	1.4838371
21.01829944925707	2.2020519	1.4839312
21.036125466461375	2.2110207	1.4869502
21.053951998537297	2.2091122	1.4863082
21.071779045960906	2.1975133	1.4824013
21.089606609208378	2.1999521	1.4832236
21.10743468875603	2.1813757	1.4769481
21.12526328508028	2.2186224	1.4895041
21.143092398657675	2.2298732	1.493276
21.16092202996488	2.1884217	1.4793315
21.17875217947867	2.1892679	1.4796175
21.19658284767596	2.1976533	1.4824485
21.21441403503377	2.1814473	1.4769723
21.232245742029225	2.1969173	1.4822001
21.2500779691396	2.1882699	1.4792802
21.26791071684227	2.1893194	1.4796349
21.28574398561475	2.1932952	1.4809778
21.30357777593465	2.203062	1.4842715
21.321412088279704	2.1731145	1.4741488
21.339246923127792	2.1290953	1.459142
21.357082280956888	2.096336	1.4478729
21.3749181622451	2.0943167	1.4471754
21.392754567470647	2.1307213	1.459699
21.41059149711187	2.1552908	1.4680909
21.42842895164726	2.1698456	1.4730396
21.446266931555378	2.1770866	1.4754953
21.464105437314945	2.1547987	1.4679233
21.481944469404798	2.1307538	1.4597101
21.49978402830388	2.1149492	1.4542865
21.51762411449127	2.1054466	1.4510157
21.53546472844617	2.0913036	1.446134
21.553305870647876	2.0955362	1.4475967
21.571147541575865	2.1034548	1.4503292
21.58898974170967	2.1037734	1.450439
21.60683247152899	2.0701225	1.438792
21.62467573151363	2.0583045	1.4346793
21.642519522143523	2.051077	1.4321581
21.660363843898722	2.041514	1.4288156
21.6782086972594	2.035124	1.4265777
21.696054082705864	2.0560932	1.4339083
21.713900000718535	2.04255	1.4291781
21.73174645177795	2.0293195	1.4245418
21.749593436364794	2.0652566	1.4371
21.767440954959845	2.0786493	1.4417522
21.785289008044032	2.0432527	1.4294239
21.803137596098388	2.0194764	1.4210829
21.820986719604086	2.016979	1.4202038
21.838836379042412	1.9836639	1.408426
21.85668657489478	1.9678941	1.4028165
21.87453730764273	1.9777082	1.4063102
21.892388577767914	2.0018573	1.41487
21.91024038575213	2.0215845	1.4218243
21.928092732077285	2.02332	1.4224346
21.945945617225426	2.0306342	1.4250032
21.963799041678694	2.0433316	1.4294515
21.981653005919398	31.370571	5.6009436
21.999507510429943	78.156166	8.840597
22.01736255569286	73.113396	8.550637
22.035218142190818	4.1881886	2.0465064
22.05307427040661	2.0416567	1.4288656
22.07093094082315	2.0201452	1.421318
22.088788153923474	2.0164804	1.4200283
22.106645910190746	1.9775856	1.4062666
22.12450421010827	1.9909617	1.4110144
22.142363054159464	1.9886892	1.410209
22.16022244282787	1.9994555	1.414021
22.178082376597164	1.9830102	1.408194
22.195942855951145	1.970204	1.4036396
22.213803881373742	1.9527605	1.3974121
22.231665453349002	1.9938933	1.4120529
22.24952757236111	2.0273786	1.4238604
22.26739023889438	2.0141313	1.4192009
22.28525345343323	1.9537351	1.3977607
22.30311721646225	1.9226296	1.3865892
22.320981528466113	1.9676642	1.4027345
22.33884638992964	1.9979016	1.4134715
22.356711801337788	2.0238693	1.4226276
22.37457776317561	1.9837773	1.4084663
22.392444275928337	1.9587153	1.3995411
22.410311340081282	1.9213649	1.3861331
22.428178956119904	1.9050479	1.3802347
22.446047124529805	1.8753037	1.3694173
22.46391584579669	1.926201	1.3878764
22.481785120406414	1.9283503	1.3886505
22.49965494884496	1.94484	1.3945752
22.51752533159841	1.9306135	1.3894652
22.53539626915302	1.9248562	1.3873918
22.553267761995137	1.8913418	1.3752606
22.571139810611264	1.8854814	1.3731283
22.589012415488025	1.9003686	1.3785386
22.60688557711216	1.9234986	1.3869026
22.624759295970566	1.9027605	1.3794059
22.642633572550263	1.8770872	1.3700683
22.660508407338362	1.8867441	1.3735881
22.67838380082217	1.917517	1.3847444
22.696259753489077	1.9148884	1.3837949
22.714136265826614	1.9362376	1.3914876
22.73201333832246	1.9411169	1.3932397
22.74989097146439	1.9622757	1.4008125
22.76776916574035	1.9602342	1.4000837
22.785647921638393	1.9514372	1.3969386
22.803527239646712	1.9255383	1.3876376
22.82140712025363	1.9283489	1.3886501
22.839287563947593	1.934786	1.3909658
22.85716857121719	1.9506586	1.3966597
22.875050142551135	1.9507761	1.3967018
22.892932278438277	1.9312919	1.3897094
22.910814979367604	1.9158834	1.3841544
22.928698245828222	1.9105759	1.3822358
22.946582078309387	1.8799777	1.3711228
22.96446647730047	1.8701904	1.3675491
22.98235144329098	1.8694115	1.3672643
23.000236976770562	1.8842809	1.3726912
23.018123078229	1.8932328	1.375948
23.03600974815619	1.8857907	1.373241
23.053896987042194	1.9191467	1.3853327
23.071784795377173	1.9289726	1.3888745
23.08967317365145	1.9232072	1.3867974
23.10756212235546	1.8924977	1.3756808
23.125451641979787	1.8913608	1.3752675
23.143341733015134	1.9044136	1.3800049
23.161232395952357	1.9318705	1.3899174
23.179123631282426	1.9459307	1.3949662
23.197015439496468	1.9104073	1.3821748
23.214907821085717	1.8720021	1.3682113
23.23280077654157	1.8910116	1.3751405
23.250694306355538	1.9014081	1.3789155
23.268588411019277	1.9093175	1.3817805
23.28648309102458	1.9107635	1.3823037
23.304378346863356	1.9135504	1.3833114
23.322274179027676	1.9192	1.3853519
23.340170588009723	1.9139239	1.3834463
23.358067574301852	1.8771187	1.3700799
23.37596513839651	1.8867823	1.3736019
23.39386328078629	1.8896475	1.3746445
23.411762001963947	1.904764	1.3801318
23.429661302422353	1.9212117	1.3860778
23.4475611826545	1.9345092	1.3908663
23.46546164315356	1.9423559	1.3936843
23.48336268441279	1.9447517	1.3945435
23.501264306925638	1.9368765	1.3917171
23.51916651118564	1.9137529	1.3833846
23.537069297686497	1.9226173	1.3865848
23.554972666922037	1.9231601	1.3867805
23.57287661938623	1.8981085	1.3777186
23.59078115557318	1.8755336	1.3695012
23.608686275977128	1.90794	1.381282
23.62659198109246	1.9111878	1.3824571
23.6444982714137	1.9211977	1.3860728
23.66240514743549	1.9229772	1.3867146
23.68031260965263	1.9542152	1.3979324
23.698220658560068	1.9428412	1.3938584
23.716129294652845	1.9110144	1.3823944
23.7340385184262	1.8936403	1.376096
23.75194833037546	1.8608857	1.3641429
23.769858730996123	1.8724965	1.368392
23.78776972078382	1.882389	1.3720018
23.80568130023431	1.8654423	1.365812
23.823593469843495	1.856376	1.3624889
23.841506230107424	1.847982	1.359405
23.859419581522275	1.8560822	1.3623811
23.87733352458438	1.899125	1.3780874
23.89524805979019	1.9186591	1.3851568
23.913163187636318	1.9509251	1.3967552
23.931078908619508	1.9602467	1.4000881
23.948995223236633	1.9719528	1.4042624
23.966912131984735	1.9742455	1.4050785
23.98482963536096	2.0270228	1.4237355
24.002747733862616	2.047258	1.4308242
24.020666427987155	2.05149	1.4323024
24.038585718232156	2.057947	1.4345546
24.056505605095353	2.0934227	1.4468665
24.074426089074617	2.1308763	1.4597521
24.092347170667946	2.098677	1.4486811
24.110268850373515	2.0381272	1.42763
24.128191128689586	2.026472	1.4235421
24.146114006114626	2.0543227	1.4332908
24.164037483147187	2.1140144	1.4539651
24.181961560286005	2.074611	1.440351
24.199886238029926	2.025788	1.4233018
24.21781151687797	2.050207	1.4318544
24.235737397329274	2.0568001	1.4341549
24.253663879883135	2.0295122	1.4246094
24.271590965038975	2.0435798	1.4295384
24.289518653296376	2.0437527	1.4295988
24.30744694515505	1.9888322	1.4102596
24.32537584111486	1.9790996	1.4068048
24.34330534167581	2.0001726	1.4142746
24.361235447338046	2.028609	1.4242924
24.379166158601876	2.0073972	1.4168265
24.39709747596772	2.0085506	1.4172335
24.41502939993615	1.972469	1.4044461
24.432961931007917	2.0168698	1.4201654
24.450895069683856	2.021425	1.4217683
24.468828816465	1.9961443	1.4128497
24.4867631718525	1.9082778	1.3814043
24.504698136347656	1.9364222	1.3915539
24.52263371045192	1.953018	1.3975042
24.540569894666874	1.9820137	1.4078401
24.558506689494266	2.0064726	1.4165001
24.57644409543597	2.0159366	1.4198369
24.594382112994012	1.9721178	1.4043211
24.61232074267057	1.9234318	1.3868784
24.630259984967953	1.9499751	1.3964151
24.64819984038863	1.9682261	1.4029348
24.66614030943522	2.0128782	1.4187593
24.684081392610462	1.9960703	1.4128236
24.702023090417274	1.956076	1.3985978
24.7199654033587	1.945916	1.394961
24.737908331937927	1.984334	1.4086639
24.755851876658305	2.0265305	1.4235626
24.773796038023324	2.0690947	1.4384348
24.79174081653661	2.113655	1.4538414
24.809686212701962	2.1540036	1.4676524
24.827632227023294	2.1180613	1.4553561
24.8455788600047	2.062234	1.436048
24.8635261121504	2.0566678	1.4341087
24.88147398396475	2.0518024	1.4324114
24.899422475952303	2.0765238	1.4410149
24.917371588617698	2.105644	1.4510838
24.935321322465768	2.1635544	1.4709026
24.953271678001478	2.2485085	1.4995028
24.97122265572994	2.454535	1.5666956
24.989174256156414	2.8298576	1.6822181
25.00712647978632	3.2259846	1.7961026
25.02507932712521	3.7233884	1.9296083
25.043032798678798	4.2591376	2.063768
25.060986894952933	4.856723	2.2037973
25.078941616453637	5.512751	2.347925
25.096896963687055	6.4295697	2.5356596
25.114852937159508	7.5191116	2.7420998
25.132809537377444	8.051728	2.8375568
25.150766764847468	8.102644	2.8465145
25.168724620076347	7.5772276	2.7526765
25.186683103570985	6.5782485	2.5648096
25.204642215838426	5.4814463	2.3412488
25.222601957385894	4.245893	2.0605564
25.24056232872074	3.2722485	1.8089358
25.25852333035048	2.6795564	1.636935
25.276484962782778	2.2737794	1.5079056
25.294447226525435	2.1268384	1.4583684
25.312410122086423	2.0205894	1.4214743
25.330373649973843	1.9789035	1.4067351
25.348337810695988	1.9614407	1.4005145
25.366302604761245	1.9736439	1.4048643
25.384268032678207	1.9615971	1.4005703
25.40223409495558	1.9440739	1.3943005
25.420200792102257	1.9550409	1.3982278
25.438168124627246	1.9549067	1.3981798
25.45613609303974	1.9150848	1.383866
25.474104697849057	1.9067153	1.3808386
25.492073939564698	1.933905	1.3906491
25.510043818696285	1.9169915	1.3845546
25.528014335753614	1.8398361	1.3564056
25.54598549124664	1.8169996	1.3479613
25.56395728568544	1.8370823	1.3553901
25.58192971958028	1.8469464	1.359024
25.59990279344156	1.8452289	1.358392
25.617876507779833	1.8888214	1.374344
25.635850863105826	1.8917952	1.3754255
25.653825859930386	1.8766505	1.3699089
25.671801498764548	1.8269861	1.3516605
25.68977778011949	1.8157716	1.3475057
25.707754704506524	1.8427861	1.3574926
25.725732272437153	1.8749868	1.3693016
25.743710484423012	1.8767359	1.3699402
25.761689340975888	1.8224684	1.3499883
25.77966884260774	1.8148208	1.3471528
25.797648989830662	1.8897966	1.3746988
25.815629783156922	1.894473	1.3763986
25.83361122309895	1.8855163	1.373141
25.85159331016929	1.9115947	1.3826044
25.869576044880695	1.8858979	1.3732799
25.887559427746034	1.8664272	1.3661724
25.90554345927836	1.8502444	1.3602369
25.92352813999086	1.8162212	1.3476726
25.94151347039689	1.7970426	1.3405381
25.959499451009965	1.8171064	1.3480009
25.97748608234374	1.8221132	1.3498567
25.995473364912062	1.7937126	1.3392956
26.013461299228904	1.7882593	1.3372581
26.03144988580839	1.8077749	1.3445352
26.04943912516483	1.8376223	1.3555893
26.067429017812675	1.8414392	1.3569964
26.085419564266537	1.8309193	1.3531146
26.103410765041186	1.8478066	1.3593405
26.12140262065155	1.9038045	1.3797842
26.139395131612723	1.9122281	1.3828334
26.157388298439948	1.8461901	1.3587458
26.17538212164861	1.7489344	1.3224728
26.193376601754295	1.7513961	1.3234032
26.211371739272714	1.771352	1.3309215
26.229367534719746	1.7782638	1.3335155
26.247363988611433	1.7559302	1.3251152
26.26536110146397	1.7562578	1.3252387
26.283358873793727	1.7775643	1.3332533
26.301357306117204	1.7977602	1.3408058
26.319356398951104	1.8403382	1.3565906
26.33735615281224	1.8739759	1.3689324
26.35535656821762	1.8508065	1.3604435
26.373357645684404	1.8408872	1.3567929
26.39135938572991	1.8051957	1.3435757
26.409361788871614	1.7777596	1.3333265
26.427364855627165	1.7745769	1.3321325
26.445368586514352	1.7679081	1.329627
26.46337298205115	1.7677377	1.329563
26.48137804275568	1.8132967	1.3465871
26.499383769146217	1.8442519	1.3580323
26.517390161741215	1.8217785	1.3497328
26.53539722105928	1.8269444	1.3516451
26.553404947619182	1.8836417	1.3724582
26.571413341939856	1.851161	1.3605738
26.589422404540397	1.8220327	1.3498269
26.60743213594006	1.8497207	1.3600444
26.62544253665827	1.8947085	1.3764842
26.64345360721459	1.867096	1.3664172
26.66146534812879	1.833069	1.3539088
26.679477759920758	1.7758229	1.3326
26.69749084311057	1.7787127	1.3336838
26.71550459821847	1.795695	1.3400354
26.733519025764842	1.8269717	1.3516551
26.751534126270258	1.84284	1.3575125
26.769549900255434	1.8129143	1.3464451
26.787566348241267	1.7604297	1.3268119
26.80558347074881	1.7861916	1.3364848
26.823601268299267	1.8462527	1.3587688
26.841619741414036	1.8354594	1.3547913
26.85963889061465	1.8049929	1.3435003
26.877658716422832	1.8074276	1.344406
26.89567921936045	1.8113456	1.3458624
26.913700399949544	1.8097577	1.3452723
26.93172225871233	1.8145204	1.3470414
26.949744796171174	1.8486087	1.3596355
26.967768012848605	1.8441726	1.3580031
26.98579190926733	1.8250097	1.3509291
27.003816485950225	1.7818823	1.3348716
27.021841743420318	1.7632324	1.3278676
27.039867682200814	1.8111356	1.3457844
27.057894302815072	1.8422443	1.357293
27.07592160578664	1.8476934	1.3592988
27.0939495916392	1.8411621	1.3568943
27.111978260896635	1.8000917	1.3416749
27.13000761408296	1.8004946	1.3418251
27.148037651722397	1.8038492	1.3430746
27.166068374339304	1.81957	1.3489144
27.184099782458215	1.761868	1.3273537
27.20213187660384	1.7785323	1.3336163
27.22016465730105	1.8145283	1.3470443
27.23819812507487	1.8418274	1.3571395
27.256232280450533	1.8483098	1.3595256
27.274267123953383	1.8206314	1.3493078
27.292302656108987	1.8302858	1.3528806
27.31033887744306	1.833237	1.3539709
27.32837578848146	1.8176144	1.3481894
27.34641338975026	1.8125348	1.3463042
27.364451681775673	1.7999059	1.3416057
27.382490665084074	1.76389	1.3281152
27.400530340202046	1.7712036	1.3308657
27.41857070765629	1.7459137	1.3213303
27.436611767973726	1.7474748	1.3219209
27.454653521681404	1.7675903	1.3295076
27.472695969306564	1.7600495	1.3266685
27.490739111376627	1.7916942	1.3385417
27.508782948419153	1.8472433	1.3591332
27.526827480961902	1.8429506	1.3575531
27.54487270953279	1.8410774	1.3568631
27.562918634659898	1.824763	1.3508378
27.580965256871508	1.8215396	1.3496443
27.599012576696026	1.844756	1.358218
27.617060594662068	1.8649583	1.3656348
27.63510931129842	1.838654	1.3559698
27.65315872713401	1.8504516	1.360313
27.67120884269797	1.8603606	1.3639504
27.68925965851958	1.8373015	1.3554709
27.707311175128307	1.8356045	1.3548448
27.725363393053787	1.878097	1.3704368
27.74341631282583	1.9140071	1.3834765
27.7614699349744	1.9152567	1.3839281
27.77952426002968	2.1160948	1.4546803
27.797579288521973	2.1997328	1.4831496
27.815635020981784	2.649677	1.6277828
27.83369145793979	2.7185247	1.6487949
27.85174859992682	2.526357	1.5894518
27.869806447473923	2.379303	1.542499
27.887865001112267	1.9742135	1.4050671
27.905924261373233	1.8478398	1.3593527
27.92398422878836	1.8463168	1.3587924
27.94204490388936	1.8496474	1.3600174
27.96010628720813	1.8704168	1.3676318
27.978168379276728	1.9127511	1.3830224
27.9962311806274	1.8790892	1.3707987
28.014294691792568	1.8319182	1.3534838
28.0323589133048	1.7964139	1.3403037
28.050423845696887	1.8054821	1.3436823
28.068489489501758	1.8210751	1.3494722
28.086555845252523	1.8606305	1.3640493
28.104622913482487	1.8749852	1.369301
28.122690694725115	1.8385719	1.3559395
28.14075918951405	1.8161559	1.3476483
28.15882839838312	1.8340883	1.3542851
28.176898321866304	1.8695714	1.3673227
28.1949689604978	1.9052413	1.3803048
28.213040314811945	1.92578	1.3877248
28.23111238534327	1.9037025	1.3797473
28.249185172626493	1.9110613	1.3824114
28.267258677196473	1.9340241	1.390692
28.285332899588294	1.9510847	1.3968123
28.303407840337172	1.9334644	1.3904907
28.321483499978545	1.919975	1.3856317
28.33955987904799	1.9897473	1.410584
28.357636978081285	1.9540589	1.3978766
28.37571479761439	1.9030151	1.3794981
28.393793338183425	1.8801665	1.3711916
28.41187260032469	1.8796494	1.371003
28.429952584574686	1.8588693	1.3634036
28.448033291470065	1.8752348	1.3693922
28.46611472154769	1.9294816	1.3890579
28.484196875344566	1.9308532	1.3895514
28.502279753397914	1.9044869	1.3800315
28.52036335624511	1.8881814	1.3741112
28.538447684423716	1.92076	1.3859149
28.556532738471482	1.8891878	1.3744773
28.574618518926325	1.894193	1.3762969
28.59270502632635	1.8976206	1.3775415
28.61079226120985	1.9533651	1.3976284
28.628880224115274	2.0271323	1.423774
28.646968915581287	2.0647738	1.4369321
28.66505833614671	2.0583234	1.4346858
28.68314848635055	2.020012	1.4212712
28.701239366732004	2.0580618	1.4345946
28.71933097783044	2.086946	1.4446266
28.737423320185403	2.0622318	1.4360473
28.75551639433665	2.0054586	1.4161421
28.773610200824074	1.9933144	1.4118478
28.791704740187793	2.0599148	1.4352404
28.80980001296809	2.1552656	1.4680823
28.827896019705413	2.1583574	1.4691349
28.845992760940433	2.14637	1.4650495
28.86409023721397	2.1562564	1.4684197
28.88218844906704	2.1437182	1.4641442
28.900287397040845	2.1499343	1.4662654
28.918387081676755	2.223039	1.4909859
28.936487503516343	2.2912898	1.5137007
28.954588663101365	2.2973268	1.5156935
28.97269056097374	2.3243709	1.5245887
28.990793197675597	2.376804	1.5416887
29.00889657374923	2.3591487	1.5359521
29.027000689737125	2.3616345	1.536761
29.04510554618196	2.3964705	1.5480537
29.06321114362659	2.4265826	1.5577492
29.08131748261405	2.4706552	1.5718318
29.099424563687567	2.4403803	1.5621717
29.11753238739057	2.4737198	1.5728064
29.13564095426663	2.5320716	1.5912484
29.15375026485954	2.5872462	1.6084919
29.171860319713275	2.6312392	1.6221095
29.18997111937199	2.66337	1.6319834
29.20808266438002	2.7053201	1.6447858
29.226194955281898	2.7270916	1.6513908
29.244307992622335	2.75759	1.6605994
29.26242177694624	2.7598383	1.6612761
29.2805363087987	2.8574274	1.6903926
29.29865158872498	2.9478314	1.716925
29.316767617270557	2.9531584	1.7184756
29.334884394981064	2.9022732	1.7036059
29.353001922402367	2.91139	1.7062796
29.37112020008047	2.9722924	1.7240337
29.389239228561596	3.0861745	1.7567511
29.407359008392152	3.286335	1.8128251
29.42547954011872	3.6704037	1.9158298
29.44360082428809	4.3277235	2.0803182
29.46172286144722	5.393962	2.3224905
29.479845652143283	6.901966	2.6271594
29.497969196923606	8.85037	2.9749572
29.516093496335728	11.212638	3.3485277
29.5342185509274	13.738304	3.7065217
29.55234436124651	15.90212	3.9877462
29.570470927841175	17.25153	4.1534963
29.588598251259686	17.221535	4.1498837
29.60672633205055	16.0284	4.0035486
29.624855170762405	13.867193	3.7238681
29.642984767944146	11.264492	3.3562617
29.66111512414481	8.733899	2.955317
29.67924623991366	6.6032233	2.5696738
29.697378115800138	5.1317315	2.2653325
29.71551075235387	4.2399335	2.05911
29.733644150124675	3.8137019	1.9528701
29.751778309662576	3.5854118	1.8935183
29.769913231517766	3.4294293	1.8518718
29.78804891624066	3.3562427	1.8320051
29.806185364381818	3.3342128	1.8259827
29.82432257649206	3.3227777	1.8228488
29.842460553122333	3.2939882	1.8149347
29.86059929482382	3.2804012	1.8111877
29.878738802147872	3.1537635	1.7758839
29.896879075646048	3.16522	1.7791065
29.915020115870114	3.216509	1.7934629
29.933161923371976	3.196613	1.7879075
29.951304498703777	3.1879961	1.785496
29.969447842417857	3.1244752	1.7676185
29.987591955066733	3.1714253	1.7808496
30.005736837203123	3.2515838	1.8032149
30.023882489379943	3.2888975	1.8135318
30.04202891215028	3.1838899	1.7843457
30.060176106067455	3.091	1.758124
30.078324071684946	3.0731282	1.753034
30.09647280955646	3.1887565	1.7857089
30.114622320235863	3.1852162	1.7847174
30.132772604277257	3.1028523	1.7614915
30.1509236622349	3.0805557	1.7551512
30.16907549466328	3.0543613	1.7476732
30.18722810211705	3.0639799	1.7504227
30.205381485151097	3.1296098	1.7690704
30.22353564432045	3.108242	1.7630208
30.241690580180403	3.0283532	1.7402164
30.25984629328638	3.0867312	1.7569096
30.278002784194037	3.129947	1.7691656
30.296160053459246	3.0381038	1.7430158
30.314318101638033	2.975802	1.7250513
30.332476929286646	2.9020998	1.7035551
30.35063653696153	2.9124665	1.7065951
30.368796925219307	2.9418712	1.7151884
30.386958094616844	2.9272223	1.7109127
30.40512004571115	2.9080482	1.7053
30.423282779059463	2.8831902	1.6979959
30.441446295219233	2.9146466	1.7072337
30.459610594748067	2.9109867	1.7061614
30.47777567820382	2.8543339	1.6894774
30.495941546144504	2.8418357	1.6857746
30.51410819912835	2.8804502	1.697189
30.532275637713795	2.7940233	1.6715332
30.55044386245946	2.7369165	1.6543629
30.56861287392416	2.8365736	1.684213
30.586782672666956	2.8714478	1.6945347
30.604953259247047	2.8287163	1.6818788
30.623124634223885	2.7834096	1.6683553
30.641296798157075	2.8116834	1.6768075
30.659469751606462	2.8072953	1.6754985
30.677643495132074	2.7310512	1.6525892
30.695818029294152	2.7096999	1.6461166
30.713993354653116	2.7377934	1.6546279
30.73216947176962	2.730612	1.6524564
30.75034638120448	2.6985128	1.6427151
30.768524083518756	2.7048798	1.6446519
30.786702579273673	2.7805421	1.6674957
30.80488186903069	2.8980565	1.7023679
30.82306195335144	3.0445054	1.7448511
30.841242832797782	3.1841433	1.7844168
30.85942450793176	3.3894968	1.8410586
30.877606979315637	3.6372862	1.9071671
30.895790247511883	3.9568343	1.9891793
30.913974313083134	4.32771	2.0803149
30.932159176592283	4.641253	2.1543567
30.95034483860237	4.73673	2.176403
30.968531299676698	4.5632343	2.1361728
30.98671856037873	4.3054676	2.0749621
31.00490662127215	3.9488237	1.9871647
31.023095482920848	3.5046558	1.8720726
31.04128514588892	3.0338972	1.7418085
31.059475610740662	2.7041044	1.6444161
31.07766687804056	2.5743167	1.6044677
31.09585894835335	2.5970435	1.6115345
31.11405182224393	2.574988	1.6046768
31.132245500277417	2.497163	1.5802414
31.15043998301914	2.4366226	1.5609685
31.168635271034628	2.428569	1.5583867
31.18683136488964	2.4225616	1.556458
31.20502826515008	2.3848157	1.5442848
31.223225972382135	2.4256172	1.5574393
31.241424487152155	2.4623778	1.5691966
31.259623810026692	2.4780293	1.5741757
31.27782394157253	2.3787723	1.5423269
31.296024882356644	2.4019384	1.5498189
31.314226632946237	2.4552753	1.5669318
31.332429193908684	2.4132524	1.5534647
31.350632565811598	2.3317115	1.5269942
31.368836749222787	2.317355	1.522286
31.387041744710295	2.3841898	1.5440822
31.40524755284232	2.476837	1.573797
31.423454174187317	2.5591488	1.599734
31.441661609313922	2.6205964	1.6188257
31.459869858791002	2.5603304	1.6001033
31.478078923187628	2.391011	1.5462894
31.496288803073064	2.3237514	1.5243856
31.514499499016807	2.268262	1.506075
31.532711011588546	2.321162	1.523536
31.550923341358178	2.3082914	1.5193062
31.56913648889584	2.2529423	1.5009805
31.587350454771844	2.2137508	1.4878678
31.605565239556732	2.2721367	1.5073608
31.62378084382127	2.3502436	1.5330504
31.641997268136382	2.3426952	1.5305866
31.660214513073274	2.3295634	1.5262908
31.67843257920331	2.3341908	1.5278059
31.6966514670981	2.2956276	1.5151329
31.71487117732944	2.2923834	1.5140619
31.733091710469346	2.2333086	1.4944258
31.751313067090052	2.2260313	1.491989
31.769535247764008	2.2441874	1.4980612
31.787758253063878	2.29626	1.5153416
31.805982083562526	2.31453	1.5213579
31.824206739833024	2.231664	1.4938755
31.84243222244869	2.2714326	1.5071273
31.860658531983013	2.284342	1.511404
31.878885669009737	2.2652607	1.5050783
31.897113634102784	2.2522593	1.5007529
31.91534242783632	2.2569516	1.5023154
31.933572050784694	2.2093303	1.4863816
31.951802503522508	2.2454004	1.498466
31.970033786624548	2.310065	1.5198898
31.988265900665834	2.2702262	1.506727
32.006498846221575	2.1927574	1.4807962
32.02473262386724	2.1577225	1.4689188
32.04296723417845	2.216763	1.4888798
32.0612026777311	2.1997721	1.4831629
32.07943895510129	2.233129	1.4943658
32.097676066865304	2.2286756	1.492875
32.115914013599685	2.2420795	1.4973575
32.13415279588115	2.2100997	1.4866405
32.152392414286666	2.2398753	1.4966213
32.1706328693934	2.1567576	1.4685904
32.18887416177875	2.0397375	1.4281938
32.20711629202032	2.0317476	1.4253938
32.225359260695924	2.0636032	1.4365246
32.243603068383614	2.054383	1.4333119
32.26184771566166	2.0970972	1.4481357
32.28009320310852	2.1583297	1.4691255
32.2983395313029	2.152303	1.467073
32.31658670082372	2.1453216	1.4646916
32.33483471225012	2.135856	1.4614568
32.35308356616143	2.145414	1.4647232
32.371333263137245	2.1728835	1.4740704
32.38958380375734	2.0908904	1.4459912
32.407835188601744	1.9826688	1.4080727
32.42608741825067	1.9823669	1.4079655
32.444340493284585	2.0063121	1.4164435
32.46259441428416	2.0533433	1.4329492
32.48084918183028	2.132824	1.460419
32.49910479650405	2.1235354	1.4572356
32.51736125888683	2.064736	1.4369189
32.53561856956014	1.9701235	1.403611
32.5538767291058	1.9806384	1.4073515
32.572135738105764	2.0203297	1.421383
32.59039559714228	2.09649	1.447926
32.608656306797776	2.0614622	1.4357793
32.62691786765491	2.008718	1.4172925
32.645180280296586	2.014024	1.4191631
32.663443545305896	2.080452	1.4423772
32.68170766326619	2.0611725	1.4356784
32.69997263476099	1.9964248	1.412949
32.7182384603741	2.0895503	1.4455277
32.7365051406895	2.1110802	1.4529557
32.75477267629144	2.0908635	1.4459819
32.77304106776434	2.0850828	1.4439815
32.79131031569289	2.0236723	1.4225584
32.809580420661966	2.0204892	1.4214392
32.827851383256714	2.0103753	1.4178771
32.84612320406245	2.074934	1.4404631
32.86439588366476	2.0695508	1.4385933
32.88266942264945	1.9114177	1.3825403
32.9009438216025	1.7846054	1.3358912
32.9192190811102	1.8978027	1.3776076
32.937495201758985	2.0649977	1.4370099
32.95577218413556	2.0500379	1.4317954
32.974050028826866	1.9765356	1.4058932
32.992328736420035	1.96845	1.4030145
33.010608307502444	1.9838791	1.4085025
33.02888874266169	2.0201185	1.4213088
33.047170042485604	1.9541658	1.3979148
33.06545220756225	1.9103651	1.3821596
33.083735238479896	1.9432096	1.3939905
33.10201913582707	1.9426813	1.393801
33.12030390019248	1.8987852	1.3779641
33.138589532165135	1.8935109	1.376049
33.15687603233419	2.0006006	1.4144258
33.17516340128909	2.0297978	1.4247097
33.19345163961947	1.9891095	1.410358
33.211740747915215	1.9214228	1.3861539
33.23003072676643	1.9400954	1.392873
33.248321576763466	1.9386755	1.3923633
33.266613298496885	1.9261363	1.3878531
33.28490589255747	2.0085242	1.4172242
33.30319935953626	2.0834277	1.4434084
33.32149370002451	1.9941887	1.4121574
33.339788914613706	1.9026039	1.3793491
33.358085003895575	1.8802558	1.3712242
33.376381968462034	1.8408847	1.3567921
33.39467980890529	1.8588814	1.363408
33.41297852581774	1.9303654	1.3893759
33.43127811979204	1.9615077	1.4005383
33.44957859142105	1.9016483	1.3790027
33.467879941297866	1.8742932	1.3690482
33.486182170015844	1.8961031	1.3769906
33.50448527816853	1.8742707	1.36904
33.522789266349754	1.8376732	1.3556081
33.541094135153514	1.9217865	1.3862852
33.55939988517411	1.9476726	1.3955904
33.57770651700602	1.9351782	1.3911068
33.59601403124398	1.9509139	1.3967512
33.61432242848296	1.9349988	1.3910424
33.632631709318154	1.8826543	1.3720986
33.650941874344994	1.893691	1.3761145
33.66925292415916	1.9596448	1.3998731
33.68756485935654	1.949351	1.3961916
33.70587768053328	1.9005945	1.3786205
33.724191388285746	1.8710097	1.3678485
33.74250598321054	1.842739	1.3574753
33.760821465904506	2.001287	1.4146686
33.77913783696474	2.063521	1.436496
33.79745509698852	1.9640845	1.401458
33.815773246573414	1.9270647	1.3881875
33.8340922863172	1.9232938	1.3868287
33.852412216817896	1.9318563	1.3899124
33.87073303867377	1.9637576	1.4013413
33.889054752483304	2.0077133	1.4169381
33.907377358845245	1.8968346	1.3772562
33.92570085835853	1.8349271	1.3545948
33.94402525162239	1.8582156	1.3631638
33.96235053923627	1.9444287	1.3944278
33.980676721799824	1.9398155	1.3927726
33.999003799912984	1.9270228	1.3881725
34.01733177417592	1.9391539	1.3925351
34.03566064518901	2.0841157	1.4436467
34.0539904135529	2.131234	1.4598746
34.07232107986846	2.0819254	1.4428879
34.090652644736785	2.099598	1.4489989
34.108985108759235	2.1141558	1.4540137
34.12731847253742	2.0896668	1.445568
34.14565273667313	2.0122552	1.4185398
34.16398790176847	2.000366	1.414343
34.18232396842574	2.032365	1.4256104
34.20066093724749	2.0455716	1.4302348
34.21899880883651	1.9689559	1.4031949
34.23733758379583	1.9421165	1.3935984
34.25567726272874	1.9852612	1.408993
34.27401784623872	1.9973708	1.4132837
34.29235933492957	2.0181983	1.4206331
34.31070172940526	1.9200736	1.3856672
34.32904503027003	1.9115154	1.3825756
34.347389238128386	1.9916811	1.4112693
34.36573435358502	1.9780335	1.4064258
34.38408037724492	1.8345853	1.3544687
34.402427309713296	1.7905543	1.3381159
34.42077515159559	1.7262416	1.3138652
34.43912390349752	1.763404	1.3279322
34.45747356602499	1.9907306	1.4109325
34.47582413978423	2.0908513	1.4459777
34.49417562538163	2.0382109	1.4276593
34.51252802342388	1.9738334	1.4049318
34.53088133451789	1.9879832	1.4099586
34.54923555927084	1.9195147	1.3854655
34.567590698290104	1.8233157	1.3503021
34.58594675218336	1.8257989	1.3512212
34.6043037215585	1.7631465	1.3278353
34.62266160702365	1.8029381	1.3427353
34.641020409187234	1.9858378	1.4091976
34.65938012865785	2.150032	1.4662987
34.677740766044394	2.0702553	1.4388381
34.69610232195598	1.9649954	1.401783
34.714464797002016	1.835216	1.3547015
34.73282819179208	1.659438	1.2881918
34.751192506936064	1.7248654	1.3133414
34.76955774304408	1.7987238	1.3411651
34.7879239007265	1.8024004	1.342535
34.80629098059391	1.6730216	1.2934533
34.824658983257194	1.6455263	1.2827806
34.843027909327446	1.8921808	1.3755656
34.86139775941603	2.1147559	1.45422
34.879768534134534	2.119259	1.4557675
34.89814023409483	2.0878258	1.444931
34.91651285990901	2.1382039	1.4622599
34.93488641218944	1.9513295	1.3968999
34.95326089154871	1.6934057	1.3013092
34.97163629859967	1.6337622	1.278187
34.99001263395542	1.7503463	1.3230065
35.00838989822934	1.9657989	1.4020694
35.02676809203499	2.0630083	1.4363176
35.04514721598624	1.9536186	1.3977191
35.063527270697215	2.0037646	1.4155439
35.081908256782256	2.1042542	1.4506048
35.10029017485597	2.126697	1.4583199
35.11867302553321	2.2309577	1.4936391
35.137056809429104	2.35963	1.5361087
35.155441527159006	2.1833386	1.4776125
35.173827179338524	2.0699513	1.4387325
35.19221376658354	1.9930184	1.411743
35.21060128951017	1.7394377	1.3188775
35.2289897487348	1.7214121	1.3120259
35.24737914487405	1.8992069	1.3781172
35.26576947854479	2.1837118	1.4777387
35.28416075036418	2.2377086	1.4958973
35.30255296094958	2.203717	1.4844922
35.32094611091867	2.1345587	1.4610128
35.33934020088932	2.1011934	1.4495494
35.35773523147969	2.2398894	1.496626
35.3761312033082	2.2545388	1.5015122
35.394528116993506	2.5495205	1.5967218
35.41292597315452	2.6207025	1.6188583
35.431324772410434	2.522258	1.5881618
35.449724515380666	2.3969808	1.5482186
35.46812520268491	2.2004757	1.4834
35.486526834943106	1.8502041	1.3602221
35.504929412775454	1.7565994	1.3253677
35.52333293680242	1.8297113	1.3526682
35.54173740764471	2.0401604	1.4283419
35.560142825923286	2.032604	1.4256942
35.5785491922594	1.8649495	1.3656316
35.59695650727454	1.5238519	1.2344439
35.61536477159042	1.1140177	1.0554703
