0.008763373481513119	0.0	0.0
0.026290120649546365	0.17179282	0.414479
0.043816868432600686	0.1956794	0.44235665
0.06134361724069026	0.33119854	0.5754985
0.07887036748382949	0.23272143	0.4824121
0.0963971195720331	0.16038813	0.40048486
0.11392387391531617	0.06656642	0.2580047
0.1314506309236943	0.07650456	0.27659458
0.1489773910071836	0.09865591	0.31409538
0.16650415457580078	0.17723398	0.42099166
0.18403092203956356	0.1858905	0.4311502
0.20155769380849	0.24697089	0.49696165
0.2190844702925996	0.25585374	0.50581986
0.2366112519019124	0.21982408	0.468854
0.2541380390464497	0.14737532	0.38389492
0.27166483213623416	0.15961315	0.39951614
0.28919163158128947	0.16958195	0.41180328
0.3067184377916406	0.19701844	0.4438676
0.324245251177314	0.15574089	0.3946402
0.34177207214833777	0.10944092	0.33081856
0.3592989011147415	0.076285176	0.2761977
0.37682573848655654	0.078306474	0.27983293
0.39435258467381573	0.09455186	0.30749285
0.41187944008655414	0.14323053	0.37845808
0.42940630513480854	0.14206433	0.37691423
0.446933180228618	0.15267412	0.39073536
0.4644600657780234	0.1607925	0.4009894
0.48198696219306775	0.14578359	0.38181618
0.49951386988379676	0.17926437	0.42339623
0.5170407892602581	0.17333266	0.4163324
0.5345677207325025	0.18112567	0.4255886
0.5520946647105822	0.14125307	0.3758365
0.5696216216045534	0.11075542	0.33279938
0.5871485918244737	0.11348519	0.33687562
0.6046755757804043	0.097791374	0.31271613
0.6222025738824094	0.12945838	0.35980326
0.6397295865405557	0.15263197	0.39068142
0.6572566141649129	0.14593798	0.3820183
0.6747836571655547	0.14321834	0.378442
0.6923107159525568	0.14960955	0.38679394
0.7098377909359992	0.16706455	0.4087353
0.7273648825259653	0.1816022	0.4261481
0.7448919911325411	0.2000074	0.44722188
0.762419117165817	0.19990373	0.44710594
0.7799462610358868	0.22320996	0.472451
0.7974734231528482	0.20507191	0.45284867
0.8150006039268024	0.23851384	0.4883788
0.8325278037678551	0.19739498	0.44429156
0.8500550230861152	0.17507537	0.41842008
0.8675822622916969	0.14071351	0.375118
0.8851095217947171	0.13874994	0.37249154
0.9026368020052984	0.16145383	0.40181318
0.9201641033335665	0.18895654	0.4346913
0.9376914261896523	0.23420113	0.4839433
0.9552187709836915	0.22905327	0.4785951
0.9727461381258234	0.26273686	0.5125786
0.990273528026193	0.24005339	0.48995245
1.0078009410949496	0.22324698	0.4724902
1.0253283777422473	0.24584422	0.4958268
1.0428558383782454	0.2632559	0.5130847
1.0603833234131086	0.28332597	0.5322837
1.0779108332570058	0.3435476	0.58612937
1.0954383683201119	0.35587242	0.59655046
1.112965929012607	0.39831793	0.6311243
1.1304935157446763	0.4918971	0.7013538
1.1480211289265108	0.5100829	0.71420085
1.1655487689683062	1.4824007	1.2175387
1.1830764362802655	1.8299371	1.3527517
1.200604131272596	2.2090528	1.4862883
1.2181318543555117	2.3695302	1.5393279
1.235659605939232	2.2988753	1.5162042
1.253187386433982	3.9853013	1.9963219
1.270715196249994	6.4542255	2.5405169
1.2882430357975057	11.974885	3.4604747
1.3057709054867608	16.484118	4.060064
1.3232988057280106	21.98744	4.689077
1.3408267369315112	26.672136	5.1645074
1.358354699507526	30.234894	5.4986267
1.3758826938663256	34.15323	5.844076
1.3934107204181858	36.450523	6.037427
1.410938779573391	36.98169	6.0812573
1.4284668717422309	37.625057	6.133927
1.4459949973350033	37.189327	6.098305
1.4635231567620117	37.397835	6.115377
1.4810513504335687	36.610355	6.050649
1.4985795787599925	35.692097	5.974286
1.5161078421516088	35.217613	5.934443
1.5336361410187505	34.16352	5.844957
1.5511644757717598	33.98181	5.829392
1.5686928468209842	34.3482	5.860734
1.58622125457678	35.558678	5.96311
1.6037496994495108	36.856922	6.07099
1.621278181849548	36.675674	6.0560446
1.6388067021872719	37.05974	6.087671
1.6563352608730693	36.234642	6.0195217
1.673863858317336	35.760918	5.9800434
1.6913924949304753	34.9918	5.9153867
1.7089211711228998	34.346443	5.860584
1.7264498873050296	33.379555	5.777504
1.7439786438872935	32.42017	5.693871
1.7615074412801288	31.331219	5.5974298
1.779036279893981	30.796017	5.549416
1.796565160139305	30.043869	5.481229
1.814094082426564	29.25871	5.409132
1.8316230471662298	28.44289	5.3331876
1.849152054768784	27.650925	5.2584147
1.8666811056447168	26.999146	5.19607
1.8842102002045273	26.209753	5.119546
1.901739338858724	25.688608	5.068393
1.9192685220178245	25.264332	5.026364
1.9367977500923557	24.60787	4.960632
1.9543270234928547	23.913021	4.8900943
1.971856342629867	23.17761	4.814313
1.9893857079139496	22.812204	4.776212
2.006915119755667	22.630213	4.7571225
2.0244445785655945	22.135798	4.7048697
2.0419740847543175	21.733776	4.6619496
2.0595036387324317	21.244814	4.6092095
2.0770332409105414	20.509726	4.5287666
2.094562891699263	20.19406	4.49378
2.1120925915092217	19.574972	4.424361
2.129622340751053	19.273857	4.3902
2.1471521398354043	187.36343	13.688076
2.1646819891729323	443.83188	21.067318
2.182211889174303	440.01367	20.976503
2.1997418402501974	452.44238	21.270693
2.2172718428113023	432.45474	20.795546
2.234801897268317	320.5176	17.903006
2.2523320040319548	17.153923	4.1417294
2.269862163512935	16.721174	4.0891533
2.287392376121992	16.234934	4.0292597
2.304922642269869	15.834591	3.9792702
2.322452962367322	15.583313	3.9475706
2.3399833368251164	15.288363	3.9100337
2.357513766054032	15.057262	3.880369
2.3750442504648586	14.7647915	3.842498
2.3925747904683963	14.492221	3.806865
2.410105386475459	14.338688	3.786646
2.4276360388968707	14.152704	3.762008
2.445166748143469	13.912291	3.7299182
2.4626975146261025	13.70554	3.7020993
2.4802283387556323	13.510641	3.6756823
2.4977592209429305	13.288746	3.645373
2.5152901615988825	12.916127	3.5939014
2.5328211611343865	12.756554	3.571632
2.5503522199603523	12.487876	3.533819
2.5678833384877024	12.20831	3.4940393
2.5854145171273712	12.081148	3.4757946
2.6029457562903064	11.963322	3.4588034
2.620477056387469	11.92704	3.4535546
2.6380084178298326	11.737608	3.4260192
2.655539841028383	11.363868	3.3710337
2.673071326394119	11.076299	3.3281074
2.6906028743380523	10.7879095	3.2844954
2.708134485271211	10.673621	3.2670507
2.7256661596046325	10.56741	3.2507553
2.743197897749369	10.458216	3.2339165
2.760729700116486	10.455302	3.233466
2.778261567117063	10.24926	3.2014465
2.795793499162193	10.145294	3.1851678
2.8133254966629817	9.996225	3.1616807
2.830857560030551	9.676518	3.1107104
2.8483896896760337	9.508747	3.0836256
2.865921886010578	9.371606	3.061308
2.883454149445347	9.306776	3.050701
2.9009864803915177	9.350486	3.0578563
2.91851887926028	9.062075	3.010328
2.9360513464628384	8.81488	2.9689865
2.953583882410413	8.603352	2.933147
2.9711164875142373	8.624793	2.9367998
2.9886491621855606	8.675691	2.9454525
3.0061819068356455	8.603103	2.9331045
3.023714721875769	8.381973	2.8951638
3.041247607717225	8.090949	2.8444593
3.0587805647713213	7.9550643	2.8204722
3.0763135934493806	7.982612	2.8253517
3.0938466941627407	7.969431	2.823018
3.1113798673227544	8.015432	2.8311539
3.1289131133407904	7.9138746	2.813161
3.1464464326282315	7.8134775	2.7952597
3.1639798255964786	7.6846256	2.7721157
3.1815132926569443	7.559409	2.749438
3.1990468342210603	7.521381	2.7425137
3.216580450700272	7.4194765	2.7238717
3.2341141425060416	7.3659573	2.7140298
3.251647910049847	7.3513756	2.711342
3.2691817537431813	7.208012	2.6847742
3.286715673997555	7.1865	2.680765
3.3042496712244938	6.961278	2.6384234
3.32178374583554	6.915173	2.6296716
3.339317898242251	6.8497825	2.617209
3.3568521288562034	6.840923	2.6155157
3.3743864380889876	6.8119564	2.6099725
3.3919208263522127	6.6906166	2.5866227
3.4094552940575023	6.5823183	2.565603
3.4269898416164972	6.498904	2.549295
3.444524469440858	6.4453926	2.5387778
3.4620591779422587	6.423093	2.534382
3.479593967532391	6.3454876	2.519025
3.4971288386229658	6.2061076	2.4912062
3.5146637916257086	6.193656	2.4887056
3.5321988269523628	6.188284	2.487626
3.5497339450146903	6.2637653	2.5027516
3.5672691462244708	6.277852	2.5055642
3.5848044309934988	6.307832	2.5115397
3.60233979973359	6.219759	2.4939444
3.619875252856575	6.142965	2.4785006
3.6374107907743034	6.0724387	2.464232
3.6549464138986427	6.1028433	2.4703934
3.6724821226414788	6.1939964	2.488774
3.690017917414714	6.2718253	2.5043612
3.7075537986302702	6.273801	2.5047557
3.7250897667000857	6.246056	2.499211
3.7426258220361235	6.3118253	2.5123346
3.7601619650503553	6.7018723	2.5887976
3.777698196154779	7.3447886	2.710127
3.7952345157614067	8.575541	2.9284024
3.8127709242822716	9.301877	3.049898
3.830307422129425	11.561493	3.4002194
3.847844009714936	30.461908	5.519231
3.8653806874508954	97.91513	9.895207
3.882917455749409	97.12385	9.855144
3.900454315022606	96.78878	9.838129
3.917991265682631	41.258656	6.4232903
3.9355283081416506	10.958887	3.310421
3.9530654428118495	8.6475935	2.940679
3.970602670105433	7.399035	2.7201166
3.9881399904346244	6.4642496	2.5424888
4.005677404211669	6.44828	2.5393465
4.023214911848827	6.3842435	2.526706
4.0407525137583855	6.391823	2.5282054
4.058290210352644	6.4077277	2.531349
4.075828002043927	6.3393226	2.517801
4.0933658892445814	6.342028	2.5183384
4.110903872366966	6.1521783	2.4803586
4.128441951823468	6.0688143	2.4634964
4.145980128026488	6.0935173	2.4685051
4.163518401388452	6.0638013	2.4624786
4.181056772321807	6.0206146	2.453694
4.1985952412390155	5.9400845	2.437229
4.216133808552567	6.0238676	2.454357
4.233672474674966	6.232698	2.4965372
4.251211240018741	6.4737797	2.5443623
4.268750104996445	6.674493	2.583504
4.286289070020643	7.5635824	2.7501967
4.303828135503928	9.189142	3.03136
4.3213673018589125	29.462831	5.4279675
4.3389065694982305	90.543304	9.515425
4.356445938834537	165.6826	12.871776
4.3739854102805085	170.74556	13.066964
4.391524984248844	171.66516	13.102105
4.409064661152262	135.79225	11.652993
4.426604441403504	96.29639	9.813072
4.444144325415337	75.53758	8.691236
4.461684313600543	21.553001	4.642521
4.47922440637193	22.052538	4.696013
4.496764604142329	20.352798	4.5114074
4.5143049073245916	18.335278	4.2819715
4.531845316331589	16.20751	4.025855
4.5493858315762195	13.320558	3.649734
4.566926453471405	11.182984	3.344097
4.584467182430081	9.0758915	3.012622
4.602008018865218	7.9248266	2.8151069
4.619548963189798	7.1996393	2.6832144
4.637090015816834	6.6824	2.585034
4.654631177159353	6.442746	2.5382564
4.672172447630417	6.2434072	2.498681
4.689713827643102	6.134368	2.4767656
4.7072553176105085	6.0140076	2.4523473
4.724796917945764	5.865491	2.4218776
4.742338629062015	5.817684	2.4119875
4.759880451372434	5.7977767	2.4078572
4.777422385290215	5.713622	2.3903184
4.794964431228581	5.659268	2.3789215
4.812506589600768	5.6193147	2.3705094
4.830048860820047	5.630697	2.3729088
4.847591245299709	5.628985	2.372548
4.8651337434530655	5.5847054	2.363198
4.882676355693457	5.500114	2.3452322
4.900219082434242	5.4367294	2.3316796
4.917761924088813	5.4256163	2.3292952
4.935304881070575	5.438347	2.3320262
4.952847953792969	5.459062	2.3364637
4.970391142669449	5.4550376	2.3356023
4.9879344481135055	5.414561	2.326921
5.005477870538642	5.323338	2.307236
5.023021410358394	5.3028245	2.3027864
5.040565067986324	5.311286	2.3046227
5.05810884383601	5.288977	2.2997777
5.075652738321066	5.3193073	2.3063624
5.09319675185512	5.315433	2.3055222
5.110740884851836	5.366829	2.3166418
5.128285137724894	5.3527517	2.3136015
5.145829510888007	5.3183107	2.3061464
5.163374004754908	5.208363	2.282184
5.1809186197393595	5.143643	2.26796
5.198463356255145	5.1639905	2.2724416
5.216008214716077	5.2266145	2.286179
5.233553195535998	5.281546	2.2981615
5.251098299128764	5.2527432	2.2918863
5.268643525908272	5.2706566	2.2957911
5.286188876288432	5.2815027	2.298152
5.3037343506831895	5.3005376	2.3022897
5.32127994950651	5.2369566	2.2884398
5.3388256731723915	5.1783056	2.275589
5.356371522094851	5.161313	2.2718523
5.373917496687938	5.157553	2.2710247
5.391463597365729	5.1675534	2.2732253
5.40900982454232	5.1804914	2.2760694
5.426556178631843	5.22428	2.2856684
5.444102660048449	5.21117	2.2827988
5.4616492692063225	5.1326056	2.2655253
5.479196006519669	5.095876	2.2574048
5.496742872402727	5.1073127	2.2599363
5.514289867269756	5.138914	2.2669172
5.531836991535049	5.1737223	2.2745817
5.549384245612924	5.128125	2.2645364
5.566931629917724	5.0894685	2.255985
5.584479144863822	5.0345616	2.243783
5.6020267908656205	5.053697	2.248043
5.619574568337545	5.031049	2.243
5.637122477694054	5.007928	2.23784
5.654670519349629	5.002288	2.2365794
5.672218693718784	5.0139174	2.239178
5.689767001216059	5.102551	2.2588828
5.707315442256021	5.1269174	2.2642698
5.724864017253266	5.1292763	2.2647905
5.7424127266224225	5.0880237	2.2556648
5.75996157077814	5.088938	2.2558675
5.777510550135105	5.080941	2.2540944
5.795059665108022	5.112987	2.2611916
5.812608916111639	5.1244736	2.26373
5.830158303560715	5.23007	2.2869346
5.847707827870055	5.2624784	2.2940092
5.86525748945448	5.2864904	2.299237
5.8828072887288485	5.456562	2.3359284
5.900357226108044	5.519163	2.34929
5.917907302006979	5.634788	2.373771
5.9354575168406	6.2750826	2.5050116
5.9530078710238765	6.9661155	2.63934
5.970558364971812	7.5470567	2.7471907
5.988108999099438	7.8858576	2.808177
6.005659773821818	8.428226	2.9031408
6.023210689554039	8.115812	2.8488264
6.040761746711227	8.458421	2.9083364
6.058312945708531	7.7387547	2.7818618
6.075864286961132	7.2811613	2.6983628
6.093415770884244	6.642273	2.5772607
6.1109673978931065	6.1221905	2.474306
6.128519168402993	5.508327	2.3469825
6.146071082829204	5.3374696	2.3102965
6.163623141587075	5.240601	2.2892358
6.181175345091969	5.1875997	2.2776303
6.198727693759281	5.1494827	2.269247
6.216280188004435	5.134168	2.2658703
6.233832828242885	5.0469275	2.2465367
6.251385614890126	4.982668	2.232189
6.268938548361669	4.9777393	2.2310848
6.286491629073067	4.998222	2.2356703
6.304044857439898	5.011622	2.238665
6.321598233877777	4.978413	2.2312357
6.339151758802344	4.919392	2.2179704
6.356705432629277	4.855355	2.203487
6.37425925577428	4.8635426	2.2053442
6.391813228653095	4.879587	2.2089787
6.409367351681486	4.9055805	2.2148545
6.426921625275259	4.878829	2.2088072
6.44447604985025	4.8995976	2.2135034
6.46203062582232	4.9537487	2.2257018
6.47958535360737	4.929084	2.220154
6.497140233621328	4.962647	2.2277
6.514695266280161	4.9661674	2.2284899
6.532250451999859	5.003727	2.2369013
6.549805791196454	5.042423	2.245534
6.567361284286002	4.9961843	2.2352147
6.584916931684597	4.9997873	2.2360203
6.602472733808367	5.025979	2.2418694
6.6200286910734665	5.081506	2.2542195
6.637584803896092	5.128563	2.2646332
6.655141072692462	5.030932	2.2429738
6.672697497878842	4.906264	2.2150087
6.690254079871514	4.7878604	2.188118
6.707810819086808	4.837194	2.1993623
6.725367715941078	4.8941836	2.2122803
6.742924770850719	4.9235473	2.2189069
6.760481984232151	4.969803	2.2293055
6.778039356501836	4.926703	2.2196178
6.795596888076266	4.9079523	2.21539
6.813154579371963	4.8870363	2.2106643
6.830712430805492	4.872424	2.207357
6.84827044279344	4.9305615	2.2204869
6.865828615752445	4.918086	2.217676
6.883386950099159	4.9649563	2.228218
6.900945446250287	4.95147	2.22519
6.918504104622553	4.947099	2.2242076
6.936062925632727	4.9640975	2.2280254
6.953621909697607	4.927627	2.219826
6.971181057234028	4.997901	2.2355986
6.988740368658859	5.036064	2.2441177
7.006299844389007	5.113654	2.261339
7.023859484841407	5.209319	2.2823932
7.041419290433036	5.2970195	2.3015254
7.058979261580902	5.376589	2.3187473
7.0765393987020495	5.54319	2.354398
7.094099702213559	5.860301	2.420806
7.111660172532549	6.133004	2.4764903
7.129220810076164	6.4629564	2.5422344
7.146781615261595	6.971613	2.640381
7.16434258850606	7.3305106	2.7074916
7.181903730226821	7.829809	2.7981796
7.1994650408411704	8.085152	2.84344
7.217026520766437	8.259385	2.8739145
7.234588170419983	8.479708	2.9119937
7.252149990219215	8.467828	2.909953
7.269711980581568	8.331811	2.8864877
7.2872741419245175	8.100887	2.8462057
7.304836474665574	7.6298065	2.7622104
7.322398979222286	7.287814	2.6995952
7.339961656012233	7.053003	2.655749
7.357524505453039	6.754635	2.598968
7.375087527962357	6.5363474	2.5566282
7.392650723957886	6.2197375	2.49394
7.410214093857353	5.860033	2.4207506
7.427777638078528	5.6448464	2.3758886
7.445341357039213	5.503389	2.3459303
7.4629052511572525	5.3489323	2.3127759
7.480469320850524	5.256495	2.2927048
7.498033566536948	5.2138605	2.283388
7.5155979886344735	5.1799273	2.2759454
7.5331625875610975	5.171311	2.2740517
7.550727363734844	5.1106715	2.2606795
7.568292317573788	5.110841	2.260717
7.585857449496025	5.1292186	2.264778
7.603422759919705	5.1260214	2.264072
7.620988249263007	5.1720386	2.2742116
7.638553917944147	5.223274	2.2854483
7.656119766381391	5.2858686	2.2991016
7.673685794993023	5.2858887	2.2991061
7.691252004197388	5.2791204	2.2976336
7.70881839441285	5.285029	2.298919
7.726384966057826	5.2420096	2.2895436
7.743951719550762	5.2066174	2.2818012
7.761518655310149	5.2204146	2.2848227
7.779085773754511	5.237257	2.2885053
7.796653075302419	5.2555065	2.292489
7.814220560372475	5.276329	2.2970262
7.831788229383323	5.238328	2.2887394
7.8493560827536495	5.231586	2.287266
7.866924120902174	5.223764	2.2855556
7.884492344247663	5.30068	2.3023207
7.9020607532089135	5.3681517	2.3169272
7.919629348204771	5.3540907	2.3138907
7.937198129654115	5.3119297	2.3047624
7.954767097975865	5.261536	2.293804
7.972336253588986	5.2826376	2.298399
7.989905596912472	5.3052473	2.3033123
8.007475128365371	5.3484945	2.3126812
8.025044848366756	5.412171	2.3264072
8.042614757335754	5.4518037	2.3349097
8.060184855691523	5.519812	2.349428
8.07775514385327	5.549633	2.3557658
8.095325622240228	5.6655097	2.380233
8.112896291271687	5.713714	2.3903377
8.130467151366968	5.7798057	2.4041226
8.148038202945436	5.751365	2.3982005
8.165609446426497	5.71439	2.390479
8.183180882229594	5.7508965	2.3981028
8.200752510774217	5.7849765	2.4051979
8.218324332479893	5.845811	2.4178112
8.235896347766193	5.869301	2.422664
8.253468557052724	5.864811	2.4217372
8.27104096075914	5.889852	2.4269018
8.288613559305137	5.9334483	2.435867
8.306186353110448	6.0481343	2.4592955
8.32375934259485	6.0898447	2.467761
8.341332528178162	6.0919685	2.4681914
8.358905910280246	6.169034	2.483754
8.376479489321003	6.1497955	2.4798782
8.394053265720377	6.239661	2.4979315
8.411627239898356	6.1972265	2.489423
8.42920141227497	6.174234	2.4848006
8.44677578327029	6.1089907	2.4716372
8.464350353304427	5.9952087	2.4485116
8.48192512279754	5.934925	2.43617
8.499500092169827	5.9478345	2.4388182
8.51707526184153	6.0058637	2.4506865
8.534650632232934	6.059392	2.4615831
8.552226203764365	6.058962	2.4614959
8.569801976856192	6.1017027	2.4701624
8.587377951928834	6.207723	2.4915302
8.60495412940274	6.1984525	2.489669
8.622530509698416	6.209524	2.4918916
8.6401070932364	6.327322	2.5154169
8.657683880437283	6.475363	2.5446734
8.675260871721695	6.611079	2.5712018
8.692838067510303	6.7206035	2.5924127
8.710415468223834	6.8318124	2.6137736
8.727993074283043	6.996439	2.6450782
8.745570886108737	6.9362607	2.6336782
8.763148904121765	6.9850917	2.6429324
8.78072712874302	6.9917374	2.6441894
8.798305560393441	7.2578464	2.694039
8.815884199494006	7.49187	2.737128
8.833463046465745	7.6765237	2.770654
8.851042101729728	7.7905784	2.7911608
8.86862136570707	8.018524	2.8316998
8.886200838818924	8.187722	2.8614197
8.903780521486505	8.285217	2.8784053
8.921360414131055	8.393709	2.8971899
8.938940517173874	8.520694	2.9190228
8.956520831036297	8.64274	2.9398537
8.97410135613971	8.840399	2.973281
8.99168209290554	8.980289	2.9967132
9.009263041755265	9.313501	3.0518029
9.026844203110405	9.558227	3.091638
9.044425577392525	9.759082	3.1239529
9.062007165023239	9.831028	3.135447
9.079588966424197	10.174904	3.1898124
9.097170982017108	10.315919	3.2118404
9.11475321222372	11.501784	3.391428
9.132335657465825	12.439924	3.5270276
9.149918318165264	12.534618	3.5404263
9.167501194743924	13.196664	3.6327212
9.18508428762374	12.807453	3.5787501
9.202667597226693	12.768941	3.5733654
9.220251123974803	12.377918	3.5182266
9.237834868290143	12.073522	3.4746974
9.255418830594836	11.821134	3.4381876
9.273003011311046	11.26716	3.3566592
9.290587410860985	11.059502	3.325583
9.308172029666911	10.421239	3.2281945
9.32575686815113	10.089978	3.1764727
9.343341926735997	8.630226	2.9377246
9.360927205843916	8.417277	2.9012544
9.378512705897327	8.232226	2.8691857
9.396098427318728	8.038991	2.8353114
9.413684370530664	7.9265556	2.815414
9.431270535955722	7.8317027	2.798518
9.448856924016539	7.822939	2.7969518
9.466443535135806	7.7312117	2.7805057
9.484030369736251	7.7453165	2.7830408
9.501617428240658	7.7620306	2.7860422
9.519204711071852	7.732415	2.7807221
9.536792218652714	7.7311225	2.7804897
9.55437995140617	7.7198963	2.77847
9.571967909755191	7.744475	2.7828896
9.589556094122802	7.783534	2.7898986
9.60714450493207	7.7609224	2.7858431
9.624733142606116	7.8272114	2.7977154
9.642322007568108	7.8688464	2.8051465
9.659911100241267	7.878524	2.806871
9.677500421048851	7.886368	2.8082678
9.695089970414175	7.9644523	2.8221362
9.712679748760609	8.030681	2.8338456
9.730269756511557	8.114584	2.8486109
9.747859994090492	8.177819	2.8596888
9.765450461920915	8.19368	2.8624604
9.78304116042639	8.171288	2.8585465
9.800632090030527	8.139359	2.8529563
9.81822325115699	8.134294	2.8520682
9.835814644229481	8.166858	2.8577714
9.853406269671762	8.166703	2.8577445
9.870998127907646	8.172065	2.8586824
9.888590219360985	8.160383	2.8566384
9.906182544455698	8.109671	2.8477483
9.923775103615734	8.10882	2.847599
9.941367897265108	8.091923	2.8446305
9.958960925827878	8.142522	2.8535104
9.97655418972816	8.201149	2.8637648
9.994147689390106	8.241687	2.8708339
10.011741425237934	8.267247	2.875282
10.029335397695904	8.194926	2.862678
10.04692960718833	8.176962	2.8595388
10.06452405413958	8.121407	2.8498082
10.082118738974064	8.163524	2.857188
10.099713662116246	8.162684	2.8570411
10.117308823990651	8.14984	2.8547926
10.134904225021844	8.1200905	2.8495772
10.152499865634445	8.093879	2.8449743
10.170095746253125	8.074108	2.8414974
10.18769186730261	8.010584	2.8302975
10.205288229207675	8.00045	2.8285067
10.222884832393145	7.916558	2.8136377
10.2404816772839	7.9743156	2.823883
10.258078764304868	8.002898	2.8289394
10.275676093881035	8.100365	2.846114
10.293273666437438	8.058901	2.8388202
10.310871482399158	8.114197	2.848543
10.32846954219134	8.072444	2.8412046
10.346067846239173	8.1560335	2.855877
10.363666394967908	8.148476	2.8545535
10.38126518880283	8.220523	2.8671455
10.398864228169298	8.216293	2.8664076
10.416463513492713	8.184559	2.8608668
10.434063045198531	8.177845	2.859693
10.451662823712262	8.161185	2.8567789
10.469262849459467	8.210474	2.8653924
10.486863122865758	8.197684	2.86316
10.504463644356806	8.140751	2.8532002
10.522064414358338	8.077041	2.8420136
10.539665433296118	7.9393954	2.8176932
10.557266701595987	7.8556595	2.802795
10.574868219683818	7.7717457	2.787785
10.592469987985552	7.6455297	2.7650552
10.610072006927185	7.5169353	2.741703
10.627674276934751	7.432372	2.7262378
10.64527679843435	7.265762	2.6955078
10.662879571852143	7.216642	2.6863809
10.680482597614331	7.0921245	2.6631043
10.698085876147173	7.023001	2.6500945
10.715689407876988	6.925163	2.6315703
10.733293193230146	6.8655505	2.6202195
10.750897232633072	6.7742276	2.6027346
10.76850152651225	6.6237335	2.5736616
10.786106075294207	6.4628725	2.542218
10.803710879405534	6.3568006	2.5212696
10.821315939272877	6.3195157	2.5138648
10.83892125532294	6.236514	2.4973013
10.856526827982472	6.168681	2.4836829
10.874132657678285	6.1422176	2.4783497
10.891738744837243	6.207339	2.4914532
10.909345089886271	6.171296	2.4842093
10.926951693252343	6.04713	2.4590914
10.944558555362494	5.977473	2.4448872
10.96216567664381	5.9312468	2.435415
10.979773057523436	5.8660345	2.4219897
10.997380698428573	5.8016133	2.4086537
11.014988599786477	5.743746	2.3966112
11.032596762024461	5.645721	2.3760726
11.050205185569892	5.602317	2.3669214
11.067813870850198	5.482319	2.3414352
11.085422818292859	5.4458985	2.3336449
11.10303202832541	5.3800516	2.3194938
11.120641501375454	5.2788615	2.2975774
11.138251237870636	5.2740903	2.2965388
11.155861238238671	5.2422724	2.2896008
11.173471502907317	5.1788793	2.275715
11.191082032304402	5.0565095	2.2486684
11.208692826857805	4.9949455	2.2349374
11.226303886995465	4.9232774	2.2188458
11.243915213145371	4.9016104	2.213958
11.261526805735578	4.8627763	2.2051704
11.279138665194196	4.8580937	2.2041085
11.296750791949393	4.808342	2.1927931
11.314363186429393	4.727119	2.1741939
11.331975849062479	4.6601906	2.1587474
11.34958878027699	4.6060357	2.1461678
11.36720198050133	4.601168	2.1450334
11.384815450163948	4.5784097	2.1397219
11.402429189693366	4.510665	2.1238327
11.420043199518153	4.454907	2.110665
11.437657480066942	63.3483	7.9591646
11.455272031768422	85.02684	9.221
11.472886855051353	107.38801	10.362819
11.490501950344528	98.99026	9.949385
11.508117318076819	84.37253	9.1854515
11.52573295867715	45.81918	6.7689867
11.543348872574514	4.1199546	2.029767
11.560965060197946	4.0728836	2.0181386
11.57858152197655	4.0145473	2.0036335
11.59619825833949	4.0054946	2.0013733
11.613815269715985	4.021223	2.0052989
11.631432556535323	38.543335	6.208328
11.649050119226837	83.06382	9.113935
11.666667958219929	93.46429	9.667693
11.68428607394406	107.71613	10.378638
11.701904466828756	82.48979	9.082389
11.719523137303586	65.29361	8.080446
11.737142085798196	4.502533	2.1219172
11.754761312742286	3.683053	1.9191282
11.772380818565619	3.6459887	1.9094472
11.790000603698015	3.6263354	1.9042939
11.80762066856935	3.555535	1.8856126
11.825241013609572	3.5062478	1.8724977
11.842861639248683	3.4613729	1.8604765
11.860482545916748	3.4338448	1.8530636
11.878103734043883	3.4045625	1.8451457
11.895725204060282	3.4363596	1.8537421
11.91334695639619	3.4473631	1.8567076
11.930968991481919	3.4186585	1.8489615
11.948591309747824	3.3582048	1.8325405
11.966213911624347	3.2820675	1.8116478
11.98383679754198	3.2336981	1.7982486
12.001459967931268	3.199055	1.7885902
12.019083423222835	3.182503	1.7839571
12.036707163847352	3.1741831	1.7816237
12.05433119023556	3.1782446	1.7827632
12.071955502818259	3.1842127	1.7844362
12.089580102026313	3.1910334	1.7863463
12.107204988290643	3.1712627	1.7808039
12.12483016204224	3.1547685	1.7761668
12.142455623712152	3.141167	1.7723337
12.16008137373149	3.115644	1.7651187
12.177707412531431	3.1089354	1.7632173
12.19533374054321	3.108851	1.7631934
12.212960358198126	3.0721304	1.7527494
12.230587265927545	3.074055	1.7532983
12.248214464162889	3.0343642	1.7419426
12.265841953335649	3.0217307	1.7383126
12.283469733877375	2.9891045	1.7289027
12.301097806219685	2.9653292	1.7220131
12.31872617079425	2.9574037	1.7197104
12.336354828032825	2.9183831	1.7083275
12.353983778367205	2.895864	1.7017238
12.371613022229262	2.8745372	1.695446
12.389242560050928	2.8683507	1.6936206
12.406872392264201	2.8295588	1.6821293
12.424502519301143	2.758114	1.6607571
12.442132941593874	2.751377	1.6587275
12.459763659574586	2.7983818	1.6728364
12.477394673675532	2.8287094	1.6818768
12.49502598432903	2.8295453	1.6821252
12.51265759196746	2.8011205	1.6736548
12.530289497023267	2.7944386	1.6716574
12.547921699928967	2.7885454	1.6698939
12.565554201117134	2.7395055	1.6551452
12.583187001020404	2.7285175	1.6518224
12.600820100071486	2.7391276	1.655031
12.618453498703152	2.7572167	1.6604869
12.636087197348235	2.7391381	1.6550342
12.65372119643964	2.700756	1.6433977
12.671355496410326	2.7203932	1.6493615
12.68899009769333	2.7484074	1.6578321
12.706625000721749	2.7852495	1.6689067
12.724260205928752	2.866084	1.6929513
12.741895713747551	2.9034703	1.7039572
12.759531524611454	2.9637427	1.7215524
12.777167638953818	2.9614491	1.7208861
12.794804057208072	2.9405997	1.7148176
12.812440779807702	2.961836	1.7209985
12.830077807186271	3.1550233	1.7762386
12.847715139777405	3.2296882	1.7971333
12.865352778014795	3.4867299	1.8672787
12.882990722332197	3.603657	1.8983301
12.90062897316344	3.6601593	1.9131542
12.918267530942412	3.7327774	1.9320397
12.935906396103071	3.6304507	1.9053742
12.953545569079449	3.8379276	1.9590629
12.971185050305628	3.6636238	1.9140595
12.988824840215775	3.66032	1.9131963
13.006464939244115	3.6436913	1.9088455
13.024105347824943	3.4515116	1.8578244
13.041746066392617	3.5162146	1.8751572
13.05938709538157	3.3054776	1.8180972
13.077028435226296	3.3463628	1.8293066
13.094670086361363	3.284563	1.8123363
13.112312049221401	3.2134295	1.7926041
13.129954324241112	3.0808675	1.75524
13.147596911855258	2.8456566	1.6869074
13.165239812498685	2.8282566	1.6817422
13.182883026606293	2.7858827	1.6690964
13.200526554613058	2.7534587	1.6593549
13.218170396954017	2.7154105	1.6478503
13.235814554064284	2.7036471	1.6442771
13.253459026379034	2.7009852	1.6434674
13.271103814333523	2.6900766	1.6401453
13.288748918363058	2.6830869	1.6380131
13.306394338903031	2.7173724	1.6484455
13.32404007638889	2.72173	1.6497667
13.341686131256164	2.72032	1.6493392
13.359332503940449	2.6254816	1.6203338
13.376979194877402	2.593531	1.6104443
13.394626204502751	2.6022441	1.6131473
13.412273533252307	2.6649852	1.6324782
13.429921181561937	2.7113445	1.6466161
13.447569149867581	2.7429602	1.6561885
13.465217438605247	2.7420583	1.6559161
13.482866048211022	2.7113998	1.6466329
13.500514979121052	2.6840928	1.6383201
13.518164231771568	2.6753666	1.6356548
13.535813806598844	2.6581955	1.6303973
13.553463704039254	2.6369884	1.6238806
13.571113924529229	2.6042438	1.6137669
13.588764468505275	2.6442645	1.6261195
13.606415336403956	2.7003562	1.6432761
13.624066528661917	2.731072	1.6525955
13.641718045715882	2.7929225	1.6712039
13.659369888002635	2.8420944	1.6858512
13.67702205595903	2.926373	1.7106645
13.694674550021993	2.988712	1.7287892
13.712327370628532	3.0739887	1.7532794
13.729980518215713	3.1840954	1.7844033
13.747633993220681	3.2475455	1.8020947
13.765287796080647	3.2406998	1.8001944
13.7829419272329	3.2409348	1.8002597
13.800596387114801	3.2769325	1.8102299
13.818251176163775	3.267109	1.8075145
13.835906294817324	3.3280134	1.8242843
13.853561743513023	3.352281	1.8309236
13.871217522688525	3.417903	1.8487571
13.888873632781538	3.3771322	1.8376975
13.906530074229858	3.381819	1.8389722
13.92418684747135	3.3986976	1.8435557
13.941843952943948	3.4274514	1.8513377
13.959501391085665	3.398402	1.8434755
13.977159162334578	3.3415344	1.8279865
13.994817267128846	3.3088481	1.819024
14.012475705906693	3.2467737	1.8018806
14.030134479106424	3.1811502	1.7835779
14.047793587166414	3.116566	1.7653798
14.065453030525108	3.0905056	1.7579834
14.083112809621026	3.049206	1.7461976
14.100772924892766	2.9784818	1.7258278
14.118433376778997	2.8764122	1.6959989
14.136094165718458	2.7663434	1.6632328
14.153755292149969	2.681541	1.6375412
14.171416756512416	2.6438296	1.6259857
14.189078559244768	2.5992482	1.6122184
14.20674070078606	2.5190437	1.5871495
14.224403181575408	2.4466124	1.5641651
14.242066002051999	2.4083018	1.5518705
14.259729162655093	2.4327164	1.5597167
14.277392663824022	2.450092	1.565277
14.295056505998208	2.4558592	1.5671182
14.312720689617128	2.4402874	1.5621419
14.330385215120348	2.42528	1.5573311
14.348050082947497	2.4021904	1.5499002
14.3657152935383	2.3900523	1.5459794
14.383380847332528	2.3481724	1.5323747
14.401046744770051	2.3776288	1.5419562
14.418712986290798	2.3538778	1.5342352
14.436379572334793	2.3523424	1.5337348
14.454046503342123	2.3250823	1.524822
14.471713779752946	2.3009593	1.5168914
14.489381402007504	2.3161511	1.5218906
14.507049370546113	2.3203006	1.5232533
14.524717685809168	2.361644	1.5367641
14.542386348237134	2.392454	1.5467559
14.560055358270553	2.4144022	1.5538347
14.577724716350051	2.426981	1.5578771
14.595394422916325	2.384358	1.5441366
14.61306447841015	2.4077423	1.5516901
14.63073488327237	2.407692	1.5516739
14.648405637943917	2.4411333	1.5624126
14.6660767428658	2.4636433	1.5695997
14.683748198479094	2.5052826	1.5828085
14.701420005224954	2.5540273	1.5981325
14.719092163544628	2.6263232	1.6205934
14.73676467387942	2.6146612	1.6169914
14.754437536670727	2.5993276	1.612243
14.772110752360014	2.5827444	1.6070919
14.78978432138882	2.6129906	1.6164747
14.807458244198777	2.6408646	1.6250737
14.82513252123159	2.646144	1.6266972
14.842807152929028	2.6891873	1.6398742
14.860482139732962	2.688259	1.6395911
14.87815748208531	2.7042859	1.6444713
14.8958331804281	2.708815	1.6458478
14.91350923520342	2.67011	1.6340472
14.931185646853438	2.6350596	1.6232867
14.948862415820408	2.596902	1.6114906
14.966539542546656	2.6327412	1.6225724
14.98421702747459	2.6242661	1.6199586
15.001894871046696	2.6646285	1.632369
15.019573073705542	2.6731095	1.6349647
15.037251635893766	2.6402485	1.6248841
15.054930558054092	2.6268566	1.620758
15.072609840629323	2.6262321	1.6205654
15.090289484062351	2.7489107	1.6579839
15.107969488796124	2.9735236	1.7243907
15.125649855273691	3.3617568	1.8335094
15.14333058393817	3.8788054	1.9694684
15.161011675232768	4.940821	2.2227957
15.17869312960076	6.3615937	2.52222
15.196374947485506	8.383604	2.8954453
15.214057129330447	11.624246	3.4094348
15.231739675579114	16.556965	4.069025
15.249422586675102	21.832197	4.6724935
15.267105863062092	24.987679	4.998768
15.284789505183847	25.186497	5.0186152
15.302473513484218	23.010767	4.796954
15.320157888407127	19.436579	4.4086933
15.337842630396578	15.042231	3.8784316
15.355527739896656	11.559124	3.399871
15.37321321735153	8.775091	2.9622781
15.39089906320545	6.302061	2.5103905
15.408585277902748	4.750319	2.1795228
15.42627186188783	3.7064147	1.9252051
15.443958815605198	3.170346	1.7805465
15.461646139499424	2.8377848	1.6845726
15.479333834015168	2.685191	1.6386552
15.497021899597165	2.6347275	1.6231843
15.514710336690234	2.6082516	1.6150082
15.53239914573928	2.5453544	1.5954167
15.550088327189297	2.4844227	1.5762051
15.567777881485336	2.4630024	1.5693955
15.58546780907256	2.4441905	1.5633907
15.6031581103962	2.4717498	1.5721799
15.620848785901568	2.4575007	1.5676417
15.638539836034063	2.4360437	1.560783
15.656231261239173	2.4189289	1.5552906
15.673923061962451	2.389031	1.545649
15.691615238649552	2.4053652	1.550924
15.709307791746202	2.3797617	1.5426476
15.727000721698221	2.35643	1.5350668
15.744694028951498	2.340248	1.529787
15.76238771395202	2.3505216	1.5331411
15.780081777145844	2.372418	1.5402656
15.797776218979125	2.3535938	1.5341427
15.815471039898094	2.3465827	1.531856
15.833166240349064	2.3409178	1.5300058
15.850861820778437	2.3658671	1.5381376
15.868557781632699	2.3676503	1.538717
15.886254123358412	2.3964124	1.548035
15.903950846402232	2.3888016	1.5455748
15.921647951210897	2.3698888	1.5394443
15.939345438231225	2.3757756	1.5413551
15.957043307910133	2.376989	1.5417486
15.974741560694602	2.4188879	1.5552775
15.992440197031714	2.4329748	1.5597996
16.01013921736862	2.4401195	1.5620881
16.02783862215259	2.4374988	1.5612491
16.045538411830933	2.4069188	1.5514247
16.06323858685107	2.4290848	1.5585521
16.080939147660512	2.4173384	1.5547792
16.09864009470684	2.4005241	1.5493625
16.11634142843774	2.3273575	1.5255679
16.134043149300954	2.297267	1.5156738
16.15174525774433	2.2894123	1.5130804
16.169447754215817	2.318487	1.5226579
16.18715063916342	2.345033	1.53135
16.204853913035244	2.3888175	1.54558
16.222557576279478	2.428312	1.5583042
16.240261629344403	22.468363	4.7400804
16.257966072678386	42.988476	6.5565596
16.275670906729868	38.10331	6.1727877
16.293376131947387	2.4952428	1.5796337
16.31108174877957	2.486939	1.5770031
16.328787757675133	2.495377	1.5796763
16.34649415908287	2.5636249	1.6011324
16.364200953451657	2.6081405	1.6149738
16.38190814123048	2.6108334	1.6158073
16.39961572286839	2.6168547	1.6176695
16.41732369881455	2.607215	1.6146872
16.43503206951817	2.630986	1.6220315
16.45274083542859	2.6638997	1.6321458
16.47044999699522	2.707404	1.6454191
16.488159554667558	2.760088	1.6613512
16.505869508895184	2.822495	1.6800283
16.523579860127786	2.856052	1.6899858
16.541290608815117	2.902258	1.7036015
16.559001755407035	2.943198	1.7155751
16.57671330035348	3.0209422	1.7380857
16.59442524410448	3.065778	1.7509363
16.61213758711015	3.1719973	1.7810102
16.629850329820705	3.2584262	1.8051112
16.647563472686436	3.3461635	1.8292521
16.665277016157724	3.388767	1.8408604
16.682990960685053	3.4107916	1.8468329
16.70070530671898	3.3932273	1.8420715
16.718420054710155	3.421246	1.8496611
16.736135205109335	3.4483397	1.8569705
16.753850758367335	3.5465713	1.8832343
16.771566714935087	3.6568887	1.9122993
16.789283075263597	3.7344875	1.9324822
16.80699983980398	3.8056993	1.9508202
16.82471700900741	3.8260825	1.9560374
16.84243458332518	3.8837159	1.9707146
16.860152563208665	3.9266875	1.981587
16.87787094910932	3.97918	1.9947883
16.89558974147871	4.0455565	2.0113568
16.913308940768466	4.109222	2.0271215
16.931028547430333	4.1676064	2.0414717
16.94874856191613	4.208812	2.051539
16.966468984677785	4.2611527	2.064256
16.98418981616729	4.346232	2.0847619
17.00191105683676	4.405176	2.0988512
17.019632707138374	4.4658027	2.1132445
17.03735476752442	4.4964223	2.120477
17.05507723844728	4.501559	2.1216877
17.072800120359403	4.5178447	2.1255221
17.090523413713353	4.558281	2.135013
17.108247118961785	4.601418	2.1450915
17.125971236557437	4.6199083	2.1493971
17.143695766953133	4.646556	2.1555872
17.161420710601806	4.637759	2.1535456
17.179146067956477	4.594902	2.1435723
17.19687183947025	4.5861893	2.141539
17.21459802559634	4.60598	2.1461546
17.232324626788028	4.6264563	2.15092
17.25005164349871	4.6340213	2.1526778
17.267779076181863	4.624493	2.1504636
17.285506925291074	4.5868783	2.1416998
17.30323519127999	4.503531	2.1221523
17.320963874602384	4.4833217	2.1173856
17.33869297571211	4.49384	2.119868
17.356422495063114	4.503569	2.1221614
17.37415243310944	4.4965672	2.120511
17.391882790305218	4.4377093	2.1065872
17.40961356710468	4.448045	2.1090388
17.42734476396215	4.4941206	2.119934
17.445076381332044	4.5396333	2.1306415
17.462808419668868	4.603722	2.1456287
17.48054087942723	4.681974	2.163787
17.498273761061835	4.960341	2.2271824
17.51600706502747	5.42645	2.3294742
17.533740791779024	6.1299314	2.47587
17.551474941771485	7.685787	2.7723253
17.56920951545993	8.878225	2.979635
17.586944513299528	11.358846	3.3702886
17.60467993574556	13.2222	3.6362343
17.622415783253373	15.03832	3.8779273
17.64015205627843	16.481155	4.059699
17.657888755276293	17.619923	4.197609
17.675625880702604	18.150091	4.2602925
17.69336343301311	17.990559	4.241528
17.71110141266366	17.149092	4.141146
17.728839820110178	16.252266	4.0314097
17.746578655808705	15.229616	3.902514
17.764317920215372	13.446399	3.666933
17.7820576137864	11.591503	3.4046297
17.79979773697811	9.293588	3.0485387
17.81753829024692	7.2522297	2.6929965
17.835279274049356	5.537713	2.3532345
17.85302068884201	4.5625677	2.1360168
17.870762535081607	4.008491	2.0021217
17.888504813224934	3.7668772	1.9408444
17.90624752372891	3.6457982	1.9093974
17.923990667050536	3.5568814	1.8859696
17.941734243646895	3.4737356	1.863796
17.959478253975185	3.4515316	1.8578298
17.9772226984927	3.4623072	1.8607275
17.994967577656833	3.4554987	1.8588972
18.01271289192506	3.4306922	1.8522128
18.030458641754965	3.3913863	1.8415717
18.04820482760425	3.3255835	1.8236182
18.06595144993067	3.2549613	1.804151
18.083698509192125	3.2187831	1.7940967
18.101446005846576	3.2007177	1.789055
18.119193940352105	3.1726825	1.7812026
18.136942313166887	3.1506417	1.7750047
18.1546911247492	3.1154995	1.7650777
18.1724403755574	3.0679746	1.7515634
18.19019006604997	3.0431156	1.7444528
18.207940196685467	3.0459166	1.7452555
18.225690767922575	3.0288732	1.7403659
18.243441780220046	3.051191	1.7467659
18.261193234036764	3.0236611	1.7388678
18.278945129831676	3.0375962	1.7428701
18.29669746806386	3.0399973	1.7435588
18.314450249192483	3.0551262	1.7478919
18.3322034736768	3.0147917	1.7363156
18.349957141976184	3.0357127	1.7423297
18.3677112545501	3.0641966	1.7504847
18.385465811858108	3.0683625	1.7516742
18.403220814359884	3.0489902	1.7461358
18.420976262515172	3.0566072	1.7483156
18.43873215678387	3.076894	1.7541077
18.456488497625923	3.104299	1.7619021
18.474245285501407	3.1699553	1.7804369
18.492002520870486	3.2806456	1.8112552
18.50976020419343	3.394207	1.8423374
18.527518335930615	3.6682694	1.9152727
18.545276916542516	4.2017055	2.049806
18.563035946489688	4.335115	2.082094
18.580795426232832	4.7209806	2.1727817
18.598555356232698	4.677578	2.162771
18.616315736950185	4.976011	2.2306974
18.63407656884626	4.6184373	2.149055
18.65183785238201	4.7824764	2.1868873
18.669599588018617	4.587604	2.1418693
18.68736177621737	4.6281037	2.1513028
18.705124417439652	4.617367	2.1488059
18.72288751214696	4.416228	2.1014824
18.740651060800886	4.477975	2.1161227
18.758415063863115	4.152727	2.0378242
18.77617952179546	4.284882	2.0699956
18.793944435059814	4.085251	2.0212004
18.811709804118184	4.0624795	2.0155594
18.829475629432675	4.0634737	2.015806
18.8472419114655	3.8922384	1.9728757
18.86500865067897	3.9945831	1.9986453
18.88277584753551	3.6647928	1.9143648
18.90054350249763	3.6984296	1.9231302
18.918311616027957	3.3831563	1.8393358
18.936080188589226	3.3028393	1.8173715
18.953849220644265	3.015685	1.7365727
18.971618712656007	2.8878462	1.6993665
18.9893886650875	2.8652668	1.6927099
19.007159078401887	8.025467	2.8329256
19.024929953062408	32.85496	5.7319245
19.042701289532435	32.82259	5.7291
19.060473088275405	25.421148	5.041939
19.07824534975489	2.674659	1.6354384
19.096018074434568	2.6287768	1.6213503
19.113791262778197	2.6029582	1.6133686
19.13156491524966	2.6193793	1.6184497
19.149339032312945	2.5975108	1.6116796
19.167113614432136	2.5549707	1.5984275
19.184888662071433	2.5239809	1.5887041
19.202664175695123	2.4977696	1.5804334
19.220440155767623	2.4858792	1.5766671
19.238216602753447	2.4780138	1.5741708
19.2559935171172	2.4973416	1.580298
19.27377089932361	2.4971406	1.5802344
19.291548749837514	2.537899	1.5930785
19.309327069123835	2.5359678	1.5924722
19.32710585764763	2.5076377	1.5835522
19.344885115874032	2.4795454	1.5746572
19.362664844268313	2.5234158	1.5885262
19.380445043295822	2.5311112	1.5909467
19.39822571342203	2.5457287	1.595534
19.41600685511252	2.5232165	1.5884635
19.43378846883297	2.5071657	1.5834032
19.451570555049173	2.5174854	1.5866586
19.469353114227037	2.5479822	1.59624
19.48713614683254	2.5408325	1.5939989
19.50491965333182	2.4716353	1.5721436
19.52270363419109	2.4418218	1.5626329
19.540488089876686	2.417814	1.5549321
19.55827302085503	2.439654	1.5619392
19.576058427592674	2.4564583	1.5673093
19.593844310556282	2.4799	1.5747697
19.611630670212598	2.4569397	1.5674628
19.629417507028506	2.4416692	1.5625842
19.64720482147098	2.4374852	1.5612447
19.6649926140071	2.4469395	1.5642697
19.682780885104084	2.4735453	1.5727509
19.70056963522921	2.470653	1.5718311
19.718358864849908	2.479303	1.5745802
19.7361485744337	2.4808605	1.5750748
19.753938764448215	2.4831097	1.5757886
19.771729435361202	2.4950364	1.5795684
19.789520587640506	2.50958	1.5841653
19.807312221754092	2.521023	1.587773
19.825104338170043	2.5070941	1.5833806
19.842896937356517	2.499245	1.5809001
19.860690019781824	2.5084064	1.583795
19.87848358591436	2.484108	1.5761054
19.896277636222635	2.4658868	1.5703143
19.914072171175278	2.4592292	1.568193
19.931867191241015	2.447381	1.5644108
19.94966269688869	2.4118614	1.5530169
19.967458688587264	2.4158108	1.5542879
19.985255166805807	2.449718	1.5651575
20.00305213201348	2.4530666	1.5662268
20.020849584679578	2.4272692	1.5579696
20.038647525273507	2.4125843	1.5532496
20.05644595426477	2.4163098	1.5544484
20.07424487212299	2.4385996	1.5616016
20.092044279317903	2.431367	1.5592841
20.109844176319353	2.4292195	1.5585953
20.127644563597304	2.3920195	1.5466155
20.145445441621817	2.4063637	1.5512458
20.16324681086307	2.4130573	1.5534018
20.181048671791373	2.4206967	1.5558589
20.198851024877122	2.3957918	1.5478345
20.216653870590836	2.3758714	1.5413862
20.234457209403146	2.3645782	1.5377185
20.252261041784802	2.3578978	1.5355448
20.270065368206662	2.309862	1.519823
20.287870189139685	2.2727373	1.50756
20.305675505054968	2.267707	1.5058908
20.323481316423702	2.2909443	1.5135866
20.341287623717207	2.323655	1.524354
20.359094427406884	2.2962	1.5153217
20.376901727964288	2.2582757	1.502756
20.39470952586107	2.2591052	1.503032
20.41251782156899	2.2873502	1.5123988
20.430326615559935	2.3083456	1.5193241
20.448135908305886	2.3180344	1.5225092
20.465945700278965	2.3536565	1.5341631
20.483755991951384	2.3574922	1.5354127
20.50156678379548	2.360208	1.5362968
20.519378076283708	2.35104	1.53331
20.537189869888635	2.350402	1.5331022
20.55500216508294	2.3579106	1.5355489
20.572814962339415	2.3131356	1.5208997
20.59062826213098	2.2713091	1.5070863
20.60844206493066	2.2634747	1.5044849
20.626256371211593	2.3033955	1.5176941
20.644071181447032	2.3188944	1.5227916
20.66188649611036	2.30635	1.5186672
20.67970231567506	2.2848825	1.5115829
20.697518640614742	2.276874	1.5089314
20.715335471403122	2.2857473	1.5118688
20.73315280851404	2.274461	1.5081316
20.750970652421447	2.2263982	1.492112
20.768789003599412	2.237407	1.4957964
20.786607862522136	2.2498362	1.4999454
20.8044272296639	2.242114	1.497369
20.82224710549913	2.253872	1.5012901
20.84006749050237	2.2757053	1.5085441
20.857888385148268	3.8299165	1.9570172
20.8757097899116	45.904877	6.775314
20.893531705267254	64.77688	8.0484085
20.911354131690224	83.83275	9.156022
20.92917706965566	69.077934	8.311314
20.94700051963877	50.069176	7.075958
20.96482448211493	29.306572	5.4135547
20.982648957559622	4.05014	2.012496
21.00047394644843	2.1815565	1.4770093
21.01829944925707	2.2341325	1.4947015
21.036125466461375	2.2442665	1.4980876
21.053951998537297	2.2214158	1.4904414
21.071779045960906	2.212992	1.4876128
21.089606609208378	2.2121332	1.4873241
21.10743468875603	2.2083259	1.4860437
21.12526328508028	2.1818354	1.4771037
21.143092398657675	2.188231	1.479267
21.16092202996488	2.184166	1.4778924
21.17875217947867	2.197124	1.4822699
21.19658284767596	2.1637611	1.4709729
21.21441403503377	2.1369472	1.46183
21.232245742029225	2.1162474	1.4547328
21.2500779691396	2.1545432	1.4678363
21.26791071684227	2.1581762	1.4690733
21.28574398561475	2.163757	1.4709715
21.30357777593465	2.1809745	1.4768122
21.321412088279704	2.1954083	1.481691
21.339246923127792	2.165316	1.4715014
21.357082280956888	2.105985	1.4512012
21.3749181622451	2.0588994	1.4348866
21.392754567470647	2.0537503	1.4330912
21.41059149711187	2.1029704	1.4501622
21.42842895164726	2.129344	1.4592272
21.446266931555378	2.1424525	1.4637119
21.464105437314945	2.1143992	1.4540974
21.481944469404798	2.1200113	1.4560258
21.49978402830388	2.137923	1.4621638
21.51762411449127	2.106307	1.4513122
21.53546472844617	2.0703878	1.4388843
21.553305870647876	2.04582	1.4303217
21.571147541575865	2.0642188	1.436739
21.58898974170967	2.06328	1.4364122
21.60683247152899	2.0488267	1.4313723
21.62467573151363	2.020256	1.4213572
21.642519522143523	2.00167	1.4148039
21.660363843898722	2.002052	1.4149389
21.6782086972594	2.0398912	1.4282476
21.696054082705864	2.0733867	1.4399259
21.713900000718535	2.0726218	1.4396603
21.73174645177795	2.079559	1.4420676
21.749593436364794	2.035696	1.4267782
21.767440954959845	2.0257275	1.4232806
21.785289008044032	1.9893496	1.4104431
21.803137596098388	1.9947118	1.4123427
21.820986719604086	1.9836437	1.4084189
21.838836379042412	1.977767	1.4063311
21.85668657489478	1.9607023	1.4002508
21.87453730764273	1.932046	1.3899806
21.892388577767914	1.9499967	1.3964229
21.91024038575213	1.9955245	1.4126303
21.928092732077285	2.0392644	1.4280281
21.945945617225426	2.036171	1.4269446
21.963799041678694	2.0032601	1.4153657
21.981653005919398	31.262774	5.5913124
21.999507510429943	78.02822	8.833359
22.01736255569286	72.98631	8.543202
22.035218142190818	4.1143765	2.0283926
22.05307427040661	1.9458338	1.3949314
22.07093094082315	1.9494225	1.3962172
22.088788153923474	1.9294348	1.389041
22.106645910190746	1.9226702	1.3866038
22.12450421010827	1.9356416	1.3912734
22.142363054159464	1.9924566	1.4115441
22.16022244282787	2.015099	1.4195418
22.178082376597164	2.023032	1.4223332
22.195942855951145	2.0356114	1.4267485
22.213803881373742	1.9991086	1.4138983
22.231665453349002	1.9676881	1.4027431
22.24952757236111	1.9450799	1.3946612
22.26739023889438	1.975053	1.4053658
22.28525345343323	1.9752933	1.4054513
22.30311721646225	1.9690043	1.4032121
22.320981528466113	1.9671398	1.4025476
22.33884638992964	1.9704856	1.4037398
22.356711801337788	1.9521929	1.3972089
22.37457776317561	1.9491603	1.3961233
22.392444275928337	1.9595555	1.3998412
22.410311340081282	1.9550841	1.3982432
22.428178956119904	1.9204404	1.3857995
22.446047124529805	1.9258453	1.3877482
22.46391584579669	1.938229	1.392203
22.481785120406414	1.950842	1.3967254
22.49965494884496	1.9455494	1.3948295
22.51752533159841	1.9514613	1.3969471
22.53539626915302	1.9269828	1.3881581
22.553267761995137	1.9109089	1.3823563
22.571139810611264	1.901852	1.3790765
22.589012415488025	1.9148293	1.3837736
22.60688557711216	1.9287283	1.3887867
22.624759295970566	1.9387381	1.3923857
22.642633572550263	1.9280993	1.3885602
22.660508407338362	1.9315413	1.389799
22.67838380082217	1.9141086	1.3835131
22.696259753489077	1.953559	1.3976978
22.714136265826614	1.9588482	1.3995886
22.73201333832246	1.9234709	1.3868926
22.74989097146439	1.8721738	1.368274
22.76776916574035	1.8773311	1.3701574
22.785647921638393	1.9124465	1.3829123
22.803527239646712	1.946102	1.3950276
22.82140712025363	1.9557927	1.3984966
22.839287563947593	1.8979783	1.3776714
22.85716857121719	1.8674694	1.3665539
22.875050142551135	1.8649225	1.3656217
22.892932278438277	1.8854138	1.3731037
22.910814979367604	1.8866075	1.3735384
22.928698245828222	1.9062543	1.3806717
22.946582078309387	1.8962188	1.3770326
22.96446647730047	1.8820937	1.3718942
22.98235144329098	1.9018027	1.3790586
23.000236976770562	1.9382296	1.3922031
23.018123078229	1.9599271	1.399974
23.03600974815619	1.9503766	1.3965589
23.053896987042194	1.9167775	1.3844774
23.071784795377173	1.9118878	1.3827103
23.08967317365145	1.9636973	1.4013199
23.10756212235546	1.9670272	1.4025074
23.125451641979787	1.9547501	1.3981237
23.143341733015134	1.9055325	1.3804103
23.161232395952357	1.9005295	1.3785969
23.179123631282426	1.8861423	1.373369
23.197015439496468	1.9145623	1.3836771
23.214907821085717	1.9277142	1.3884215
23.23280077654157	1.9327831	1.3902457
23.250694306355538	1.9123065	1.3828617
23.268588411019277	1.9218773	1.3863178
23.28648309102458	1.9036689	1.3797351
23.304378346863356	1.8853451	1.3730787
23.322274179027676	1.901427	1.3789225
23.340170588009723	1.9261713	1.3878658
23.358067574301852	1.9740832	1.4050207
23.37596513839651	1.9594772	1.3998133
23.39386328078629	1.9390285	1.39249
23.411762001963947	1.90838	1.3814412
23.429661302422353	1.9152191	1.3839144
23.4475611826545	1.915936	1.3841734
23.46546164315356	1.9266762	1.3880476
23.48336268441279	1.9186642	1.3851585
23.501264306925638	1.9279537	1.3885077
23.51916651118564	1.901577	1.3789768
23.537069297686497	1.9060975	1.3806149
23.554972666922037	1.9506781	1.3966668
23.57287661938623	1.9104617	1.3821945
23.59078115557318	1.9099363	1.3820045
23.608686275977128	1.8821919	1.37193
23.62659198109246	1.9022112	1.3792068
23.6444982714137	1.8631387	1.3649684
23.66240514743549	1.8531044	1.3612877
23.68031260965263	1.8642453	1.3653737
23.698220658560068	1.9146254	1.3836999
23.716129294652845	1.9350976	1.3910779
23.7340385184262	1.937859	1.39207
23.75194833037546	1.9131874	1.3831801
23.769858730996123	1.8985325	1.3778725
23.78776972078382	1.8824522	1.3720249
23.80568130023431	1.8723478	1.3683376
23.823593469843495	1.8465627	1.3588829
23.841506230107424	1.8349785	1.3546138
23.859419581522275	1.8700755	1.367507
23.87733352458438	1.8960047	1.3769549
23.89524805979019	1.8813854	1.371636
23.913163187636318	1.8919597	1.3754853
23.931078908619508	1.9310746	1.3896312
23.948995223236633	1.964501	1.4016066
23.966912131984735	1.9595239	1.39983
23.98482963536096	1.9797508	1.4070362
24.002747733862616	2.0049775	1.4159722
24.020666427987155	2.0366514	1.4271129
24.038585718232156	2.0368094	1.4271684
24.056505605095353	2.0146163	1.4193717
24.074426089074617	2.0421023	1.4290215
24.092347170667946	2.0710297	1.4391073
24.110268850373515	2.076877	1.4411374
24.128191128689586	2.0622315	1.4360472
24.146114006114626	2.0265164	1.4235576
24.164037483147187	2.0681784	1.4381163
24.181961560286005	2.1157286	1.4545544
24.199886238029926	2.1267831	1.4583495
24.21781151687797	2.0956569	1.4476384
24.235737397329274	2.0594912	1.4350927
24.253663879883135	2.0184834	1.4207335
24.271590965038975	2.0244467	1.4228306
24.289518653296376	2.0148928	1.4194692
24.30744694515505	2.0197232	1.4211696
24.32537584111486	1.9756848	1.4055905
24.34330534167581	1.9706656	1.403804
24.361235447338046	1.9588474	1.3995883
24.379166158601876	1.9804107	1.4072707
24.39709747596772	1.9843047	1.4086535
24.41502939993615	1.9878447	1.4099095
24.432961931007917	1.9660784	1.4021692
24.450895069683856	1.9544213	1.3980062
24.468828816465	1.9595217	1.3998291
24.4867631718525	1.940751	1.3931084
24.504698136347656	1.9395278	1.3926693
24.52263371045192	1.950517	1.3966092
24.540569894666874	1.9762775	1.4058014
24.558506689494266	1.9730633	1.4046577
24.57644409543597	1.9562309	1.3986533
24.594382112994012	1.9368397	1.3917038
24.61232074267057	1.9265035	1.3879855
24.630259984967953	1.9307536	1.3895156
24.64819984038863	1.962859	1.4010208
24.66614030943522	2.0032842	1.4153743
24.684081392610462	1.9723114	1.4043901
24.702023090417274	1.9292256	1.3889656
24.7199654033587	1.9233099	1.3868345
24.737908331937927	1.9407059	1.3930922
24.755851876658305	1.9660538	1.4021604
24.773796038023324	1.9993587	1.4139868
24.79174081653661	2.0432024	1.4294063
24.809686212701962	2.066693	1.4375998
24.827632227023294	2.0699093	1.438718
24.8455788600047	2.0567627	1.4341418
24.8635261121504	2.0945878	1.4472691
24.88147398396475	2.088136	1.4450384
24.899422475952303	2.098973	1.4487833
24.917371588617698	2.119682	1.4559128
24.935321322465768	2.2508128	1.5002708
24.953271678001478	2.40601	1.5511318
24.97122265572994	2.6140869	1.6168138
24.989174256156414	2.962428	1.7211705
25.00712647978632	3.4063861	1.8456397
25.02507932712521	3.9729633	1.9932294
25.043032798678798	4.558337	2.1350262
25.060986894952933	5.3237324	2.3073215
25.078941616453637	6.150232	2.4799662
25.096896963687055	7.224371	2.687819
25.114852937159508	8.332348	2.8865807
25.132809537377444	8.672145	2.9448507
25.150766764847468	8.439152	2.905022
25.168724620076347	7.615665	2.7596495
25.186683103570985	6.4400434	2.537724
25.204642215838426	5.250733	2.2914479
25.222601957385894	3.9689736	1.9922283
25.24056232872074	3.0274556	1.7399585
25.25852333035048	2.4784029	1.5742944
25.276484962782778	2.1236925	1.4572895
25.294447226525435	2.0352993	1.4266392
25.312410122086423	2.0206304	1.4214888
25.330373649973843	1.9800873	1.4071558
25.348337810695988	1.9027673	1.3794084
25.366302604761245	1.9025165	1.3793174
25.384268032678207	1.8978806	1.3776358
25.40223409495558	1.89132	1.3752527
25.420200792102257	1.9060334	1.3805916
25.438168124627246	1.871282	1.367948
25.45613609303974	1.8663826	1.3661561
25.474104697849057	1.8812473	1.3715857
25.492073939564698	1.9096261	1.3818922
25.510043818696285	1.8755964	1.3695241
25.528014335753614	1.822072	1.3498415
25.54598549124664	1.8189926	1.3487003
25.56395728568544	1.8251876	1.3509951
25.58192971958028	1.8374293	1.3555181
25.59990279344156	1.8190606	1.3487256
25.617876507779833	1.806744	1.3441517
25.635850863105826	1.8137926	1.3467711
25.653825859930386	1.8393723	1.3562346
25.671801498764548	1.8242352	1.3506426
25.68977778011949	1.8223945	1.3499609
25.707754704506524	1.8253437	1.3510529
25.725732272437153	1.8595737	1.3636619
25.743710484423012	1.8540502	1.3616351
25.761689340975888	1.8123008	1.3462173
25.77966884260774	1.8363402	1.3551162
25.797648989830662	1.836577	1.3552037
25.815629783156922	1.8518384	1.3608227
25.83361122309895	1.8473928	1.3591883
25.85159331016929	1.8782895	1.370507
25.869576044880695	1.8766543	1.3699104
25.887559427746034	1.8925819	1.3757114
25.90554345927836	1.9292859	1.3889873
25.92352813999086	1.9172376	1.3846436
25.94151347039689	1.8871642	1.3737409
25.959499451009965	1.9004973	1.3785852
25.97748608234374	1.9113748	1.3825248
25.995473364912062	1.878574	1.3706108
26.013461299228904	1.8427081	1.3574638
26.03144988580839	1.8193978	1.3488506
26.04943912516483	1.8183757	1.3484716
26.067429017812675	1.8126613	1.3463511
26.085419564266537	1.7839154	1.3356329
26.103410765041186	1.7804152	1.334322
26.12140262065155	1.7965978	1.3403723
26.139395131612723	1.8336443	1.3541212
26.157388298439948	1.8349224	1.354593
26.17538212164861	1.8594061	1.3636004
26.193376601754295	1.8414494	1.3570001
26.211371739272714	1.8377448	1.3556345
26.229367534719746	1.8427043	1.3574624
26.247363988611433	1.8404195	1.3566207
26.26536110146397	1.8470242	1.3590527
26.283358873793727	1.8928958	1.3758255
26.301357306117204	1.8888083	1.3743392
26.319356398951104	1.8449063	1.3582733
26.33735615281224	1.8205328	1.3492712
26.35535656821762	1.8227568	1.3500952
26.373357645684404	1.813559	1.3466845
26.39135938572991	1.8049543	1.3434858
26.409361788871614	1.7994502	1.3414359
26.427364855627165	1.7839214	1.3356352
26.445368586514352	1.8154013	1.3473682
26.46337298205115	1.7977657	1.3408079
26.48137804275568	1.7824289	1.3350763
26.499383769146217	1.766447	1.3290775
26.517390161741215	1.7546756	1.3246417
26.53539722105928	1.7919483	1.3386368
26.553404947619182	1.8248901	1.3508849
26.571413341939856	1.7807609	1.3344516
26.589422404540397	1.7218032	1.312175
26.60743213594006	1.7361914	1.3176461
26.62544253665827	1.774576	1.3321321
26.64345360721459	1.823691	1.3504411
26.66146534812879	1.8471235	1.3590893
26.679477759920758	1.827626	1.3518972
26.69749084311057	1.775706	1.3325562
26.71550459821847	1.74454	1.3208103
26.733519025764842	1.7808937	1.3345013
26.751534126270258	1.8094232	1.345148
26.769549900255434	1.7976127	1.3407508
26.787566348241267	1.7790065	1.333794
26.80558347074881	1.8038263	1.343066
26.823601268299267	1.8130624	1.3465
26.841619741414036	1.8149612	1.3472049
26.85963889061465	1.8003315	1.3417643
26.877658716422832	1.8085518	1.3448241
26.89567921936045	1.8054633	1.3436753
26.913700399949544	1.7616936	1.327288
26.93172225871233	1.7466261	1.3215998
26.949744796171174	1.8126609	1.346351
26.967768012848605	1.8547846	1.3619047
26.98579190926733	1.8768426	1.369979
27.003816485950225	1.8422531	1.3572962
27.021841743420318	1.7999839	1.3416348
27.039867682200814	1.8066026	1.3440992
27.057894302815072	1.8572866	1.362823
27.07592160578664	1.8579682	1.3630731
27.0939495916392	1.8318918	1.353474
27.111978260896635	1.7599285	1.326623
27.13000761408296	1.7744161	1.3320721
27.148037651722397	1.8018273	1.3423216
27.166068374339304	1.8043541	1.3432624
27.184099782458215	1.7929126	1.3389969
27.20213187660384	1.7758105	1.3325953
27.22016465730105	1.7844446	1.335831
27.23819812507487	1.8683069	1.3668603
27.256232280450533	1.8409094	1.3568012
27.274267123953383	1.8115332	1.3459321
27.292302656108987	1.7920734	1.3386835
27.31033887744306	1.7895133	1.337727
27.32837578848146	1.7953302	1.3398993
27.34641338975026	1.7917972	1.3385803
27.364451681775673	1.843726	1.3578387
27.382490665084074	1.8675681	1.36659
27.400530340202046	1.8383108	1.3558432
27.41857070765629	1.793073	1.3390567
27.436611767973726	1.8045733	1.3433441
27.454653521681404	1.7907513	1.3381896
27.472695969306564	1.777836	1.3333552
27.490739111376627	1.7908189	1.3382149
27.508782948419153	1.7956923	1.3400345
27.526827480961902	1.7920914	1.3386902
27.54487270953279	1.8119428	1.3460842
27.562918634659898	1.808401	1.344768
27.580965256871508	1.8026011	1.3426098
27.599012576696026	1.803766	1.3430436
27.617060594662068	1.7908139	1.338213
27.63510931129842	1.7818861	1.3348731
27.65315872713401	1.7814822	1.3347218
27.67120884269797	1.8278487	1.3519795
27.68925965851958	1.8719847	1.368205
27.707311175128307	1.9260675	1.3878284
27.725363393053787	1.8905387	1.3749686
27.74341631282583	1.8771142	1.3700782
27.7614699349744	1.8739166	1.3689108
27.77952426002968	2.0397305	1.4281913
27.797579288521973	2.0756233	1.4407023
27.815635020981784	2.3513193	1.5334013
27.83369145793979	2.4085891	1.551963
27.85174859992682	2.3338478	1.5276936
27.869806447473923	2.2442348	1.498077
27.887865001112267	2.0376046	1.4274468
27.905924261373233	1.9725133	1.404462
27.92398422878836	1.9146838	1.383721
27.94204490388936	1.8420788	1.3572321
27.96010628720813	1.8251934	1.3509972
27.978168379276728	1.8911996	1.375209
27.9962311806274	1.89676	1.3772291
28.014294691792568	1.9123873	1.3828909
28.0323589133048	1.9171305	1.3846048
28.050423845696887	1.8487333	1.3596814
28.068489489501758	1.7858787	1.3363677
28.086555845252523	1.8234526	1.3503528
28.104622913482487	1.9032009	1.3795655
28.122690694725115	1.9058603	1.380529
28.14075918951405	1.8650331	1.3656622
28.15882839838312	1.8479894	1.3594078
28.176898321866304	1.8685238	1.3669395
28.1949689604978	1.9208376	1.3859428
28.213040314811945	1.9472872	1.3954524
28.23111238534327	1.9588373	1.3995847
28.249185172626493	1.9822707	1.4079313
28.267258677196473	1.9855736	1.4091039
28.285332899588294	1.909586	1.3818777
28.303407840337172	1.8697126	1.3673743
28.321483499978545	1.8641156	1.3653262
28.33955987904799	1.8602968	1.363927
28.357636978081285	1.9582919	1.3993899
28.37571479761439	2.0024517	1.4150801
28.393793338183425	1.9161521	1.3842515
28.41187260032469	1.8832189	1.3723042
28.429952584574686	1.9173073	1.3846686
28.448033291470065	1.9770352	1.4060708
28.46611472154769	1.9875522	1.4098058
28.484196875344566	1.9909604	1.411014
28.502279753397914	1.983559	1.4083889
28.52036335624511	1.9817675	1.4077526
28.538447684423716	1.9657573	1.4020547
28.556532738471482	1.9526732	1.3973808
28.574618518926325	1.9419998	1.3935565
28.59270502632635	1.9816031	1.4076942
28.61079226120985	2.0290403	1.4244438
28.628880224115274	1.9724737	1.4044478
28.646968915581287	1.9765968	1.4059149
28.66505833614671	2.0554671	1.4336901
28.68314848635055	2.0762062	1.4409046
28.701239366732004	2.055567	1.4337249
28.71933097783044	1.9841425	1.4085959
28.737423320185403	2.0267653	1.4236451
28.75551639433665	2.0595767	1.4351226
28.773610200824074	2.1360207	1.4615132
28.791704740187793	2.1361082	1.4615431
28.80980001296809	2.0782464	1.4416124
28.827896019705413	2.0595627	1.4351176
28.845992760940433	2.092088	1.4464052
28.86409023721397	2.1232157	1.4571258
28.88218844906704	2.1815922	1.4770215
28.900287397040845	2.2435625	1.4978526
28.918387081676755	2.238066	1.4960167
28.936487503516343	2.2577932	1.5025954
28.954588663101365	2.30208	1.5172607
28.97269056097374	2.3061583	1.518604
28.990793197675597	2.3205876	1.5233475
29.00889657374923	2.3662856	1.5382736
29.027000689737125	2.3516707	1.5335158
29.04510554618196	2.3597922	1.5361615
29.06321114362659	2.44441	1.563461
29.08131748261405	2.4497218	1.5651587
29.099424563687567	2.398759	1.5487927
29.11753238739057	2.417021	1.5546771
29.13564095426663	2.4753993	1.5733402
29.15375026485954	2.512274	1.5850154
29.171860319713275	2.5757809	1.604924
29.18997111937199	2.69115	1.6404725
29.20808266438002	2.7545936	1.6596968
29.226194955281898	2.795588	1.6720012
29.244307992622335	2.8316634	1.6827548
29.26242177694624	2.8752763	1.6956639
29.2805363087987	2.8961687	1.7018133
29.29865158872498	2.8841305	1.6982728
29.316767617270557	2.8356538	1.6839399
29.334884394981064	2.8537254	1.6892973
29.353001922402367	2.9534147	1.7185502
29.37112020008047	3.0593343	1.7490953
29.389239228561596	3.1933668	1.7869993
29.407359008392152	3.397721	1.8432908
29.42547954011872	3.866562	1.9663575
29.44360082428809	4.579188	2.1399038
29.46172286144722	5.7443166	2.3967304
29.479845652143283	7.4493675	2.729353
29.497969196923606	9.827768	3.1349273
29.516093496335728	12.670892	3.5596197
29.5342185509274	15.816908	3.9770477
29.55234436124651	18.177961	4.263562
29.570470927841175	19.3714	4.401295
29.588598251259686	18.979914	4.356594
29.60672633205055	17.37938	4.168858
29.624855170762405	14.629759	3.8248868
29.642984767944146	11.5674925	3.4011016
29.66111512414481	8.678341	2.9459023
29.67924623991366	6.318354	2.5136337
29.697378115800138	4.7823153	2.1868505
29.71551075235387	4.021258	2.0053074
29.733644150124675	3.687999	1.9204164
29.751778309662576	3.5373168	1.8807756
29.769913231517766	3.4347186	1.8532994
29.78804891624066	3.4236734	1.8503171
29.806185364381818	3.3689866	1.83548
29.82432257649206	3.277696	1.8104408
29.842460553122333	3.291476	1.8142426
29.86059929482382	3.3322334	1.8254406
29.878738802147872	3.2857025	1.8126507
29.896879075646048	3.2724173	1.8089824
29.915020115870114	3.357351	1.8323076
29.933161923371976	3.3150575	1.82073
29.951304498703777	3.2685547	1.8079145
29.969447842417857	3.2651792	1.8069807
29.987591955066733	3.2043226	1.7900622
30.005736837203123	3.2145016	1.7929032
30.023882489379943	3.1816785	1.783726
30.04202891215028	3.1755838	1.7820168
30.060176106067455	3.1345549	1.7704674
30.078324071684946	3.1726284	1.7811874
30.09647280955646	3.2320712	1.7977962
30.114622320235863	3.1680229	1.7798941
30.132772604277257	3.1028538	1.7614919
30.1509236622349	3.0715759	1.7525911
30.16907549466328	3.1378665	1.7714024
30.18722810211705	3.1336582	1.7702142
30.205381485151097	3.073192	1.7530521
30.22353564432045	3.0791817	1.7547597
30.241690580180403	3.0425928	1.744303
30.25984629328638	3.0005448	1.732208
30.278002784194037	2.943266	1.7155949
30.296160053459246	2.9126282	1.7066424
30.314318101638033	2.9140308	1.7070533
30.332476929286646	2.9106038	1.7060492
30.35063653696153	2.8704746	1.6942475
30.368796925219307	2.86734	1.6933222
30.386958094616844	2.865509	1.6927814
30.40512004571115	2.8215768	1.679755
30.423282779059463	2.8322399	1.6829259
30.441446295219233	2.841317	1.6856207
30.459610594748067	2.8490443	1.6879113
30.47777567820382	2.822543	1.6800425
30.495941546144504	2.8080652	1.6757282
30.51410819912835	2.787235	1.6695014
30.532275637713795	2.738785	1.6549275
30.55044386245946	2.7093875	1.6460217
30.56861287392416	2.78211	1.6679658
30.586782672666956	2.837304	1.6844299
30.604953259247047	2.8273742	1.6814798
30.623124634223885	2.795046	1.6718391
30.641296798157075	2.8075318	1.675569
30.659469751606462	2.8236253	1.6803646
30.677643495132074	2.7930205	1.6712332
30.695818029294152	2.7483857	1.6578256
30.713993354653116	2.6807892	1.6373116
30.73216947176962	2.6551092	1.6294506
30.75034638120448	2.6768837	1.6361185
30.768524083518756	2.7549105	1.6597923
30.786702579273673	2.771029	1.6646408
30.80488186903069	2.84629	1.6870952
30.82306195335144	3.0366352	1.7425944
30.841242832797782	3.3398495	1.8275255
30.85942450793176	3.5841703	1.8931905
30.877606979315637	3.8977823	1.9742802
30.895790247511883	4.33308	2.0816052
30.913974313083134	4.7218294	2.172977
30.932159176592283	4.9047	2.2146556
30.95034483860237	4.868743	2.2065227
30.968531299676698	4.652058	2.156863
30.98671856037873	4.305894	2.075065
31.00490662127215	3.939362	1.9847826
31.023095482920848	3.5289435	1.8785483
31.04128514588892	3.0794048	1.7548233
31.059475610740662	2.7576277	1.6606107
31.07766687804056	2.6242342	1.6199489
31.09585894835335	2.566347	1.6019821
31.11405182224393	2.5237179	1.5886214
31.132245500277417	2.4566283	1.5673635
31.15043998301914	2.4356375	1.5606529
31.168635271034628	2.4037435	1.5504011
31.18683136488964	2.382579	1.5435605
31.20502826515008	2.3871565	1.5450425
31.223225972382135	2.3680396	1.5388436
31.241424487152155	2.3842514	1.5441021
31.259623810026692	2.384893	1.5443099
31.27782394157253	2.4245052	1.5570823
31.296024882356644	2.4009898	1.5495127
31.314226632946237	2.3551712	1.5346568
31.332429193908684	2.3674908	1.5386653
31.350632565811598	2.3428912	1.5306506
31.368836749222787	2.3551154	1.5346385
31.387041744710295	2.3866274	1.5448713
31.40524755284232	2.4518173	1.565828
31.423454174187317	2.5249999	1.5890248
31.441661609313922	2.5630803	1.6009623
31.459869858791002	2.4296095	1.5587205
31.478078923187628	2.2860873	1.5119812
31.496288803073064	2.2909272	1.5135809
31.514499499016807	2.3757982	1.5413624
31.532711011588546	2.4021575	1.5498896
31.550923341358178	2.3191078	1.5228617
31.56913648889584	2.2858748	1.511911
31.587350454771844	2.2958455	1.5152048
31.605565239556732	2.2881808	1.5126734
31.62378084382127	2.2054563	1.4850779
31.641997268136382	2.2196898	1.4898623
31.660214513073274	2.3074934	1.5190436
31.67843257920331	2.3687968	1.5390896
31.6966514670981	2.3306139	1.5266348
31.71487117732944	2.2505655	1.5001885
31.733091710469346	2.1996477	1.4831209
31.751313067090052	2.1913621	1.480325
31.769535247764008	2.202793	1.4841809
31.787758253063878	2.2362814	1.4954201
31.805982083562526	2.3057456	1.5184681
31.824206739833024	2.200045	1.4832549
31.84243222244869	2.192561	1.4807298
31.860658531983013	2.2236862	1.491203
31.878885669009737	2.3310432	1.5267755
31.897113634102784	2.3440197	1.5310192
31.91534242783632	2.2275941	1.4925127
31.933572050784694	2.1634	1.4708501
31.951802503522508	2.1415632	1.4634081
31.970033786624548	2.1392415	1.4626147
31.988265900665834	2.1217103	1.4566091
32.006498846221575	2.0725243	1.4396265
32.02473262386724	2.1305597	1.4596437
32.04296723417845	2.174069	1.4744724
32.0612026777311	2.188096	1.4792215
32.07943895510129	2.2113786	1.4870704
32.097676066865304	2.1799638	1.4764701
32.115914013599685	2.1249094	1.4577069
32.13415279588115	2.153398	1.4674461
32.152392414286666	2.1555297	1.4681722
32.1706328693934	2.147094	1.4652965
32.18887416177875	2.2511392	1.5003797
32.20711629202032	2.243631	1.4978755
32.225359260695924	2.1575646	1.468865
32.243603068383614	2.0620635	1.4359887
32.26184771566166	2.0720801	1.4394722
32.28009320310852	2.141412	1.4633564
32.2983395313029	2.1529374	1.4672891
32.31658670082372	2.1506069	1.4664948
32.33483471225012	2.1286125	1.4589765
32.35308356616143	2.1100674	1.452607
32.371333263137245	2.0798492	1.4421682
32.38958380375734	2.0861568	1.4443535
32.407835188601744	2.0621266	1.4360107
32.42608741825067	1.9742631	1.4050847
32.444340493284585	1.9071527	1.380997
32.46259441428416	1.9527645	1.3974135
32.48084918183028	2.0244153	1.4228195
32.49910479650405	2.0360074	1.4268873
32.51736125888683	2.0018783	1.4148774
32.53561856956014	1.9508755	1.3967375
32.5538767291058	1.9364302	1.3915567
32.572135738105764	1.9371166	1.3918034
32.59039559714228	2.0480072	1.4310861
32.608656306797776	2.1618714	1.4703304
32.62691786765491	2.2330606	1.4943429
32.645180280296586	2.0958717	1.4477125
32.663443545305896	1.9581501	1.3993392
32.68170766326619	1.9997233	1.4141158
32.69997263476099	2.072218	1.43952
32.7182384603741	2.0708287	1.4390374
32.7365051406895	2.0573008	1.4343294
32.75477267629144	2.0079737	1.4170299
32.77304106776434	2.0565367	1.434063
32.79131031569289	2.043863	1.4296374
32.809580420661966	1.9485123	1.3958912
32.827851383256714	1.8751862	1.3693744
32.84612320406245	1.835284	1.3547266
32.86439588366476	1.9216634	1.3862407
32.88266942264945	2.0541282	1.433223
32.9009438216025	2.0263288	1.4234917
32.9192190811102	1.9352262	1.3911241
32.937495201758985	1.92422	1.3871626
32.95577218413556	1.9249574	1.3874283
32.974050028826866	1.9694253	1.4033622
32.992328736420035	1.999807	1.4141454
33.010608307502444	2.0858545	1.4442488
33.02888874266169	2.0813863	1.4427011
33.047170042485604	2.0151963	1.419576
33.06545220756225	1.9515274	1.3969707
33.083735238479896	1.902486	1.3793063
33.10201913582707	1.8267307	1.3515661
33.12030390019248	1.787559	1.3369963
33.138589532165135	1.8373314	1.355482
33.15687603233419	1.8687352	1.3670169
33.17516340128909	1.9276809	1.3884095
33.19345163961947	1.8868376	1.3736221
33.211740747915215	1.9517527	1.3970515
33.23003072676643	2.022528	1.4221561
33.248321576763466	2.0312295	1.4252121
33.266613298496885	1.9621207	1.4007572
33.28490589255747	1.8998133	1.3783371
33.30319935953626	1.943861	1.3942242
33.32149370002451	1.9603039	1.4001086
33.339788914613706	1.9219384	1.3863399
33.358085003895575	1.8855495	1.3731531
33.376381968462034	1.8632978	1.3650267
33.39467980890529	1.897883	1.3776368
33.41297852581774	1.986701	1.4095038
33.43127811979204	2.0135972	1.4190128
33.44957859142105	2.0294971	1.4246042
33.467879941297866	1.9457295	1.3948941
33.486182170015844	1.8192825	1.3488078
33.50448527816853	1.8555479	1.362185
33.522789266349754	1.959271	1.3997396
33.541094135153514	2.0555382	1.4337149
33.55939988517411	2.0182743	1.4206598
33.57770651700602	1.9478835	1.395666
33.59601403124398	1.9392805	1.3925805
33.61432242848296	1.9406346	1.3930666
33.632631709318154	2.049499	1.4316071
33.650941874344994	2.0256162	1.4232414
33.66925292415916	2.0077233	1.4169415
33.68756485935654	1.8876642	1.373923
33.70587768053328	1.9049761	1.3802087
33.724191388285746	1.9207495	1.3859111
33.74250598321054	1.9954863	1.4126168
33.760821465904506	2.0053008	1.4160864
33.77913783696474	1.9320998	1.39
33.79745509698852	1.8999909	1.3784016
33.815773246573414	1.91738	1.3846949
33.8340922863172	1.8932184	1.3759427
33.852412216817896	1.8430548	1.3575915
33.87073303867377	1.8010266	1.3420234
33.889054752483304	1.8935643	1.3760685
33.907377358845245	1.881983	1.3718538
33.92570085835853	1.8244885	1.3507363
33.94402525162239	1.9538292	1.3977944
33.96235053923627	2.0845063	1.443782
33.980676721799824	2.0864177	1.4444437
33.999003799912984	1.9554986	1.3983914
34.01733177417592	1.880776	1.3714138
34.03566064518901	1.9056696	1.3804599
34.0539904135529	1.8990842	1.3780726
34.07232107986846	1.8532257	1.3613323
34.090652644736785	1.7451556	1.3210434
34.108985108759235	1.8460443	1.3586922
34.12731847253742	1.9531035	1.3975348
34.14565273667313	2.068674	1.4382886
34.16398790176847	1.9305077	1.3894271
34.18232396842574	1.8806989	1.3713858
34.20066093724749	1.9320117	1.3899683
34.21899880883651	1.955997	1.3985696
34.23733758379583	1.8415376	1.3570327
34.25567726272874	1.8225013	1.3500005
34.27401784623872	1.8576725	1.3629646
34.29235933492957	1.8763789	1.3698097
34.31070172940526	1.9382625	1.3922149
34.32904503027003	1.8302342	1.3528615
34.347389238128386	1.7061191	1.3061849
34.36573435358502	1.702222	1.3046923
34.38408037724492	1.8000529	1.3416605
34.402427309713296	1.8691959	1.3671854
34.42077515159559	1.8954468	1.3767523
34.43912390349752	1.7788018	1.3337172
34.45747356602499	1.7883909	1.3373073
34.47582413978423	1.9583913	1.3994254
34.49417562538163	1.9862092	1.4093293
34.51252802342388	1.939944	1.3928187
34.53088133451789	1.8495119	1.3599676
34.54923555927084	1.8615373	1.3643817
34.567590698290104	1.8416889	1.3570883
34.58594675218336	1.6775433	1.2952001
34.6043037215585	1.7775085	1.3332324
34.62266160702365	2.0603497	1.4353918
34.641020409187234	2.180447	1.4766337
34.65938012865785	2.2916138	1.5138078
34.677740766044394	2.1816633	1.4770454
34.69610232195598	2.071735	1.4393523
34.714464797002016	1.9570953	1.3989623
34.73282819179208	1.9344075	1.3908298
34.751192506936064	1.9541869	1.3979224
34.76955774304408	1.8258015	1.3512223
34.7879239007265	1.7242774	1.3131174
34.80629098059391	1.7378751	1.3182849
34.824658983257194	1.7405668	1.3193054
34.843027909327446	1.9270132	1.388169
34.86139775941603	1.9497713	1.3963422
34.879768534134534	1.840879	1.35679
34.89814023409483	1.776907	1.3330067
34.91651285990901	2.0446126	1.4298996
34.93488641218944	2.2810626	1.5103188
34.95326089154871	2.2461064	1.4987016
34.97163629859967	2.0095503	1.4175861
34.99001263395542	1.9310913	1.3896371
35.00838989822934	2.0650108	1.4370146
35.02676809203499	2.0845292	1.4437898
35.04514721598624	1.9507788	1.3967029
35.063527270697215	2.0063903	1.4164711
35.081908256782256	2.1535656	1.4675032
35.10029017485597	2.1558964	1.4682971
35.11867302553321	2.1439493	1.4642231
35.137056809429104	2.3310878	1.52679
35.155441527159006	2.3157263	1.521751
35.173827179338524	2.241407	1.4971329
35.19221376658354	2.208964	1.4862584
35.21060128951017	2.1627924	1.4706435
35.2289897487348	2.1795373	1.4763256
35.24737914487405	1.9125823	1.3829614
35.26576947854479	1.7755946	1.3325144
35.28416075036418	1.9743636	1.4051205
35.30255296094958	2.1117928	1.4532009
35.32094611091867	2.128155	1.4588197
35.33934020088932	2.2178793	1.4892546
35.35773523147969	2.2810438	1.5103124
35.3761312033082	2.359172	1.5359597
35.394528116993506	2.1941068	1.4812517
35.41292597315452	1.8986174	1.3779032
35.431324772410434	1.5670387	1.2518141
35.449724515380666	1.8145669	1.3470585
35.46812520268491	2.2329264	1.494298
35.486526834943106	2.0795388	1.4420606
35.504929412775454	1.7010885	1.3042579
35.52333293680242	1.5029876	1.225964
35.54173740764471	1.5544785	1.2467873
35.560142825923286	1.7427146	1.3201191
35.5785491922594	1.8585483	1.3632859
35.59695650727454	2.2607553	1.5035808
35.61536477159042	2.5998158	1.6123945
