0.008763373481513119	0.0	0.0
0.026290120649546365	0.0	0.0
0.043816868432600686	0.060138714	0.24523196
0.06134361724069026	0.08291717	0.2879534
0.07887036748382949	0.13690327	0.37000442
0.0963971195720331	0.15984748	0.3998093
0.11392387391531617	0.13652864	0.36949784
0.1314506309236943	0.12147022	0.3485258
0.1489773910071836	0.084405035	0.29052544
0.16650415457580078	0.040323455	0.200807
0.18403092203956356	0.0687694	0.26223922
0.20155769380849	0.05667059	0.23805586
0.2190844702925996	0.1066898	0.32663405
0.2366112519019124	0.19159696	0.43771788
0.2541380390464497	0.17820434	0.42214257
0.27166483213623416	0.18008734	0.42436698
0.28919163158128947	0.12696266	0.3563182
0.3067184377916406	0.13382235	0.36581737
0.324245251177314	0.17837627	0.42234614
0.34177207214833777	0.16601679	0.40745157
0.3592989011147415	0.17026718	0.41263443
0.37682573848655654	0.17230251	0.4150934
0.39435258467381573	0.17516777	0.4185305
0.41187944008655414	0.18043311	0.4247742
0.42940630513480854	0.16916373	0.4112952
0.446933180228618	0.18933341	0.43512458
0.4644600657780234	0.15296565	0.39110824
0.48198696219306775	0.11783918	0.34327713
0.49951386988379676	0.11587074	0.3403979
0.5170407892602581	0.12583886	0.35473773
0.5345677207325025	0.12115726	0.34807652
0.5520946647105822	0.10947857	0.33087546
0.5696216216045534	0.085364446	0.29217196
0.5871485918244737	0.08208219	0.2864999
0.6046755757804043	0.10673309	0.3267003
0.6222025738824094	0.12936188	0.35966912
0.6397295865405557	0.14524812	0.3811143
0.6572566141649129	0.09551974	0.30906266
0.6747836571655547	0.08880663	0.29800442
0.6923107159525568	0.119146645	0.34517625
0.7098377909359992	0.18499406	0.43010935
0.7273648825259653	0.18109596	0.4255537
0.7448919911325411	0.17180027	0.41448796
0.762419117165817	0.17523606	0.41861206
0.7799462610358868	0.20040347	0.44766447
0.7974734231528482	0.2111477	0.4595081
0.8150006039268024	0.2158696	0.4646177
0.8325278037678551	0.20822757	0.4563196
0.8500550230861152	0.20648323	0.45440426
0.8675822622916969	0.1877533	0.43330508
0.8851095217947171	0.16785632	0.40970272
0.9026368020052984	0.19212332	0.43831876
0.9201641033335665	0.19161358	0.4377369
0.9376914261896523	0.23819444	0.48805168
0.9552187709836915	0.24697804	0.49696887
0.9727461381258234	0.2559028	0.5058684
0.990273528026193	0.25945622	0.5093684
1.0078009410949496	0.26422513	0.5140283
1.0253283777422473	0.3151301	0.56136453
1.0428558383782454	0.33227423	0.57643235
1.0603833234131086	0.31067902	0.55738586
1.0779108332570058	0.31477398	0.5610472
1.0954383683201119	0.3593789	0.5994822
1.112965929012607	0.4661574	0.6827572
1.1304935157446763	0.58365005	0.76396996
1.1480211289265108	0.5974993	0.7729808
1.1655487689683062	1.3691777	1.1701187
1.1830764362802655	1.6703293	1.2924122
1.200604131272596	2.049116	1.4314734
1.2181318543555117	2.3658578	1.5381346
1.235659605939232	2.3876143	1.5451907
1.253187386433982	3.972755	1.993177
1.270715196249994	6.3870144	2.5272543
1.2882430357975057	11.729731	3.4248695
1.3057709054867608	16.415384	4.0515904
1.3232988057280106	22.24003	4.715934
1.3408267369315112	26.940594	5.190433
1.358354699507526	30.54786	5.527012
1.3758826938663256	34.84537	5.902997
1.3934107204181858	37.108223	6.091652
1.410938779573391	37.35183	6.111614
1.4284668717422309	37.96499	6.1615734
1.4459949973350033	37.532883	6.1264086
1.4635231567620117	37.378933	6.1138315
1.4810513504335687	36.509686	6.0423245
1.4985795787599925	35.82559	5.985448
1.5161078421516088	35.730156	5.977471
1.5336361410187505	35.05541	5.9207606
1.5511644757717598	35.0546	5.9206924
1.5686928468209842	35.492424	5.957552
1.58622125457678	35.86581	5.988807
1.6037496994495108	36.652874	6.0541615
1.621278181849548	36.622746	6.051673
1.6388067021872719	37.33389	6.1101465
1.6563352608730693	36.89534	6.0741534
1.673863858317336	36.09971	6.008303
1.6913924949304753	35.43177	5.9524593
1.7089211711228998	34.12846	5.841957
1.7264498873050296	33.380608	5.7775955
1.7439786438872935	33.070587	5.7507033
1.7615074412801288	32.529625	5.703475
1.779036279893981	32.180916	5.6728225
1.796565160139305	30.814566	5.551087
1.814094082426564	29.56495	5.437366
1.8316230471662298	28.458485	5.3346496
1.849152054768784	27.632458	5.2566586
1.8666811056447168	27.44228	5.238538
1.8842102002045273	26.63174	5.160595
1.901739338858724	26.04504	5.103434
1.9192685220178245	25.277182	5.027642
1.9367977500923557	24.766697	4.976615
1.9543270234928547	24.469223	4.9466376
1.971856342629867	23.771225	4.875574
1.9893857079139496	23.218126	4.818519
2.006915119755667	22.894815	4.7848525
2.0244445785655945	22.54539	4.7481985
2.0419740847543175	21.950247	4.685109
2.0595036387324317	21.347715	4.620359
2.0770332409105414	20.818312	4.562709
2.094562891699263	20.590681	4.5376954
2.1120925915092217	19.936655	4.4650483
2.129622340751053	19.597132	4.4268646
2.1471521398354043	187.64552	13.698377
2.1646819891729323	444.14908	21.074844
2.182211889174303	440.35382	20.98461
2.1997418402501974	452.87094	21.280766
2.2172718428113023	432.94342	20.807293
2.234801897268317	320.8179	17.91139
2.2523320040319548	17.208593	4.148324
2.269862163512935	16.78159	4.096534
2.287392376121992	16.433262	4.053796
2.304922642269869	15.935576	3.9919388
2.322452962367322	15.603304	3.9501019
2.3399833368251164	15.382118	3.9220045
2.357513766054032	15.2386	3.9036648
2.3750442504648586	15.14882	3.8921485
2.3925747904683963	14.953309	3.866951
2.410105386475459	14.666832	3.82973
2.4276360388968707	14.431525	3.7988846
2.445166748143469	14.252382	3.7752328
2.4626975146261025	13.935838	3.7330735
2.4802283387556323	13.50373	3.6747422
2.4977592209429305	13.182742	3.6308045
2.5152901615988825	12.942076	3.5975096
2.5328211611343865	12.918904	3.5942876
2.5503522199603523	12.817443	3.5801456
2.5678833384877024	12.586166	3.5476987
2.5854145171273712	12.29635	3.5066152
2.6029457562903064	12.059621	3.4726965
2.620477056387469	11.88323	3.4472063
2.6380084178298326	11.589439	3.4043267
2.655539841028383	11.242737	3.353019
2.673071326394119	11.2342005	3.3517458
2.6906028743380523	11.070476	3.3272324
2.708134485271211	10.83598	3.291805
2.7256661596046325	10.586992	3.2537658
2.743197897749369	10.370062	3.220258
2.760729700116486	10.284232	3.206904
2.778261567117063	10.152079	3.1862326
2.795793499162193	10.196575	3.1932077
2.8133254966629817	10.11935	3.1810927
2.830857560030551	9.913081	3.1485045
2.8483896896760337	9.853782	3.1390734
2.865921886010578	9.678306	3.1109974
2.883454149445347	9.664298	3.1087453
2.9009864803915177	9.424262	3.069896
2.91851887926028	9.27362	3.0452619
2.9360513464628384	9.164521	3.027296
2.953583882410413	9.058416	3.0097203
2.9711164875142373	8.884782	2.980735
2.9886491621855606	8.607648	2.9338794
3.0061819068356455	8.454521	2.907666
3.023714721875769	8.294659	2.880045
3.041247607717225	8.171859	2.8586464
3.0587805647713213	8.008428	2.8299165
3.0763135934493806	8.058154	2.8386889
3.0938466941627407	7.952375	2.8199956
3.1113798673227544	8.029671	2.8336673
3.1289131133407904	7.9203978	2.81432
3.1464464326282315	7.8177333	2.796021
3.1639798255964786	7.7061877	2.7760022
3.1815132926569443	7.566301	2.750691
3.1990468342210603	7.5212493	2.7424896
3.216580450700272	7.4255414	2.7249846
3.2341141425060416	7.297638	2.701414
3.251647910049847	7.1599336	2.6758053
3.2691817537431813	7.0850134	2.661769
3.286715673997555	7.081385	2.6610873
3.3042496712244938	7.0689535	2.6587503
3.32178374583554	7.0517054	2.6555047
3.339317898242251	7.094398	2.663531
3.3568521288562034	7.035244	2.6524034
3.3743864380889876	7.0256786	2.6505997
3.3919208263522127	6.8123817	2.610054
3.4094552940575023	6.6497574	2.5787125
3.4269898416164972	6.528946	2.5551803
3.444524469440858	6.5370226	2.55676
3.4620591779422587	6.43719	2.5371618
3.479593967532391	6.5001206	2.5495334
3.4971288386229658	6.404271	2.530666
3.5146637916257086	6.3924856	2.5283365
3.5321988269523628	6.341478	2.518229
3.5497339450146903	6.239469	2.4978929
3.5672691462244708	6.2825584	2.5065033
3.5848044309934988	6.275915	2.5051777
3.60233979973359	6.2135167	2.4926927
3.619875252856575	6.188932	2.4877565
3.6374107907743034	6.2092915	2.491845
3.6549464138986427	6.329825	2.5159144
3.6724821226414788	6.3836727	2.5265932
3.690017917414714	6.2983017	2.5096416
3.7075537986302702	6.2645454	2.5029075
3.7250897667000857	6.2730336	2.5046024
3.7426258220361235	6.4098215	2.5317626
3.7601619650503553	6.6752872	2.5836577
3.777698196154779	7.243455	2.6913667
3.7952345157614067	8.403213	2.8988295
3.8127709242822716	9.1635	3.0271273
3.830307422129425	11.412552	3.3782468
3.847844009714936	30.156454	5.4914894
3.8653806874508954	97.65392	9.882
3.882917455749409	97.05746	9.851774
3.900454315022606	96.71293	9.834273
3.917991265682631	41.419697	6.4358134
3.9355283081416506	11.083917	3.3292518
3.9530654428118495	8.808548	2.9679198
3.970602670105433	7.5337462	2.744767
3.9881399904346244	6.4713273	2.5438805
4.005677404211669	6.4555993	2.5407872
4.023214911848827	6.4125504	2.5323014
4.0407525137583855	6.399017	2.5296278
4.058290210352644	6.3631577	2.52253
4.075828002043927	6.2960305	2.5091891
4.0933658892445814	6.2223215	2.4944582
4.110903872366966	6.2635484	2.5027082
4.128441951823468	6.209428	2.4918723
4.145980128026488	6.2156816	2.4931269
4.163518401388452	6.1120834	2.4722629
4.181056772321807	6.0584273	2.4613874
4.1985952412390155	5.9847746	2.44638
4.216133808552567	6.0255585	2.4547012
4.233672474674966	6.0320935	2.456032
4.251211240018741	6.1876597	2.4875007
4.268750104996445	6.420382	2.5338473
4.286289070020643	7.3796706	2.7165549
4.303828135503928	9.132152	3.021945
4.3213673018589125	29.388536	5.4211197
4.3389065694982305	90.559364	9.516269
4.356445938834537	165.80516	12.876535
4.3739854102805085	171.14041	13.082065
4.391524984248844	172.1404	13.120229
4.409064661152262	135.99918	11.661868
4.426604441403504	96.33959	9.815273
4.444144325415337	75.46165	8.686867
4.461684313600543	21.559671	4.6432395
4.47922440637193	22.037006	4.694359
4.496764604142329	20.43704	4.5207343
4.5143049073245916	18.75991	4.331271
4.531845316331589	16.747215	4.092336
4.5493858315762195	13.680602	3.6987298
4.566926453471405	11.197341	3.346243
4.584467182430081	9.106776	3.0177436
4.602008018865218	7.920517	2.8143413
4.619548963189798	7.3356047	2.7084322
4.637090015816834	6.796229	2.6069577
4.654631177159353	6.613577	2.5716875
4.672172447630417	6.3499804	2.5199168
4.689713827643102	6.3128977	2.512548
4.7072553176105085	6.0640616	2.4625316
4.724796917945764	5.925934	2.434324
4.742338629062015	5.7298822	2.3937173
4.759880451372434	5.6138916	2.3693652
4.777422385290215	5.477636	2.340435
4.794964431228581	5.389503	2.3215303
4.812506589600768	5.4700565	2.3388152
4.830048860820047	5.5417995	2.3541026
4.847591245299709	5.5381722	2.353332
4.8651337434530655	5.5494394	2.3557248
4.882676355693457	5.4893575	2.3429377
4.900219082434242	5.441968	2.3328025
4.917761924088813	5.438201	2.331995
4.935304881070575	5.452251	2.3350055
4.952847953792969	5.5249557	2.3505225
4.970391142669449	5.5169363	2.348816
4.9879344481135055	5.5347576	2.3526065
5.005477870538642	5.5587654	2.3577034
5.023021410358394	5.533579	2.352356
5.040565067986324	5.489103	2.3428833
5.05810884383601	5.4158707	2.3272023
5.075652738321066	5.3717957	2.3177135
5.09319675185512	5.3552413	2.3141394
5.110740884851836	5.3043494	2.3031173
5.128285137724894	5.291971	2.3004284
5.145829510888007	5.2484145	2.290942
5.163374004754908	5.3538437	2.3138375
5.1809186197393595	5.381914	2.3198953
5.198463356255145	5.3525915	2.313567
5.216008214716077	5.2977176	2.3016772
5.233553195535998	5.2106547	2.2826858
5.251098299128764	5.146663	2.2686257
5.268643525908272	5.1449375	2.2682455
5.286188876288432	5.074267	2.2526133
5.3037343506831895	5.1004467	2.258417
5.32127994950651	5.0434957	2.2457728
5.3388256731723915	5.19155	2.2784972
5.356371522094851	5.266094	2.2947972
5.373917496687938	5.328174	2.3082838
5.391463597365729	5.3059707	2.3034692
5.40900982454232	5.301533	2.302506
5.426556178631843	5.327894	2.3082232
5.444102660048449	5.197232	2.279744
5.4616492692063225	5.0686417	2.2513645
5.479196006519669	5.063137	2.2501416
5.496742872402727	5.144014	2.2680418
5.514289867269756	5.242518	2.2896545
5.531836991535049	5.2064304	2.2817605
5.549384245612924	5.1459904	2.2684774
5.566931629917724	5.116708	2.2620142
5.584479144863822	5.086784	2.25539
5.6020267908656205	5.0946445	2.2571318
5.619574568337545	5.053913	2.248091
5.637122477694054	5.016536	2.2397625
5.654670519349629	5.0363116	2.2441728
5.672218693718784	5.048127	2.2468038
5.689767001216059	5.183959	2.276831
5.707315442256021	5.110121	2.2605577
5.724864017253266	5.0810165	2.254111
5.7424127266224225	5.012145	2.238782
5.75996157077814	4.959323	2.2269537
5.777510550135105	5.0650406	2.2505646
5.795059665108022	5.1339426	2.2658205
5.812608916111639	5.2037053	2.2811632
5.830158303560715	5.254363	2.2922397
5.847707827870055	5.215583	2.283765
5.86525748945448	5.290473	2.3001027
5.8828072887288485	5.438205	2.331996
5.900357226108044	5.5257397	2.3506892
5.917907302006979	5.6659393	2.3803234
5.9354575168406	6.23315	2.4966278
5.9530078710238765	6.8477626	2.616823
5.970558364971812	7.3520336	2.7114635
5.988108999099438	7.66352	2.7683063
6.005659773821818	8.278062	2.8771622
6.023210689554039	7.968766	2.8229003
6.040761746711227	8.38936	2.8964393
6.058312945708531	7.7350607	2.7811978
6.075864286961132	7.3501697	2.7111197
6.093415770884244	6.727592	2.5937603
6.1109673978931065	6.1595454	2.4818432
6.128519168402993	5.526397	2.3508291
6.146071082829204	5.3435526	2.3116126
6.163623141587075	5.2392497	2.2889407
6.181175345091969	5.253102	2.2919645
6.198727693759281	5.2954607	2.3011868
6.216280188004435	5.285844	2.2990963
6.233832828242885	5.210979	2.2827568
6.251385614890126	5.124438	2.2637222
6.268938548361669	5.0758452	2.2529635
6.286491629073067	5.0026813	2.2366674
6.304044857439898	4.9542737	2.2258198
6.321598233877777	4.8703613	2.2068896
6.339151758802344	4.890941	2.2115471
6.356705432629277	4.89374	2.21218
6.37425925577428	4.929073	2.2201514
6.391813228653095	4.946731	2.224125
6.409367351681486	4.989358	2.2336872
6.426921625275259	4.985996	2.2329342
6.44447604985025	4.9766088	2.2308314
6.46203062582232	4.993244	2.234557
6.47958535360737	5.0026827	2.2366679
6.497140233621328	5.0124435	2.2388487
6.514695266280161	4.9984717	2.235726
6.532250451999859	5.125395	2.2639334
6.549805791196454	5.1983647	2.2799923
6.567361284286002	5.160112	2.271588
6.584916931684597	5.090863	2.2562943
6.602472733808367	5.0281644	2.2423568
6.6200286910734665	4.95084	2.2250483
6.637584803896092	4.9515057	2.2251978
6.655141072692462	4.9118977	2.2162802
6.672697497878842	4.915644	2.2171252
6.690254079871514	4.857498	2.2039733
6.707810819086808	4.8638363	2.2054107
6.725367715941078	4.8972583	2.212975
6.742924770850719	4.945162	2.223772
6.760481984232151	4.9970894	2.2354171
6.778039356501836	4.9893956	2.2336955
6.795596888076266	4.9103007	2.2159197
6.813154579371963	4.894088	2.2122586
6.830712430805492	4.9296722	2.2202866
6.84827044279344	5.015678	2.2395709
6.865828615752445	5.0024257	2.2366104
6.883386950099159	4.9327946	2.2209895
6.900945446250287	4.9904776	2.2339377
6.918504104622553	5.0177865	2.2400417
6.936062925632727	4.9790807	2.2313855
6.953621909697607	4.9633646	2.227861
6.971181057234028	4.9877996	2.233338
6.988740368658859	5.0816255	2.254246
7.006299844389007	5.1532784	2.2700834
7.023859484841407	5.180654	2.276105
7.041419290433036	5.2892866	2.299845
7.058979261580902	5.4224424	2.3286138
7.0765393987020495	5.657375	2.3785236
7.094099702213559	5.9551926	2.4403262
7.111660172532549	6.3232393	2.5146053
7.129220810076164	6.662071	2.5810988
7.146781615261595	7.219473	2.6869078
7.16434258850606	7.4565334	2.7306654
7.181903730226821	7.844876	2.8008707
7.1994650408411704	8.056458	2.83839
7.217026520766437	8.130079	2.8513293
7.234588170419983	8.316741	2.883876
7.252149990219215	8.355881	2.890654
7.269711980581568	8.334142	2.8868914
7.2872741419245175	8.196205	2.8629014
7.304836474665574	7.7406964	2.7822108
7.322398979222286	7.4176	2.7235272
7.339961656012233	7.148402	2.6736495
7.357524505453039	6.7712626	2.602165
7.375087527962357	6.510818	2.5516305
7.392650723957886	6.2146063	2.492911
7.410214093857353	5.939256	2.437059
7.427777638078528	5.673065	2.3818197
7.445341357039213	5.4855566	2.3421266
7.4629052511572525	5.3592334	2.3150017
7.480469320850524	5.2757454	2.296899
7.498033566536948	5.2541475	2.2921927
7.5155979886344735	5.1804357	2.276057
7.5331625875610975	5.138003	2.2667162
7.550727363734844	5.1218615	2.263153
7.568292317573788	5.126196	2.2641103
7.585857449496025	5.1394563	2.267037
7.603422759919705	5.1513014	2.2696478
7.620988249263007	5.15737	2.2709844
7.638553917944147	5.2086377	2.282244
7.656119766381391	5.2559967	2.292596
7.673685794993023	5.2296996	2.2868536
7.691252004197388	5.2057767	2.2816172
7.70881839441285	5.1239123	2.263606
7.726384966057826	5.182851	2.2765875
7.743951719550762	5.240412	2.2891946
7.761518655310149	5.30723	2.3037426
7.779085773754511	5.2171307	2.2841039
7.796653075302419	5.1740155	2.2746463
7.814220560372475	5.1439695	2.268032
7.831788229383323	5.1927896	2.2787693
7.8493560827536495	5.266157	2.294811
7.866924120902174	5.333018	2.3093328
7.884492344247663	5.328592	2.3083742
7.9020607532089135	5.3148074	2.3053865
7.919629348204771	5.2107053	2.282697
7.937198129654115	5.1854897	2.277167
7.954767097975865	5.1853123	2.277128
7.972336253588986	5.29414	2.3008997
7.989905596912472	5.3929777	2.3222785
8.007475128365371	5.4449577	2.3334434
8.025044848366756	5.451379	2.3348188
8.042614757335754	5.4602714	2.3367224
8.060184855691523	5.480054	2.3409514
8.07775514385327	5.6304893	2.3728652
8.095325622240228	5.695726	2.386572
8.112896291271687	5.71917	2.3914785
8.130467151366968	5.786048	2.4054205
8.148038202945436	5.7948008	2.4072392
8.165609446426497	5.839088	2.4164205
8.183180882229594	5.8906064	2.4270573
8.200752510774217	5.9218245	2.43348
8.218324332479893	5.9135165	2.4317722
8.235896347766193	5.9164076	2.4323666
8.253468557052724	5.9186726	2.4328322
8.27104096075914	5.929601	2.4350772
8.288613559305137	5.999812	2.4494514
8.306186353110448	6.056232	2.4609413
8.32375934259485	6.1917934	2.4883316
8.341332528178162	6.203015	2.4905853
8.358905910280246	6.1882997	2.4876294
8.376479489321003	6.1623898	2.4824162
8.394053265720377	6.1735563	2.4846642
8.411627239898356	6.182605	2.4864845
8.42920141227497	6.1889334	2.4877567
8.44677578327029	6.194171	2.488809
8.464350353304427	6.2274137	2.4954786
8.48192512279754	6.25722	2.5014436
8.499500092169827	6.2302837	2.4960537
8.51707526184153	6.1933107	2.4886363
8.534650632232934	6.238933	2.4977856
8.552226203764365	6.21141	2.49227
8.569801976856192	6.1868	2.4873278
8.587377951928834	6.178489	2.4856567
8.60495412940274	6.276306	2.5052557
8.622530509698416	6.3140755	2.5127823
8.6401070932364	6.428116	2.535373
8.657683880437283	6.438319	2.5373843
8.675260871721695	6.5884604	2.5667996
8.692838067510303	6.7435813	2.5968406
8.710415468223834	6.828226	2.6130874
8.727993074283043	6.8883634	2.6245692
8.745570886108737	6.944526	2.635247
8.763148904121765	7.0788703	2.6606147
8.78072712874302	7.151251	2.6741822
8.798305560393441	7.401155	2.7205064
8.815884199494006	7.462022	2.7316701
8.833463046465745	7.5683327	2.7510602
8.851042101729728	7.682835	2.7717927
8.86862136570707	7.95191	2.8199131
8.886200838818924	8.20416	2.8642905
8.903780521486505	8.256904	2.873483
8.921360414131055	8.382941	2.895331
8.938940517173874	8.497682	2.9150784
8.956520831036297	8.603543	2.9331796
8.97410135613971	8.855406	2.9758034
8.99168209290554	9.030074	3.0050082
9.009263041755265	9.315721	3.0521665
9.026844203110405	9.616099	3.1009836
9.044425577392525	9.863312	3.140591
9.062007165023239	10.0419035	3.1688962
9.079588966424197	10.29926	3.209246
9.097170982017108	10.435082	3.2303379
9.11475321222372	11.441606	3.3825443
9.132335657465825	12.305129	3.5078666
9.149918318165264	12.491957	3.5343962
9.167501194743924	13.097451	3.61904
9.18508428762374	12.7648735	3.5727963
9.202667597226693	12.678684	3.560714
9.220251123974803	12.283173	3.5047357
9.237834868290143	11.9626	3.4586992
9.255418830594836	11.742499	3.426733
9.273003011311046	11.195549	3.3459752
9.290587410860985	10.992735	3.3155293
9.308172029666911	10.396906	3.2244234
9.32575686815113	10.101915	3.178351
9.343341926735997	8.744891	2.9571762
9.360927205843916	8.444503	2.9059427
9.378512705897327	8.247456	2.8718383
9.396098427318728	8.143473	2.853677
9.413684370530664	8.015576	2.8311794
9.431270535955722	7.8292384	2.7980776
9.448856924016539	7.7169156	2.7779336
9.466443535135806	7.624997	2.7613397
9.484030369736251	7.707464	2.776232
9.501617428240658	7.769325	2.787351
9.519204711071852	7.798338	2.7925503
9.536792218652714	7.7974772	2.7923963
9.55437995140617	7.756263	2.7850068
9.571967909755191	7.806383	2.7939906
9.589556094122802	7.874371	2.806131
9.60714450493207	7.9319005	2.816363
9.624733142606116	7.9734693	2.8237333
9.642322007568108	8.0287	2.833496
9.659911100241267	8.0121355	2.8305717
9.677500421048851	7.999741	2.8283813
9.695089970414175	7.9931784	2.827221
9.712679748760609	8.06223	2.8394067
9.730269756511557	8.106782	2.8472412
9.747859994090492	8.180369	2.8601346
9.765450461920915	8.171871	2.8586485
9.78304116042639	8.174725	2.8591475
9.800632090030527	8.139778	2.8530297
9.81822325115699	8.132422	2.8517404
9.835814644229481	8.081131	2.842733
9.853406269671762	8.138113	2.852738
9.870998127907646	8.175975	2.8593662
9.888590219360985	8.198775	2.8633504
9.906182544455698	8.20082	2.8637073
9.923775103615734	8.268754	2.875544
9.941367897265108	8.274908	2.876614
9.958960925827878	8.30885	2.8825076
9.97655418972816	8.245193	2.8714442
9.994147689390106	8.247074	2.871772
10.011741425237934	8.257803	2.8736393
10.029335397695904	8.2637615	2.874676
10.04692960718833	8.212718	2.865784
10.06452405413958	8.21173	2.8656116
10.082118738974064	8.223162	2.8676057
10.099713662116246	8.23386	2.8694704
10.117308823990651	8.239355	2.8704276
10.134904225021844	8.159944	2.8565614
10.152499865634445	8.164974	2.857442
10.170095746253125	8.201869	2.8638906
10.18769186730261	8.230223	2.8688364
10.205288229207675	8.288759	2.8790205
10.222884832393145	8.221364	2.8672922
10.2404816772839	8.168498	2.8580585
10.258078764304868	8.095014	2.8451738
10.275676093881035	8.060167	2.8390434
10.293273666437438	8.063623	2.839652
10.310871482399158	8.17603	2.8593757
10.32846954219134	8.166496	2.8577082
10.346067846239173	8.192668	2.8622837
10.363666394967908	8.105067	2.84694
10.38126518880283	8.030265	2.8337722
10.398864228169298	8.038506	2.8352258
10.416463513492713	8.051164	2.8374572
10.434063045198531	8.075668	2.841772
10.451662823712262	8.074196	2.841513
10.469262849459467	8.030567	2.8338256
10.486863122865758	8.081003	2.8427105
10.504463644356806	8.100397	2.8461196
10.522064414358338	8.022354	2.832376
10.539665433296118	7.926215	2.8153534
10.557266701595987	7.788003	2.7906995
10.574868219683818	7.7457027	2.7831104
10.592469987985552	7.6726613	2.7699568
10.610072006927185	7.5645733	2.750377
10.627674276934751	7.490287	2.7368388
10.64527679843435	7.3498354	2.711058
10.662879571852143	7.234902	2.6897774
10.680482597614331	7.1509814	2.6741319
10.698085876147173	7.0686855	2.6587
10.715689407876988	6.988374	2.6435533
10.733293193230146	6.9058905	2.627906
10.750897232633072	6.8311224	2.6136415
10.76850152651225	6.74782	2.5976567
10.786106075294207	6.604561	2.5699341
10.803710879405534	6.564284	2.5620859
10.821315939272877	6.414463	2.532679
10.83892125532294	6.346133	2.5191534
10.856526827982472	6.273276	2.5046508
10.874132657678285	6.2713866	2.5042737
10.891738744837243	6.1987767	2.4897342
10.909345089886271	6.1512074	2.4801629
10.926951693252343	6.064339	2.4625878
10.944558555362494	6.0432777	2.458308
10.96216567664381	5.928024	2.4347534
10.979773057523436	5.846189	2.4178894
10.997380698428573	5.7731943	2.4027472
11.014988599786477	5.7141438	2.3904276
11.032596762024461	5.675834	2.382401
11.050205185569892	5.63932	2.3747253
11.067813870850198	5.666052	2.380347
11.085422818292859	5.624505	2.371604
11.10303202832541	5.528317	2.3512373
11.120641501375454	5.405805	2.3250387
11.138251237870636	5.3325944	2.309241
11.155861238238671	5.2684083	2.2953014
11.173471502907317	5.1695666	2.273668
11.191082032304402	5.1123095	2.2610416
11.208692826857805	5.0744033	2.2526436
11.226303886995465	5.062631	2.250029
11.243915213145371	5.013144	2.239005
11.261526805735578	4.8830132	2.2097542
11.279138665194196	4.8282013	2.197317
11.296750791949393	4.753297	2.1802056
11.314363186429393	4.705711	2.169265
11.331975849062479	4.67068	2.1611757
11.34958878027699	4.644991	2.155224
11.36720198050133	4.600806	2.144949
11.384815450163948	4.52613	2.1274705
11.402429189693366	4.480921	2.1168187
11.420043199518153	4.435719	2.1061146
11.437657480066942	63.43936	7.964883
11.455272031768422	85.09235	9.224551
11.472886855051353	107.46536	10.36655
11.490501950344528	99.039276	9.951848
11.508117318076819	84.40889	9.187431
11.52573295867715	45.81794	6.768895
11.543348872574514	4.163413	2.0404444
11.560965060197946	4.113581	2.0281966
11.57858152197655	4.102663	2.0255032
11.59619825833949	4.055093	2.013726
11.613815269715985	4.001031	2.0002577
11.631432556535323	38.461025	6.2016954
11.649050119226837	82.97896	9.109279
11.666667958219929	93.436295	9.666245
11.68428607394406	107.68395	10.377088
11.701904466828756	82.514786	9.083765
11.719523137303586	65.32643	8.082477
11.737142085798196	4.5601172	2.1354432
11.754761312742286	3.6869996	1.9201561
11.772380818565619	3.648665	1.9101479
11.790000603698015	3.6051936	1.8987347
11.80762066856935	3.5781648	1.8916038
11.825241013609572	3.5754728	1.890892
11.842861639248683	3.5323644	1.8794585
11.860482545916748	3.4507494	1.8576193
11.878103734043883	3.4106138	1.8467847
11.895725204060282	3.4334464	1.8529562
11.91334695639619	3.4241757	1.8504529
11.930968991481919	3.4177103	1.848705
11.948591309747824	3.3615508	1.8334533
11.966213911624347	3.3502338	1.8303643
11.98383679754198	3.330117	1.8248608
12.001459967931268	3.3158815	1.8209562
12.019083423222835	3.323045	1.8229221
12.036707163847352	3.3122985	1.8199722
12.05433119023556	3.2649138	1.8069073
12.071955502818259	3.2254395	1.7959509
12.089580102026313	3.1810305	1.7835444
12.107204988290643	3.1315463	1.7696176
12.12483016204224	3.11806	1.765803
12.142455623712152	3.0904787	1.7579757
12.16008137373149	3.0969167	1.7598059
12.177707412531431	3.0882967	1.757355
12.19533374054321	3.0460548	1.745295
12.212960358198126	3.0019515	1.732614
12.230587265927545	2.988647	1.7287704
12.248214464162889	2.9949691	1.7305979
12.265841953335649	3.0231	1.7387064
12.283469733877375	2.989685	1.7290705
12.301097806219685	2.9531786	1.7184815
12.31872617079425	2.938732	1.714273
12.336354828032825	2.9113703	1.7062738
12.353983778367205	2.9119115	1.7064323
12.371613022229262	2.927801	1.7110817
12.389242560050928	2.9280615	1.7111579
12.406872392264201	2.9045837	1.704284
12.424502519301143	2.8756332	1.6957692
12.442132941593874	2.8802686	1.6971354
12.459763659574586	2.8839529	1.6982205
12.477394673675532	2.8497875	1.6881313
12.49502598432903	2.8483243	1.6876979
12.51265759196746	2.8441253	1.6864535
12.530289497023267	2.830463	1.682398
12.547921699928967	2.7886767	1.6699332
12.565554201117134	2.750224	1.6583799
12.583187001020404	2.7442772	1.656586
12.600820100071486	2.7619855	1.6619222
12.618453498703152	2.7626917	1.6621346
12.636087197348235	2.790537	1.67049
12.65372119643964	2.794317	1.6716211
12.671355496410326	2.8091927	1.6760646
12.68899009769333	2.8074665	1.6755496
12.706625000721749	2.800354	1.6734258
12.724260205928752	2.798722	1.6729381
12.741895713747551	2.8310385	1.682569
12.759531524611454	2.909169	1.7056286
12.777167638953818	2.9131408	1.7067926
12.794804057208072	2.9081075	1.7053174
12.812440779807702	2.9492846	1.7173481
12.830077807186271	3.1185122	1.765931
12.847715139777405	3.1744235	1.7816912
12.865352778014795	3.421456	1.8497179
12.882990722332197	3.545296	1.8828956
12.90062897316344	3.6216753	1.90307
12.918267530942412	3.6706862	1.9159034
12.935906396103071	3.5394032	1.8813301
12.953545569079449	3.7244346	1.9298794
12.971185050305628	3.5599155	1.8867738
12.988824840215775	3.622123	1.9031876
13.006464939244115	3.6340241	1.9063116
13.024105347824943	3.4870389	1.8673614
13.041746066392617	3.515359	1.8749291
13.05938709538157	3.2991214	1.8163483
13.077028435226296	3.2744682	1.8095492
13.094670086361363	3.2050815	1.7902741
13.112312049221401	3.1504667	1.7749554
13.129954324241112	3.0947523	1.7591908
13.147596911855258	2.8915906	1.7004677
13.165239812498685	2.8354318	1.683874
13.182883026606293	2.7712505	1.6647073
13.200526554613058	2.7362792	1.6541703
13.218170396954017	2.7070951	1.6453252
13.235814554064284	2.6955054	1.6417994
13.253459026379034	2.6923993	1.6408532
13.271103814333523	2.6467807	1.6268929
13.288748918363058	2.6488914	1.6275415
13.306394338903031	2.6532786	1.6288887
13.32404007638889	2.641787	1.6253575
13.341686131256164	2.668759	1.6336337
13.359332503940449	2.6808503	1.6373302
13.376979194877402	2.7020879	1.6438029
13.394626204502751	2.703469	1.644223
13.412273533252307	2.6824896	1.6378307
13.429921181561937	2.660521	1.6311103
13.447569149867581	2.6804972	1.6372224
13.465217438605247	2.6963463	1.6420555
13.482866048211022	2.6993651	1.6429745
13.500514979121052	2.6871293	1.6392466
13.518164231771568	2.6497266	1.6277981
13.535813806598844	2.6249256	1.6201622
13.553463704039254	2.5917459	1.60989
13.571113924529229	2.6059065	1.614282
13.588764468505275	2.610028	1.6155581
13.606415336403956	2.660812	1.6311995
13.624066528661917	2.7348647	1.6537427
13.641718045715882	2.8200893	1.6793121
13.659369888002635	2.8674634	1.6933587
13.67702205595903	2.903861	1.7040719
13.694674550021993	2.974075	1.7245507
13.712327370628532	3.0102568	1.7350092
13.729980518215713	3.0567455	1.7483552
13.747633993220681	3.1209662	1.7666256
13.765287796080647	3.162157	1.7782454
13.7829419272329	3.1955345	1.7876058
13.800596387114801	3.2385986	1.7996107
13.818251176163775	3.2780404	1.8105359
13.835906294817324	3.3736508	1.83675
13.853561743513023	3.3778794	1.8379008
13.871217522688525	3.3948176	1.8425031
13.888873632781538	3.4455478	1.8562187
13.906530074229858	3.517315	1.8754506
13.92418684747135	3.5562856	1.8858117
13.941843952943948	3.5058427	1.8723896
13.959501391085665	3.4225755	1.8500204
13.977159162334578	3.3411913	1.8278925
13.994817267128846	3.3060067	1.8182428
14.012475705906693	3.2327058	1.7979727
14.030134479106424	3.1623065	1.7782875
14.047793587166414	3.0782201	1.7544857
14.065453030525108	3.040221	1.7436229
14.083112809621026	3.0095072	1.7347931
14.100772924892766	2.9595985	1.7203484
14.118433376778997	2.864648	1.6925272
14.136094165718458	2.799277	1.673104
14.153755292149969	2.7237	1.6503636
14.171416756512416	2.696157	1.6419978
14.189078559244768	2.656176	1.6297779
14.20674070078606	2.5935807	1.6104598
14.224403181575408	2.516335	1.586296
14.242066002051999	2.4591355	1.5681632
14.259729162655093	2.4307308	1.5590801
14.277392663824022	2.4370904	1.5611184
14.295056505998208	2.4351263	1.5604892
14.312720689617128	2.4692624	1.5713887
14.330385215120348	2.4735274	1.5727452
14.348050082947497	2.4168866	1.5546339
14.3657152935383	2.3972273	1.5482982
14.383380847332528	2.394229	1.5473297
14.401046744770051	2.3665044	1.5383447
14.418712986290798	2.3222804	1.523903
14.436379572334793	2.3409314	1.5300102
14.454046503342123	2.3797216	1.5426346
14.471713779752946	2.382656	1.5435854
14.489381402007504	2.3678071	1.538768
14.507049370546113	2.3476057	1.5321898
14.524717685809168	2.3546906	1.5345001
14.542386348237134	2.3905623	1.5461444
14.560055358270553	2.4106002	1.5526108
14.577724716350051	2.4728265	1.5725223
14.595394422916325	2.4938421	1.5791904
14.61306447841015	2.5047076	1.5826268
14.63073488327237	2.4806318	1.5750022
14.648405637943917	2.4564571	1.5673089
14.6660767428658	2.4369557	1.5610752
14.683748198479094	2.501702	1.581677
14.701420005224954	2.533329	1.5916435
14.719092163544628	2.5812407	1.606624
14.73676467387942	2.5880494	1.6087415
14.754437536670727	2.5842817	1.6075702
14.772110752360014	2.5894287	1.6091702
14.78978432138882	2.6297684	1.6216561
14.807458244198777	2.6684105	1.633527
14.82513252123159	2.6422093	1.6254874
14.842807152929028	2.6538644	1.6290686
14.860482139732962	2.6571324	1.6300713
14.87815748208531	2.691097	1.6404563
14.8958331804281	2.7499075	1.6582845
14.91350923520342	2.7234273	1.650281
14.931185646853438	2.7475896	1.6575855
14.948862415820408	2.694688	1.6415505
14.966539542546656	2.6830108	1.6379899
14.98421702747459	2.640911	1.625088
15.001894871046696	2.6546562	1.6293116
15.019573073705542	2.660745	1.631179
15.037251635893766	2.6204536	1.6187816
15.054930558054092	2.6194272	1.6184645
15.072609840629323	2.6606717	1.6311566
15.090289484062351	2.8346033	1.683628
15.107969488796124	3.159164	1.7774037
15.125649855273691	3.5699885	1.8894414
15.14333058393817	4.0283737	2.0070808
15.161011675232768	4.9472327	2.2242374
15.17869312960076	6.283551	2.5067012
15.196374947485506	8.184397	2.8608384
15.214057129330447	11.280511	3.358647
15.231739675579114	15.993649	3.999206
15.249422586675102	21.065458	4.589712
15.267105863062092	24.285282	4.92801
15.284789505183847	24.745613	4.9744964
15.302473513484218	22.803005	4.775249
15.320157888407127	19.149744	4.376042
15.337842630396578	14.783332	3.84491
15.355527739896656	11.477913	3.3879068
15.37321321735153	8.98278	2.9971287
15.39089906320545	6.558998	2.561054
15.408585277902748	4.879299	2.2089136
15.42627186188783	3.7095792	1.9260268
15.443958815605198	3.1727407	1.7812189
15.461646139499424	2.85529	1.6897603
15.479333834015168	2.708709	1.6458156
15.497021899597165	2.63087	1.6219957
15.514710336690234	2.5823557	1.606971
15.53239914573928	2.539993	1.5937356
15.550088327189297	2.4864237	1.5768398
15.567777881485336	2.4944592	1.5793856
15.58546780907256	2.505775	1.582964
15.6031581103962	2.4858773	1.5766665
15.620848785901568	2.440947	1.562353
15.638539836034063	2.4109817	1.5527337
15.656231261239173	2.4244783	1.5570736
15.673923061962451	2.428266	1.5582894
15.691615238649552	2.4121697	1.5531161
15.709307791746202	2.3816237	1.543251
15.727000721698221	2.376435	1.541569
15.744694028951498	2.3741796	1.5408373
15.76238771395202	2.3898768	1.5459226
15.780081777145844	2.364655	1.5377434
15.797776218979125	2.3447561	1.5312597
15.815471039898094	2.298011	1.5159192
15.833166240349064	2.2853198	1.5117275
15.850861820778437	2.288358	1.5127319
15.868557781632699	2.3294606	1.526257
15.886254123358412	2.3374982	1.5288879
15.903950846402232	2.3501582	1.5330225
15.921647951210897	2.393601	1.5471267
15.939345438231225	2.4229226	1.556574
15.957043307910133	2.4263318	1.5576687
15.974741560694602	2.431368	1.5592844
15.992440197031714	2.4381611	1.5614612
16.01013921736862	2.458337	1.5679085
16.02783862215259	2.4153066	1.5541257
16.045538411830933	2.370111	1.5395164
16.06323858685107	2.3208945	1.5234482
16.080939147660512	2.3143737	1.5213066
16.09864009470684	2.334003	1.5277444
16.11634142843774	2.3886514	1.5455263
16.134043149300954	2.390817	1.5462266
16.15174525774433	2.3810077	1.5430514
16.169447754215817	2.3829587	1.5436834
16.18715063916342	2.3986294	1.5487509
16.204853913035244	2.4012609	1.5496002
16.222557576279478	2.4228022	1.5565354
16.240261629344403	22.425776	4.735586
16.257966072678386	42.979584	6.5558815
16.275670906729868	38.092804	6.171937
16.293376131947387	2.5148995	1.5858434
16.31108174877957	2.4994347	1.58096
16.328787757675133	2.5107405	1.5845317
16.34649415908287	2.5311725	1.5909659
16.364200953451657	2.5820694	1.6068819
16.38190814123048	2.6134186	1.6166071
16.39961572286839	2.6319242	1.6223207
16.41732369881455	2.6770823	1.6361792
16.43503206951817	2.7301292	1.6523103
16.45274083542859	2.770665	1.6645315
16.47044999699522	2.7842023	1.6685929
16.488159554667558	2.820157	1.6793324
16.505869508895184	2.8402174	1.6852944
16.523579860127786	2.867467	1.6933596
16.541290608815117	2.887633	1.6993037
16.559001755407035	2.9344637	1.7130276
16.57671330035348	3.0203893	1.7379267
16.59442524410448	3.0823743	1.7556692
16.61213758711015	3.1081994	1.7630086
16.629850329820705	3.1524105	1.7755029
16.647563472686436	3.2513573	1.8031521
16.665277016157724	3.3380542	1.8270342
16.682990960685053	3.3793807	1.8383092
16.70070530671898	3.4380112	1.8541875
16.718420054710155	3.5056267	1.8723319
16.736135205109335	3.538734	1.8811523
16.753850758367335	3.5717154	1.8898982
16.771566714935087	3.5970173	1.8965805
16.789283075263597	3.660763	1.9133121
16.80699983980398	3.7491703	1.9362774
16.82471700900741	3.863306	1.9655294
16.84243458332518	3.9240327	1.9809171
16.860152563208665	3.950797	1.9876612
16.87787094910932	4.0055885	2.0013967
16.89558974147871	4.0857625	2.021327
16.913308940768466	4.152856	2.0378556
16.931028547430333	4.214707	2.0529752
16.94874856191613	4.274066	2.0673814
16.966468984677785	4.324821	2.0796204
16.98418981616729	4.39299	2.095946
17.00191105683676	4.4363184	2.106257
17.019632707138374	4.4681573	2.1138017
17.03735476752442	4.4301076	2.104782
17.05507723844728	4.520468	2.1261392
17.072800120359403	4.5726633	2.1383786
17.090523413713353	4.629984	2.1517398
17.108247118961785	4.648471	2.1560314
17.125971236557437	4.6726832	2.161639
17.143695766953133	4.659676	2.1586282
17.161420710601806	4.665486	2.1599736
17.179146067956477	4.6527815	2.1570308
17.19687183947025	4.5974836	2.1441743
17.21459802559634	4.6262827	2.1508796
17.232324626788028	4.6177783	2.1489017
17.25005164349871	4.6171327	2.1487515
17.267779076181863	4.5846663	2.1411834
17.285506925291074	4.571318	2.1380641
17.30323519127999	4.5545187	2.134132
17.320963874602384	4.521051	2.1262763
17.33869297571211	4.5106072	2.123819
17.356422495063114	4.482642	2.1172252
17.37415243310944	4.4492846	2.1093328
17.391882790305218	4.4215264	2.1027427
17.40961356710468	4.438495	2.1067736
17.42734476396215	4.4586964	2.1115625
17.445076381332044	4.458063	2.1114125
17.462808419668868	4.490398	2.119056
17.48054087942723	4.640924	2.1542804
17.498273761061835	4.9513216	2.2251565
17.51600706502747	5.440703	2.3325315
17.533740791779024	6.147681	2.479452
17.551474941771485	7.5170975	2.7417326
17.56920951545993	8.62386	2.936641
17.586944513299528	10.956905	3.3101215
17.60467993574556	12.793564	3.5768092
17.622415783253373	14.625544	3.8243358
17.64015205627843	16.084274	4.0105205
17.657888755276293	17.158716	4.142308
17.675625880702604	17.605017	4.195833
17.69336343301311	17.413334	4.172929
17.71110141266366	16.543655	4.0673895
17.728839820110178	15.6028595	3.9500456
17.746578655808705	14.611419	3.8224885
17.764317920215372	13.01272	3.6073148
17.7820576137864	11.302495	3.3619184
17.79979773697811	9.258167	3.0427237
17.81753829024692	7.3980427	2.7199342
17.835279274049356	5.778344	2.4038186
17.85302068884201	4.776019	2.1854105
17.870762535081607	4.156456	2.0387387
17.888504813224934	3.870097	1.9672562
17.90624752372891	3.6968732	1.9227254
17.923990667050536	3.583393	1.8929852
17.941734243646895	3.508655	1.8731405
17.959478253975185	3.4554954	1.8588963
17.9772226984927	3.43542	1.8534886
17.994967577656833	3.381093	1.8387749
18.01271289192506	3.3237123	1.8231051
18.030458641754965	3.2549934	1.80416
18.04820482760425	3.2326365	1.7979534
18.06595144993067	3.2701771	1.8083631
18.083698509192125	3.3232133	1.8229682
18.101446005846576	3.318614	1.8217063
18.119193940352105	3.2638652	1.806617
18.136942313166887	3.2489002	1.8024706
18.1546911247492	3.2038233	1.7899227
18.1724403755574	3.1837566	1.7843084
18.19019006604997	3.1451576	1.7734592
18.207940196685467	3.12499	1.7677641
18.225690767922575	3.1206167	1.7665267
18.243441780220046	3.1415875	1.7724524
18.261193234036764	3.113999	1.7646526
18.278945129831676	3.0333662	1.7416562
18.29669746806386	2.964734	1.7218403
18.314450249192483	2.9861093	1.7280363
18.3322034736768	3.0032406	1.732986
18.349957141976184	3.049426	1.7462606
18.3677112545501	3.0669317	1.7512658
18.385465811858108	3.0695012	1.7519991
18.403220814359884	3.058442	1.7488402
18.420976262515172	3.064868	1.7506764
18.43873215678387	3.0717406	1.7526382
18.456488497625923	3.1294758	1.7690325
18.474245285501407	3.2249517	1.7958151
18.492002520870486	3.2787757	1.810739
18.50976020419343	3.3508894	1.8305435
18.527518335930615	3.6823046	1.9189332
18.545276916542516	4.2726164	2.067031
18.563035946489688	4.4467664	2.1087358
18.580795426232832	4.7924237	2.1891606
18.598555356232698	4.6192346	2.1492405
18.616315736950185	4.9293137	2.2202058
18.63407656884626	4.6647773	2.1598096
18.65183785238201	4.888474	2.2109895
18.669599588018617	4.6502786	2.1564505
18.68736177621737	4.5752854	2.1389916
18.705124417439652	4.515422	2.1249523
18.72288751214696	4.348434	2.08529
18.740651060800886	4.521366	2.1263504
18.758415063863115	4.2248793	2.0554512
18.77617952179546	4.4012957	2.0979266
18.793944435059814	4.14306	2.035451
18.811709804118184	4.191312	2.0472693
18.829475629432675	4.1402655	2.0347643
18.8472419114655	3.9271562	1.9817054
18.86500865067897	3.986013	1.9965001
18.88277584753551	3.706018	1.9251021
18.90054350249763	3.704802	1.9247862
18.918311616027957	3.386363	1.8402073
18.936080188589226	3.2518876	1.8032991
18.953849220644265	2.9637716	1.7215608
18.971618712656007	2.7793143	1.6671276
18.9893886650875	2.7603753	1.6614377
19.007159078401887	8.00802	2.8298445
19.024929953062408	32.90807	5.7365556
19.042701289532435	32.855286	5.731953
19.060473088275405	25.37572	5.0374317
19.07824534975489	2.68109	1.6374035
19.096018074434568	2.680229	1.6371405
19.113791262778197	2.6415112	1.6252726
19.13156491524966	2.5598674	1.5999585
19.149339032312945	2.5722053	1.6038096
19.167113614432136	2.5917122	1.6098796
19.184888662071433	2.6278589	1.6210672
19.202664175695123	2.5855997	1.60798
19.220440155767623	2.5602286	1.6000714
19.238216602753447	2.563017	1.6009425
19.2559935171172	2.5566902	1.5989654
19.27377089932361	2.5715635	1.6036096
19.291548749837514	2.5576582	1.599268
19.309327069123835	2.533885	1.5918181
19.32710585764763	2.4984965	1.5806633
19.344885115874032	2.493015	1.5789285
19.362664844268313	2.465114	1.5700682
19.380445043295822	2.4382393	1.5614862
19.39822571342203	2.4223714	1.556397
19.41600685511252	2.4371219	1.5611284
19.43378846883297	2.4534278	1.5663421
19.451570555049173	2.430896	1.559133
19.469353114227037	2.4047515	1.5507262
19.48713614683254	2.4256136	1.5574381
19.50491965333182	2.4505332	1.5654179
19.52270363419109	2.4710681	1.5719632
19.540488089876686	2.440956	1.562356
19.55827302085503	2.4454815	1.5638036
19.576058427592674	2.4810913	1.575148
19.593844310556282	2.5151165	1.5859119
19.611630670212598	2.4996123	1.5810162
19.629417507028506	2.4722672	1.5723444
19.64720482147098	2.455579	1.5670288
19.6649926140071	2.4436977	1.5632331
19.682780885104084	2.4088278	1.5520399
19.70056963522921	2.4234807	1.5567533
19.718358864849908	2.456034	1.5671738
19.7361485744337	2.4840221	1.576078
19.753938764448215	2.453339	1.5663139
19.771729435361202	2.4633174	1.5694959
19.789520587640506	2.4744625	1.5730424
19.807312221754092	2.481124	1.5751584
19.825104338170043	2.4714942	1.5720986
19.842896937356517	2.5146956	1.5857792
19.860690019781824	2.5525572	1.5976725
19.87848358591436	2.553283	1.5978996
19.896277636222635	2.5218194	1.5880238
19.914072171175278	2.4926045	1.5787984
19.931867191241015	2.467986	1.5709826
19.94966269688869	2.4952848	1.5796471
19.967458688587264	2.5424578	1.5945086
19.985255166805807	2.548332	1.5963496
20.00305213201348	2.5326226	1.5914216
20.020849584679578	2.5048184	1.5826619
20.038647525273507	2.4797196	1.5747125
20.05644595426477	2.4505446	1.5654216
20.07424487212299	2.441889	1.5626545
20.092044279317903	2.4064448	1.551272
20.109844176319353	2.4059362	1.5511081
20.127644563597304	2.4031515	1.5502101
20.145445441621817	2.3906794	1.5461822
20.16324681086307	2.3529382	1.533929
20.181048671791373	2.32862	1.5259817
20.198851024877122	2.3446922	1.5312388
20.216653870590836	2.4005702	1.5493773
20.234457209403146	2.414416	1.5538391
20.252261041784802	2.4034536	1.5503076
20.270065368206662	2.3775802	1.5419403
20.287870189139685	2.3914557	1.5464332
20.305675505054968	2.3788562	1.5423541
20.323481316423702	2.3409898	1.5300293
20.341287623717207	2.328379	1.5259026
20.359094427406884	2.3373141	1.5288277
20.376901727964288	2.3839958	1.5440193
20.39470952586107	2.3675735	1.5386921
20.41251782156899	2.3183408	1.5226098
20.430326615559935	2.2957354	1.5151684
20.448135908305886	2.2952673	1.5150139
20.465945700278965	2.3164146	1.5219772
20.483755991951384	2.2966607	1.5154737
20.50156678379548	2.3185143	1.5226668
20.519378076283708	2.323424	1.5242782
20.537189869888635	2.3786037	1.5422722
20.55500216508294	2.41481	1.5539659
20.572814962339415	2.4118698	1.5530195
20.59062826213098	2.3569815	1.5352464
20.60844206493066	2.3385596	1.529235
20.626256371211593	2.3191664	1.5228809
20.644071181447032	2.2749858	1.5083055
20.66188649611036	2.2525413	1.5008469
20.67970231567506	2.2818809	1.5105896
20.697518640614742	2.3046663	1.5181128
20.715335471403122	2.2716985	1.5072155
20.73315280851404	2.2621725	1.504052
20.750970652421447	2.3060145	1.5185567
20.768789003599412	2.3167832	1.5220983
20.786607862522136	2.255213	1.5017366
20.8044272296639	2.2217653	1.4905587
20.82224710549913	2.2174041	1.4890951
20.84006749050237	2.234163	1.4947116
20.857888385148268	3.8262913	1.9560908
20.8757097899116	45.968613	6.7800155
20.893531705267254	64.82582	8.051449
20.911354131690224	83.831	9.155927
20.92917706965566	69.05916	8.3101845
20.94700051963877	50.122814	7.0797467
20.96482448211493	29.407694	5.422886
20.982648957559622	4.164497	2.04071
21.00047394644843	2.2826514	1.5108446
21.01829944925707	2.2623723	1.5041184
21.036125466461375	2.2326918	1.4942194
21.053951998537297	2.1988912	1.4828658
21.071779045960906	2.1701283	1.4731356
21.089606609208378	2.1632335	1.4707935
21.10743468875603	2.1812885	1.4769186
21.12526328508028	2.1910746	1.480228
21.143092398657675	2.1940548	1.4812342
21.16092202996488	2.2249947	1.4916416
21.17875217947867	2.2519586	1.5006527
21.19658284767596	2.2308214	1.4935935
21.21441403503377	2.170777	1.4733558
21.232245742029225	2.1540227	1.4676589
21.2500779691396	2.1510055	1.4666307
21.26791071684227	2.155126	1.4680347
21.28574398561475	2.1531775	1.467371
21.30357777593465	2.1475239	1.4654433
21.321412088279704	2.1409369	1.463194
21.339246923127792	2.1159492	1.4546303
21.357082280956888	2.1168725	1.4549476
21.3749181622451	2.121317	1.4564742
21.392754567470647	2.1339633	1.4608091
21.41059149711187	2.1362	1.4615744
21.42842895164726	2.0876882	1.4448835
21.446266931555378	2.0863118	1.4444071
21.464105437314945	2.098995	1.4487909
21.481944469404798	2.121578	1.4565637
21.49978402830388	2.138944	1.4625129
21.51762411449127	2.1066675	1.4514364
21.53546472844617	2.0835571	1.4434532
21.553305870647876	2.0945697	1.4472629
21.571147541575865	2.117131	1.4550364
21.58898974170967	2.1177073	1.4552344
21.60683247152899	2.111272	1.4530218
21.62467573151363	2.0808203	1.4425049
21.642519522143523	2.0516438	1.432356
21.660363843898722	2.072147	1.4394953
21.6782086972594	2.0976155	1.4483147
21.696054082705864	2.065034	1.4370226
21.713900000718535	2.017037	1.4202242
21.73174645177795	2.0222042	1.4220423
21.749593436364794	2.0479374	1.4310616
21.767440954959845	2.0565813	1.4340786
21.785289008044032	2.0377717	1.4275054
21.803137596098388	2.0151806	1.4195706
21.820986719604086	1.9958833	1.4127574
21.838836379042412	2.0113263	1.4182124
21.85668657489478	2.0078094	1.4169719
21.87453730764273	1.9892164	1.4103959
21.892388577767914	1.9549396	1.3981916
21.91024038575213	1.9698311	1.4035068
21.928092732077285	1.9944689	1.4122567
21.945945617225426	2.0327437	1.4257432
21.963799041678694	2.0140338	1.4191666
21.981653005919398	31.315771	5.59605
21.999507510429943	78.11041	8.83801
22.01736255569286	73.09514	8.549569
22.035218142190818	4.1994486	2.0492556
22.05307427040661	2.032484	1.4256521
22.07093094082315	2.0092907	1.4174945
22.088788153923474	2.0270836	1.4237568
22.106645910190746	2.0193079	1.4210235
22.12450421010827	2.0250921	1.4230573
22.142363054159464	1.986681	1.4094967
22.16022244282787	2.0051408	1.4160299
22.178082376597164	2.0091004	1.4174274
22.195942855951145	1.9917328	1.4112877
22.213803881373742	1.9712414	1.404009
22.231665453349002	1.9493039	1.3961747
22.24952757236111	1.9745513	1.4051872
22.26739023889438	1.9673399	1.4026189
22.28525345343323	1.967771	1.4027727
22.30311721646225	1.960767	1.4002739
22.320981528466113	1.954633	1.3980819
22.33884638992964	1.9551346	1.3982613
22.356711801337788	1.949088	1.3960974
22.37457776317561	1.9269558	1.3881483
22.392444275928337	1.9292266	1.3889661
22.410311340081282	1.9626402	1.4009426
22.428178956119904	1.9776958	1.4063058
22.446047124529805	1.9329541	1.3903072
22.46391584579669	1.9170814	1.384587
22.481785120406414	1.9379383	1.3920985
22.49965494884496	1.9292897	1.3889887
22.51752533159841	1.9336566	1.3905598
22.53539626915302	1.9469404	1.395328
22.553267761995137	1.9364198	1.391553
22.571139810611264	1.9402735	1.3929371
22.589012415488025	1.898067	1.3777035
22.60688557711216	1.8624159	1.3647037
22.624759295970566	1.8544716	1.3617898
22.642633572550263	1.8667445	1.3662885
22.660508407338362	1.9075702	1.3811482
22.67838380082217	1.937622	1.3919849
22.696259753489077	1.933737	1.3905888
22.714136265826614	1.9315449	1.3898003
22.73201333832246	1.957859	1.3992351
22.74989097146439	1.9253922	1.387585
22.76776916574035	1.8953897	1.3767315
22.785647921638393	1.883043	1.3722402
22.803527239646712	1.8809896	1.3714917
22.82140712025363	1.9045438	1.3800521
22.839287563947593	1.8883166	1.3741603
22.85716857121719	1.9075793	1.3811514
22.875050142551135	1.8802385	1.3712178
22.892932278438277	1.8642695	1.3653826
22.910814979367604	1.8475354	1.3592408
22.928698245828222	1.8643107	1.3653977
22.946582078309387	1.8613245	1.3643037
22.96446647730047	1.8879608	1.3740308
22.98235144329098	1.9037263	1.3797559
23.000236976770562	1.936881	1.3917187
23.018123078229	1.9160262	1.3842059
23.03600974815619	1.9097987	1.3819547
23.053896987042194	1.9083753	1.3814396
23.071784795377173	1.8853484	1.3730799
23.08967317365145	1.8632591	1.3650125
23.10756212235546	1.8923357	1.3756219
23.125451641979787	1.9166336	1.3844254
23.143341733015134	1.9317843	1.3898864
23.161232395952357	1.9162929	1.3843023
23.179123631282426	1.9143586	1.3836035
23.197015439496468	1.8853548	1.3730822
23.214907821085717	1.873047	1.3685931
23.23280077654157	1.8750532	1.3693258
23.250694306355538	1.8865027	1.3735002
23.268588411019277	1.8927437	1.3757702
23.28648309102458	1.955482	1.3983855
23.304378346863356	1.9492577	1.3961582
23.322274179027676	1.9623367	1.4008343
23.340170588009723	1.9216899	1.3862503
23.358067574301852	1.8916022	1.3753552
23.37596513839651	1.8966509	1.3771895
23.39386328078629	1.8909439	1.375116
23.411762001963947	1.8873672	1.3738148
23.429661302422353	1.8878934	1.3740064
23.4475611826545	1.9096144	1.381888
23.46546164315356	1.922235	1.386447
23.48336268441279	1.9325705	1.3901693
23.501264306925638	1.9553044	1.398322
23.51916651118564	1.9360205	1.3914095
23.537069297686497	1.9356996	1.3912942
23.554972666922037	1.9047878	1.3801405
23.57287661938623	1.9015671	1.3789732
23.59078115557318	1.8789693	1.370755
23.608686275977128	1.8938713	1.3761799
23.62659198109246	1.8832635	1.3723204
23.6444982714137	1.8691962	1.3671855
23.66240514743549	1.9037235	1.3797549
23.68031260965263	1.8867105	1.3735758
23.698220658560068	1.8853067	1.3730648
23.716129294652845	1.8392148	1.3561765
23.7340385184262	1.8215864	1.3496616
23.75194833037546	1.811092	1.3457682
23.769858730996123	1.8680776	1.3667763
23.78776972078382	1.9124657	1.3829193
23.80568130023431	1.9193903	1.3854207
23.823593469843495	1.8935944	1.3760793
23.841506230107424	1.8763771	1.3698092
23.859419581522275	1.8833747	1.372361
23.87733352458438	1.8876028	1.3739005
23.89524805979019	1.9000298	1.3784157
23.913163187636318	1.9207596	1.3859147
23.931078908619508	1.9092524	1.381757
23.948995223236633	1.9217863	1.3862851
23.966912131984735	1.9613531	1.4004831
23.98482963536096	1.972744	1.404544
24.002747733862616	2.0008156	1.4145019
24.020666427987155	2.020595	1.4214764
24.038585718232156	2.0494301	1.431583
24.056505605095353	2.042155	1.42904
24.074426089074617	2.0296848	1.4246701
24.092347170667946	2.0458643	1.4303372
24.110268850373515	2.0435686	1.4295344
24.128191128689586	2.0235906	1.4225296
24.146114006114626	2.0232403	1.4224066
24.164037483147187	2.046813	1.4306687
24.181961560286005	2.0439236	1.4296585
24.199886238029926	2.0156233	1.4197265
24.21781151687797	2.0517588	1.4323962
24.235737397329274	2.0559707	1.4338657
24.253663879883135	2.0335617	1.42603
24.271590965038975	2.0033956	1.4154136
24.289518653296376	2.0070753	1.4167129
24.30744694515505	1.9862561	1.409346
24.32537584111486	2.0144556	1.4193152
24.34330534167581	2.030164	1.4248382
24.361235447338046	2.0305474	1.4249728
24.379166158601876	2.062234	1.436048
24.39709747596772	2.080695	1.4424614
24.41502939993615	2.053046	1.4328455
24.432961931007917	2.0002568	1.4143044
24.450895069683856	1.9369215	1.3917333
24.468828816465	1.9436321	1.394142
24.4867631718525	1.9748292	1.4052862
24.504698136347656	1.9749943	1.405345
24.52263371045192	1.9525001	1.3973188
24.540569894666874	1.9587554	1.3995554
24.558506689494266	1.938959	1.3924651
24.57644409543597	1.9213738	1.3861363
24.594382112994012	1.8928777	1.375819
24.61232074267057	1.9282767	1.3886241
24.630259984967953	1.9799793	1.4071174
24.64819984038863	2.0136113	1.4190177
24.66614030943522	2.0431364	1.4293832
24.684081392610462	2.0100996	1.4177798
24.702023090417274	1.9969845	1.413147
24.7199654033587	1.9770764	1.4060855
24.737908331937927	1.9808763	1.4074361
24.755851876658305	1.9887626	1.4102349
24.773796038023324	2.0342405	1.426268
24.79174081653661	2.0633185	1.4364256
24.809686212701962	2.0500357	1.4317945
24.827632227023294	2.0492268	1.431512
24.8455788600047	2.0618052	1.4358988
24.8635261121504	2.0744245	1.4402863
24.88147398396475	2.0761564	1.4408873
24.899422475952303	2.0829713	1.4432503
24.917371588617698	2.0759523	1.4408165
24.935321322465768	2.1425676	1.4637512
24.953271678001478	2.2710984	1.5070164
24.97122265572994	2.450925	1.565543
24.989174256156414	2.8073685	1.6755204
25.00712647978632	3.2957113	1.8154094
25.02507932712521	3.8535926	1.9630569
25.043032798678798	4.346609	2.0848522
25.060986894952933	5.027575	2.2422254
25.078941616453637	5.7644477	2.4009264
25.096896963687055	6.7746387	2.6028137
25.114852937159508	7.9791155	2.8247328
25.132809537377444	8.551425	2.924282
25.150766764847468	8.574906	2.9282942
25.168724620076347	7.921339	2.8144875
25.186683103570985	6.877098	2.6224222
25.204642215838426	5.7449007	2.3968523
25.222601957385894	4.3464756	2.0848203
25.24056232872074	3.2423868	1.8006629
25.25852333035048	2.5652263	1.6016324
25.276484962782778	2.1882172	1.4792624
25.294447226525435	2.0039935	1.4156247
25.312410122086423	1.9614606	1.4005215
25.330373649973843	1.946955	1.3953333
25.348337810695988	1.9447907	1.3945576
25.366302604761245	1.9321986	1.3900355
25.384268032678207	1.9433824	1.3940525
25.40223409495558	1.9090495	1.3816836
25.420200792102257	1.8777424	1.3703074
25.438168124627246	1.8670686	1.3664072
25.45613609303974	1.9112566	1.382482
25.474104697849057	1.9524146	1.3972883
25.492073939564698	1.9322071	1.3900385
25.510043818696285	1.905325	1.3803351
25.528014335753614	1.8956168	1.376814
25.54598549124664	1.8469849	1.3590382
25.56395728568544	1.8613089	1.364298
25.58192971958028	1.8835547	1.3724266
25.59990279344156	1.8885844	1.3742578
25.617876507779833	1.875548	1.3695065
25.635850863105826	1.870059	1.367501
25.653825859930386	1.8595581	1.3636562
25.671801498764548	1.8646067	1.365506
25.68977778011949	1.8651382	1.3657006
25.707754704506524	1.8622559	1.364645
25.725732272437153	1.8959885	1.376949
25.743710484423012	1.8567493	1.3626258
25.761689340975888	1.8367926	1.3552833
25.77966884260774	1.8264906	1.3514773
25.797648989830662	1.8301363	1.3528253
25.815629783156922	1.8010646	1.3420374
25.83361122309895	1.7748429	1.3322322
25.85159331016929	1.7523922	1.3237795
25.869576044880695	1.794869	1.3397272
25.887559427746034	1.8388337	1.3560361
25.90554345927836	1.8552889	1.3620899
25.92352813999086	1.8405571	1.3566713
25.94151347039689	1.8283406	1.3521615
25.959499451009965	1.8565956	1.3625695
25.97748608234374	1.8529357	1.3612258
25.995473364912062	1.8769976	1.3700356
26.013461299228904	1.8882847	1.3741487
26.03144988580839	1.8821005	1.3718966
26.04943912516483	1.8304218	1.3529308
26.067429017812675	1.8040959	1.3431664
26.085419564266537	1.7781142	1.3334595
26.103410765041186	1.7589166	1.3262415
26.12140262065155	1.7986581	1.3411406
26.139395131612723	1.8106861	1.3456174
26.157388298439948	1.8588883	1.3634105
26.17538212164861	1.8549863	1.3619788
26.193376601754295	1.8781905	1.3704709
26.211371739272714	1.8040634	1.3431543
26.229367534719746	1.7273011	1.3142682
26.247363988611433	1.7189553	1.3110894
26.26536110146397	1.7630478	1.3277981
26.283358873793727	1.7819227	1.3348868
26.301357306117204	1.7561562	1.3252004
26.319356398951104	1.7525496	1.323839
26.33735615281224	1.8024166	1.3425411
26.35535656821762	1.8278687	1.351987
26.373357645684404	1.807486	1.3444278
26.39135938572991	1.7851844	1.336108
26.409361788871614	1.7256838	1.3136529
26.427364855627165	1.737051	1.3179723
26.445368586514352	1.757603	1.3257462
26.46337298205115	1.8235373	1.3503841
26.48137804275568	1.8385472	1.3559304
26.499383769146217	1.8173496	1.3480911
26.517390161741215	1.7843864	1.3358092
26.53539722105928	1.7907714	1.3381971
26.553404947619182	1.7971268	1.3405696
26.571413341939856	1.7935078	1.3392191
26.589422404540397	1.7931974	1.3391032
26.60743213594006	1.8006952	1.3418999
26.62544253665827	1.803506	1.3429468
26.64345360721459	1.8516861	1.3607668
26.66146534812879	1.856994	1.3627157
26.679477759920758	1.8615767	1.3643961
26.69749084311057	1.8708276	1.367782
26.71550459821847	1.8756609	1.3695477
26.733519025764842	1.8379629	1.3557149
26.751534126270258	1.7686384	1.3299017
26.769549900255434	1.7748109	1.3322203
26.787566348241267	1.8191602	1.3487625
26.80558347074881	1.8409508	1.3568164
26.823601268299267	1.8562363	1.3624376
26.841619741414036	1.8981965	1.3777505
26.85963889061465	1.8849612	1.3729389
26.877658716422832	1.845026	1.3583174
26.89567921936045	1.8307285	1.3530442
26.913700399949544	1.7918371	1.3385952
26.93172225871233	1.7742244	1.3320001
26.949744796171174	1.7864969	1.336599
26.967768012848605	1.7908039	1.3382093
26.98579190926733	1.7401135	1.3191336
27.003816485950225	1.7666067	1.3291376
27.021841743420318	1.8217682	1.349729
27.039867682200814	1.8756452	1.369542
27.057894302815072	1.8351979	1.3546947
27.07592160578664	1.8302248	1.352858
27.0939495916392	1.7888958	1.3374962
27.111978260896635	1.7887099	1.3374265
27.13000761408296	1.7966805	1.3404031
27.148037651722397	1.786914	1.336755
27.166068374339304	1.780916	1.3345096
27.184099782458215	1.7834249	1.3354493
27.20213187660384	1.7992778	1.3413717
27.22016465730105	1.762034	1.3274163
27.23819812507487	1.7488747	1.3224503
27.256232280450533	1.7450432	1.3210008
27.274267123953383	1.7879996	1.3371611
27.292302656108987	1.8252848	1.3510311
27.31033887744306	1.8290923	1.3524394
27.32837578848146	1.8230088	1.3501884
27.34641338975026	1.8302234	1.3528575
27.364451681775673	1.822743	1.35009
27.382490665084074	1.7764024	1.3328174
27.400530340202046	1.7409676	1.3194573
27.41857070765629	1.7840791	1.3356942
27.436611767973726	1.793876	1.3393565
27.454653521681404	1.8069575	1.3442311
27.472695969306564	1.8425219	1.3573953
27.490739111376627	1.8349944	1.3546196
27.508782948419153	1.8058426	1.3438164
27.526827480961902	1.8074771	1.3444245
27.54487270953279	1.8235496	1.3503886
27.562918634659898	1.8761886	1.3697404
27.580965256871508	1.8765597	1.3698758
27.599012576696026	1.8683109	1.3668617
27.617060594662068	1.8572171	1.3627975
27.63510931129842	1.8482101	1.359489
27.65315872713401	1.8267478	1.3515723
27.67120884269797	1.8221201	1.3498592
27.68925965851958	1.8297877	1.3526964
27.707311175128307	1.8171517	1.3480177
27.725363393053787	1.790366	1.3380456
27.74341631282583	1.741854	1.3197931
27.7614699349744	1.7499367	1.3228518
27.77952426002968	1.9578813	1.3992431
27.797579288521973	2.0684245	1.4382018
27.815635020981784	2.3959816	1.5478958
27.83369145793979	2.4458888	1.5639337
27.85174859992682	2.3648632	1.5378112
27.869806447473923	2.2502234	1.5000745
27.887865001112267	1.9935522	1.4119321
27.905924261373233	1.8845595	1.3727926
27.92398422878836	1.8598686	1.36377
27.94204490388936	1.8552396	1.3620719
27.96010628720813	1.9220558	1.3863823
27.978168379276728	1.9669733	1.4024882
27.9962311806274	1.9269061	1.3881304
28.014294691792568	1.8480232	1.3594202
28.0323589133048	1.8466078	1.3588995
28.050423845696887	1.8493174	1.3598961
28.068489489501758	1.8684472	1.3669115
28.086555845252523	1.8729596	1.3685611
28.104622913482487	1.8690751	1.3671412
28.122690694725115	1.8413683	1.3569703
28.14075918951405	1.8546532	1.3618566
28.15882839838312	1.9056853	1.3804656
28.176898321866304	1.9245297	1.3872741
28.1949689604978	1.9212408	1.3860883
28.213040314811945	1.8891666	1.3744695
28.23111238534327	1.8568397	1.3626591
28.249185172626493	1.8648443	1.3655931
28.267258677196473	1.8814843	1.371672
28.285332899588294	1.9407684	1.3931146
28.303407840337172	1.9273618	1.3882946
28.321483499978545	1.9194485	1.3854417
28.33955987904799	1.9157372	1.3841015
28.357636978081285	1.8928357	1.3758037
28.37571479761439	1.8962883	1.3770578
28.393793338183425	1.9509903	1.3967786
28.41187260032469	1.9778914	1.4063753
28.429952584574686	2.0267286	1.4236321
28.448033291470065	2.018061	1.4205847
28.46611472154769	1.9373038	1.3918706
28.484196875344566	1.9286659	1.3887641
28.502279753397914	1.9336245	1.3905482
28.52036335624511	1.9500421	1.3964391
28.538447684423716	1.9922154	1.4114586
28.556532738471482	1.974897	1.4053103
28.574618518926325	2.0145726	1.4193565
28.59270502632635	2.0368276	1.4271747
28.61079226120985	2.0348403	1.4264783
28.628880224115274	1.9873506	1.4097342
28.646968915581287	1.9999378	1.4141916
28.66505833614671	2.0227935	1.4222494
28.68314848635055	2.093449	1.4468757
28.701239366732004	2.0998676	1.449092
28.71933097783044	2.0795612	1.4420683
28.737423320185403	1.9850717	1.4089257
28.75551639433665	1.995818	1.4127343
28.773610200824074	2.0541677	1.4332368
28.791704740187793	2.0658042	1.4372905
28.80980001296809	2.0541666	1.4332364
28.827896019705413	2.1165812	1.4548475
28.845992760940433	2.1705675	1.4732846
28.86409023721397	2.1811752	1.4768802
28.88218844906704	2.115283	1.4544013
28.900287397040845	2.113984	1.4539547
28.918387081676755	2.2055802	1.4851196
28.936487503516343	2.2790859	1.5096642
28.954588663101365	2.326835	1.5253966
28.97269056097374	2.300461	1.5167271
28.990793197675597	2.297637	1.5157958
29.00889657374923	2.3222244	1.5238847
29.027000689737125	2.3569596	1.5352392
29.04510554618196	2.3423247	1.5304655
29.06321114362659	2.3493307	1.5327526
29.08131748261405	2.4310017	1.559167
29.099424563687567	2.43697	1.5610797
29.11753238739057	2.4755902	1.5734009
29.13564095426663	2.4810157	1.575124
29.15375026485954	2.5111637	1.5846652
29.171860319713275	2.5720615	1.6037648
29.18997111937199	2.6543548	1.629219
29.20808266438002	2.7338138	1.6534249
29.226194955281898	2.7676003	1.6636106
29.244307992622335	2.801436	1.6737491
29.26242177694624	2.8612266	1.691516
29.2805363087987	2.87357	1.6951607
29.29865158872498	2.8560834	1.689995
29.316767617270557	2.9061968	1.7047571
29.334884394981064	2.9761033	1.7251387
29.353001922402367	2.935745	1.7134016
29.37112020008047	2.9698746	1.7233324
29.389239228561596	3.1283371	1.7687106
29.407359008392152	3.38805	1.8406657
29.42547954011872	3.7835076	1.945124
29.44360082428809	4.4191146	2.102169
29.46172286144722	5.4211335	2.3283327
29.479845652143283	7.0125155	2.6481154
29.497969196923606	9.136536	3.0226703
29.516093496335728	11.769609	3.4306865
29.5342185509274	14.794574	3.8463714
29.55234436124651	17.32537	4.1623755
29.570470927841175	18.931973	4.3510885
29.588598251259686	18.766567	4.33204
29.60672633205055	17.441359	4.1762853
29.624855170762405	15.079647	3.8832521
29.642984767944146	12.0417185	3.470118
29.66111512414481	9.167766	3.0278318
29.67924623991366	6.764137	2.6007955
29.697378115800138	5.103937	2.2591896
29.71551075235387	4.1420236	2.0351963
29.733644150124675	3.7105274	1.926273
29.751778309662576	3.4721684	1.8633755
29.769913231517766	3.3969972	1.8430945
29.78804891624066	3.3244743	1.8233141
29.806185364381818	3.239062	1.7997395
29.82432257649206	3.196544	1.7878882
29.842460553122333	3.225171	1.7958761
29.86059929482382	3.2921357	1.8144244
29.878738802147872	3.3002026	1.816646
29.896879075646048	3.2516103	1.8032222
29.915020115870114	3.233043	1.7980665
29.933161923371976	3.1946633	1.7873621
29.951304498703777	3.1960888	1.7877609
29.969447842417857	3.2092164	1.7914286
29.987591955066733	3.2233467	1.7953681
30.005736837203123	3.1523075	1.7754738
30.023882489379943	3.1168246	1.7654531
30.04202891215028	3.1998413	1.78881
30.060176106067455	3.2277708	1.7965997
30.078324071684946	3.1674972	1.7797464
30.09647280955646	3.0550482	1.7478696
30.114622320235863	3.0681484	1.751613
30.132772604277257	3.1207042	1.7665515
30.1509236622349	3.1574416	1.7769191
30.16907549466328	3.0461888	1.7453334
30.18722810211705	2.9876528	1.7284828
30.205381485151097	2.9962149	1.7309577
30.22353564432045	3.0015366	1.7324944
30.241690580180403	2.9933925	1.7301424
30.25984629328638	3.0205193	1.7379642
30.278002784194037	3.049978	1.7464186
30.296160053459246	3.0170522	1.7369664
30.314318101638033	2.9724877	1.7240903
30.332476929286646	2.9173858	1.7080357
30.35063653696153	2.895384	1.7015828
30.368796925219307	2.8661373	1.692967
30.386958094616844	2.8520212	1.6887928
30.40512004571115	2.9103885	1.705986
30.423282779059463	2.9426916	1.7154275
30.441446295219233	2.880575	1.6972257
30.459610594748067	2.8481033	1.6876324
30.47777567820382	2.8329866	1.6831478
30.495941546144504	2.825146	1.680817
30.51410819912835	2.8006976	1.6735284
30.532275637713795	2.7485874	1.6578864
30.55044386245946	2.7453082	1.6568972
30.56861287392416	2.7774549	1.6665698
30.586782672666956	2.8069007	1.6753808
30.604953259247047	2.8020442	1.6739308
30.623124634223885	2.7823412	1.6680351
30.641296798157075	2.7928154	1.6711719
30.659469751606462	2.7987218	1.6729381
30.677643495132074	2.8014739	1.6737604
30.695818029294152	2.8057964	1.6750512
30.713993354653116	2.6987247	1.6427796
30.73216947176962	2.658045	1.6303512
30.75034638120448	2.7458148	1.65705
30.768524083518756	2.8180072	1.6786921
30.786702579273673	2.802059	1.6739352
30.80488186903069	2.808316	1.6758031
30.82306195335144	2.8616734	1.6916481
30.841242832797782	3.0146182	1.7362655
30.85942450793176	3.3440647	1.8286784
30.877606979315637	3.7739134	1.9426563
30.895790247511883	4.141848	2.0351532
30.913974313083134	4.4925475	2.119563
30.932159176592283	4.8249736	2.1965823
30.95034483860237	4.81016	2.1932077
30.968531299676698	4.608698	2.146788
30.98671856037873	4.4008327	2.0978162
31.00490662127215	4.0420766	2.0104916
31.023095482920848	3.5841324	1.8931805
31.04128514588892	3.147644	1.7741601
31.059475610740662	2.8455555	1.6868775
31.07766687804056	2.6316974	1.6222507
31.09585894835335	2.5333123	1.5916382
31.11405182224393	2.458023	1.5678084
31.132245500277417	2.398161	1.5485997
31.15043998301914	2.4341745	1.5601841
31.168635271034628	2.457008	1.5674846
31.18683136488964	2.407059	1.5514699
31.20502826515008	2.3961992	1.5479661
31.223225972382135	2.3802528	1.5428069
31.241424487152155	2.3689177	1.5391289
31.259623810026692	2.4066746	1.5513461
31.27782394157253	2.426749	1.5578026
31.296024882356644	2.388201	1.5453806
31.314226632946237	2.375579	1.5412914
31.332429193908684	2.364486	1.5376885
31.350632565811598	2.3551486	1.5346494
31.368836749222787	2.4517608	1.56581
31.387041744710295	2.4841897	1.5761312
31.40524755284232	2.4313483	1.5592781
31.423454174187317	2.3811874	1.5431097
31.441661609313922	2.4242673	1.5570059
31.459869858791002	2.4105835	1.5526054
31.478078923187628	2.451	1.565567
31.496288803073064	2.4924736	1.5787569
31.514499499016807	2.4485123	1.5647722
31.532711011588546	2.377329	1.541859
31.550923341358178	2.3254826	1.5249534
31.56913648889584	2.2763894	1.5087708
31.587350454771844	2.2674975	1.5058212
31.605565239556732	2.2400484	1.4966791
31.62378084382127	2.2105522	1.4867926
31.641997268136382	2.194669	1.4814415
31.660214513073274	2.3336294	1.5276221
31.67843257920331	2.3249974	1.5247942
31.6966514670981	2.2664616	1.5054772
31.71487117732944	2.2611465	1.5037109
31.733091710469346	2.3240755	1.5244919
31.751313067090052	2.3005517	1.516757
31.769535247764008	2.2917776	1.5138618
31.787758253063878	2.3106053	1.5200676
31.805982083562526	2.3155355	1.5216883
31.824206739833024	2.2732348	1.507725
31.84243222244869	2.210256	1.486693
31.860658531983013	2.1405811	1.4630725
31.878885669009737	2.1853044	1.4782776
31.897113634102784	2.2725313	1.5074917
31.91534242783632	2.2992437	1.5163257
31.933572050784694	2.2529178	1.5009723
31.951802503522508	2.1684906	1.4725796
31.970033786624548	2.1778889	1.4757673
31.988265900665834	2.1791835	1.4762058
32.006498846221575	2.1594307	1.4695002
32.02473262386724	2.1553087	1.468097
32.04296723417845	2.1862996	1.4786141
32.0612026777311	2.1837637	1.4777563
32.07943895510129	2.0835638	1.4434555
32.097676066865304	2.0140014	1.4191551
32.115914013599685	2.0616972	1.4358611
32.13415279588115	2.126486	1.4582475
32.152392414286666	2.1407712	1.4631374
32.1706328693934	2.114339	1.4540768
32.18887416177875	2.1180346	1.455347
32.20711629202032	2.1063206	1.4513168
32.225359260695924	2.0664592	1.4375184
32.243603068383614	2.0835233	1.4434415
32.26184771566166	2.143007	1.4639013
32.28009320310852	2.0595574	1.4351158
32.2983395313029	1.9790797	1.4067976
32.31658670082372	2.04862	1.4313
32.33483471225012	2.0302162	1.4248565
32.35308356616143	1.9619342	1.4006907
32.371333263137245	2.0028446	1.415219
32.38958380375734	2.0881052	1.4450277
32.407835188601744	2.06669	1.4375987
32.42608741825067	2.0444312	1.429836
32.444340493284585	2.0559182	1.4338473
32.46259441428416	2.1794436	1.4762939
32.48084918183028	2.2167437	1.4888732
32.49910479650405	2.1882837	1.4792849
32.51736125888683	2.112288	1.4533713
32.53561856956014	2.141496	1.4633851
32.5538767291058	2.1305912	1.4596545
32.572135738105764	2.126339	1.4581971
32.59039559714228	2.011576	1.4183004
32.608656306797776	2.035927	1.4268591
32.62691786765491	2.1207702	1.4562864
32.645180280296586	2.105916	1.4511775
32.663443545305896	2.0802305	1.4423004
32.68170766326619	2.1206713	1.4562525
32.69997263476099	2.208673	1.4861605
32.7182384603741	2.172508	1.473943
32.7365051406895	2.0788882	1.441835
32.75477267629144	2.0076282	1.416908
32.77304106776434	2.0548124	1.4334617
32.79131031569289	2.0885365	1.445177
32.809580420661966	2.0094867	1.4175637
32.827851383256714	1.9633964	1.4012125
32.84612320406245	1.9292531	1.3889755
32.86439588366476	2.0028586	1.4152238
32.88266942264945	1.9905328	1.4108624
32.9009438216025	1.9584296	1.399439
32.9192190811102	1.9035916	1.3797071
32.937495201758985	1.9481417	1.3957585
32.95577218413556	2.0230417	1.4223367
32.974050028826866	2.0736287	1.44001
32.992328736420035	2.0415123	1.428815
33.010608307502444	1.9656676	1.4020227
33.02888874266169	1.9486307	1.3959336
33.047170042485604	1.9553758	1.3983475
33.06545220756225	2.0198774	1.4212239
33.083735238479896	2.0031116	1.4153132
33.10201913582707	1.9500327	1.3964357
33.12030390019248	2.0309417	1.4251112
33.138589532165135	1.9948394	1.4123878
33.15687603233419	1.9168993	1.3845214
33.17516340128909	1.8505936	1.3603653
33.19345163961947	1.8567772	1.3626361
33.211740747915215	1.888616	1.3742692
33.23003072676643	1.9198669	1.3855926
33.248321576763466	1.8384076	1.355879
33.266613298496885	1.9138882	1.3834335
33.28490589255747	2.004884	1.4159392
33.30319935953626	1.9934906	1.4119103
33.32149370002451	1.8994439	1.3782032
33.339788914613706	1.9307029	1.3894974
33.358085003895575	2.0053153	1.4160916
33.376381968462034	2.0109403	1.4180763
33.39467980890529	2.0001912	1.4142811
33.41297852581774	1.9690478	1.4032277
33.43127811979204	1.941686	1.393444
33.44957859142105	1.8814367	1.3716547
33.467879941297866	1.9001251	1.3784503
33.486182170015844	1.9975718	1.4133548
33.50448527816853	1.9601119	1.4000399
33.522789266349754	2.0344818	1.4263526
33.541094135153514	1.995566	1.412645
33.55939988517411	1.8903489	1.3748996
33.57770651700602	1.8630041	1.3649191
33.59601403124398	1.8921573	1.3755571
33.61432242848296	1.8846703	1.3728329
33.632631709318154	1.9064232	1.3807329
33.650941874344994	1.795891	1.3401086
33.66925292415916	1.831263	1.3532417
33.68756485935654	1.9270109	1.3881682
33.70587768053328	1.9263093	1.3879155
33.724191388285746	1.9717708	1.4041976
33.74250598321054	2.043428	1.4294852
33.760821465904506	1.9481254	1.3957527
33.77913783696474	1.872207	1.3682861
33.79745509698852	1.8693801	1.3672527
33.815773246573414	1.9555527	1.3984108
33.8340922863172	2.1322634	1.4602271
33.852412216817896	2.0925384	1.4465609
33.87073303867377	1.8518643	1.3608322
33.889054752483304	1.8754866	1.3694841
33.907377358845245	1.97176	1.4041938
33.92570085835853	2.0086524	1.4172693
33.94402525162239	2.0239294	1.4226487
33.96235053923627	2.105732	1.451114
33.980676721799824	2.0571156	1.4342648
33.999003799912984	1.8696289	1.3673438
34.01733177417592	1.7900152	1.3379145
34.03566064518901	1.9079397	1.3812819
34.0539904135529	1.9364067	1.3915483
34.07232107986846	1.8884887	1.3742229
34.090652644736785	1.92118	1.3860664
34.108985108759235	2.003743	1.4155363
34.12731847253742	2.0229404	1.422301
34.14565273667313	1.959401	1.3997861
34.16398790176847	1.9069325	1.3809173
34.18232396842574	1.9734616	1.4047995
34.20066093724749	1.9662161	1.4022182
34.21899880883651	1.8472013	1.3591179
34.23733758379583	1.8436564	1.3578131
34.25567726272874	1.8923899	1.3756416
34.27401784623872	1.8541391	1.3616678
34.29235933492957	1.8575996	1.3629378
34.31070172940526	1.9575995	1.3991424
34.32904503027003	1.9607084	1.4002529
34.347389238128386	2.01879	1.4208413
34.36573435358502	2.114416	1.4541031
34.38408037724492	2.1405299	1.463055
34.402427309713296	1.980057	1.407145
34.42077515159559	1.8847669	1.3728682
34.43912390349752	1.7976143	1.3407514
34.45747356602499	1.7464306	1.3215259
34.47582413978423	1.7898592	1.3378562
34.49417562538163	1.9057052	1.3804728
34.51252802342388	1.9498897	1.3963845
34.53088133451789	2.004905	1.4159467
34.54923555927084	2.1176937	1.4552298
34.567590698290104	2.114676	1.4541925
34.58594675218336	1.9472148	1.3954264
34.6043037215585	1.9588307	1.3995824
34.62266160702365	2.0514991	1.4323056
34.641020409187234	1.9885894	1.4101735
34.65938012865785	1.8022453	1.3424773
34.677740766044394	1.8414744	1.3570094
34.69610232195598	1.9960998	1.4128339
34.714464797002016	1.9933234	1.411851
34.73282819179208	1.9545541	1.3980536
34.751192506936064	1.9810916	1.4075125
34.76955774304408	1.9856113	1.4091172
34.7879239007265	1.9909639	1.4110153
34.80629098059391	1.945895	1.3949534
34.824658983257194	1.768267	1.329762
34.843027909327446	1.7502509	1.3229705
34.86139775941603	1.817288	1.3480682
34.879768534134534	1.8900896	1.3748053
34.89814023409483	1.9316977	1.3898553
34.91651285990901	2.0076642	1.4169207
34.93488641218944	1.9266034	1.3880215
34.95326089154871	2.0445461	1.4298762
34.97163629859967	2.0830219	1.4432678
34.99001263395542	1.9324944	1.3901418
35.00838989822934	2.0451548	1.4300891
35.02676809203499	2.2357156	1.4952309
35.04514721598624	2.1269064	1.4583917
35.063527270697215	1.9874183	1.4097582
35.081908256782256	1.918855	1.3852274
35.10029017485597	1.8053838	1.3436457
35.11867302553321	1.9661803	1.4022055
35.137056809429104	1.9936402	1.4119632
35.155441527159006	1.9982271	1.4135866
35.173827179338524	2.0104742	1.4179119
35.19221376658354	1.9677637	1.40277
35.21060128951017	1.9083408	1.381427
35.2289897487348	1.8863422	1.3734417
35.24737914487405	2.0661438	1.4374087
35.26576947854479	2.0707307	1.4390033
35.28416075036418	1.9331827	1.3903894
35.30255296094958	1.9064982	1.38076
35.32094611091867	1.9831702	1.4082507
35.33934020088932	2.2747192	1.5082172
35.35773523147969	2.2787788	1.5095625
35.3761312033082	2.152686	1.4672035
35.394528116993506	2.1449687	1.4645712
35.41292597315452	2.370387	1.5396061
35.431324772410434	2.414417	1.5538394
35.449724515380666	2.3553047	1.5347002
35.46812520268491	2.5223343	1.5881859
35.486526834943106	2.6058898	1.6142769
35.504929412775454	2.092378	1.4465054
35.52333293680242	1.7547706	1.3246776
35.54173740764471	1.8422048	1.3572785
35.560142825923286	2.0217812	1.4218935
35.5785491922594	1.9501292	1.3964702
35.59695650727454	2.0285015	1.4242548
35.61536477159042	2.4718385	1.5722082
