0.008763373481513119	0.0	0.0
0.026290120649546365	0.11242709	0.3353015
0.043816868432600686	0.28853983	0.537159
0.06134361724069026	0.26519737	0.51497316
0.07887036748382949	0.25934246	0.5092568
0.0963971195720331	0.2336179	0.48334035
0.11392387391531617	0.21900825	0.4679832
0.1314506309236943	0.18589108	0.43115088
0.1489773910071836	0.085077554	0.29168057
0.16650415457580078	0.08653876	0.2941747
0.18403092203956356	0.08244852	0.2871385
0.20155769380849	0.12541018	0.354133
0.2190844702925996	0.10597051	0.32553113
0.2366112519019124	0.08838506	0.29729626
0.2541380390464497	0.09211781	0.30350915
0.27166483213623416	0.09645153	0.31056646
0.28919163158128947	0.115198135	0.33940852
0.3067184377916406	0.14150497	0.37617147
0.324245251177314	0.19069858	0.43669048
0.34177207214833777	0.21345076	0.4620073
0.3592989011147415	0.22129025	0.47041497
0.37682573848655654	0.17910796	0.4232115
0.39435258467381573	0.17714286	0.42088342
0.41187944008655414	0.15592651	0.39487532
0.42940630513480854	0.13718142	0.3703801
0.446933180228618	0.13839582	0.3720159
0.4644600657780234	0.13992138	0.37406066
0.48198696219306775	0.17615038	0.41970274
0.49951386988379676	0.13480073	0.36715218
0.5170407892602581	0.12878191	0.35886198
0.5345677207325025	0.14059174	0.37495565
0.5520946647105822	0.15250482	0.39051867
0.5696216216045534	0.18116103	0.42563015
0.5871485918244737	0.18435098	0.42936113
0.6046755757804043	0.21804953	0.46695775
0.6222025738824094	0.25188905	0.5018855
0.6397295865405557	0.22946163	0.47902152
0.6572566141649129	0.21536045	0.46406946
0.6747836571655547	0.16078047	0.4009744
0.6923107159525568	0.16319501	0.40397403
0.7098377909359992	0.14264387	0.37768224
0.7273648825259653	0.16812463	0.41003004
0.7448919911325411	0.16007999	0.40009996
0.762419117165817	0.17036492	0.41275284
0.7799462610358868	0.17437291	0.41757983
0.7974734231528482	0.18068877	0.42507502
0.8150006039268024	0.177205	0.42095724
0.8325278037678551	0.1923215	0.43854475
0.8500550230861152	0.16687286	0.40850073
0.8675822622916969	0.19318615	0.43952945
0.8851095217947171	0.18474191	0.42981613
0.9026368020052984	0.23705609	0.48688406
0.9201641033335665	0.23670581	0.48652422
0.9376914261896523	0.22629142	0.47570097
0.9552187709836915	0.21443474	0.463071
0.9727461381258234	0.22786295	0.47734994
0.990273528026193	0.24517663	0.49515313
1.0078009410949496	0.2991354	0.5469327
1.0253283777422473	0.3194919	0.56523615
1.0428558383782454	0.2921745	0.5405317
1.0603833234131086	0.29073554	0.539199
1.0779108332570058	0.33064955	0.5750213
1.0954383683201119	0.35992533	0.5999378
1.112965929012607	0.35948694	0.5995723
1.1304935157446763	0.4468096	0.6684382
1.1480211289265108	0.4886409	0.69902855
1.1655487689683062	1.3040718	1.1419597
1.1830764362802655	1.5930227	1.26215
1.200604131272596	2.0137637	1.4190714
1.2181318543555117	2.2928026	1.5142003
1.235659605939232	2.2660565	1.5053427
1.253187386433982	3.7848592	1.9454714
1.270715196249994	6.1469827	2.479311
1.2882430357975057	11.564696	3.4006906
1.3057709054867608	16.20317	4.025316
1.3232988057280106	22.085283	4.699498
1.3408267369315112	26.97617	5.1938586
1.358354699507526	30.65038	5.5362782
1.3758826938663256	34.697323	5.8904433
1.3934107204181858	36.609962	6.0506167
1.410938779573391	36.63807	6.052939
1.4284668717422309	36.69183	6.0573783
1.4459949973350033	35.94077	5.995062
1.4635231567620117	35.991325	5.999277
1.4810513504335687	35.726273	5.9771457
1.4985795787599925	35.354633	5.9459763
1.5161078421516088	34.819405	5.900797
1.5336361410187505	34.147327	5.8435717
1.5511644757717598	33.992874	5.830341
1.5686928468209842	34.29918	5.85655
1.58622125457678	34.993576	5.915537
1.6037496994495108	35.912796	5.9927287
1.621278181849548	36.268448	6.0223293
1.6388067021872719	37.3319	6.109984
1.6563352608730693	37.136337	6.093959
1.673863858317336	35.951614	5.9959664
1.6913924949304753	35.159664	5.9295583
1.7089211711228998	33.79272	5.813151
1.7264498873050296	33.23881	5.7653112
1.7439786438872935	32.543106	5.7046566
1.7615074412801288	31.77404	5.6368465
1.779036279893981	31.115387	5.578117
1.796565160139305	29.63791	5.4440713
1.814094082426564	28.889833	5.3749266
1.8316230471662298	28.021769	5.293559
1.849152054768784	27.239172	5.219116
1.8666811056447168	26.724165	5.169542
1.8842102002045273	25.980387	5.097096
1.901739338858724	25.529228	5.0526457
1.9192685220178245	25.027405	5.00274
1.9367977500923557	24.382011	4.937814
1.9543270234928547	23.771572	4.87561
1.971856342629867	23.047739	4.800806
1.9893857079139496	22.590626	4.7529597
2.006915119755667	22.344604	4.727008
2.0244445785655945	21.946352	4.6846933
2.0419740847543175	21.58744	4.646229
2.0595036387324317	21.254646	4.610276
2.0770332409105414	20.615608	4.5404415
2.094562891699263	20.30453	4.506055
2.1120925915092217	19.711948	4.439814
2.129622340751053	19.152327	4.376337
2.1471521398354043	187.23596	13.683419
2.1646819891729323	443.60562	21.061947
2.182211889174303	440.03156	20.976929
2.1997418402501974	452.30386	21.267437
2.2172718428113023	432.23688	20.790308
2.234801897268317	320.2013	17.894169
2.2523320040319548	16.818815	4.1010747
2.269862163512935	16.788599	4.097389
2.287392376121992	16.570084	4.0706367
2.304922642269869	16.134834	4.016819
2.322452962367322	15.703336	3.9627435
2.3399833368251164	15.141684	3.8912315
2.357513766054032	14.882201	3.8577456
2.3750442504648586	14.549802	3.8144202
2.3925747904683963	14.402379	3.7950466
2.410105386475459	14.170337	3.7643507
2.4276360388968707	13.930082	3.7323027
2.445166748143469	13.744883	3.7074091
2.4626975146261025	13.592698	3.6868277
2.4802283387556323	13.297392	3.646559
2.4977592209429305	12.997646	3.6052248
2.5152901615988825	12.641712	3.5555186
2.5328211611343865	12.562916	3.5444205
2.5503522199603523	12.362645	3.5160553
2.5678833384877024	12.335513	3.5121949
2.5854145171273712	12.166059	3.4879878
2.6029457562903064	12.091249	3.4772475
2.620477056387469	11.887199	3.4477818
2.6380084178298326	11.615596	3.408166
2.655539841028383	11.398642	3.3761873
2.673071326394119	11.17309	3.3426173
2.6906028743380523	11.0824995	3.3290389
2.708134485271211	10.9693165	3.3119957
2.7256661596046325	10.741332	3.2773972
2.743197897749369	10.43856	3.230876
2.760729700116486	10.182511	3.1910048
2.778261567117063	9.934501	3.1519043
2.795793499162193	9.833109	3.135779
2.8133254966629817	9.755213	3.1233337
2.830857560030551	9.668403	3.1094055
2.8483896896760337	9.556986	3.0914376
2.865921886010578	9.453772	3.0746987
2.883454149445347	9.374832	3.0618348
2.9009864803915177	9.246534	3.0408115
2.91851887926028	9.165067	3.0273862
2.9360513464628384	9.006226	3.0010374
2.953583882410413	8.950279	2.9917018
2.9711164875142373	8.789313	2.9646776
2.9886491621855606	8.745922	2.9573505
3.0061819068356455	8.605266	2.9334733
3.023714721875769	8.461016	2.9087825
3.041247607717225	8.296773	2.8804119
3.0587805647713213	8.173204	2.8588817
3.0763135934493806	8.03888	2.8352919
3.0938466941627407	7.8999085	2.8106775
3.1113798673227544	7.7940273	2.7917786
3.1289131133407904	7.797495	2.7923994
3.1464464326282315	7.7959595	2.7921245
3.1639798255964786	7.692315	2.7735023
3.1815132926569443	7.6161337	2.7597344
3.1990468342210603	7.5235987	2.742918
3.216580450700272	7.4841366	2.735715
3.2341141425060416	7.4163327	2.7232945
3.251647910049847	7.2582183	2.694108
3.2691817537431813	7.104464	2.66542
3.286715673997555	7.0318637	2.651766
3.3042496712244938	6.937161	2.6338491
3.32178374583554	6.9804196	2.6420484
3.339317898242251	6.883918	2.623722
3.3568521288562034	6.8145027	2.6104603
3.3743864380889876	6.746401	2.5973835
3.3919208263522127	6.6684065	2.5823257
3.4094552940575023	6.6409645	2.5770068
3.4269898416164972	6.5600185	2.5612533
3.444524469440858	6.420479	2.5338664
3.4620591779422587	6.2917123	2.5083287
3.479593967532391	6.266556	2.503309
3.4971288386229658	6.284827	2.5069559
3.5146637916257086	6.3188353	2.5137293
3.5321988269523628	6.201859	2.490353
3.5497339450146903	6.1610875	2.482154
3.5672691462244708	6.174443	2.4848425
3.5848044309934988	6.1783366	2.485626
3.60233979973359	6.196037	2.489184
3.619875252856575	6.199067	2.4897926
3.6374107907743034	6.1675334	2.4834518
3.6549464138986427	6.155504	2.4810288
3.6724821226414788	6.083931	2.4665625
3.690017917414714	6.0755105	2.464855
3.7075537986302702	6.14029	2.4779608
3.7250897667000857	6.2119007	2.4923685
3.7426258220361235	6.451334	2.5399477
3.7601619650503553	6.801665	2.608
3.777698196154779	7.269897	2.6962748
3.7952345157614067	8.300691	2.8810918
3.8127709242822716	9.00995	3.0016577
3.830307422129425	11.158435	3.3404243
3.847844009714936	29.973911	5.4748435
3.8653806874508954	97.46425	9.872398
3.882917455749409	96.74803	9.836058
3.900454315022606	96.53126	9.825032
3.917991265682631	41.18326	6.4174185
3.9355283081416506	10.971871	3.3123815
3.9530654428118495	8.865313	2.9774675
3.970602670105433	7.668137	2.7691402
3.9881399904346244	6.553464	2.5599735
4.005677404211669	6.338313	2.5176008
4.023214911848827	6.2765985	2.505314
4.0407525137583855	6.313702	2.5127082
4.058290210352644	6.358895	2.521685
4.075828002043927	6.2919245	2.5083709
4.0933658892445814	6.1923018	2.4884336
4.110903872366966	6.0719676	2.4641364
4.128441951823468	6.0158663	2.4527264
4.145980128026488	5.998587	2.4492013
4.163518401388452	6.014712	2.452491
4.181056772321807	6.0318995	2.4559925
4.1985952412390155	5.991767	2.4478085
4.216133808552567	5.9668493	2.4427135
4.233672474674966	6.041026	2.45785
4.251211240018741	6.3440967	2.518749
4.268750104996445	6.5676003	2.562733
4.286289070020643	7.5417295	2.7462208
4.303828135503928	9.11165	3.018551
4.3213673018589125	29.38525	5.4208164
4.3389065694982305	90.56613	9.5166235
4.356445938834537	165.64594	12.870351
4.3739854102805085	171.16357	13.08295
4.391524984248844	172.10577	13.118909
4.409064661152262	136.16716	11.669068
4.426604441403504	96.548706	9.82592
4.444144325415337	75.51996	8.690222
4.461684313600543	21.48044	4.6346993
4.47922440637193	21.974316	4.687677
4.496764604142329	20.28798	4.504218
4.5143049073245916	18.464443	4.297027
4.531845316331589	16.478868	4.0594172
4.5493858315762195	13.47607	3.6709769
4.566926453471405	11.158086	3.340372
4.584467182430081	9.166212	3.0275753
4.602008018865218	8.146236	2.8541613
4.619548963189798	7.5775146	2.7527287
4.637090015816834	7.0132375	2.6482518
4.654631177159353	6.6646404	2.5815964
4.672172447630417	6.33824	2.5175862
4.689713827643102	6.2110763	2.492203
4.7072553176105085	6.075753	2.4649043
4.724796917945764	5.914136	2.4318995
4.742338629062015	5.8027725	2.4088945
4.759880451372434	5.711372	2.3898478
4.777422385290215	5.591236	2.3645794
4.794964431228581	5.5768	2.3615248
4.812506589600768	5.5532155	2.3565261
4.830048860820047	5.574043	2.3609412
4.847591245299709	5.5354056	2.3527443
4.8651337434530655	5.550692	2.3559906
4.882676355693457	5.5066433	2.346624
4.900219082434242	5.415266	2.3270724
4.917761924088813	5.341313	2.3111281
4.935304881070575	5.3752103	2.31845
4.952847953792969	5.4593077	2.3365161
4.970391142669449	5.451048	2.334748
4.9879344481135055	5.376585	2.3187463
5.005477870538642	5.2831225	2.2985044
5.023021410358394	5.338858	2.310597
5.040565067986324	5.3993616	2.3236527
5.05810884383601	5.4249954	2.329162
5.075652738321066	5.373292	2.3180363
5.09319675185512	5.263731	2.2942822
5.110740884851836	5.27448	2.2966235
5.128285137724894	5.3093057	2.304193
5.145829510888007	5.299556	2.3020763
5.163374004754908	5.3083506	2.3039858
5.1809186197393595	5.2549324	2.292364
5.198463356255145	5.298895	2.3019328
5.216008214716077	5.329721	2.3086188
5.233553195535998	5.377095	2.3188565
5.251098299128764	5.3197603	2.3064606
5.268643525908272	5.248748	2.2910147
5.286188876288432	5.2307754	2.2870889
5.3037343506831895	5.212243	2.2830338
5.32127994950651	5.24742	2.2907248
5.3388256731723915	5.160176	2.271602
5.356371522094851	5.057629	2.2489173
5.373917496687938	5.063946	2.2503211
5.391463597365729	5.081368	2.254189
5.40900982454232	5.1666327	2.273023
5.426556178631843	5.138588	2.2668455
5.444102660048449	5.1141615	2.2614512
5.4616492692063225	5.085873	2.255188
5.479196006519669	5.101399	2.2586277
5.496742872402727	5.0923	2.2566125
5.514289867269756	5.088133	2.255689
5.531836991535049	5.117339	2.2621536
5.549384245612924	5.1145616	2.2615397
5.566931629917724	5.138366	2.2667964
5.584479144863822	5.1187243	2.2624598
5.6020267908656205	5.035169	2.2439182
5.619574568337545	4.9660172	2.2284563
5.637122477694054	4.9306355	2.2205033
5.654670519349629	4.9447126	2.223671
5.672218693718784	5.000849	2.2362578
5.689767001216059	4.985401	2.2328012
5.707315442256021	4.9701586	2.2293851
5.724864017253266	4.983674	2.2324145
5.7424127266224225	5.0226617	2.2411296
5.75996157077814	5.058377	2.2490835
5.777510550135105	5.0475464	2.2466745
5.795059665108022	5.032506	2.2433248
5.812608916111639	5.08128	2.2541695
5.830158303560715	5.2000985	2.2803724
5.847707827870055	5.191403	2.278465
5.86525748945448	5.256145	2.2926283
5.8828072887288485	5.4048424	2.3248317
5.900357226108044	5.531506	2.3519154
5.917907302006979	5.5612526	2.3582308
5.9354575168406	6.0593743	2.4615796
5.9530078710238765	6.5349627	2.5563574
5.970558364971812	7.020189	2.6495638
5.988108999099438	7.363081	2.7134998
6.005659773821818	7.811897	2.794977
6.023210689554039	7.6544285	2.7666638
6.040761746711227	8.052688	2.8377259
6.058312945708531	7.5124373	2.7408826
6.075864286961132	7.0832167	2.6614313
6.093415770884244	6.5485106	2.5590057
6.1109673978931065	5.985005	2.4464269
6.128519168402993	5.4666142	2.3380792
6.146071082829204	5.281043	2.298052
6.163623141587075	5.1826587	2.2765453
6.181175345091969	5.1235857	2.2635338
6.198727693759281	5.0490737	2.2470143
6.216280188004435	5.0154743	2.2395256
6.233832828242885	5.01355	2.2390957
6.251385614890126	5.078627	2.253581
6.268938548361669	5.107613	2.2600029
6.286491629073067	5.017066	2.2398808
6.304044857439898	4.923847	2.2189744
6.321598233877777	4.8802505	2.2091289
6.339151758802344	4.913427	2.2166252
6.356705432629277	4.9546294	2.2258997
6.37425925577428	4.937125	2.2219644
6.391813228653095	4.9323325	2.2208855
6.409367351681486	4.9559274	2.2261913
6.426921625275259	4.9151964	2.2170243
6.44447604985025	4.875128	2.2079692
6.46203062582232	4.8690305	2.206588
6.47958535360737	4.931296	2.220652
6.497140233621328	4.940858	2.222804
6.514695266280161	4.9475346	2.2243054
6.532250451999859	4.894386	2.2123258
6.549805791196454	4.9041495	2.2145314
6.567361284286002	4.930474	2.220467
6.584916931684597	4.946445	2.2240605
6.602472733808367	5.0290704	2.242559
6.6200286910734665	5.071506	2.2520003
6.637584803896092	5.0362134	2.2441509
6.655141072692462	4.99667	2.2353232
6.672697497878842	4.9384856	2.2222705
6.690254079871514	4.9576654	2.2265816
6.707810819086808	4.942876	2.223258
6.725367715941078	4.945814	2.2239187
6.742924770850719	5.0249853	2.241648
6.760481984232151	5.045269	2.2461677
6.778039356501836	4.9636545	2.227926
6.795596888076266	4.859757	2.2044857
6.813154579371963	4.8433595	2.2007635
6.830712430805492	4.8174763	2.194875
6.84827044279344	4.8758273	2.2081275
6.865828615752445	4.8846154	2.2101166
6.883386950099159	4.967845	2.2288663
6.900945446250287	5.0209036	2.2407372
6.918504104622553	5.042634	2.245581
6.936062925632727	5.1300235	2.2649555
6.953621909697607	5.0611567	2.2497015
6.971181057234028	4.9924865	2.2343872
6.988740368658859	4.9910355	2.2340624
7.006299844389007	5.060435	2.249541
7.023859484841407	5.150109	2.269385
7.041419290433036	5.2177067	2.28423
7.058979261580902	5.36414	2.3160613
7.0765393987020495	5.605725	2.3676412
7.094099702213559	6.0208206	2.453736
7.111660172532549	6.3216057	2.5142803
7.129220810076164	6.662364	2.5811555
7.146781615261595	7.3388114	2.709024
7.16434258850606	7.6152806	2.75958
7.181903730226821	8.143441	2.8536716
7.1994650408411704	8.126609	2.8507206
7.217026520766437	8.257127	2.8735216
7.234588170419983	8.425131	2.9026077
7.252149990219215	8.35293	2.8901436
7.269711980581568	8.3191	2.884285
7.2872741419245175	8.105315	2.8469834
7.304836474665574	7.6873984	2.772616
7.322398979222286	7.3404727	2.7093306
7.339961656012233	7.107685	2.6660242
7.357524505453039	6.801101	2.607892
7.375087527962357	6.5694537	2.5630946
7.392650723957886	6.2563977	2.501279
7.410214093857353	5.9684644	2.4430442
7.427777638078528	5.689836	2.3853378
7.445341357039213	5.4865384	2.3423362
7.4629052511572525	5.293042	2.3006613
7.480469320850524	5.17855	2.2756426
7.498033566536948	5.1502852	2.269424
7.5155979886344735	5.133412	2.2657034
7.5331625875610975	5.078902	2.2536418
7.550727363734844	5.050818	2.2474024
7.568292317573788	4.9932623	2.234561
7.585857449496025	4.9974513	2.235498
7.603422759919705	5.0443068	2.2459533
7.620988249263007	5.035115	2.243906
7.638553917944147	5.073854	2.2525218
7.656119766381391	5.0774016	2.253309
7.673685794993023	5.131172	2.2652092
7.691252004197388	5.1883664	2.2777987
7.70881839441285	5.173761	2.2745903
7.726384966057826	5.1648054	2.272621
7.743951719550762	5.124982	2.2638423
7.761518655310149	5.1129236	2.2611775
7.779085773754511	5.1121235	2.2610006
7.796653075302419	5.1086836	2.2602396
7.814220560372475	5.204883	2.2814212
7.831788229383323	5.257765	2.2929816
7.8493560827536495	5.260474	2.2935724
7.866924120902174	5.238374	2.2887495
7.884492344247663	5.220264	2.2847898
7.9020607532089135	5.233059	2.2875881
7.919629348204771	5.2467704	2.290583
7.937198129654115	5.2662816	2.294838
7.954767097975865	5.270979	2.2958612
7.972336253588986	5.28301	2.29848
7.989905596912472	5.3229446	2.3071508
8.007475128365371	5.345068	2.3119402
8.025044848366756	5.4259777	2.329373
8.042614757335754	5.6278105	2.3723006
8.060184855691523	5.7218375	2.3920362
8.07775514385327	5.876548	2.4241593
8.095325622240228	5.82955	2.414446
8.112896291271687	5.834485	2.415468
8.130467151366968	5.8616395	2.4210823
8.148038202945436	5.887902	2.4264998
8.165609446426497	5.9040966	2.4298346
8.183180882229594	5.8759685	2.4240396
8.200752510774217	5.8306217	2.414668
8.218324332479893	5.824972	2.413498
8.235896347766193	5.8301096	2.414562
8.253468557052724	5.8801126	2.4248943
8.27104096075914	5.90459	2.4299362
8.288613559305137	5.9355917	2.436307
8.306186353110448	5.974346	2.4442475
8.32375934259485	6.051075	2.4598932
8.341332528178162	6.024311	2.4544473
8.358905910280246	6.114032	2.4726567
8.376479489321003	6.1164293	2.4731417
8.394053265720377	6.158177	2.4815674
8.411627239898356	6.153616	2.4806483
8.42920141227497	6.1483116	2.479579
8.44677578327029	6.2007995	2.4901404
8.464350353304427	6.1070433	2.4712434
8.48192512279754	6.0805717	2.4658816
8.499500092169827	6.009362	2.4514
8.51707526184153	6.0089273	2.4513113
8.534650632232934	6.0684505	2.4634225
8.552226203764365	6.097514	2.4693146
8.569801976856192	6.1546717	2.4808612
8.587377951928834	6.153881	2.4807017
8.60495412940274	6.1285386	2.4755886
8.622530509698416	6.1561155	2.481152
8.6401070932364	6.2183204	2.493656
8.657683880437283	6.362903	2.5224795
8.675260871721695	6.5083623	2.5511491
8.692838067510303	6.676342	2.5838618
8.710415468223834	6.8433576	2.615981
8.727993074283043	7.0498405	2.6551535
8.745570886108737	7.082221	2.6612442
8.763148904121765	7.143303	2.6726959
8.78072712874302	7.107139	2.665922
8.798305560393441	7.2992907	2.70172
8.815884199494006	7.4918127	2.7371175
8.833463046465745	7.648555	2.765602
8.851042101729728	7.712183	2.7770817
8.86862136570707	7.9663157	2.8224661
8.886200838818924	8.103948	2.8467433
8.903780521486505	8.230485	2.8688822
8.921360414131055	8.318138	2.8841183
8.938940517173874	8.448443	2.9066205
8.956520831036297	8.647232	2.9406176
8.97410135613971	8.906101	2.9843092
8.99168209290554	8.995789	2.999298
9.009263041755265	9.202984	3.033642
9.026844203110405	9.4938	3.081201
9.044425577392525	9.713729	3.1166856
9.062007165023239	9.863298	3.1405888
9.079588966424197	10.01522	3.164683
9.097170982017108	10.077479	3.1745045
9.11475321222372	11.02714	3.3207138
9.132335657465825	11.966257	3.4592278
9.149918318165264	12.041308	3.470059
9.167501194743924	12.603349	3.5501196
9.18508428762374	12.301635	3.5073686
9.202667597226693	12.293466	3.506204
9.220251123974803	12.029389	3.468341
9.237834868290143	11.793579	3.434178
9.255418830594836	11.539656	3.397007
9.273003011311046	11.015496	3.3189602
9.290587410860985	10.782624	3.2836907
9.308172029666911	10.146482	3.1853545
9.32575686815113	9.876369	3.1426692
9.343341926735997	8.588797	2.9306648
9.360927205843916	8.37509	2.8939748
9.378512705897327	8.189811	2.8617845
9.396098427318728	7.958963	2.8211634
9.413684370530664	7.808411	2.7943535
9.431270535955722	7.7223773	2.7789166
9.448856924016539	7.6429152	2.7645824
9.466443535135806	7.518173	2.7419288
9.484030369736251	7.496814	2.738031
9.501617428240658	7.5307384	2.744219
9.519204711071852	7.634321	2.7630274
9.536792218652714	7.678667	2.7710407
9.55437995140617	7.664073	2.7684062
9.571967909755191	7.647934	2.7654898
9.589556094122802	7.723038	2.7790356
9.60714450493207	7.7988973	2.7926507
9.624733142606116	7.828276	2.7979057
9.642322007568108	7.788352	2.790762
9.659911100241267	7.8214707	2.7966893
9.677500421048851	7.914381	2.813251
9.695089970414175	7.983887	2.8255773
9.712679748760609	8.081299	2.8427625
9.730269756511557	8.067465	2.8403282
9.747859994090492	8.107675	2.8473978
9.765450461920915	8.114263	2.8485544
9.78304116042639	8.131317	2.8515465
9.800632090030527	8.143172	2.8536243
9.81822325115699	8.164969	2.857441
9.835814644229481	8.190359	2.8618803
9.853406269671762	8.191848	2.8621404
9.870998127907646	8.191063	2.8620033
9.888590219360985	8.18603	2.861124
9.906182544455698	8.225152	2.8679526
9.923775103615734	8.319906	2.8844247
9.941367897265108	8.228966	2.8686173
9.958960925827878	8.166617	2.8577294
9.97655418972816	8.078453	2.842262
9.994147689390106	8.102677	2.8465202
10.011741425237934	8.137995	2.8527172
10.029335397695904	8.139033	2.852899
10.04692960718833	8.173629	2.8589559
10.06452405413958	8.193073	2.8623545
10.082118738974064	8.248052	2.871942
10.099713662116246	8.234259	2.8695397
10.117308823990651	8.200271	2.8636115
10.134904225021844	8.114957	2.8486764
10.152499865634445	8.012326	2.8306053
10.170095746253125	7.9600983	2.8213646
10.18769186730261	7.931151	2.8162298
10.205288229207675	7.93046	2.8161073
10.222884832393145	7.975926	2.8241682
10.2404816772839	7.9628363	2.8218498
10.258078764304868	7.9678493	2.822738
10.275676093881035	7.91493	2.8133485
10.293273666437438	7.862424	2.8040013
10.310871482399158	7.892045	2.8092785
10.32846954219134	7.9272037	2.815529
10.346067846239173	8.0152	2.8311129
10.363666394967908	8.052749	2.8377366
10.38126518880283	8.039941	2.835479
10.398864228169298	8.0136595	2.8308408
10.416463513492713	7.9843793	2.8256643
10.434063045198531	8.03054	2.8338208
10.451662823712262	8.082633	2.842997
10.469262849459467	8.134076	2.8520303
10.486863122865758	8.08216	2.842914
10.504463644356806	8.059216	2.8388758
10.522064414358338	7.9281354	2.8156946
10.539665433296118	7.885972	2.8081973
10.557266701595987	7.7787533	2.7890418
10.574868219683818	7.7288136	2.7800744
10.592469987985552	7.634538	2.7630668
10.610072006927185	7.501707	2.7389245
10.627674276934751	7.4119334	2.7224867
10.64527679843435	7.2622285	2.694852
10.662879571852143	7.1754413	2.6787014
10.680482597614331	7.121336	2.6685832
10.698085876147173	7.018209	2.6491902
10.715689407876988	6.899548	2.626699
10.733293193230146	6.7551017	2.599058
10.750897232633072	6.6731935	2.5832524
10.76850152651225	6.6260276	2.5741072
10.786106075294207	6.538737	2.5570953
10.803710879405534	6.4961658	2.5487578
10.821315939272877	6.3566227	2.5212343
10.83892125532294	6.2426496	2.4985294
10.856526827982472	6.1763005	2.4852164
10.874132657678285	6.2018204	2.4903455
10.891738744837243	6.1702065	2.48399
10.909345089886271	6.0730534	2.4643567
10.926951693252343	5.9703455	2.443429
10.944558555362494	5.952428	2.4397597
10.96216567664381	5.8856153	2.4260287
10.979773057523436	5.858852	2.4205065
10.997380698428573	5.740297	2.3958917
11.014988599786477	5.7010565	2.3876886
11.032596762024461	5.6750054	2.382227
11.050205185569892	5.6320643	2.373197
11.067813870850198	5.5389237	2.3534918
11.085422818292859	5.3861756	2.3208137
11.10303202832541	5.3367686	2.3101447
11.120641501375454	5.330238	2.3087308
11.138251237870636	5.332236	2.3091633
11.155861238238671	5.2491984	2.291113
11.173471502907317	5.183674	2.2767682
11.191082032304402	5.1252575	2.2639031
11.208692826857805	5.090824	2.2562854
11.226303886995465	5.0034304	2.236835
11.243915213145371	4.9190845	2.217901
11.261526805735578	4.858464	2.2041924
11.279138665194196	4.8375826	2.1994505
11.296750791949393	4.811	2.1933992
11.314363186429393	4.6926384	2.1662498
11.331975849062479	4.667951	2.1605442
11.34958878027699	4.6355968	2.1530435
11.36720198050133	4.643002	2.1547627
11.384815450163948	4.6281204	2.1513066
11.402429189693366	4.567755	2.1372306
11.420043199518153	4.498268	2.120912
11.437657480066942	63.41407	7.963295
11.455272031768422	85.1095	9.225481
11.472886855051353	107.48128	10.367318
11.490501950344528	99.06674	9.953228
11.508117318076819	84.3716	9.185401
11.52573295867715	45.730305	6.7624187
11.543348872574514	4.063467	2.0158043
11.560965060197946	4.0750766	2.018682
11.57858152197655	4.057436	2.0143077
11.59619825833949	4.0142794	2.0035667
11.613815269715985	3.9771245	1.994273
11.631432556535323	38.4811	6.2033134
11.649050119226837	83.02979	9.112068
11.666667958219929	93.44114	9.666495
11.68428607394406	107.68603	10.377188
11.701904466828756	82.47277	9.081452
11.719523137303586	65.293755	8.080455
11.737142085798196	4.516139	2.1251209
11.754761312742286	3.6030238	1.8981633
11.772380818565619	3.562911	1.8875675
11.790000603698015	3.5613997	1.8871671
11.80762066856935	3.5685174	1.889052
11.825241013609572	3.5643904	1.8879594
11.842861639248683	3.546305	1.8831636
11.860482545916748	3.447801	1.8568256
11.878103734043883	3.431389	1.8524009
11.895725204060282	3.385393	1.8399438
11.91334695639619	3.3700068	1.8357579
11.930968991481919	3.3404777	1.8276974
11.948591309747824	3.3061943	1.8182943
11.966213911624347	3.3217933	1.8225788
11.98383679754198	3.3318715	1.8253415
12.001459967931268	3.3091	1.8190931
12.019083423222835	3.2916706	1.8142961
12.036707163847352	3.2638035	1.8066
12.05433119023556	3.2546413	1.8040625
12.071955502818259	3.2284143	1.7967789
12.089580102026313	3.2013237	1.7892244
12.107204988290643	3.1394894	1.7718605
12.12483016204224	3.1336038	1.7701988
12.142455623712152	3.1229951	1.7671998
12.16008137373149	3.1167083	1.7654202
12.177707412531431	3.0811384	1.7553172
12.19533374054321	3.058032	1.748723
12.212960358198126	3.016196	1.7367198
12.230587265927545	2.985165	1.727763
12.248214464162889	2.9464684	1.7165279
12.265841953335649	2.9370887	1.7137936
12.283469733877375	2.91727	1.7080017
12.301097806219685	2.9061582	1.7047458
12.31872617079425	2.9284997	1.711286
12.336354828032825	2.9064262	1.7048243
12.353983778367205	2.8590996	1.6908872
12.371613022229262	2.8214567	1.6797192
12.389242560050928	2.8342922	1.6835356
12.406872392264201	2.8417964	1.6857629
12.424502519301143	2.8655396	1.6927905
12.442132941593874	2.8478217	1.687549
12.459763659574586	2.823514	1.6803315
12.477394673675532	2.820111	1.6793187
12.49502598432903	2.8325148	1.6830076
12.51265759196746	2.8268082	1.6813115
12.530289497023267	2.7954397	1.6719569
12.547921699928967	2.7515419	1.6587772
12.565554201117134	2.7102993	1.6462986
12.583187001020404	2.6899922	1.6401196
12.600820100071486	2.7160683	1.6480498
12.618453498703152	2.7339513	1.6534665
12.636087197348235	2.7461047	1.6571375
12.65372119643964	2.7592452	1.6610975
12.671355496410326	2.7508836	1.6585788
12.68899009769333	2.7908187	1.6705743
12.706625000721749	2.8204155	1.6794093
12.724260205928752	2.918386	1.7083284
12.741895713747551	2.9499526	1.7175426
12.759531524611454	2.9414935	1.7150782
12.777167638953818	2.888316	1.6995046
12.794804057208072	2.9049883	1.7044026
12.812440779807702	2.9918573	1.7296987
12.830077807186271	3.1700213	1.7804554
12.847715139777405	3.1797614	1.7831886
12.865352778014795	3.3893821	1.8410275
12.882990722332197	3.5582452	1.8863312
12.90062897316344	3.6659503	1.9146671
12.918267530942412	3.65594	1.9120513
12.935906396103071	3.483392	1.8663847
12.953545569079449	3.6196983	1.9025505
12.971185050305628	3.4811463	1.865783
12.988824840215775	3.483598	1.8664399
13.006464939244115	3.531676	1.8792754
13.024105347824943	3.4165206	1.8483832
13.041746066392617	3.4423058	1.8553452
13.05938709538157	3.2390192	1.7997276
13.077028435226296	3.2582023	1.8050491
13.094670086361363	3.1974955	1.7881542
13.112312049221401	3.0951447	1.7593024
13.129954324241112	3.0310183	1.7409819
13.147596911855258	2.8747272	1.695502
13.165239812498685	2.8437228	1.6863341
13.182883026606293	2.7712066	1.6646942
13.200526554613058	2.7198644	1.6492012
13.218170396954017	2.684939	1.6385783
13.235814554064284	2.6788576	1.6367216
13.253459026379034	2.6690545	1.6337241
13.271103814333523	2.6939514	1.6413261
13.288748918363058	2.6906657	1.6403248
13.306394338903031	2.673455	1.6350703
13.32404007638889	2.617281	1.6178013
13.341686131256164	2.662793	1.6318066
13.359332503940449	2.6607783	1.6311892
13.376979194877402	2.6870792	1.6392313
13.394626204502751	2.6835902	1.6381667
13.412273533252307	2.6945045	1.6414946
13.429921181561937	2.6852438	1.6386714
13.447569149867581	2.7067804	1.6452296
13.465217438605247	2.7107992	1.6464505
13.482866048211022	2.6832092	1.6380504
13.500514979121052	2.6462336	1.6267248
13.518164231771568	2.6180599	1.618042
13.535813806598844	2.6656883	1.6326935
13.553463704039254	2.6927063	1.6409467
13.571113924529229	2.6690977	1.6337373
13.588764468505275	2.6534216	1.6289327
13.606415336403956	2.6605945	1.6311328
13.624066528661917	2.6605115	1.6311074
13.641718045715882	2.6722648	1.6347064
13.659369888002635	2.7113452	1.6466163
13.67702205595903	2.8099508	1.6762908
13.694674550021993	2.9297101	1.7116396
13.712327370628532	2.9993875	1.731874
13.729980518215713	3.073069	1.7530172
13.747633993220681	3.1409342	1.772268
13.765287796080647	3.189881	1.7860239
13.7829419272329	3.237171	1.799214
13.800596387114801	3.2553694	1.8042642
13.818251176163775	3.2685056	1.8079009
13.835906294817324	3.3358026	1.8264179
13.853561743513023	3.351501	1.8307105
13.871217522688525	3.3755064	1.8372551
13.888873632781538	3.3877137	1.8405743
13.906530074229858	3.418285	1.8488604
13.92418684747135	3.4484866	1.8570101
13.941843952943948	3.4051507	1.8453051
13.959501391085665	3.389554	1.8410741
13.977159162334578	3.2986827	1.8162276
13.994817267128846	3.261254	1.8058943
14.012475705906693	3.1758196	1.7820829
14.030134479106424	3.142444	1.772694
14.047793587166414	3.1088922	1.763205
14.065453030525108	3.0803304	1.755087
14.083112809621026	3.0158806	1.7366291
14.100772924892766	2.926628	1.710739
14.118433376778997	2.897971	1.7023427
14.136094165718458	2.806905	1.675382
14.153755292149969	2.7282183	1.651732
14.171416756512416	2.6586485	1.6305363
14.189078559244768	2.606591	1.6144941
14.20674070078606	2.5657015	1.6017808
14.224403181575408	2.5207403	1.5876839
14.242066002051999	2.4833522	1.5758655
14.259729162655093	2.4666834	1.5705678
14.277392663824022	2.439025	1.5617378
14.295056505998208	2.4076335	1.551655
14.312720689617128	2.4223902	1.5564029
14.330385215120348	2.433158	1.5598583
14.348050082947497	2.430262	1.5589298
14.3657152935383	2.36616	1.5382327
14.383380847332528	2.3537676	1.5341994
14.401046744770051	2.367075	1.5385301
14.418712986290798	2.3978417	1.5484966
14.436379572334793	2.3706965	1.5397066
14.454046503342123	2.3738537	1.5407315
14.471713779752946	2.3536253	1.534153
14.489381402007504	2.3637118	1.5374367
14.507049370546113	2.3437424	1.5309286
14.524717685809168	2.34114	1.5300784
14.542386348237134	2.3654842	1.5380131
14.560055358270553	2.3592262	1.5359772
14.577724716350051	2.3702707	1.5395683
14.595394422916325	2.396253	1.5479835
14.61306447841015	2.429798	1.5587809
14.63073488327237	2.4128113	1.5533227
14.648405637943917	2.4233184	1.5567011
14.6660767428658	2.470471	1.5717732
14.683748198479094	2.5147233	1.5857879
14.701420005224954	2.5489013	1.5965279
14.719092163544628	2.6023352	1.6131755
14.73676467387942	2.6488225	1.6275203
14.754437536670727	2.6727245	1.6348469
14.772110752360014	2.6935666	1.6412089
14.78978432138882	2.6803608	1.6371808
14.807458244198777	2.68232	1.637779
14.82513252123159	2.6657727	1.6327194
14.842807152929028	2.6949036	1.6416161
14.860482139732962	2.6726358	1.6348197
14.87815748208531	2.633469	1.6227967
14.8958331804281	2.6214287	1.6190827
14.91350923520342	2.582782	1.6071036
14.931185646853438	2.617547	1.6178836
14.948862415820408	2.6047628	1.6139277
14.966539542546656	2.6192346	1.618405
14.98421702747459	2.6002996	1.6125444
15.001894871046696	2.6346717	1.6231672
15.019573073705542	2.687949	1.6394966
15.037251635893766	2.6878154	1.6394558
15.054930558054092	2.686996	1.6392059
15.072609840629323	2.64732	1.6270587
15.090289484062351	2.7494085	1.658134
15.107969488796124	2.9412177	1.7149979
15.125649855273691	3.1751525	1.7818958
15.14333058393817	3.5422544	1.8820878
15.161011675232768	4.122387	2.0303662
15.17869312960076	4.7980814	2.1904523
15.196374947485506	5.4736614	2.3395858
15.214057129330447	6.7822046	2.6042666
15.231739675579114	8.84644	2.9742966
15.249422586675102	13.3331375	3.6514568
15.267105863062092	17.811007	4.220309
15.284789505183847	24.83804	4.9837775
15.302473513484218	29.684603	5.4483576
15.320157888407127	33.80445	5.8141594
15.337842630396578	32.828083	5.7295794
15.355527739896656	30.165289	5.4922934
15.37321321735153	23.534084	4.851194
15.39089906320545	16.090958	4.0113535
15.408585277902748	10.310862	3.2110531
15.42627186188783	6.4738755	2.5443811
15.443958815605198	4.618433	2.149054
15.461646139499424	3.7230525	1.9295213
15.479333834015168	3.2800534	1.8110918
15.497021899597165	3.0255702	1.7394166
15.514710336690234	2.8355794	1.6839179
15.53239914573928	2.687731	1.63943
15.550088327189297	2.6062002	1.614373
15.567777881485336	2.5630612	1.6009563
15.58546780907256	2.5455317	1.5954722
15.6031581103962	2.5155542	1.5860499
15.620848785901568	2.464894	1.5699981
15.638539836034063	2.4503684	1.5653653
15.656231261239173	2.437732	1.5613238
15.673923061962451	2.442133	1.5627326
15.691615238649552	2.428978	1.5585179
15.709307791746202	2.398766	1.548795
15.727000721698221	2.417564	1.5548518
15.744694028951498	2.3736374	1.5406613
15.76238771395202	2.3286757	1.5259999
15.780081777145844	2.2825804	1.5108211
15.797776218979125	2.2825701	1.5108176
15.815471039898094	2.370733	1.5397185
15.833166240349064	2.431111	1.5592021
15.850861820778437	2.4468434	1.5642389
15.868557781632699	2.4339345	1.5601072
15.886254123358412	2.4230137	1.5566033
15.903950846402232	2.4567795	1.5674117
15.921647951210897	2.4645207	1.5698792
15.939345438231225	2.504282	1.5824924
15.957043307910133	2.489524	1.5778226
15.974741560694602	2.4790552	1.5745015
15.992440197031714	2.4741478	1.5729424
16.01013921736862	2.4910524	1.5783068
16.02783862215259	2.4778311	1.5741128
16.045538411830933	2.4394364	1.5618695
16.06323858685107	2.4154584	1.5541745
16.080939147660512	2.4003172	1.5492957
16.09864009470684	2.4139879	1.5537014
16.11634142843774	2.4498837	1.5652105
16.134043149300954	2.4520006	1.5658865
16.15174525774433	2.436816	1.5610304
16.169447754215817	2.4313197	1.559269
16.18715063916342	2.405769	1.5510542
16.204853913035244	2.4338043	1.5600655
16.222557576279478	2.4493592	1.5650429
16.240261629344403	22.426903	4.735705
16.257966072678386	42.95733	6.554184
16.275670906729868	38.052124	6.16864
16.293376131947387	2.461131	1.5687993
16.31108174877957	2.4550214	1.5668508
16.328787757675133	2.50871	1.5838908
16.34649415908287	2.5147533	1.5857974
16.364200953451657	2.5546784	1.5983361
16.38190814123048	2.5589156	1.5996611
16.39961572286839	2.632843	1.6226038
16.41732369881455	2.6852891	1.6386852
16.43503206951817	2.7259455	1.6510438
16.45274083542859	2.7710392	1.6646439
16.47044999699522	2.7984753	1.6728644
16.488159554667558	2.8437598	1.6863451
16.505869508895184	2.8842182	1.6982986
16.523579860127786	2.9378712	1.7140219
16.541290608815117	2.9836674	1.7273295
16.559001755407035	3.0316515	1.7411638
16.57671330035348	3.1300304	1.7691892
16.59442524410448	3.2603176	1.805635
16.61213758711015	3.3782382	1.8379984
16.629850329820705	3.4289672	1.851747
16.647563472686436	3.4636931	1.8611
16.665277016157724	3.4424841	1.8553933
16.682990960685053	3.4539938	1.8584924
16.70070530671898	3.4298944	1.8519974
16.718420054710155	3.4262702	1.8510187
16.736135205109335	3.4564228	1.8591458
16.753850758367335	3.5479472	1.8835995
16.771566714935087	3.615547	1.9014592
16.789283075263597	3.684308	1.9194552
16.80699983980398	3.7305572	1.931465
16.82471700900741	3.834943	1.9583011
16.84243458332518	3.8798141	1.9697244
16.860152563208665	3.9371693	1.9842302
16.87787094910932	4.0008173	2.0002043
16.89558974147871	4.10305	2.0255988
16.913308940768466	4.173479	2.0429094
16.931028547430333	4.1815357	2.0448804
16.94874856191613	4.230949	2.056927
16.966468984677785	4.2575645	2.0633867
16.98418981616729	4.2985296	2.0732896
17.00191105683676	4.331647	2.081261
17.019632707138374	4.356404	2.0872
17.03735476752442	4.4213386	2.1026978
17.05507723844728	4.464875	2.1130252
17.072800120359403	4.520039	2.1260383
17.090523413713353	4.546474	2.1322463
17.108247118961785	4.576696	2.1393213
17.125971236557437	4.6101437	2.1471245
17.143695766953133	4.5869327	2.1417127
17.161420710601806	4.592003	2.142896
17.179146067956477	4.600399	2.144854
17.19687183947025	4.594701	2.1435254
17.21459802559634	4.618442	2.1490562
17.232324626788028	4.594053	2.1433742
17.25005164349871	4.5878773	2.141933
17.267779076181863	4.5742006	2.1387382
17.285506925291074	4.572896	2.138433
17.30323519127999	4.547201	2.1324167
17.320963874602384	4.574083	2.1387105
17.33869297571211	4.5518827	2.1335142
17.356422495063114	4.5287623	2.128089
17.37415243310944	4.4611425	2.1121416
17.391882790305218	4.448241	2.1090853
17.40961356710468	4.4647617	2.1129982
17.42734476396215	4.4724607	2.1148193
17.445076381332044	4.548333	2.132682
17.462808419668868	4.6469316	2.1556742
17.48054087942723	4.774443	2.18505
17.498273761061835	4.8888235	2.2110684
17.51600706502747	5.1711493	2.2740161
17.533740791779024	5.762005	2.4004176
17.551474941771485	6.6566935	2.580057
17.56920951545993	8.520755	2.9190333
17.586944513299528	9.720674	3.1177995
17.60467993574556	12.545394	3.5419478
17.622415783253373	15.190595	3.8975112
17.64015205627843	17.878775	4.22833
17.657888755276293	20.202782	4.4947505
17.675625880702604	21.731493	4.661705
17.69336343301311	20.47497	4.5249276
17.71110141266366	18.356054	4.2843966
17.728839820110178	15.70343	3.9627554
17.746578655808705	12.521838	3.538621
17.764317920215372	10.389604	3.223291
17.7820576137864	8.66075	2.9429152
17.79979773697811	7.313593	2.7043655
17.81753829024692	6.0170264	2.4529629
17.835279274049356	5.2108717	2.2827334
17.85302068884201	4.4475007	2.1089098
17.870762535081607	4.079057	2.0196676
17.888504813224934	3.8307006	1.9572176
17.90624752372891	3.684193	1.9194251
17.923990667050536	3.561471	1.887186
17.941734243646895	3.5258718	1.8777305
17.959478253975185	3.492243	1.8687544
17.9772226984927	3.431063	1.8523128
17.994967577656833	3.3780186	1.8379387
18.01271289192506	3.3605666	1.8331848
18.030458641754965	3.358025	1.8324915
18.04820482760425	3.3193076	1.8218967
18.06595144993067	3.2713468	1.8086865
18.083698509192125	3.2548788	1.8041283
18.101446005846576	3.2598724	1.8055117
18.119193940352105	3.2470713	1.8019632
18.136942313166887	3.2139978	1.7927626
18.1546911247492	3.1750033	1.7818539
18.1724403755574	3.1886055	1.7856667
18.19019006604997	3.1705756	1.780611
18.207940196685467	3.0948637	1.7592225
18.225690767922575	3.0659616	1.7509887
18.243441780220046	3.0525177	1.7471455
18.261193234036764	3.0629323	1.7501235
18.278945129831676	3.083485	1.7559855
18.29669746806386	3.0991728	1.7604468
18.314450249192483	3.0958226	1.759495
18.3322034736768	3.0499299	1.7464049
18.349957141976184	3.0510921	1.7467376
18.3677112545501	3.0549812	1.7478504
18.385465811858108	3.0383554	1.7430879
18.403220814359884	3.0607355	1.7494957
18.420976262515172	3.1011167	1.7609987
18.43873215678387	3.1503181	1.7749135
18.456488497625923	3.1489828	1.7745373
18.474245285501407	3.2442985	1.8011936
18.492002520870486	3.2882166	1.813344
18.50976020419343	3.3364828	1.8266041
18.527518335930615	3.575748	1.8909649
18.545276916542516	4.1673827	2.041417
18.563035946489688	4.3355846	2.0822067
18.580795426232832	4.7109656	2.170476
18.598555356232698	4.5743203	2.138766
18.616315736950185	4.8824253	2.2096212
18.63407656884626	4.5825315	2.1406848
18.65183785238201	4.756847	2.1810198
18.669599588018617	4.5710416	2.1379995
18.68736177621737	4.5704007	2.1378496
18.705124417439652	4.574956	2.1389146
18.72288751214696	4.3820434	2.093333
18.740651060800886	4.5048213	2.1224563
18.758415063863115	4.198172	2.0489442
18.77617952179546	4.319502	2.0783412
18.793944435059814	4.070083	2.0174446
18.811709804118184	4.111989	2.027804
18.829475629432675	4.072187	2.017966
18.8472419114655	3.852011	1.9626541
18.86500865067897	3.9408503	1.9851575
18.88277584753551	3.6658156	1.914632
18.90054350249763	3.711326	1.9264802
18.918311616027957	3.4262743	1.8510199
18.936080188589226	3.3221624	1.82268
18.953849220644265	3.0201588	1.7378604
18.971618712656007	2.8366	1.6842209
18.9893886650875	2.7678072	1.6636728
19.007159078401887	7.9437723	2.8184698
19.024929953062408	32.860924	5.732445
19.042701289532435	32.840523	5.730665
19.060473088275405	25.400759	5.0399165
19.07824534975489	2.6264994	1.6206478
19.096018074434568	2.6063333	1.6144142
19.113791262778197	2.593989	1.6105865
19.13156491524966	2.6261246	1.6205322
19.149339032312945	2.6042771	1.6137773
19.167113614432136	2.5912492	1.6097357
19.184888662071433	2.5628552	1.6008921
19.202664175695123	2.55498	1.5984305
19.220440155767623	2.5501947	1.5969329
19.238216602753447	2.5195336	1.5873039
19.2559935171172	2.4959462	1.5798564
19.27377089932361	2.4780526	1.5741831
19.291548749837514	2.4920695	1.578629
19.309327069123835	2.453318	1.5663072
19.32710585764763	2.4541564	1.5665747
19.344885115874032	2.4768043	1.5737866
19.362664844268313	2.495764	1.5797987
19.380445043295822	2.4843674	1.5761876
19.39822571342203	2.4742105	1.5729623
19.41600685511252	2.4501321	1.5652897
19.43378846883297	2.4812648	1.5752031
19.451570555049173	2.5080402	1.5836793
19.469353114227037	2.5462523	1.595698
19.48713614683254	2.5465982	1.5958065
19.50491965333182	2.5292935	1.5903753
19.52270363419109	2.4754188	1.5733464
19.540488089876686	2.4681687	1.5710406
19.55827302085503	2.4675364	1.5708394
19.576058427592674	2.4551134	1.5668801
19.593844310556282	2.435233	1.5605234
19.611630670212598	2.429428	1.5586623
19.629417507028506	2.4573584	1.5675963
19.64720482147098	2.4532065	1.5662715
19.6649926140071	2.4343414	1.5602376
19.682780885104084	2.458268	1.5678865
19.70056963522921	2.4892015	1.5777204
19.718358864849908	2.492675	1.5788208
19.7361485744337	2.5030987	1.5821184
19.753938764448215	2.5056183	1.5829145
19.771729435361202	2.4659548	1.5703359
19.789520587640506	2.4737458	1.5728146
19.807312221754092	2.4811778	1.5751755
19.825104338170043	2.4661026	1.570383
19.842896937356517	2.4667497	1.570589
19.860690019781824	2.4788928	1.57445
19.87848358591436	2.5005584	1.5813154
19.896277636222635	2.4976625	1.5803995
19.914072171175278	2.4791257	1.5745239
19.931867191241015	2.4560695	1.5671852
19.94966269688869	2.439282	1.56182
19.967458688587264	2.4596782	1.5683361
19.985255166805807	2.4597847	1.5683701
20.00305213201348	2.4700537	1.5716405
20.020849584679578	2.461861	1.5690318
20.038647525273507	2.4316273	1.5593675
20.05644595426477	2.4320152	1.559492
20.07424487212299	2.453017	1.566211
20.092044279317903	2.4622335	1.5691506
20.109844176319353	2.429567	1.5587069
20.127644563597304	2.389317	1.5457416
20.145445441621817	2.4194803	1.5554678
20.16324681086307	2.4335244	1.5599757
20.181048671791373	2.4479306	1.5645864
20.198851024877122	2.4189968	1.5553124
20.216653870590836	2.4091802	1.5521533
20.234457209403146	2.3931746	1.5469888
20.252261041784802	2.3561609	1.5349791
20.270065368206662	2.3131902	1.5209175
20.287870189139685	2.2736175	1.507852
20.305675505054968	2.3222232	1.5238843
20.323481316423702	2.3827004	1.5435998
20.341287623717207	2.4192834	1.5554045
20.359094427406884	2.3539927	1.5342727
20.376901727964288	2.3197324	1.5230668
20.39470952586107	2.3052242	1.5182965
20.41251782156899	2.3478591	1.5322726
20.430326615559935	2.3238106	1.524405
20.448135908305886	2.2678537	1.5059395
20.465945700278965	2.2192283	1.4897075
20.483755991951384	2.2512207	1.5004069
20.50156678379548	2.2595508	1.5031803
20.519378076283708	2.246812	1.498937
20.537189869888635	2.2396657	1.4965513
20.55500216508294	2.2631807	1.5043871
20.572814962339415	2.2846985	1.5115219
20.59062826213098	2.3439546	1.5309979
20.60844206493066	2.3357992	1.5283321
20.626256371211593	2.305688	1.5184492
20.644071181447032	2.280357	1.5100851
20.66188649611036	2.3036227	1.517769
20.67970231567506	2.2991083	1.516281
20.697518640614742	2.2822657	1.5107169
20.715335471403122	2.2653599	1.5051112
20.73315280851404	2.257737	1.5025767
20.750970652421447	2.2591264	1.5030391
20.768789003599412	2.2995455	1.5164253
20.786607862522136	2.3183663	1.5226183
20.8044272296639	2.2948246	1.5148679
20.82224710549913	2.2504814	1.5001605
20.84006749050237	2.217107	1.4889953
20.857888385148268	3.7400448	1.9339195
20.8757097899116	45.848648	6.771163
20.893531705267254	64.743065	8.046308
20.911354131690224	83.81097	9.154833
20.92917706965566	69.07138	8.31092
20.94700051963877	50.141663	7.0810776
20.96482448211493	29.436262	5.4255195
20.982648957559622	4.206395	2.0509498
21.00047394644843	2.2897868	1.5132041
21.01829944925707	2.2774613	1.509126
21.036125466461375	2.260189	1.5033925
21.053951998537297	2.209816	1.486545
21.071779045960906	2.2101014	1.4866409
21.089606609208378	2.237949	1.4959775
21.10743468875603	2.2518463	1.5006154
21.12526328508028	2.2006123	1.4834461
21.143092398657675	2.1616855	1.4702672
21.16092202996488	2.1600761	1.4697198
21.17875217947867	2.181029	1.4768307
21.19658284767596	2.1980417	1.4825794
21.21441403503377	2.1873083	1.4789551
21.232245742029225	2.1635275	1.4708934
21.2500779691396	2.167213	1.4721457
21.26791071684227	2.1684408	1.4725627
21.28574398561475	2.1504097	1.4664276
21.30357777593465	2.1182017	1.4554043
21.321412088279704	2.1005213	1.4493176
21.339246923127792	2.0936224	1.4469355
21.357082280956888	2.104363	1.4506422
21.3749181622451	2.1092992	1.4523426
21.392754567470647	2.09342	1.4468656
21.41059149711187	2.0791137	1.4419132
21.42842895164726	2.0762556	1.4409218
21.446266931555378	2.1019301	1.4498035
21.464105437314945	2.1023333	1.4499425
21.481944469404798	2.123055	1.4570707
21.49978402830388	2.103846	1.4504641
21.51762411449127	2.1040013	1.4505175
21.53546472844617	2.095252	1.4474986
21.553305870647876	2.1009367	1.4494609
21.571147541575865	2.0991151	1.4488324
21.58898974170967	2.0843003	1.4437106
21.60683247152899	2.0970325	1.4481134
21.62467573151363	2.0959642	1.4477445
21.642519522143523	2.099904	1.4491045
21.660363843898722	2.0423577	1.4291108
21.6782086972594	2.024627	1.4228939
21.696054082705864	1.9937187	1.411991
21.713900000718535	2.0323994	1.4256225
21.73174645177795	2.0701015	1.4387847
21.749593436364794	2.0804682	1.4423828
21.767440954959845	2.0494895	1.4316038
21.785289008044032	2.0115585	1.4182942
21.803137596098388	1.9948692	1.4123983
21.820986719604086	2.0106773	1.4179835
21.838836379042412	1.9984711	1.4136729
21.85668657489478	2.001979	1.414913
21.87453730764273	1.979972	1.4071147
21.892388577767914	1.9739674	1.4049795
21.91024038575213	1.9672686	1.4025935
21.928092732077285	1.9695249	1.4033976
21.945945617225426	1.9990635	1.4138824
21.963799041678694	1.9892535	1.410409
21.981653005919398	31.294516	5.59415
21.999507510429943	78.08371	8.836498
22.01736255569286	73.082825	8.548849
22.035218142190818	4.154352	2.0382228
22.05307427040661	1.9577241	1.399187
22.07093094082315	1.9114705	1.3825594
22.088788153923474	1.9150376	1.3838489
22.106645910190746	1.9336767	1.3905671
22.12450421010827	1.9571869	1.3989949
22.142363054159464	1.9593586	1.3997709
22.16022244282787	1.9635205	1.4012568
22.178082376597164	1.963412	1.401218
22.195942855951145	1.9635154	1.4012549
22.213803881373742	1.9633048	1.4011798
22.231665453349002	1.9368861	1.3917205
22.24952757236111	1.9901733	1.410735
22.26739023889438	1.9975415	1.4133441
22.28525345343323	1.9741482	1.4050438
22.30311721646225	1.9549726	1.3982034
22.320981528466113	1.9395468	1.3926761
22.33884638992964	1.9367191	1.3916606
22.356711801337788	1.9123636	1.3828824
22.37457776317561	1.9460026	1.394992
22.392444275928337	1.9664007	1.4022841
22.410311340081282	1.9591197	1.3996856
22.428178956119904	1.9292041	1.388958
22.446047124529805	1.9554838	1.3983861
22.46391584579669	1.9612987	1.4004637
22.481785120406414	1.9306647	1.3894836
22.49965494884496	1.9326646	1.3902031
22.51752533159841	1.9296321	1.389112
22.53539626915302	1.914597	1.3836896
22.553267761995137	1.9191834	1.3853459
22.571139810611264	1.9252292	1.3875263
22.589012415488025	1.930485	1.389419
22.60688557711216	1.9404132	1.3929871
22.624759295970566	1.9672772	1.4025966
22.642633572550263	1.9892254	1.410399
22.660508407338362	1.9799377	1.4071026
22.67838380082217	1.9388018	1.3924086
22.696259753489077	1.8874214	1.3738345
22.714136265826614	1.8761224	1.3697162
22.73201333832246	1.8988619	1.377992
22.74989097146439	1.9197478	1.3855497
22.76776916574035	1.9021033	1.3791676
22.785647921638393	1.9016864	1.3790165
22.803527239646712	1.9246739	1.3873261
22.82140712025363	1.9319553	1.389948
22.839287563947593	1.8998902	1.378365
22.85716857121719	1.8988721	1.3779957
22.875050142551135	1.9031428	1.3795444
22.892932278438277	1.9017906	1.3790542
22.910814979367604	1.8853523	1.3730813
22.928698245828222	1.9404415	1.3929973
22.946582078309387	1.9391305	1.3925266
22.96446647730047	1.918099	1.3849546
22.98235144329098	1.8784244	1.3705562
23.000236976770562	1.8587154	1.3633472
23.018123078229	1.9003732	1.3785403
23.03600974815619	1.8796324	1.3709968
23.053896987042194	1.869577	1.3673248
23.071784795377173	1.9015794	1.3789777
23.08967317365145	1.9039403	1.3798335
23.10756212235546	1.8879114	1.374013
23.125451641979787	1.8923131	1.3756137
23.143341733015134	1.9290903	1.388917
23.161232395952357	1.9489679	1.3960544
23.179123631282426	1.9356053	1.3912603
23.197015439496468	1.9005069	1.3785887
23.214907821085717	1.8880702	1.3740706
23.23280077654157	1.8855046	1.3731368
23.250694306355538	1.8928237	1.3757993
23.268588411019277	1.9290652	1.3889079
23.28648309102458	1.9428109	1.3938475
23.304378346863356	1.9588336	1.3995833
23.322274179027676	1.9265435	1.3879998
23.340170588009723	1.9085072	1.3814874
23.358067574301852	1.9160861	1.3842276
23.37596513839651	1.93135	1.3897302
23.39386328078629	1.9343282	1.3908013
23.411762001963947	1.9326296	1.3901905
23.429661302422353	1.9382154	1.3921981
23.4475611826545	1.940165	1.3928981
23.46546164315356	1.9272435	1.3882519
23.48336268441279	1.9036856	1.3797411
23.501264306925638	1.9168922	1.3845187
23.51916651118564	1.9519498	1.397122
23.537069297686497	1.9517223	1.3970405
23.554972666922037	1.9423909	1.3936969
23.57287661938623	1.9109169	1.3823591
23.59078115557318	1.8881361	1.3740946
23.608686275977128	1.8480917	1.3594453
23.62659198109246	1.8611131	1.3642262
23.6444982714137	1.877244	1.3701255
23.66240514743549	1.9007676	1.3786833
23.68031260965263	1.9191614	1.3853381
23.698220658560068	1.9116449	1.3826225
23.716129294652845	1.8581566	1.3631421
23.7340385184262	1.8244351	1.3507165
23.75194833037546	1.8272158	1.3517455
23.769858730996123	1.8631147	1.3649596
23.78776972078382	1.881876	1.3718148
23.80568130023431	1.9063544	1.380708
23.823593469843495	1.8872628	1.3737768
23.841506230107424	1.8549548	1.3619673
23.859419581522275	1.8337978	1.354178
23.87733352458438	1.8919513	1.3754822
23.89524805979019	1.9061811	1.3806452
23.913163187636318	1.8933533	1.3759918
23.931078908619508	1.8842608	1.3726838
23.948995223236633	1.9691515	1.4032646
23.966912131984735	2.0250363	1.4230378
23.98482963536096	2.0973396	1.4482194
24.002747733862616	2.119179	1.45574
24.020666427987155	2.140366	1.462999
24.038585718232156	2.0860183	1.4443055
24.056505605095353	2.036942	1.4272147
24.074426089074617	2.0867379	1.4445546
24.092347170667946	2.086451	1.4444553
24.110268850373515	2.0390677	1.4279593
24.128191128689586	2.035423	1.4266825
24.146114006114626	2.0622876	1.4360667
24.164037483147187	2.0960004	1.447757
24.181961560286005	2.027691	1.4239701
24.199886238029926	2.008986	1.417387
24.21781151687797	2.0109715	1.4180872
24.235737397329274	2.0479932	1.4310812
24.253663879883135	2.0678427	1.4379996
24.271590965038975	2.0664835	1.4375268
24.289518653296376	2.0478241	1.431022
24.30744694515505	2.0461345	1.4304316
24.32537584111486	2.0678277	1.4379944
24.34330534167581	2.0629077	1.4362826
24.361235447338046	2.0564077	1.434018
24.379166158601876	2.0149086	1.4194747
24.39709747596772	2.0147772	1.4194285
24.41502939993615	1.9656873	1.4020298
24.432961931007917	1.9657187	1.402041
24.450895069683856	1.9244105	1.3872312
24.468828816465	1.9000764	1.3784326
24.4867631718525	1.9206756	1.3858844
24.504698136347656	1.956675	1.398812
24.52263371045192	1.9471754	1.3954122
24.540569894666874	1.9513392	1.3969034
24.558506689494266	1.9563326	1.3986896
24.57644409543597	1.9416248	1.393422
24.594382112994012	1.9187267	1.3851811
24.61232074267057	1.93069	1.3894928
24.630259984967953	1.9694792	1.4033813
24.64819984038863	1.9946485	1.4123203
24.66614030943522	1.9853055	1.4090087
24.684081392610462	1.9326832	1.3902098
24.702023090417274	1.9276596	1.3884019
24.7199654033587	1.929627	1.3891101
24.737908331937927	1.9602414	1.4000863
24.755851876658305	2.0088048	1.4173231
24.773796038023324	2.0514698	1.4322953
24.79174081653661	2.1209555	1.4563501
24.809686212701962	2.1884718	1.4793484
24.827632227023294	2.2146726	1.4881777
24.8455788600047	2.1633508	1.4708334
24.8635261121504	2.1181257	1.4553782
24.88147398396475	2.1056225	1.4510764
24.899422475952303	2.108424	1.4520413
24.917371588617698	2.0761704	1.4408922
24.935321322465768	2.1102612	1.4526738
24.953271678001478	2.235824	1.4952673
24.97122265572994	2.4343874	1.5602523
24.989174256156414	2.8202708	1.6793662
25.00712647978632	3.385065	1.8398546
25.02507932712521	4.3501525	2.085702
25.043032798678798	5.8246737	2.4134362
25.060986894952933	7.4896517	2.7367227
25.078941616453637	8.983808	2.9973001
25.096896963687055	9.950729	3.1544776
25.114852937159508	10.491091	3.2389953
25.132809537377444	10.199508	3.1936667
25.150766764847468	9.458998	3.0755484
25.168724620076347	8.22218	2.8674345
25.186683103570985	7.08445	2.661663
25.204642215838426	5.8046236	2.4092786
25.222601957385894	4.6997266	2.1678853
25.24056232872074	3.6237042	1.903603
25.25852333035048	2.8995996	1.702821
25.276484962782778	2.3883975	1.5454441
25.294447226525435	2.150716	1.466532
25.312410122086423	2.0380523	1.4276037
25.330373649973843	2.0117457	1.4183602
25.348337810695988	1.9506928	1.396672
25.366302604761245	1.9197037	1.3855337
25.384268032678207	1.9053125	1.3803306
25.40223409495558	1.889534	1.3746033
25.420200792102257	1.8814108	1.3716453
25.438168124627246	1.8572938	1.3628256
25.45613609303974	1.8842508	1.3726802
25.474104697849057	1.9133542	1.3832405
25.492073939564698	1.9157178	1.3840946
25.510043818696285	1.912956	1.3830966
25.528014335753614	1.9089422	1.3816447
25.54598549124664	1.9175922	1.3847715
25.56395728568544	1.8880844	1.3740759
25.58192971958028	1.8543004	1.361727
25.59990279344156	1.8253064	1.351039
25.617876507779833	1.8375518	1.3555633
25.635850863105826	1.8848205	1.3728876
25.653825859930386	1.9245975	1.3872986
25.671801498764548	1.8856063	1.3731738
25.68977778011949	1.881317	1.3716111
25.707754704506524	1.9237192	1.3869821
25.725732272437153	1.8837917	1.3725129
25.743710484423012	1.8651831	1.365717
25.761689340975888	1.8855674	1.3731596
25.77966884260774	1.8855373	1.3731487
25.797648989830662	1.8315027	1.3533303
25.815629783156922	1.780482	1.334347
25.83361122309895	1.7334256	1.3165963
25.85159331016929	1.7446127	1.3208379
25.869576044880695	1.8008964	1.3419749
25.887559427746034	1.8507754	1.360432
25.90554345927836	1.8321345	1.3535637
25.92352813999086	1.8062263	1.3439592
25.94151347039689	1.8276085	1.3518907
25.959499451009965	1.8318402	1.353455
25.97748608234374	1.8412027	1.3569093
25.995473364912062	1.7842027	1.3357404
26.013461299228904	1.8023678	1.342523
26.03144988580839	1.7838258	1.3355994
26.04943912516483	1.8288708	1.3523575
26.067429017812675	1.8593802	1.363591
26.085419564266537	1.8254182	1.3510804
26.103410765041186	1.7607162	1.3269198
26.12140262065155	1.7837477	1.3355702
26.139395131612723	1.806323	1.3439952
26.157388298439948	1.8369524	1.3553421
26.17538212164861	1.8060306	1.3438864
26.193376601754295	1.7688582	1.3299843
26.211371739272714	1.7977899	1.3408169
26.229367534719746	1.8528962	1.3612113
26.247363988611433	1.8683935	1.366892
26.26536110146397	1.8286449	1.352274
26.283358873793727	1.8411769	1.3568997
26.301357306117204	1.8374013	1.3555077
26.319356398951104	1.8464456	1.3588398
26.33735615281224	1.8133805	1.3466182
26.35535656821762	1.8023669	1.3425226
26.373357645684404	1.8035476	1.3429623
26.39135938572991	1.8106472	1.345603
26.409361788871614	1.8032448	1.3428495
26.427364855627165	1.7844666	1.3358393
26.445368586514352	1.807014	1.3442522
26.46337298205115	1.8642851	1.3653883
26.48137804275568	1.8533978	1.3613956
26.499383769146217	1.8393437	1.3562241
26.517390161741215	1.8260409	1.3513108
26.53539722105928	1.8257608	1.3512071
26.553404947619182	1.7929664	1.3390169
26.571413341939856	1.8299425	1.3527536
26.589422404540397	1.8389343	1.3560731
26.60743213594006	1.8087187	1.3448861
26.62544253665827	1.8056977	1.3437625
26.64345360721459	1.8373288	1.355481
26.66146534812879	1.8496922	1.3600339
26.679477759920758	1.7725705	1.3313792
26.69749084311057	1.7534002	1.3241602
26.71550459821847	1.7878245	1.3370955
26.733519025764842	1.8246216	1.3507855
26.751534126270258	1.8139625	1.3468342
26.769549900255434	1.7962018	1.3402245
26.787566348241267	1.8091575	1.3450493
26.80558347074881	1.7863741	1.3365531
26.823601268299267	1.7463208	1.3214843
26.841619741414036	1.7489377	1.3224741
26.85963889061465	1.7417167	1.3197411
26.877658716422832	1.7686114	1.3298916
26.89567921936045	1.7585562	1.3261057
26.913700399949544	1.785187	1.3361089
26.93172225871233	1.7745745	1.3321316
26.949744796171174	1.754095	1.3244225
26.967768012848605	1.7535713	1.3242248
26.98579190926733	1.774828	1.3322266
27.003816485950225	1.8051914	1.3435742
27.021841743420318	1.8069255	1.3442193
27.039867682200814	1.7676637	1.3295351
27.057894302815072	1.730508	1.3154877
27.07592160578664	1.7644669	1.3283324
27.0939495916392	1.7957268	1.3400474
27.111978260896635	1.7876592	1.3370337
27.13000761408296	1.7818042	1.3348424
27.148037651722397	1.7729568	1.3315243
27.166068374339304	1.8016379	1.3422511
27.184099782458215	1.8214358	1.3496058
27.20213187660384	1.8354676	1.3547943
27.22016465730105	1.8400913	1.3564997
27.23819812507487	1.8356287	1.3548537
27.256232280450533	1.7877121	1.3370535
27.274267123953383	1.7570359	1.3255323
27.292302656108987	1.8079844	1.3446131
27.31033887744306	1.8623577	1.3646823
27.32837578848146	1.8253626	1.3510598
27.34641338975026	1.7906423	1.3381488
27.364451681775673	1.7741327	1.3319657
27.382490665084074	1.761346	1.3271571
27.400530340202046	1.7842176	1.335746
27.41857070765629	1.7851018	1.336077
27.436611767973726	1.7745525	1.3321233
27.454653521681404	1.7927885	1.3389505
27.472695969306564	1.8019704	1.3423749
27.490739111376627	1.7870585	1.336809
27.508782948419153	1.805469	1.3436774
27.526827480961902	1.7845203	1.3358594
27.54487270953279	1.7578645	1.3258448
27.562918634659898	1.7988936	1.3412284
27.580965256871508	1.8412497	1.3569266
27.599012576696026	1.8798803	1.3710873
27.617060594662068	1.8966168	1.3771771
27.63510931129842	1.8936405	1.3760961
27.65315872713401	1.8325588	1.3537203
27.67120884269797	1.789321	1.3376551
27.68925965851958	1.7529444	1.3239881
27.707311175128307	1.7854518	1.336208
27.725363393053787	1.7743862	1.3320608
27.74341631282583	1.8231419	1.3502377
27.7614699349744	1.8707358	1.3677484
27.77952426002968	2.065596	1.4372182
27.797579288521973	2.1633222	1.4708236
27.815635020981784	2.535027	1.5921768
27.83369145793979	2.5469573	1.5959189
27.85174859992682	2.3878264	1.5452594
27.869806447473923	2.300999	1.5169044
27.887865001112267	2.081669	1.4427991
27.905924261373233	1.9841564	1.4086008
27.92398422878836	1.8999484	1.3783861
27.94204490388936	1.88198	1.3718528
27.96010628720813	1.8971641	1.3773758
27.978168379276728	1.9076929	1.3811926
27.9962311806274	1.9225105	1.3865463
28.014294691792568	1.9165357	1.38439
28.0323589133048	1.9050565	1.3802378
28.050423845696887	1.8807039	1.3713876
28.068489489501758	1.8532526	1.3613422
28.086555845252523	1.8317329	1.3534153
28.104622913482487	1.8841934	1.3726592
28.122690694725115	1.9142542	1.3835658
28.14075918951405	1.9028497	1.3794382
28.15882839838312	1.899856	1.3783526
28.176898321866304	1.9248221	1.3873795
28.1949689604978	1.9062078	1.3806548
28.213040314811945	1.8997681	1.3783208
28.23111238534327	1.9023046	1.3792406
28.249185172626493	1.9106399	1.382259
28.267258677196473	1.9106696	1.3822697
28.285332899588294	1.9528278	1.3974361
28.303407840337172	1.97237	1.404411
28.321483499978545	1.9493369	1.3961866
28.33955987904799	1.9530298	1.3975084
28.357636978081285	1.966361	1.40227
28.37571479761439	1.9923061	1.4114908
28.393793338183425	2.0460937	1.4304173
28.41187260032469	2.0814915	1.4427375
28.429952584574686	2.0329103	1.4258016
28.448033291470065	2.0117764	1.4183711
28.46611472154769	1.9847432	1.4088092
28.484196875344566	2.010604	1.4179577
28.502279753397914	2.0078933	1.4170015
28.52036335624511	2.048501	1.4312586
28.538447684423716	2.1053457	1.4509809
28.556532738471482	2.1102707	1.4526771
28.574618518926325	2.0389009	1.4279009
28.59270502632635	2.0096385	1.4176172
28.61079226120985	2.0500896	1.4318134
28.628880224115274	2.0617044	1.4358636
28.646968915581287	2.076675	1.4410673
28.66505833614671	2.0787897	1.4418008
28.68314848635055	2.085626	1.4441696
28.701239366732004	2.03665	1.4271125
28.71933097783044	2.0438795	1.4296432
28.737423320185403	2.0891993	1.4454063
28.75551639433665	2.1442525	1.4643266
28.773610200824074	2.162713	1.4706166
28.791704740187793	2.1251726	1.4577972
28.80980001296809	2.1137955	1.4538898
28.827896019705413	2.1361308	1.4615508
28.845992760940433	2.2156022	1.4884899
28.86409023721397	2.2216618	1.490524
28.88218844906704	2.1807399	1.4767329
28.900287397040845	2.192452	1.4806931
28.918387081676755	2.2234776	1.491133
28.936487503516343	2.2615995	1.5038615
28.954588663101365	2.288011	1.5126173
28.97269056097374	2.3761656	1.5414816
28.990793197675597	2.4466088	1.5641639
29.00889657374923	2.3897374	1.5458776
29.027000689737125	2.3372061	1.5287924
29.04510554618196	2.3955722	1.5477636
29.06321114362659	2.4578984	1.5677686
29.08131748261405	2.5000575	1.581157
29.099424563687567	2.4973292	1.580294
29.11753238739057	2.50431	1.5825012
29.13564095426663	2.5392518	1.593503
29.15375026485954	2.5799146	1.6062113
29.171860319713275	2.5948975	1.6108686
29.18997111937199	2.6251333	1.6202263
29.20808266438002	2.6876373	1.6394016
29.226194955281898	2.7532089	1.6592796
29.244307992622335	2.7638907	1.6624954
29.26242177694624	2.7594783	1.6611677
29.2805363087987	2.819877	1.6792489
29.29865158872498	2.8579526	1.6905481
29.316767617270557	2.9630256	1.7213441
29.334884394981064	2.9614592	1.7208891
29.353001922402367	2.9363608	1.7135813
29.37112020008047	3.0159607	1.7366521
29.389239228561596	3.1955125	1.7875997
29.407359008392152	3.3301919	1.8248813
29.42547954011872	3.548573	1.8837657
29.44360082428809	4.048877	2.012182
29.46172286144722	4.962671	2.2277052
29.479845652143283	6.5573344	2.5607293
29.497969196923606	9.288608	3.0477216
29.516093496335728	13.300161	3.6469386
29.5342185509274	17.112885	4.136772
29.55234436124651	20.23153	4.497947
29.570470927841175	21.442541	4.630609
29.588598251259686	21.35444	4.6210866
29.60672633205055	19.728283	4.4416533
29.624855170762405	16.709366	4.087709
29.642984767944146	13.0603285	3.6139076
29.66111512414481	9.5801935	3.0951889
29.67924623991366	7.072747	2.6594636
29.697378115800138	5.3141828	2.3052511
29.71551075235387	4.328599	2.0805285
29.733644150124675	3.7904909	1.9469182
29.751778309662576	3.6080403	1.8994843
29.769913231517766	3.5205555	1.8763143
29.78804891624066	3.481589	1.8659017
29.806185364381818	3.3819313	1.8390028
29.82432257649206	3.2862103	1.8127908
29.842460553122333	3.3323426	1.8254706
29.86059929482382	3.3568633	1.8321744
29.878738802147872	3.351768	1.8307835
29.896879075646048	3.2927687	1.8145988
29.915020115870114	3.205585	1.7904148
29.933161923371976	3.2382267	1.7995074
29.951304498703777	3.3618674	1.8335396
29.969447842417857	3.3109112	1.8195909
29.987591955066733	3.1853468	1.784754
30.005736837203123	3.1477582	1.7741923
30.023882489379943	3.198456	1.7884228
30.04202891215028	3.1985512	1.7884494
30.060176106067455	3.1966374	1.7879143
30.078324071684946	3.225306	1.7959137
30.09647280955646	3.196736	1.7879418
30.114622320235863	3.1281881	1.7686684
30.132772604277257	3.1034532	1.761662
30.1509236622349	3.0869877	1.7569826
30.16907549466328	3.0413673	1.7439517
30.18722810211705	2.9864628	1.7281386
30.205381485151097	3.002609	1.7328038
30.22353564432045	3.0308535	1.7409346
30.241690580180403	3.0441625	1.7447529
30.25984629328638	3.015655	1.7365642
30.278002784194037	3.0092642	1.7347231
30.296160053459246	2.9507735	1.7177815
30.314318101638033	2.943766	1.7157407
30.332476929286646	2.9679554	1.7227755
30.35063653696153	2.8817427	1.6975696
30.368796925219307	2.8646138	1.692517
30.386958094616844	2.8741162	1.6953218
30.40512004571115	2.9203055	1.7088901
30.423282779059463	2.9077284	1.7052063
30.441446295219233	2.8739252	1.6952655
30.459610594748067	2.8657947	1.6928658
30.47777567820382	2.8653011	1.69272
30.495941546144504	2.879433	1.6968892
30.51410819912835	2.8402686	1.6853096
30.532275637713795	2.8121538	1.6769477
30.55044386245946	2.817713	1.6786045
30.56861287392416	2.8543966	1.6894959
30.586782672666956	2.7144258	1.6475514
30.604953259247047	2.6748552	1.6354985
30.623124634223885	2.7155845	1.6479031
30.641296798157075	2.7188618	1.6488972
30.659469751606462	2.7307558	1.6524999
30.677643495132074	2.7536528	1.6594133
30.695818029294152	2.7360723	1.6541077
30.713993354653116	2.6759565	1.635835
30.73216947176962	2.704013	1.6443883
30.75034638120448	2.7406702	1.655497
30.768524083518756	2.7897463	1.6702534
30.786702579273673	2.8296392	1.6821531
30.80488186903069	2.8889482	1.6996906
30.82306195335144	2.9565675	1.7194672
30.841242832797782	3.183006	1.7840981
30.85942450793176	3.5173209	1.8754522
30.877606979315637	3.9318728	1.982895
30.895790247511883	4.3334064	2.0816836
30.913974313083134	4.8535204	2.2030706
30.932159176592283	5.311575	2.3046854
30.95034483860237	5.553632	2.3566146
30.968531299676698	5.426324	2.329447
30.98671856037873	5.2069793	2.2818806
31.00490662127215	4.7961907	2.1900208
31.023095482920848	4.2519712	2.0620308
31.04128514588892	3.7050185	1.9248425
31.059475610740662	3.1875603	1.785374
31.07766687804056	2.785425	1.6689593
31.09585894835335	2.6070628	1.6146401
31.11405182224393	2.577574	1.6054825
31.132245500277417	2.553569	1.5979891
31.15043998301914	2.5834656	1.6073163
31.168635271034628	2.4946926	1.5794595
31.18683136488964	2.443	1.56301
31.20502826515008	2.4478393	1.5645572
31.223225972382135	2.3825731	1.5435586
31.241424487152155	2.3436525	1.5308993
31.259623810026692	2.370908	1.5397754
31.27782394157253	2.372621	1.5403315
31.296024882356644	2.406184	1.5511879
31.314226632946237	2.448208	1.5646751
31.332429193908684	2.42142	1.5560913
31.350632565811598	2.3676853	1.5387285
31.368836749222787	2.4212134	1.5560249
31.387041744710295	2.4437187	1.5632398
31.40524755284232	2.508362	1.5837809
31.423454174187317	2.5051677	1.5827721
31.441661609313922	2.5473318	1.5960363
31.459869858791002	2.545889	1.5955842
31.478078923187628	2.4852788	1.5764767
31.496288803073064	2.4367306	1.5610031
31.514499499016807	2.4240465	1.556935
31.532711011588546	2.3936968	1.5471576
31.550923341358178	2.387686	1.5452139
31.56913648889584	2.3495545	1.5328257
31.587350454771844	2.2567983	1.5022644
31.605565239556732	2.2358139	1.4952638
31.62378084382127	2.2707012	1.5068846
31.641997268136382	2.2747946	1.5082422
31.660214513073274	2.3309393	1.5267414
31.67843257920331	2.3153243	1.521619
31.6966514670981	2.242062	1.4973516
31.71487117732944	2.2309515	1.493637
31.733091710469346	2.2605257	1.5035045
31.751313067090052	2.297451	1.5157344
31.769535247764008	2.2672951	1.505754
31.787758253063878	2.320221	1.5232271
31.805982083562526	2.3571284	1.5352942
31.824206739833024	2.4236667	1.556813
31.84243222244869	2.439964	1.5620384
31.860658531983013	2.383704	1.5439248
31.878885669009737	2.315501	1.521677
31.897113634102784	2.1648312	1.4713365
31.91534242783632	2.1395001	1.462703
31.933572050784694	2.1723502	1.4738895
31.951802503522508	2.215881	1.4885836
31.970033786624548	2.2052722	1.4850159
31.988265900665834	2.1659882	1.4717296
32.006498846221575	2.1154473	1.4544578
32.02473262386724	2.0388415	1.42788
32.04296723417845	2.0884237	1.445138
32.0612026777311	2.127479	1.458588
32.07943895510129	2.1406548	1.4630977
32.097676066865304	2.1963296	1.4820019
32.115914013599685	2.2750695	1.5083333
32.13415279588115	2.2458353	1.4986111
32.152392414286666	2.1151125	1.4543426
32.1706328693934	2.1209803	1.4563586
32.18887416177875	2.1851788	1.478235
32.20711629202032	2.2371557	1.4957124
32.225359260695924	2.1712034	1.4735004
32.243603068383614	2.1689277	1.472728
32.26184771566166	2.2027864	1.4841787
32.28009320310852	2.204076	1.4846131
32.2983395313029	2.2756104	1.5085126
32.31658670082372	2.3039124	1.5178645
32.33483471225012	2.1876447	1.4790689
32.35308356616143	2.0989127	1.4487625
32.371333263137245	2.07446	1.4402986
32.38958380375734	2.0659704	1.4373484
32.407835188601744	2.0711036	1.4391329
32.42608741825067	2.2205358	1.4901462
32.444340493284585	2.265259	1.5050777
32.46259441428416	2.2105935	1.4868065
32.48084918183028	2.1003425	1.4492558
32.49910479650405	2.0287619	1.4243461
32.51736125888683	2.053708	1.4330764
32.53561856956014	1.992159	1.4114386
32.5538767291058	1.9828259	1.4081285
32.572135738105764	2.0355377	1.4267228
32.59039559714228	2.0294085	1.4245731
32.608656306797776	1.9274012	1.3883088
32.62691786765491	1.9450535	1.3946518
32.645180280296586	1.998049	1.4135237
32.663443545305896	2.1347384	1.4610745
32.68170766326619	2.1138198	1.4538982
32.69997263476099	2.0492365	1.4315155
32.7182384603741	2.089787	1.4456096
32.7365051406895	2.091044	1.4460442
32.75477267629144	2.027156	1.4237823
32.77304106776434	1.9730854	1.4046656
32.79131031569289	2.0132036	1.418874
32.809580420661966	2.0712857	1.4391962
32.827851383256714	2.055833	1.4338176
32.84612320406245	1.9986666	1.4137421
32.86439588366476	1.9794892	1.4069432
32.88266942264945	1.9911457	1.4110796
32.9009438216025	2.0106952	1.4179899
32.9192190811102	1.9950038	1.412446
32.937495201758985	1.941326	1.3933147
32.95577218413556	1.8994266	1.3781968
32.974050028826866	1.8597431	1.363724
32.992328736420035	1.8624717	1.364724
33.010608307502444	1.8940458	1.3762434
33.02888874266169	1.8409783	1.3568265
33.047170042485604	1.8576334	1.3629502
33.06545220756225	1.9811802	1.407544
33.083735238479896	2.0642517	1.4367504
33.10201913582707	1.9825579	1.4080334
33.12030390019248	2.044653	1.4299136
33.138589532165135	2.139424	1.462677
33.15687603233419	2.033528	1.4260182
33.17516340128909	1.8960494	1.3769711
33.19345163961947	1.8481406	1.3594633
33.211740747915215	1.9371072	1.3918
33.23003072676643	1.9798986	1.4070886
33.248321576763466	1.8944108	1.376376
33.266613298496885	1.8795938	1.3709828
33.28490589255747	1.881772	1.3717769
33.30319935953626	1.9231768	1.3867865
33.32149370002451	1.9371248	1.3918064
33.339788914613706	1.9269991	1.3881639
33.358085003895575	1.879879	1.3710868
33.376381968462034	1.9260625	1.3878266
33.39467980890529	1.976248	1.4057909
33.41297852581774	2.0069802	1.4166793
33.43127811979204	1.943281	1.3940161
33.44957859142105	1.8918785	1.3754557
33.467879941297866	1.8591833	1.3635187
33.486182170015844	1.8890908	1.374442
33.50448527816853	1.8106048	1.3455871
33.522789266349754	1.8242046	1.3506311
33.541094135153514	1.8988956	1.3780042
33.55939988517411	2.0201216	1.4213098
33.57770651700602	2.0009217	1.4145395
33.59601403124398	1.9563956	1.3987122
33.61432242848296	1.9314346	1.3897606
33.632631709318154	2.0287228	1.4243324
33.650941874344994	2.0333447	1.425954
33.66925292415916	1.8724287	1.3683672
33.68756485935654	1.8813516	1.3716238
33.70587768053328	1.8820372	1.3718736
33.724191388285746	1.8203766	1.3492134
33.74250598321054	1.759932	1.3266243
33.760821465904506	1.8352915	1.3547293
33.77913783696474	1.8564991	1.362534
33.79745509698852	1.9322156	1.3900416
33.815773246573414	1.9430116	1.3939195
33.8340922863172	1.8426291	1.3574347
33.852412216817896	1.903734	1.3797587
33.87073303867377	1.9469541	1.3953329
33.889054752483304	1.9312317	1.3896877
33.907377358845245	1.8717893	1.3681335
33.92570085835853	1.8160385	1.3476048
33.94402525162239	1.8563478	1.3624785
33.96235053923627	1.952499	1.3973185
33.980676721799824	1.9974805	1.4133224
33.999003799912984	1.9345088	1.3908662
34.01733177417592	1.9598703	1.3999537
34.03566064518901	2.0329435	1.4258133
34.0539904135529	1.9012971	1.3788753
34.07232107986846	1.8769737	1.370027
34.090652644736785	1.8633075	1.3650302
34.108985108759235	1.8666263	1.3662453
34.12731847253742	1.848014	1.3594168
34.14565273667313	1.8829867	1.3722196
34.16398790176847	1.9410545	1.3932173
34.18232396842574	1.9963369	1.4129179
34.20066093724749	2.063139	1.4363631
34.21899880883651	2.0621338	1.4360131
34.23733758379583	1.9647142	1.4016826
34.25567726272874	1.9765087	1.4058837
34.27401784623872	2.0778477	1.4414742
34.29235933492957	2.0091338	1.4174392
34.31070172940526	2.029952	1.4247638
34.32904503027003	2.1369925	1.4618455
34.347389238128386	2.2114434	1.4870923
34.36573435358502	2.2189066	1.4895995
34.38408037724492	2.1476598	1.4654896
34.402427309713296	1.9652791	1.4018841
34.42077515159559	1.8614522	1.3643504
34.43912390349752	1.8609949	1.3641828
34.45747356602499	1.8608495	1.3641295
34.47582413978423	1.8645571	1.3654879
34.49417562538163	1.8901393	1.3748233
34.51252802342388	1.8995835	1.3782538
34.53088133451789	1.9025613	1.3793336
34.54923555927084	1.9278203	1.3884597
34.567590698290104	2.0408087	1.4285687
34.58594675218336	1.9895334	1.4105082
34.6043037215585	1.9692732	1.4033079
34.62266160702365	2.016297	1.4199637
34.641020409187234	2.0655878	1.4372153
34.65938012865785	1.9638124	1.4013609
34.677740766044394	1.7265261	1.3139734
34.69610232195598	1.7710639	1.3308133
34.714464797002016	1.9903744	1.4108063
34.73282819179208	2.173046	1.4741255
34.751192506936064	2.1269958	1.4584224
34.76955774304408	2.007142	1.4167364
34.7879239007265	1.8842541	1.3726814
34.80629098059391	1.9807322	1.4073849
34.824658983257194	2.167225	1.4721497
34.843027909327446	2.175332	1.4749007
34.86139775941603	1.9165218	1.384385
34.879768534134534	1.8084235	1.3447764
34.89814023409483	1.8821925	1.3719302
34.91651285990901	1.9442952	1.3943799
34.93488641218944	1.8349882	1.3546174
34.95326089154871	1.85681	1.3626481
34.97163629859967	1.8740414	1.3689563
34.99001263395542	2.0480366	1.4310963
35.00838989822934	2.1447062	1.4644816
35.02676809203499	1.9946988	1.412338
35.04514721598624	1.953723	1.3977565
35.063527270697215	2.0623376	1.4360842
35.081908256782256	1.8694775	1.3672884
35.10029017485597	1.7372072	1.3180315
35.11867302553321	1.8341167	1.3542956
35.137056809429104	1.9251931	1.3875133
35.155441527159006	1.977238	1.406143
35.173827179338524	1.989251	1.4104081
35.19221376658354	1.9842579	1.4086369
35.21060128951017	1.801	1.3420134
35.2289897487348	1.7474653	1.3219173
35.24737914487405	1.706831	1.3064574
35.26576947854479	1.8039098	1.3430971
35.28416075036418	2.156517	1.4685085
35.30255296094958	2.457598	1.5676727
35.32094611091867	2.415626	1.5542284
35.33934020088932	2.4467397	1.5642058
35.35773523147969	2.3882751	1.5454046
35.3761312033082	2.2417374	1.4972433
35.394528116993506	2.1482122	1.4656781
35.41292597315452	2.0808828	1.4425266
35.431324772410434	2.3639035	1.5374991
35.449724515380666	2.3261642	1.5251768
35.46812520268491	2.026455	1.4235361
35.486526834943106	1.9819087	1.4078028
35.504929412775454	2.2100015	1.4866073
35.52333293680242	2.2856781	1.511846
35.54173740764471	2.1428668	1.4638535
35.560142825923286	1.7918131	1.3385862
35.5785491922594	1.6591996	1.2880992
35.59695650727454	1.5858499	1.2593054
35.61536477159042	1.8569168	1.3626873
