0.008763373481513119	0.3822274	0.6182454
0.026290120649546365	0.19633481	0.44309685
0.043816868432600686	0.13175425	0.36297968
0.06134361724069026	0.015320444	0.12377578
0.07887036748382949	0.008567456	0.09256055
0.0963971195720331	0.19517604	0.44178733
0.11392387391531617	0.36065394	0.6005447
0.1314506309236943	0.3516971	0.5930405
0.1489773910071836	0.30348203	0.55089206
0.16650415457580078	0.1491152	0.38615438
0.18403092203956356	0.14841549	0.38524732
0.20155769380849	0.16418646	0.4051993
0.2190844702925996	0.13622744	0.36909002
0.2366112519019124	0.16669224	0.4082796
0.2541380390464497	0.115242474	0.3394738
0.27166483213623416	0.09973707	0.31581175
0.28919163158128947	0.109372884	0.33071572
0.3067184377916406	0.13343225	0.3652838
0.324245251177314	0.17812034	0.42204306
0.34177207214833777	0.16150875	0.40188152
0.3592989011147415	0.14135814	0.37597623
0.37682573848655654	0.10508724	0.32417163
0.39435258467381573	0.08619382	0.29358783
0.41187944008655414	0.11352317	0.336932
0.42940630513480854	0.16951194	0.41171828
0.446933180228618	0.20029141	0.44753927
0.4644600657780234	0.17785543	0.4217291
0.48198696219306775	0.14043249	0.37474322
0.49951386988379676	0.09988971	0.31605333
0.5170407892602581	0.07694545	0.27739042
0.5345677207325025	0.113504186	0.3369038
0.5520946647105822	0.15211678	0.3900215
0.5696216216045534	0.17391956	0.41703665
0.5871485918244737	0.16904435	0.41115004
0.6046755757804043	0.13962749	0.37366763
0.6222025738824094	0.12164758	0.34878013
0.6397295865405557	0.113648616	0.3371181
0.6572566141649129	0.15755036	0.39692613
0.6747836571655547	0.15810102	0.3976192
0.6923107159525568	0.16408587	0.40507513
0.7098377909359992	0.19292232	0.43922925
0.7273648825259653	0.19958724	0.4467519
0.7448919911325411	0.22542052	0.4747847
0.762419117165817	0.22152203	0.47066128
0.7799462610358868	0.21385382	0.46244332
0.7974734231528482	0.20609178	0.45397332
0.8150006039268024	0.17754969	0.42136645
0.8325278037678551	0.1943346	0.440834
0.8500550230861152	0.23000734	0.4795908
0.8675822622916969	0.2561834	0.5061456
0.8851095217947171	0.26170343	0.51156956
0.9026368020052984	0.26718014	0.5168947
0.9201641033335665	0.25889573	0.508818
0.9376914261896523	0.24795765	0.49795344
0.9552187709836915	0.19369777	0.44011107
0.9727461381258234	0.19666709	0.44347164
0.990273528026193	0.20439912	0.45210522
1.0078009410949496	0.205195	0.45298454
1.0253283777422473	0.2179825	0.46688595
1.0428558383782454	0.23348732	0.48320526
1.0603833234131086	0.2564976	0.5064559
1.0779108332570058	0.28543836	0.5342643
1.0954383683201119	0.26618794	0.51593405
1.112965929012607	0.32219622	0.5676233
1.1304935157446763	0.48135948	0.69380075
1.1480211289265108	0.53680414	0.7326692
1.1655487689683062	1.3456522	1.1600225
1.1830764362802655	1.5853639	1.2591124
1.200604131272596	2.029558	1.4246255
1.2181318543555117	2.4345174	1.560294
1.235659605939232	2.47125	1.572021
1.253187386433982	4.11708	2.029059
1.270715196249994	6.5956855	2.5682065
1.2882430357975057	12.067131	3.4737775
1.3057709054867608	16.513918	4.063732
1.3232988057280106	22.378487	4.7305903
1.3408267369315112	27.31048	5.225943
1.358354699507526	30.845926	5.5539107
1.3758826938663256	34.542953	5.8773255
1.3934107204181858	36.266384	6.0221577
1.410938779573391	37.079147	6.089265
1.4284668717422309	38.007763	6.165044
1.4459949973350033	37.515617	6.1249995
1.4635231567620117	37.392952	6.114978
1.4810513504335687	36.38622	6.0320992
1.4985795787599925	35.696976	5.9746947
1.5161078421516088	35.432034	5.9524813
1.5336361410187505	34.66825	5.887975
1.5511644757717598	34.692554	5.8900385
1.5686928468209842	34.906734	5.908192
1.58622125457678	35.449585	5.953955
1.6037496994495108	36.27366	6.022762
1.621278181849548	36.322884	6.026847
1.6388067021872719	37.325394	6.1094513
1.6563352608730693	37.197464	6.0989723
1.673863858317336	36.32797	6.027269
1.6913924949304753	35.872356	5.9893537
1.7089211711228998	34.55448	5.878306
1.7264498873050296	33.768253	5.8110456
1.7439786438872935	32.66427	5.715266
1.7615074412801288	31.755238	5.6351786
1.779036279893981	30.821695	5.551729
1.796565160139305	29.987947	5.4761252
1.814094082426564	29.442308	5.426077
1.8316230471662298	28.782356	5.364919
1.849152054768784	27.958628	5.287592
1.8666811056447168	27.259527	5.2210655
1.8842102002045273	26.258562	5.124311
1.901739338858724	25.74352	5.0738072
1.9192685220178245	25.14688	5.0146666
1.9367977500923557	24.459726	4.9456778
1.9543270234928547	24.283691	4.9278483
1.971856342629867	23.610176	4.8590302
1.9893857079139496	23.122776	4.8086147
2.006915119755667	22.71923	4.7664695
2.0244445785655945	22.13987	4.7053022
2.0419740847543175	21.982775	4.688579
2.0595036387324317	21.509884	4.637875
2.0770332409105414	20.83526	4.5645657
2.094562891699263	20.309456	4.5066013
2.1120925915092217	19.7066	4.439212
2.129622340751053	19.341516	4.397899
2.1471521398354043	187.6003	13.696726
2.1646819891729323	443.93195	21.069693
2.182211889174303	440.35275	20.984583
2.1997418402501974	452.74994	21.277922
2.2172718428113023	432.7153	20.80181
2.234801897268317	320.62848	17.906101
2.2523320040319548	17.080002	4.132796
2.269862163512935	16.83211	4.1026955
2.287392376121992	16.491264	4.0609436
2.304922642269869	16.226072	4.02816
2.322452962367322	15.833877	3.9791803
2.3399833368251164	15.447577	3.9303405
2.357513766054032	15.145076	3.8916674
2.3750442504648586	14.966756	3.868689
2.3925747904683963	14.667423	3.8298073
2.410105386475459	14.405237	3.7954233
2.4276360388968707	14.133329	3.759432
2.445166748143469	13.999633	3.7416084
2.4626975146261025	13.620535	3.6906009
2.4802283387556323	13.246845	3.6396215
2.4977592209429305	13.174899	3.6297245
2.5152901615988825	13.232625	3.6376674
2.5328211611343865	13.290506	3.6456146
2.5503522199603523	12.930779	3.5959394
2.5678833384877024	12.583528	3.5473268
2.5854145171273712	12.254518	3.5006454
2.6029457562903064	12.124552	3.4820328
2.620477056387469	11.928009	3.453695
2.6380084178298326	11.726132	3.424344
2.655539841028383	11.501686	3.3914137
2.673071326394119	11.306575	3.362525
2.6906028743380523	11.069324	3.3270593
2.708134485271211	10.89097	3.300147
2.7256661596046325	10.816732	3.28888
2.743197897749369	10.645647	3.2627668
2.760729700116486	10.383227	3.2223015
2.778261567117063	10.222836	3.197317
2.795793499162193	10.072934	3.1737885
2.8133254966629817	10.071338	3.173537
2.830857560030551	9.895252	3.145672
2.8483896896760337	9.858963	3.1398985
2.865921886010578	9.61559	3.1009016
2.883454149445347	9.509571	3.0837593
2.9009864803915177	9.45937	3.0756087
2.91851887926028	9.393957	3.0649562
2.9360513464628384	9.321566	3.053124
2.953583882410413	9.221976	3.0367706
2.9711164875142373	9.057464	3.009562
2.9886491621855606	8.893252	2.9821556
3.0061819068356455	8.579833	2.929135
3.023714721875769	8.494973	2.9146137
3.041247607717225	8.401637	2.8985577
3.0587805647713213	8.317788	2.8840575
3.0763135934493806	8.280123	2.8775203
3.0938466941627407	8.074088	2.841494
3.1113798673227544	7.9907565	2.8267927
3.1289131133407904	7.97897	2.824707
3.1464464326282315	7.958212	2.8210304
3.1639798255964786	7.8449273	2.8008797
3.1815132926569443	7.652271	2.7662737
3.1990468342210603	7.49788	2.7382257
3.216580450700272	7.3835926	2.7172766
3.2341141425060416	7.319864	2.7055247
3.251647910049847	7.393385	2.719078
3.2691817537431813	7.3325205	2.7078626
3.286715673997555	7.068666	2.6586962
3.3042496712244938	6.8963146	2.6260836
3.32178374583554	6.6146107	2.5718884
3.339317898242251	6.510201	2.5515096
3.3568521288562034	6.4716377	2.5439413
3.3743864380889876	6.5699778	2.563197
3.3919208263522127	6.658127	2.5803347
3.4094552940575023	6.657102	2.580136
3.4269898416164972	6.598309	2.5687175
3.444524469440858	6.5452685	2.5583723
3.4620591779422587	6.4809628	2.5457735
3.479593967532391	6.517405	2.5529208
3.4971288386229658	6.4266095	2.535076
3.5146637916257086	6.352656	2.5204475
3.5321988269523628	6.2824183	2.5064752
3.5497339450146903	6.200494	2.4900792
3.5672691462244708	6.233488	2.4966955
3.5848044309934988	6.1464934	2.4792123
3.60233979973359	6.0991745	2.4696507
3.619875252856575	6.1492653	2.4797711
3.6374107907743034	6.1105595	2.4719546
3.6549464138986427	6.180154	2.4859915
3.6724821226414788	6.3202014	2.5140011
3.690017917414714	6.3411107	2.5181563
3.7075537986302702	6.4350376	2.5367377
3.7250897667000857	6.334021	2.5167482
3.7426258220361235	6.386766	2.5272052
3.7601619650503553	6.630394	2.5749552
3.777698196154779	7.240634	2.6908426
3.7952345157614067	8.3766165	2.8942385
3.8127709242822716	9.2577505	3.0426552
3.830307422129425	11.552897	3.3989553
3.847844009714936	30.336681	5.5078745
3.8653806874508954	97.813705	9.890081
3.882917455749409	96.98955	9.848327
3.900454315022606	96.71834	9.834548
3.917991265682631	41.34853	6.430282
3.9355283081416506	10.988612	3.3149076
3.9530654428118495	8.717572	2.9525535
3.970602670105433	7.468826	2.7329152
3.9881399904346244	6.5832095	2.5657766
4.005677404211669	6.4924445	2.5480275
4.023214911848827	6.380377	2.525941
4.0407525137583855	6.3260083	2.5151558
4.058290210352644	6.3150125	2.5129688
4.075828002043927	6.2231035	2.4946148
4.0933658892445814	6.1684775	2.483642
4.110903872366966	6.1160874	2.4730725
4.128441951823468	6.0778427	2.4653282
4.145980128026488	6.090665	2.4679272
4.163518401388452	6.1094527	2.4717307
4.181056772321807	6.0636535	2.4624486
4.1985952412390155	6.11795	2.473449
4.216133808552567	6.150861	2.480093
4.233672474674966	6.202957	2.4905736
4.251211240018741	6.336363	2.5172133
4.268750104996445	6.4808464	2.5457506
4.286289070020643	7.4627304	2.7317998
4.303828135503928	9.214422	3.0355268
4.3213673018589125	29.502453	5.431616
4.3389065694982305	90.68337	9.522781
4.356445938834537	165.84134	12.87794
4.3739854102805085	171.04666	13.078481
4.391524984248844	171.9469	13.112852
4.409064661152262	136.0289	11.663143
4.426604441403504	96.420616	9.8194
4.444144325415337	75.410034	8.683895
4.461684313600543	21.406248	4.6266885
4.47922440637193	21.889528	4.6786246
4.496764604142329	20.319117	4.5076733
4.5143049073245916	18.370502	4.2860823
4.531845316331589	16.304241	4.037851
4.5493858315762195	13.388725	3.6590607
4.566926453471405	11.134004	3.3367655
4.584467182430081	8.990686	2.9984474
4.602008018865218	7.949094	2.8194137
4.619548963189798	7.3276305	2.7069597
4.637090015816834	6.8401165	2.6153617
4.654631177159353	6.6244264	2.573796
4.672172447630417	6.458998	2.541456
4.689713827643102	6.277336	2.5054612
4.7072553176105085	6.026336	2.4548597
4.724796917945764	5.772765	2.402658
4.742338629062015	5.662597	2.3796213
4.759880451372434	5.6655226	2.380236
4.777422385290215	5.658856	2.378835
4.794964431228581	5.65025	2.3770254
4.812506589600768	5.639815	2.3748295
4.830048860820047	5.661242	2.3793364
4.847591245299709	5.6858835	2.384509
4.8651337434530655	5.6047635	2.367438
4.882676355693457	5.484672	2.3419378
4.900219082434242	5.5057116	2.3464253
4.917761924088813	5.521242	2.3497324
4.935304881070575	5.631417	2.3730607
4.952847953792969	5.4592333	2.3365002
4.970391142669449	5.4026666	2.3243637
4.9879344481135055	5.3994107	2.3236632
5.005477870538642	5.4540772	2.3353965
5.023021410358394	5.4092793	2.3257856
5.040565067986324	5.3953724	2.3227942
5.05810884383601	5.319829	2.3064754
5.075652738321066	5.285727	2.2990708
5.09319675185512	5.3053694	2.3033388
5.110740884851836	5.353277	2.313715
5.128285137724894	5.4303274	2.3303063
5.145829510888007	5.3941703	2.3225353
5.163374004754908	5.326081	2.3078303
5.1809186197393595	5.235897	2.2882082
5.198463356255145	5.2659717	2.2947705
5.216008214716077	5.278082	2.2974076
5.233553195535998	5.307075	2.303709
5.251098299128764	5.360899	2.3153615
5.268643525908272	5.347372	2.3124385
5.286188876288432	5.2825108	2.2983713
5.3037343506831895	5.214308	2.283486
5.32127994950651	5.203749	2.2811728
5.3388256731723915	5.199641	2.2802722
5.356371522094851	5.1939535	2.2790246
5.373917496687938	5.160272	2.2716231
5.391463597365729	5.230033	2.2869265
5.40900982454232	5.2893744	2.299864
5.426556178631843	5.210717	2.2826996
5.444102660048449	5.154925	2.270446
5.4616492692063225	5.1127377	2.2611363
5.479196006519669	5.1025105	2.2588737
5.496742872402727	5.1422873	2.267661
5.514289867269756	5.18411	2.276864
5.531836991535049	5.1117306	2.2609136
5.549384245612924	5.1332674	2.2656715
5.566931629917724	5.073687	2.2524846
5.584479144863822	5.0398207	2.2449546
5.6020267908656205	5.0914598	2.2564263
5.619574568337545	5.1009703	2.2585328
5.637122477694054	5.0830727	2.2545671
5.654670519349629	5.027022	2.2421021
5.672218693718784	5.0480547	2.2467875
5.689767001216059	5.0820584	2.254342
5.707315442256021	5.1523433	2.2698774
5.724864017253266	5.1554217	2.2705555
5.7424127266224225	5.1416025	2.2675102
5.75996157077814	5.044012	2.2458878
5.777510550135105	5.0273037	2.2421649
5.795059665108022	4.9791684	2.231405
5.812608916111639	5.0363803	2.244188
5.830158303560715	5.1981645	2.2799482
5.847707827870055	5.242343	2.2896163
5.86525748945448	5.327209	2.3080747
5.8828072887288485	5.398915	2.3235564
5.900357226108044	5.4380417	2.331961
5.917907302006979	5.4920993	2.3435228
5.9354575168406	6.2632284	2.5026443
5.9530078710238765	7.0150533	2.6485946
5.970558364971812	7.656565	2.7670498
5.988108999099438	7.9417486	2.818111
6.005659773821818	8.494645	2.9145575
6.023210689554039	8.114098	2.8485255
6.040761746711227	8.510675	2.9173062
6.058312945708531	7.805096	2.7937603
6.075864286961132	7.297412	2.7013721
6.093415770884244	6.729078	2.5940466
6.1109673978931065	6.1633615	2.482612
6.128519168402993	5.5840287	2.363055
6.146071082829204	5.364134	2.31606
6.163623141587075	5.1704774	2.2738683
6.181175345091969	5.1251917	2.2638886
6.198727693759281	5.1354885	2.2661617
6.216280188004435	5.082905	2.25453
6.233832828242885	5.084872	2.254966
6.251385614890126	5.1442504	2.268094
6.268938548361669	5.162231	2.2720544
6.286491629073067	5.0988636	2.2580664
6.304044857439898	5.0016737	2.236442
6.321598233877777	4.911063	2.2160919
6.339151758802344	4.913958	2.216745
6.356705432629277	4.9303637	2.2204423
6.37425925577428	4.97976	2.2315376
6.391813228653095	5.0129952	2.238972
6.409367351681486	4.977069	2.2309346
6.426921625275259	5.0521297	2.2476943
6.44447604985025	5.0425453	2.2455614
6.46203062582232	4.9898305	2.2337928
6.47958535360737	4.8940887	2.2122588
6.497140233621328	4.8944426	2.2123387
6.514695266280161	4.9919133	2.234259
6.532250451999859	5.005604	2.2373207
6.549805791196454	4.986708	2.2330937
6.567361284286002	4.874443	2.207814
6.584916931684597	4.897082	2.2129352
6.602472733808367	4.9329896	2.2210333
6.6200286910734665	4.9605007	2.2272182
6.637584803896092	4.964136	2.2280343
6.655141072692462	4.919463	2.2179863
6.672697497878842	4.895713	2.2126257
6.690254079871514	4.8821015	2.2095478
6.707810819086808	4.8210645	2.1956923
6.725367715941078	4.881538	2.2094202
6.742924770850719	4.8743134	2.2077847
6.760481984232151	4.8977485	2.2130857
6.778039356501836	4.8411736	2.2002668
6.795596888076266	4.901068	2.2138357
6.813154579371963	4.9686394	2.2290444
6.830712430805492	5.0366206	2.2442417
6.84827044279344	5.028771	2.2424922
6.865828615752445	4.999525	2.2359617
6.883386950099159	4.9799685	2.2315843
6.900945446250287	4.968889	2.2291005
6.918504104622553	4.9841638	2.2325242
6.936062925632727	4.97448	2.2303543
6.953621909697607	4.997088	2.2354167
6.971181057234028	5.0968356	2.2576172
6.988740368658859	5.15751	2.2710152
7.006299844389007	5.1865473	2.2773993
7.023859484841407	5.2045403	2.281346
7.041419290433036	5.3147464	2.3053734
7.058979261580902	5.4112244	2.3262038
7.0765393987020495	5.586936	2.36367
7.094099702213559	5.957674	2.4408348
7.111660172532549	6.345941	2.5191152
7.129220810076164	6.6759253	2.5837812
7.146781615261595	7.221042	2.6871996
7.16434258850606	7.482423	2.7354019
7.181903730226821	7.872132	2.805732
7.1994650408411704	8.086269	2.8436368
7.217026520766437	8.265395	2.87496
7.234588170419983	8.423106	2.9022589
7.252149990219215	8.389835	2.8965213
7.269711980581568	8.196536	2.8629594
7.2872741419245175	8.012975	2.8307197
7.304836474665574	7.6667323	2.7688866
7.322398979222286	7.3896084	2.7183833
7.339961656012233	7.1317625	2.670536
7.357524505453039	6.790193	2.6058
7.375087527962357	6.5924144	2.5675697
7.392650723957886	6.262207	2.5024402
7.410214093857353	5.8890657	2.4267397
7.427777638078528	5.589177	2.364144
7.445341357039213	5.4163632	2.3273082
7.4629052511572525	5.2810197	2.2980468
7.480469320850524	5.268781	2.2953825
7.498033566536948	5.2410593	2.289336
7.5155979886344735	5.2047453	2.2813911
7.5331625875610975	5.0701327	2.2516956
7.550727363734844	5.054549	2.2482324
7.568292317573788	5.093432	2.2568634
7.585857449496025	5.1271195	2.2643144
7.603422759919705	5.1606927	2.2717159
7.620988249263007	5.1499686	2.2693543
7.638553917944147	5.186587	2.277408
7.656119766381391	5.200693	2.2805028
7.673685794993023	5.1698203	2.2737238
7.691252004197388	5.212112	2.283005
7.70881839441285	5.183744	2.2767837
7.726384966057826	5.1799645	2.2759535
7.743951719550762	5.155998	2.2706823
7.761518655310149	5.122756	2.2633507
7.779085773754511	5.2055693	2.2815716
7.796653075302419	5.2331443	2.2876067
7.814220560372475	5.330986	2.3088927
7.831788229383323	5.3306165	2.3088129
7.8493560827536495	5.3541985	2.313914
7.866924120902174	5.2821927	2.2983022
7.884492344247663	5.269532	2.295546
7.9020607532089135	5.2967877	2.301475
7.919629348204771	5.3480678	2.312589
7.937198129654115	5.3723183	2.3178263
7.954767097975865	5.413072	2.326601
7.972336253588986	5.461924	2.337076
7.989905596912472	5.416607	2.3273604
8.007475128365371	5.373075	2.3179893
8.025044848366756	5.315498	2.3055363
8.042614757335754	5.463812	2.3374798
8.060184855691523	5.5528946	2.356458
8.07775514385327	5.705536	2.3886263
8.095325622240228	5.7397184	2.395771
8.112896291271687	5.704493	2.388408
8.130467151366968	5.748064	2.397512
8.148038202945436	5.722176	2.392107
8.165609446426497	5.726169	2.3929415
8.183180882229594	5.7334595	2.3944643
8.200752510774217	5.700268	2.3875234
8.218324332479893	5.742115	2.396271
8.235896347766193	5.792442	2.4067492
8.253468557052724	5.916444	2.432374
8.27104096075914	5.952032	2.4396787
8.288613559305137	6.0331755	2.4562523
8.306186353110448	6.0468297	2.4590302
8.32375934259485	6.107938	2.4714243
8.341332528178162	6.137768	2.4774518
8.358905910280246	6.2096	2.491907
8.376479489321003	6.2313676	2.4962707
8.394053265720377	6.2668405	2.5033658
8.411627239898356	6.2723303	2.504462
8.42920141227497	6.29445	2.5088742
8.44677578327029	6.258113	2.501622
8.464350353304427	6.2165446	2.4933
8.48192512279754	6.1815233	2.4862669
8.499500092169827	6.130445	2.4759736
8.51707526184153	6.073226	2.4643917
8.534650632232934	6.058233	2.4613478
8.552226203764365	6.0884275	2.467474
8.569801976856192	6.221457	2.4942849
8.587377951928834	6.3184905	2.5136607
8.60495412940274	6.383358	2.5265307
8.622530509698416	6.344177	2.518765
8.6401070932364	6.3695645	2.5237997
8.657683880437283	6.427443	2.5352402
8.675260871721695	6.5920415	2.567497
8.692838067510303	6.74232	2.5965977
8.710415468223834	6.8894954	2.6247847
8.727993074283043	7.016314	2.6488326
8.745570886108737	7.0351787	2.6523912
8.763148904121765	7.119044	2.6681535
8.78072712874302	7.1507244	2.674084
8.798305560393441	7.3813252	2.7168593
8.815884199494006	7.5029273	2.7391472
8.833463046465745	7.65909	2.7675061
8.851042101729728	7.840793	2.8001416
8.86862136570707	8.149565	2.8547442
8.886200838818924	8.3183365	2.8841527
8.903780521486505	8.342745	2.888381
8.921360414131055	8.424449	2.9024901
8.938940517173874	8.447759	2.9065027
8.956520831036297	8.60725	2.9338117
8.97410135613971	8.912595	2.9853969
8.99168209290554	9.140896	3.0233915
9.009263041755265	9.43481	3.0716136
9.026844203110405	9.68918	3.1127448
9.044425577392525	9.820041	3.1336944
9.062007165023239	9.899719	3.1463819
9.079588966424197	10.043411	3.1691341
9.097170982017108	10.156104	3.1868644
9.11475321222372	11.2542095	3.3547294
9.132335657465825	12.283404	3.5047688
9.149918318165264	12.419823	3.5241768
9.167501194743924	12.961228	3.6001706
9.18508428762374	12.625423	3.5532272
9.202667597226693	12.579636	3.5467782
9.220251123974803	12.200321	3.4928958
9.237834868290143	11.871235	3.4454658
9.255418830594836	11.720168	3.4234731
9.273003011311046	11.185349	3.3444505
9.290587410860985	11.020164	3.319663
9.308172029666911	10.377307	3.2213829
9.32575686815113	10.168097	3.1887453
9.343341926735997	8.77928	2.962985
9.360927205843916	8.533081	2.9211438
9.378512705897327	8.322761	2.8849194
9.396098427318728	8.088749	2.8440726
9.413684370530664	8.027064	2.8332074
9.431270535955722	7.9601326	2.8213706
9.448856924016539	7.8637786	2.8042428
9.466443535135806	7.7135353	2.7773252
9.484030369736251	7.677326	2.770799
9.501617428240658	7.6861167	2.7723846
9.519204711071852	7.701095	2.7750847
9.536792218652714	7.732855	2.780801
9.55437995140617	7.720435	2.778567
9.571967909755191	7.726136	2.7795928
9.589556094122802	7.732289	2.7806993
9.60714450493207	7.770789	2.7876136
9.624733142606116	7.884813	2.8079908
9.642322007568108	7.9061584	2.8117893
9.659911100241267	7.9050903	2.8115993
9.677500421048851	8.000243	2.8284702
9.695089970414175	7.987139	2.8261528
9.712679748760609	8.030896	2.8338835
9.730269756511557	8.095206	2.8452077
9.747859994090492	8.087546	2.843861
9.765450461920915	8.117867	2.8491871
9.78304116042639	8.114834	2.8486547
9.800632090030527	8.135063	2.8522031
9.81822325115699	8.1478815	2.8544495
9.835814644229481	8.188138	2.8614922
9.853406269671762	8.263874	2.8746955
9.870998127907646	8.291431	2.8794847
9.888590219360985	8.278302	2.877204
9.906182544455698	8.255639	2.873263
9.923775103615734	8.191084	2.862007
9.941367897265108	8.178775	2.8598557
9.958960925827878	8.15079	2.8549588
9.97655418972816	8.2457285	2.8715377
9.994147689390106	8.224424	2.8678257
10.011741425237934	8.210363	2.8653731
10.029335397695904	8.190123	2.861839
10.04692960718833	8.244952	2.8714025
10.06452405413958	8.26367	2.87466
10.082118738974064	8.3007345	2.8810995
10.099713662116246	8.235906	2.8698268
10.117308823990651	8.150499	2.854908
10.134904225021844	8.107814	2.8474224
10.152499865634445	8.085973	2.8435845
10.170095746253125	8.057356	2.8385482
10.18769186730261	8.026429	2.8330953
10.205288229207675	8.063449	2.8396213
10.222884832393145	8.076153	2.8418572
10.2404816772839	8.0767145	2.8419561
10.258078764304868	8.046965	2.8367171
10.275676093881035	8.069926	2.8407617
10.293273666437438	8.05926	2.8388836
10.310871482399158	8.113691	2.8484542
10.32846954219134	8.122627	2.8500223
10.346067846239173	8.167869	2.8579483
10.363666394967908	8.205421	2.8645108
10.38126518880283	8.206251	2.8646555
10.398864228169298	8.173705	2.8589692
10.416463513492713	8.121048	2.8497453
10.434063045198531	8.047813	2.8368669
10.451662823712262	8.081728	2.842838
10.469262849459467	8.097406	2.8455942
10.486863122865758	8.046742	2.836678
10.504463644356806	8.041624	2.8357759
10.522064414358338	7.970323	2.8231761
10.539665433296118	7.889272	2.8087847
10.557266701595987	7.7726407	2.7879455
10.574868219683818	7.6592107	2.7675278
10.592469987985552	7.6483297	2.7655613
10.610072006927185	7.604696	2.7576613
10.627674276934751	7.52258	2.7427323
10.64527679843435	7.437743	2.7272227
10.662879571852143	7.2991977	2.7017028
10.680482597614331	7.1724105	2.6781356
10.698085876147173	6.9813614	2.6422267
10.715689407876988	6.816367	2.6108174
10.733293193230146	6.729892	2.5942035
10.750897232633072	6.651121	2.5789769
10.76850152651225	6.616167	2.572191
10.786106075294207	6.5443087	2.5581846
10.803710879405534	6.4673505	2.5430987
10.821315939272877	6.382805	2.5264213
10.83892125532294	6.279883	2.5059695
10.856526827982472	6.1922603	2.4884253
10.874132657678285	6.2151937	2.493029
10.891738744837243	6.202228	2.4904273
10.909345089886271	6.1850715	2.4869804
10.926951693252343	6.075093	2.4647703
10.944558555362494	6.0322495	2.4560637
10.96216567664381	5.932718	2.435717
10.979773057523436	5.8629174	2.4213462
10.997380698428573	5.7916765	2.4065902
11.014988599786477	5.7132306	2.3902366
11.032596762024461	5.564784	2.3589795
11.050205185569892	5.542017	2.3541489
11.067813870850198	5.4955187	2.3442523
11.085422818292859	5.478786	2.3406806
11.10303202832541	5.3265543	2.3079329
11.120641501375454	5.1873584	2.2775774
11.138251237870636	5.186551	2.2774
11.155861238238671	5.2053933	2.281533
11.173471502907317	5.237792	2.2886224
11.191082032304402	5.1818566	2.276369
11.208692826857805	5.1105337	2.260649
11.226303886995465	5.0458565	2.2462983
11.243915213145371	4.9968266	2.2353582
11.261526805735578	4.9181147	2.2176824
11.279138665194196	4.896666	2.2128413
11.296750791949393	4.8123293	2.1937022
11.314363186429393	4.72857	2.1745276
11.331975849062479	4.684313	2.1643274
11.34958878027699	4.642308	2.1546016
11.36720198050133	4.643978	2.154989
11.384815450163948	4.599921	2.1447427
11.402429189693366	4.5463424	2.1322153
11.420043199518153	4.5161567	2.1251252
11.437657480066942	63.46629	7.966573
11.455272031768422	85.18496	9.229569
11.472886855051353	107.56164	10.371193
11.490501950344528	99.12287	9.956047
11.508117318076819	84.447525	9.189533
11.52573295867715	45.850044	6.771266
11.543348872574514	4.163362	2.0404317
11.560965060197946	4.1173124	2.0291162
11.57858152197655	4.052677	2.0131261
11.59619825833949	4.041901	2.010448
11.613815269715985	4.0356174	2.0088847
11.631432556535323	38.5091	6.20557
11.649050119226837	83.024185	9.111761
11.666667958219929	93.412544	9.665016
11.68428607394406	107.69749	10.37774
11.701904466828756	82.544525	9.085402
11.719523137303586	65.40779	8.087508
11.737142085798196	4.630691	2.151904
11.754761312742286	3.6883895	1.920518
11.772380818565619	3.6091232	1.8997693
11.790000603698015	3.5917928	1.8952026
11.80762066856935	3.5794606	1.8919462
11.825241013609572	3.5301635	1.878873
11.842861639248683	3.473192	1.8636502
11.860482545916748	3.4410005	1.8549933
11.878103734043883	3.4350173	1.85338
11.895725204060282	3.4121387	1.8471975
11.91334695639619	3.3843465	1.8396593
11.930968991481919	3.4024885	1.8445835
11.948591309747824	3.3774793	1.8377919
11.966213911624347	3.3746092	1.837011
11.98383679754198	3.2911806	1.8141612
12.001459967931268	3.2575648	1.8048725
12.019083423222835	3.2038796	1.7899384
12.036707163847352	3.196051	1.7877502
12.05433119023556	3.1841855	1.7844286
12.071955502818259	3.1781723	1.782743
12.089580102026313	3.1587453	1.7772859
12.107204988290643	3.1639733	1.7787561
12.12483016204224	3.183009	1.7840989
12.142455623712152	3.1416392	1.772467
12.16008137373149	3.1046357	1.7619977
12.177707412531431	3.0934436	1.7588189
12.19533374054321	3.075017	1.7535726
12.212960358198126	3.054002	1.7475703
12.230587265927545	2.9896076	1.7290481
12.248214464162889	2.9389887	1.7143478
12.265841953335649	2.9061406	1.7047406
12.283469733877375	2.9084406	1.7054151
12.301097806219685	2.9135206	1.7069038
12.31872617079425	2.8999834	1.7029338
12.336354828032825	2.8545117	1.68953
12.353983778367205	2.8189719	1.6789794
12.371613022229262	2.8492036	1.6879584
12.389242560050928	2.8549473	1.6896589
12.406872392264201	2.9038386	1.7040653
12.424502519301143	2.8668203	1.6931688
12.442132941593874	2.8438869	1.6863828
12.459763659574586	2.8380518	1.6846519
12.477394673675532	2.8266094	1.6812524
12.49502598432903	2.8476756	1.6875057
12.51265759196746	2.8237755	1.6804093
12.530289497023267	2.7802742	1.6674154
12.547921699928967	2.7339892	1.6534779
12.565554201117134	2.7416513	1.6557933
12.583187001020404	2.7419028	1.6558692
12.600820100071486	2.7534337	1.6593474
12.618453498703152	2.783431	1.6683618
12.636087197348235	2.7644756	1.6626712
12.65372119643964	2.752099	1.6589452
12.671355496410326	2.7338376	1.653432
12.68899009769333	2.7838254	1.6684799
12.706625000721749	2.8699417	1.6940902
12.724260205928752	2.9048555	1.7043637
12.741895713747551	2.9204218	1.7089242
12.759531524611454	2.91482	1.7072843
12.777167638953818	2.912033	1.706468
12.794804057208072	2.9744174	1.7246499
12.812440779807702	3.0519536	1.7469841
12.830077807186271	3.2198625	1.7943975
12.847715139777405	3.2247927	1.7957708
12.865352778014795	3.4548917	1.8587339
12.882990722332197	3.5521884	1.884725
12.90062897316344	3.6289	1.9049672
12.918267530942412	3.6861806	1.9199429
12.935906396103071	3.5850403	1.8934202
12.953545569079449	3.803409	1.9502331
12.971185050305628	3.633673	1.9062196
12.988824840215775	3.6123433	1.9006165
13.006464939244115	3.6335049	1.9061755
13.024105347824943	3.4572682	1.8593731
13.041746066392617	3.5697079	1.8893671
13.05938709538157	3.331607	1.8252691
13.077028435226296	3.342922	1.8283659
13.094670086361363	3.2690482	1.808051
13.112312049221401	3.1829245	1.7840753
13.129954324241112	3.108359	1.7630539
13.147596911855258	2.8753982	1.6956999
13.165239812498685	2.8430922	1.6861471
13.182883026606293	2.768828	1.6639795
13.200526554613058	2.7076023	1.6454793
13.218170396954017	2.6841714	1.6383442
13.235814554064284	2.687107	1.6392398
13.253459026379034	2.7070448	1.6453099
13.271103814333523	2.6861403	1.6389449
13.288748918363058	2.67894	1.6367468
13.306394338903031	2.6755228	1.6357025
13.32404007638889	2.6907446	1.6403489
13.341686131256164	2.6650398	1.6324949
13.359332503940449	2.665567	1.6326565
13.376979194877402	2.6795833	1.6369433
13.394626204502751	2.7018495	1.6437304
13.412273533252307	2.7144413	1.6475562
13.429921181561937	2.691532	1.6405889
13.447569149867581	2.7057118	1.6449049
13.465217438605247	2.6766987	1.6360619
13.482866048211022	2.6355054	1.6234239
13.500514979121052	2.6053522	1.6141104
13.518164231771568	2.5988638	1.6120992
13.535813806598844	2.6203604	1.6187527
13.553463704039254	2.6592572	1.6307229
13.571113924529229	2.6663	1.6328809
13.588764468505275	2.6526709	1.6287022
13.606415336403956	2.6721156	1.6346607
13.624066528661917	2.7041628	1.6444339
13.641718045715882	2.7901132	1.6703632
13.659369888002635	2.8546295	1.689565
13.67702205595903	2.891387	1.7004079
13.694674550021993	2.9485607	1.7171373
13.712327370628532	2.9975944	1.7313563
13.729980518215713	3.0731056	1.7530276
13.747633993220681	3.1488278	1.7744937
13.765287796080647	3.2085304	1.7912371
13.7829419272329	3.3040843	1.817714
13.800596387114801	3.3074446	1.8186381
13.818251176163775	3.3135703	1.8203214
13.835906294817324	3.3311942	1.825156
13.853561743513023	3.4078267	1.84603
13.871217522688525	3.436458	1.8537686
13.888873632781538	3.453733	1.8584222
13.906530074229858	3.4532113	1.8582819
13.92418684747135	3.4736717	1.8637788
13.941843952943948	3.4637485	1.8611149
13.959501391085665	3.4412036	1.8550482
13.977159162334578	3.3800461	1.8384901
13.994817267128846	3.3101368	1.8193781
14.012475705906693	3.2149243	1.793021
14.030134479106424	3.1424925	1.7727077
14.047793587166414	3.099854	1.7606403
14.065453030525108	3.062172	1.7499063
14.083112809621026	3.007164	1.7341176
14.100772924892766	2.9654293	1.7220422
14.118433376778997	2.9215634	1.7092582
14.136094165718458	2.8948433	1.7014239
14.153755292149969	2.8665562	1.6930907
14.171416756512416	2.7654896	1.6629761
14.189078559244768	2.6657853	1.6327233
14.20674070078606	2.5373008	1.5928907
14.224403181575408	2.5034983	1.5822448
14.242066002051999	2.4817934	1.5753709
14.259729162655093	2.4569476	1.5674653
14.277392663824022	2.4256165	1.5574391
14.295056505998208	2.4117324	1.5529753
14.312720689617128	2.4249077	1.5572115
14.330385215120348	2.4212878	1.5560488
14.348050082947497	2.3860853	1.5446959
14.3657152935383	2.334069	1.527766
14.383380847332528	2.2760806	1.5086685
14.401046744770051	2.2860749	1.5119772
14.418712986290798	2.313109	1.5208908
14.436379572334793	2.3313665	1.5268813
14.454046503342123	2.38143	1.5431882
14.471713779752946	2.3909192	1.5462598
14.489381402007504	2.3922951	1.5467046
14.507049370546113	2.3567228	1.5351622
14.524717685809168	2.3609216	1.5365291
14.542386348237134	2.3668635	1.5384614
14.560055358270553	2.332029	1.5270983
14.577724716350051	2.3731682	1.5405091
14.595394422916325	2.4057379	1.5510441
14.61306447841015	2.5169835	1.5865004
14.63073488327237	2.556677	1.5989612
14.648405637943917	2.573557	1.6042309
14.6660767428658	2.4965668	1.5800527
14.683748198479094	2.494267	1.5793248
14.701420005224954	2.5196354	1.587336
14.719092163544628	2.580489	1.60639
14.73676467387942	2.598795	1.6120778
14.754437536670727	2.6279888	1.6211073
14.772110752360014	2.6574535	1.6301697
14.78978432138882	2.665864	1.6327474
14.807458244198777	2.6578116	1.6302797
14.82513252123159	2.6042397	1.6137657
14.842807152929028	2.6436932	1.6259438
14.860482139732962	2.646402	1.6267766
14.87815748208531	2.6711082	1.6343526
14.8958331804281	2.6838665	1.6382511
14.91350923520342	2.6950557	1.6416625
14.931185646853438	2.7049303	1.6446673
14.948862415820408	2.6978354	1.6425089
14.966539542546656	2.685979	1.6388956
14.98421702747459	2.6784914	1.6366097
15.001894871046696	2.6833148	1.6380826
15.019573073705542	2.7136376	1.6473123
15.037251635893766	2.6424959	1.6255755
15.054930558054092	2.6114697	1.6160042
15.072609840629323	2.6014264	1.6128938
15.090289484062351	2.745572	1.6569768
15.107969488796124	3.0097234	1.7348554
15.125649855273691	3.4138021	1.8476478
15.14333058393817	3.9403572	1.9850333
15.161011675232768	4.930836	2.2205486
15.17869312960076	6.4157643	2.5329359
15.196374947485506	8.434765	2.9042666
15.214057129330447	11.73858	3.426161
15.231739675579114	16.600891	4.074419
15.249422586675102	21.604668	4.6480823
15.267105863062092	24.511599	4.950919
15.284789505183847	24.527178	4.952492
15.302473513484218	22.434902	4.7365494
15.320157888407127	18.961254	4.354452
15.337842630396578	14.7410755	3.8394108
15.355527739896656	11.370289	3.371986
15.37321321735153	8.726469	2.9540598
15.39089906320545	6.315759	2.5131173
15.408585277902748	4.6967893	2.1672077
15.42627186188783	3.6578321	1.912546
15.443958815605198	3.151725	1.7753098
15.461646139499424	2.880484	1.6971989
15.479333834015168	2.7407184	1.6555115
15.497021899597165	2.656584	1.6299031
15.514710336690234	2.5803776	1.6063554
15.53239914573928	2.5131366	1.5852876
15.550088327189297	2.4949956	1.5795555
15.567777881485336	2.4774027	1.5739768
15.58546780907256	2.5003633	1.5812538
15.6031581103962	2.5001774	1.5811949
15.620848785901568	2.5015283	1.581622
15.638539836034063	2.4923084	1.5787046
15.656231261239173	2.4587154	1.5680292
15.673923061962451	2.4384096	1.5615407
15.691615238649552	2.4164047	1.5544789
15.709307791746202	2.4056559	1.5510176
15.727000721698221	2.377944	1.5420583
15.744694028951498	2.3623085	1.5369803
15.76238771395202	2.3341448	1.5277908
15.780081777145844	2.3642673	1.5376174
15.797776218979125	2.3495495	1.532824
15.815471039898094	2.3656693	1.5380732
15.833166240349064	2.3786423	1.5422847
15.850861820778437	2.3750415	1.541117
15.868557781632699	2.3605442	1.5364063
15.886254123358412	2.3636115	1.5374042
15.903950846402232	2.3821032	1.5434064
15.921647951210897	2.4044394	1.5506254
15.939345438231225	2.4072685	1.5515375
15.957043307910133	2.3972213	1.5482962
15.974741560694602	2.3677871	1.5387615
15.992440197031714	2.381745	1.5432904
16.01013921736862	2.392378	1.5467315
16.02783862215259	2.381035	1.5430603
16.045538411830933	2.3668501	1.538457
16.06323858685107	2.3908582	1.54624
16.080939147660512	2.42927	1.5586115
16.09864009470684	2.4506598	1.5654583
16.11634142843774	2.4316015	1.5593593
16.134043149300954	2.4164221	1.5544845
16.15174525774433	2.390356	1.5460776
16.169447754215817	2.3699272	1.5394567
16.18715063916342	2.371208	1.5398728
16.204853913035244	2.3533344	1.5340582
16.222557576279478	2.3956175	1.5477782
16.240261629344403	22.421162	4.735099
16.257966072678386	42.965286	6.554791
16.275670906729868	38.027767	6.166666
16.293376131947387	2.461171	1.5688119
16.31108174877957	2.491932	1.5785854
16.328787757675133	2.5899873	1.6093438
16.34649415908287	2.6114616	1.6160017
16.364200953451657	2.6186907	1.6182369
16.38190814123048	2.5873098	1.6085117
16.39961572286839	2.6054385	1.614137
16.41732369881455	2.662774	1.6318009
16.43503206951817	2.705176	1.644742
16.45274083542859	2.7249868	1.6507534
16.47044999699522	2.7589629	1.6610126
16.488159554667558	2.8263104	1.6811634
16.505869508895184	2.86361	1.6922204
16.523579860127786	2.9200957	1.7088287
16.541290608815117	2.9963965	1.7310103
16.559001755407035	3.04748	1.7457033
16.57671330035348	3.0869577	1.756974
16.59442524410448	3.1618657	1.7781636
16.61213758711015	3.2125952	1.7923714
16.629850329820705	3.2762096	1.8100302
16.647563472686436	3.2860775	1.8127542
16.665277016157724	3.363155	1.8338907
16.682990960685053	3.4273472	1.8513095
16.70070530671898	3.4859126	1.8670598
16.718420054710155	3.5072944	1.8727772
16.736135205109335	3.5094054	1.8733407
16.753850758367335	3.5565803	1.8858898
16.771566714935087	3.6055515	1.898829
16.789283075263597	3.706436	1.9252106
16.80699983980398	3.7680418	1.9411445
16.82471700900741	3.792345	1.9473944
16.84243458332518	3.8482826	1.961704
16.860152563208665	3.9295814	1.9823172
16.87787094910932	3.9972737	1.9993184
16.89558974147871	4.0485086	2.0120907
16.913308940768466	4.1017365	2.0252745
16.931028547430333	4.174352	2.0431232
16.94874856191613	4.214185	2.052848
16.966468984677785	4.240336	2.0592077
16.98418981616729	4.307187	2.0753763
17.00191105683676	4.411788	2.1004257
17.019632707138374	4.4694295	2.1141026
17.03735476752442	4.509251	2.1234996
17.05507723844728	4.512608	2.12429
17.072800120359403	4.538013	2.1302612
17.090523413713353	4.528134	2.1279411
17.108247118961785	4.5894966	2.142311
17.125971236557437	4.6448503	2.1551914
17.143695766953133	4.6548867	2.1575186
17.161420710601806	4.6297174	2.1516778
17.179146067956477	4.5991592	2.144565
17.19687183947025	4.5494294	2.132939
17.21459802559634	4.5510607	2.1333215
17.232324626788028	4.5854692	2.1413708
17.25005164349871	4.598488	2.1444085
17.267779076181863	4.5499682	2.1330655
17.285506925291074	4.517485	2.1254377
17.30323519127999	4.5007443	2.1214957
17.320963874602384	4.4829087	2.117288
17.33869297571211	4.476574	2.1157916
17.356422495063114	4.4850698	2.1177983
17.37415243310944	4.470567	2.1143715
17.391882790305218	4.4414334	2.1074708
17.40961356710468	4.4430265	2.107849
17.42734476396215	4.49193	2.1194174
17.445076381332044	4.5227876	2.1266847
17.462808419668868	4.570999	2.1379895
17.48054087942723	4.7041173	2.1688976
17.498273761061835	5.0224485	2.241082
17.51600706502747	5.506521	2.346598
17.533740791779024	6.1871524	2.4873986
17.551474941771485	7.732985	2.7808244
17.56920951545993	8.964278	2.9940405
17.586944513299528	11.35035	3.369028
17.60467993574556	13.232408	3.6376376
17.622415783253373	15.046977	3.8790433
17.64015205627843	16.53765	4.066651
17.657888755276293	17.594168	4.19454
17.675625880702604	17.99218	4.241719
17.69336343301311	17.733002	4.211057
17.71110141266366	16.83003	4.102442
17.728839820110178	15.960047	3.9950027
17.746578655808705	14.950129	3.8665397
17.764317920215372	13.216385	3.6354346
17.7820576137864	11.42385	3.3799186
17.79979773697811	9.187206	3.0310404
17.81753829024692	7.154608	2.67481
17.835279274049356	5.52724	2.3510082
17.85302068884201	4.600039	2.1447701
17.870762535081607	4.080782	2.0200946
17.888504813224934	3.8567085	1.9638504
17.90624752372891	3.7247996	1.929974
17.923990667050536	3.6300902	1.9052795
17.941734243646895	3.5082679	1.8730371
17.959478253975185	3.4539266	1.8584743
17.9772226984927	3.4451485	1.8561112
17.994967577656833	3.443884	1.8557705
18.01271289192506	3.4051464	1.8453039
18.030458641754965	3.3686047	1.8353759
18.04820482760425	3.3114402	1.8197364
18.06595144993067	3.2934299	1.814781
18.083698509192125	3.3161967	1.8210428
18.101446005846576	3.3054893	1.8181005
18.119193940352105	3.247854	1.8021803
18.136942313166887	3.1727264	1.7812148
18.1546911247492	3.1349578	1.7705812
18.1724403755574	3.1540241	1.7759572
18.19019006604997	3.1530702	1.7756886
18.207940196685467	3.1447005	1.7733303
18.225690767922575	3.118037	1.7657964
18.243441780220046	3.1054027	1.7622153
18.261193234036764	3.0909019	1.7580961
18.278945129831676	3.0643468	1.7505276
18.29669746806386	3.0900881	1.7578646
18.314450249192483	3.09443	1.7590992
18.3322034736768	3.0814106	1.7553947
18.349957141976184	3.0363264	1.7425058
18.3677112545501	3.0169952	1.7369499
18.385465811858108	3.009913	1.7349101
18.403220814359884	3.0005193	1.7322007
18.420976262515172	3.0279748	1.7401077
18.43873215678387	3.0781407	1.7544631
18.456488497625923	3.1339161	1.770287
18.474245285501407	3.2035422	1.7898442
18.492002520870486	3.2450225	1.8013946
18.50976020419343	3.328661	1.8244618
18.527518335930615	3.6226106	1.9033157
18.545276916542516	4.1936364	2.047837
18.563035946489688	4.375651	2.0918057
18.580795426232832	4.8196583	2.195372
18.598555356232698	4.7040005	2.1688707
18.616315736950185	5.0278077	2.2422774
18.63407656884626	4.7463856	2.17862
18.65183785238201	4.922041	2.2185674
18.669599588018617	4.651115	2.1566443
18.68736177621737	4.6162887	2.148555
18.705124417439652	4.61906	2.1492
18.72288751214696	4.4578886	2.1113713
18.740651060800886	4.5726676	2.1383796
18.758415063863115	4.312891	2.07675
18.77617952179546	4.4625797	2.1124818
18.793944435059814	4.2262053	2.0557737
18.811709804118184	4.220769	2.054451
18.829475629432675	4.169352	2.0418992
18.8472419114655	3.980258	1.9950584
18.86500865067897	4.0888114	2.022081
18.88277584753551	3.8206441	1.9546468
18.90054350249763	3.826388	1.9561155
18.918311616027957	3.4813206	1.8658297
18.936080188589226	3.3436308	1.8285598
18.953849220644265	3.005997	1.7337811
18.971618712656007	2.8199062	1.6792576
18.9893886650875	2.753613	1.6594014
19.007159078401887	7.9478717	2.819197
19.024929953062408	32.86664	5.732943
19.042701289532435	32.848953	5.7314005
19.060473088275405	25.411709	5.0410028
19.07824534975489	2.677806	1.6364003
19.096018074434568	2.6737943	1.635174
19.113791262778197	2.6458173	1.6265968
19.13156491524966	2.60996	1.615537
19.149339032312945	2.5520542	1.597515
19.167113614432136	2.5351694	1.5922215
19.184888662071433	2.5040414	1.5824163
19.202664175695123	2.4843004	1.5761664
19.220440155767623	2.490193	1.5780345
19.238216602753447	2.5039904	1.5824002
19.2559935171172	2.497575	1.5803719
19.27377089932361	2.5073514	1.5834619
19.291548749837514	2.5161626	1.5862417
19.309327069123835	2.5062144	1.5831028
19.32710585764763	2.4903405	1.5780813
19.344885115874032	2.4909253	1.5782665
19.362664844268313	2.4917297	1.5785214
19.380445043295822	2.5013356	1.5815611
19.39822571342203	2.514509	1.5857203
19.41600685511252	2.4768205	1.5737917
19.43378846883297	2.4713988	1.5720683
19.451570555049173	2.4898303	1.5779196
19.469353114227037	2.5004406	1.5812782
19.48713614683254	2.514617	1.5857544
19.50491965333182	2.5033536	1.582199
19.52270363419109	2.4789658	1.5744731
19.540488089876686	2.475157	1.5732632
19.55827302085503	2.5008326	1.5814021
19.576058427592674	2.4870758	1.5770465
19.593844310556282	2.4837317	1.5759859
19.611630670212598	2.4920886	1.578635
19.629417507028506	2.4781752	1.5742221
19.64720482147098	2.4366534	1.5609783
19.6649926140071	2.4728148	1.5725186
19.682780885104084	2.5112915	1.5847055
19.70056963522921	2.5268958	1.5896213
19.718358864849908	2.5295024	1.590441
19.7361485744337	2.486537	1.5768757
19.753938764448215	2.4687414	1.5712229
19.771729435361202	2.4672234	1.5707397
19.789520587640506	2.5013442	1.5815638
19.807312221754092	2.5009775	1.581448
19.825104338170043	2.4882238	1.5774105
19.842896937356517	2.4940886	1.5792683
19.860690019781824	2.50289	1.5820525
19.87848358591436	2.5091736	1.5840372
19.896277636222635	2.4906898	1.5781919
19.914072171175278	2.4819016	1.5754052
19.931867191241015	2.466203	1.5704149
19.94966269688869	2.4897547	1.5778956
19.967458688587264	2.4858117	1.5766457
19.985255166805807	2.4477785	1.5645378
20.00305213201348	2.4302487	1.5589255
20.020849584679578	2.397002	1.5482254
20.038647525273507	2.3900619	1.5459825
20.05644595426477	2.3985493	1.548725
20.07424487212299	2.4135213	1.5535512
20.092044279317903	2.44295	1.5629939
20.109844176319353	2.41307	1.5534059
20.127644563597304	2.3758242	1.5413709
20.145445441621817	2.332345	1.5272017
20.16324681086307	2.3606138	1.5364289
20.181048671791373	2.373853	1.5407313
20.198851024877122	2.3919122	1.5465808
20.216653870590836	2.3869019	1.5449601
20.234457209403146	2.3520966	1.5336547
20.252261041784802	2.3528786	1.5339096
20.270065368206662	2.329699	1.5263351
20.287870189139685	2.3371186	1.5287638
20.305675505054968	2.3400884	1.5297347
20.323481316423702	2.3564754	1.5350815
20.341287623717207	2.3171036	1.5222036
20.359094427406884	2.310355	1.5199852
20.376901727964288	2.2934728	1.5144216
20.39470952586107	2.3083777	1.5193347
20.41251782156899	2.3249993	1.5247948
20.430326615559935	2.3618476	1.5368304
20.448135908305886	2.3591523	1.5359533
20.465945700278965	2.3737273	1.5406905
20.483755991951384	2.3881145	1.5453526
20.50156678379548	2.370956	1.5397909
20.519378076283708	2.3418646	1.5303152
20.537189869888635	2.3092768	1.5196304
20.55500216508294	2.3101754	1.5199261
20.572814962339415	2.3231733	1.5241959
20.59062826213098	2.313243	1.5209349
20.60844206493066	2.3258579	1.5250764
20.626256371211593	2.335068	1.528093
20.644071181447032	2.3389766	1.5293713
20.66188649611036	2.315935	1.5218196
20.67970231567506	2.2952933	1.5150225
20.697518640614742	2.2874951	1.5124468
20.715335471403122	2.295295	1.5150231
20.73315280851404	2.266005	1.5053256
20.750970652421447	2.2760584	1.5086612
20.768789003599412	2.2472913	1.4990969
20.786607862522136	2.209457	1.4864242
20.8044272296639	2.1895566	1.479715
20.82224710549913	2.2025974	1.484115
20.84006749050237	2.2283757	1.4927745
20.857888385148268	3.8201127	1.9545108
20.8757097899116	45.926464	6.7769065
20.893531705267254	64.81593	8.050835
20.911354131690224	83.81195	9.154886
20.92917706965566	69.07216	8.3109665
20.94700051963877	50.119514	7.0795135
20.96482448211493	29.393215	5.421551
20.982648957559622	4.1127872	2.0280008
21.00047394644843	2.250856	1.5002853
21.01829944925707	2.261217	1.5037344
21.036125466461375	2.2761567	1.5086937
21.053951998537297	2.2484825	1.4994941
21.071779045960906	2.2492821	1.4997607
21.089606609208378	2.227063	1.4923347
21.10743468875603	2.2049253	1.484899
21.12526328508028	2.163141	1.470762
21.143092398657675	2.1654825	1.4715579
21.16092202996488	2.1882474	1.4792726
21.17875217947867	2.2128952	1.4875803
21.19658284767596	2.1776295	1.4756793
21.21441403503377	2.1959212	1.4818641
21.232245742029225	2.2021966	1.48398
21.2500779691396	2.1766987	1.475364
21.26791071684227	2.1453018	1.4646848
21.28574398561475	2.1095665	1.4524347
21.30357777593465	2.13718	1.4619098
21.321412088279704	2.149749	1.4662023
21.339246923127792	2.1695197	1.4729289
21.357082280956888	2.1732924	1.4742091
21.3749181622451	2.170906	1.4733995
21.392754567470647	2.1652198	1.4714686
21.41059149711187	2.1277034	1.4586649
21.42842895164726	2.124423	1.45754
21.446266931555378	2.102332	1.4499421
21.464105437314945	2.075314	1.440595
21.481944469404798	2.0718842	1.4394041
21.49978402830388	2.0873678	1.4447726
21.51762411449127	2.1218305	1.4566504
21.53546472844617	2.1063237	1.4513179
21.553305870647876	2.0773292	1.4412943
21.571147541575865	2.0499914	1.4317791
21.58898974170967	2.0573785	1.4343565
21.60683247152899	2.077208	1.4412522
21.62467573151363	2.075346	1.4406061
21.642519522143523	2.054943	1.4335073
21.660363843898722	2.0369742	1.4272261
21.6782086972594	2.0290375	1.4244429
21.696054082705864	2.0400476	1.4283024
21.713900000718535	2.0371323	1.4272814
21.73174645177795	2.039707	1.4281831
21.749593436364794	2.0387223	1.4278383
21.767440954959845	2.0364408	1.4270391
21.785289008044032	2.0153513	1.4196306
21.803137596098388	2.0069902	1.4166828
21.820986719604086	2.0270965	1.4237614
21.838836379042412	2.0171313	1.4202574
21.85668657489478	2.0174737	1.420378
21.87453730764273	1.9766972	1.4059507
21.892388577767914	1.9707114	1.4038203
21.91024038575213	1.9539254	1.3978288
21.928092732077285	1.9530119	1.3975021
21.945945617225426	1.9728364	1.4045769
21.963799041678694	1.9800018	1.4071254
21.981653005919398	31.302794	5.59489
21.999507510429943	78.10653	8.83779
22.01736255569286	73.08608	8.54904
22.035218142190818	4.20967	2.051748
22.05307427040661	2.016117	1.4199004
22.07093094082315	2.0076845	1.4169278
22.088788153923474	2.0202286	1.4213475
22.106645910190746	2.0266886	1.4236181
22.12450421010827	2.0046082	1.4158418
22.142363054159464	2.0063488	1.4164565
22.16022244282787	1.9971396	1.4132019
22.178082376597164	2.0022895	1.4150229
22.195942855951145	1.9796373	1.4069958
22.213803881373742	1.9567093	1.3988242
22.231665453349002	1.9235312	1.3869143
22.24952757236111	1.9245148	1.3872688
22.26739023889438	1.9441694	1.3943348
22.28525345343323	1.9867646	1.4095263
22.30311721646225	1.9825654	1.408036
22.320981528466113	2.0086114	1.4172549
22.33884638992964	2.01491	1.4194752
22.356711801337788	2.0461986	1.430454
22.37457776317561	2.0081587	1.4170952
22.392444275928337	1.9802951	1.4072295
22.410311340081282	1.9345082	1.390866
22.428178956119904	1.9401965	1.3929094
22.446047124529805	1.9426777	1.3937998
22.46391584579669	1.9356462	1.391275
22.481785120406414	1.9032805	1.3795943
22.49965494884496	1.8897985	1.3746995
22.51752533159841	1.8999182	1.3783752
22.53539626915302	1.901396	1.3789111
22.553267761995137	1.8999141	1.3783737
22.571139810611264	1.9062452	1.3806684
22.589012415488025	1.928994	1.3888823
22.60688557711216	1.9453325	1.3947518
22.624759295970566	1.9464322	1.395146
22.642633572550263	1.9119599	1.3827363
22.660508407338362	1.8974634	1.3774844
22.67838380082217	1.963266	1.401166
22.696259753489077	1.970004	1.4035683
22.714136265826614	1.934336	1.390804
22.73201333832246	1.8547672	1.3618984
22.74989097146439	1.8535125	1.3614377
22.76776916574035	1.8697894	1.3674024
22.785647921638393	1.9002215	1.3784852
22.803527239646712	1.8955936	1.3768055
22.82140712025363	1.9031926	1.3795625
22.839287563947593	1.8831943	1.3722953
22.85716857121719	1.9182942	1.385025
22.875050142551135	1.9167768	1.384477
22.892932278438277	1.9474832	1.3955226
22.910814979367604	1.9413038	1.3933069
22.928698245828222	1.9268614	1.3881143
22.946582078309387	1.9010075	1.3787704
22.96446647730047	1.8626665	1.3647954
22.98235144329098	1.8217767	1.3497322
23.000236976770562	1.8692942	1.3672214
23.018123078229	1.9147061	1.3837291
23.03600974815619	1.9184345	1.3850757
23.053896987042194	1.8954251	1.3767444
23.071784795377173	1.883281	1.3723269
23.08967317365145	1.8710036	1.3678464
23.10756212235546	1.873202	1.3686497
23.125451641979787	1.8728092	1.3685062
23.143341733015134	1.9191929	1.3853494
23.161232395952357	1.9323305	1.390083
23.179123631282426	1.948	1.3957077
23.197015439496468	1.9694024	1.403354
23.214907821085717	1.9476544	1.3955839
23.23280077654157	1.9488688	1.3960189
23.250694306355538	1.9325185	1.3901505
23.268588411019277	1.9263748	1.3879391
23.28648309102458	1.881258	1.3715895
23.304378346863356	1.9198259	1.3855778
23.322274179027676	1.9348521	1.3909897
23.340170588009723	1.9238389	1.3870252
23.358067574301852	1.9110422	1.3824044
23.37596513839651	1.8986635	1.37792
23.39386328078629	1.9091761	1.3817294
23.411762001963947	1.9406282	1.3930643
23.429661302422353	1.9694207	1.4033605
23.4475611826545	1.984167	1.4086046
23.46546164315356	1.988306	1.410073
23.48336268441279	1.9790801	1.4067978
23.501264306925638	1.976244	1.4057895
23.51916651118564	1.9765828	1.4059099
23.537069297686497	1.9622461	1.4008019
23.554972666922037	1.8666451	1.3662522
23.57287661938623	1.8060929	1.3439095
23.59078115557318	1.8736249	1.3688042
23.608686275977128	1.9179986	1.3849182
23.62659198109246	1.9060034	1.3805808
23.6444982714137	1.9048482	1.3801624
23.66240514743549	1.8999927	1.3784022
23.68031260965263	1.8770351	1.3700494
23.698220658560068	1.8886592	1.374285
23.716129294652845	1.948391	1.3958478
23.7340385184262	1.9364234	1.3915544
23.75194833037546	1.8962661	1.3770498
23.769858730996123	1.8721436	1.368263
23.78776972078382	1.8713542	1.3679745
23.80568130023431	1.8608366	1.3641249
23.823593469843495	1.8947765	1.3765088
23.841506230107424	1.8942294	1.3763101
23.859419581522275	1.907807	1.3812338
23.87733352458438	1.9105121	1.3822128
23.89524805979019	1.9170536	1.384577
23.913163187636318	1.9085757	1.381512
23.931078908619508	1.9210547	1.3860211
23.948995223236633	1.9596232	1.3998654
23.966912131984735	2.0239944	1.4226716
23.98482963536096	2.052663	1.4327118
24.002747733862616	2.0332918	1.4259354
24.020666427987155	2.0290718	1.4244549
24.038585718232156	2.0332348	1.4259155
24.056505605095353	1.9956218	1.4126648
24.074426089074617	2.0340786	1.4262112
24.092347170667946	2.0662546	1.4374473
24.110268850373515	2.086742	1.444556
24.128191128689586	2.0621932	1.4360338
24.146114006114626	2.0092325	1.417474
24.164037483147187	2.0194745	1.4210821
24.181961560286005	2.0127392	1.4187104
24.199886238029926	2.022571	1.4221712
24.21781151687797	2.0344303	1.4263345
24.235737397329274	2.018671	1.4207995
24.253663879883135	2.0061464	1.4163849
24.271590965038975	2.0387974	1.4278647
24.289518653296376	2.1073103	1.4516578
24.30744694515505	2.0826623	1.4431432
24.32537584111486	2.0469754	1.4307255
24.34330534167581	2.0388637	1.4278878
24.361235447338046	2.0654914	1.4371817
24.379166158601876	2.03841	1.4277289
24.39709747596772	2.0437315	1.4295914
24.41502939993615	2.0158448	1.4198045
24.432961931007917	1.9902816	1.4107734
24.450895069683856	1.9788046	1.4066999
24.468828816465	1.9807634	1.407396
24.4867631718525	1.9376066	1.3919793
24.504698136347656	1.9160225	1.3842046
24.52263371045192	1.9320775	1.3899919
24.540569894666874	1.9485153	1.3958923
24.558506689494266	1.9462339	1.3950748
24.57644409543597	1.9387774	1.3923999
24.594382112994012	1.955386	1.3983512
24.61232074267057	1.9725156	1.4044627
24.630259984967953	2.0101109	1.4177837
24.64819984038863	1.9765023	1.4058813
24.66614030943522	1.94343	1.3940696
24.684081392610462	1.9411741	1.3932602
24.702023090417274	1.9490521	1.3960845
24.7199654033587	1.9501671	1.3964838
24.737908331937927	1.9720799	1.4043076
24.755851876658305	2.0048018	1.4159102
24.773796038023324	2.0404758	1.4284523
24.79174081653661	2.066472	1.4375229
24.809686212701962	2.0996463	1.4490156
24.827632227023294	2.1227527	1.456967
24.8455788600047	2.1253164	1.4578465
24.8635261121504	2.108502	1.4520681
24.88147398396475	2.0783339	1.4416428
24.899422475952303	2.105785	1.4511323
24.917371588617698	2.1592262	1.4694306
24.935321322465768	2.2540846	1.5013609
24.953271678001478	2.3422537	1.5304424
24.97122265572994	2.511101	1.5846454
24.989174256156414	2.877837	1.6964189
25.00712647978632	3.3748233	1.8370693
25.02507932712521	3.9725013	1.9931135
25.043032798678798	4.488729	2.118662
25.060986894952933	5.197048	2.2797036
25.078941616453637	6.0605025	2.4618087
25.096896963687055	7.1783032	2.6792355
25.114852937159508	8.301632	2.8812554
25.132809537377444	8.566939	2.9269335
25.150766764847468	8.437787	2.9047868
25.168724620076347	7.679646	2.7712173
25.186683103570985	6.5799475	2.5651407
25.204642215838426	5.2770157	2.2971756
25.222601957385894	3.9421918	1.9854953
25.24056232872074	2.9838877	1.7273933
25.25852333035048	2.493841	1.57919
25.276484962782778	2.2128499	1.487565
25.294447226525435	2.0561616	1.4339322
25.312410122086423	1.9920034	1.4113835
25.330373649973843	1.9546882	1.3981017
25.348337810695988	1.9339775	1.3906752
25.366302604761245	1.9797504	1.4070361
25.384268032678207	1.9923376	1.4115019
25.40223409495558	1.9457902	1.3949158
25.420200792102257	1.9001327	1.378453
25.438168124627246	1.8685279	1.3669411
25.45613609303974	1.8617493	1.3644594
25.474104697849057	1.8416747	1.3570832
25.492073939564698	1.8197094	1.348966
25.510043818696285	1.8158941	1.3475511
25.528014335753614	1.8296314	1.3526387
25.54598549124664	1.8495278	1.3599734
25.56395728568544	1.8545474	1.3618177
25.58192971958028	1.8516644	1.3607588
25.59990279344156	1.808149	1.3446743
25.617876507779833	1.7839786	1.3356566
25.635850863105826	1.8208634	1.3493937
25.653825859930386	1.8989266	1.3780155
25.671801498764548	1.927389	1.3883044
25.68977778011949	1.9166832	1.3844433
25.707754704506524	1.8805417	1.3713285
25.725732272437153	1.8233498	1.3503147
25.743710484423012	1.7796005	1.3340167
25.761689340975888	1.7926745	1.338908
25.77966884260774	1.818221	1.3484143
25.797648989830662	1.8249099	1.3508923
25.815629783156922	1.8477395	1.3593158
25.83361122309895	1.8670384	1.3663961
25.85159331016929	1.830641	1.3530118
25.869576044880695	1.8045838	1.343348
25.887559427746034	1.8018088	1.3423147
25.90554345927836	1.7831094	1.3353312
25.92352813999086	1.7345271	1.3170145
25.94151347039689	1.7824391	1.3350801
25.959499451009965	1.849181	1.359846
25.97748608234374	1.8766739	1.3699175
25.995473364912062	1.8023607	1.3425202
26.013461299228904	1.7977264	1.3407933
26.03144988580839	1.8341902	1.3543228
26.04943912516483	1.8906	1.3749909
26.067429017812675	1.8520555	1.3609024
26.085419564266537	1.8171583	1.3480202
26.103410765041186	1.8043432	1.3432584
26.12140262065155	1.8479621	1.3593978
26.139395131612723	1.8398387	1.3564066
26.157388298439948	1.8203793	1.3492143
26.17538212164861	1.7886826	1.3374164
26.193376601754295	1.8495975	1.3599991
26.211371739272714	1.8870332	1.3736932
26.229367534719746	1.8578143	1.3630166
26.247363988611433	1.8530046	1.3612511
26.26536110146397	1.8421391	1.3572543
26.283358873793727	1.8369815	1.3553529
26.301357306117204	1.8248919	1.3508856
26.319356398951104	1.8489546	1.3597627
26.33735615281224	1.8261275	1.3513429
26.35535656821762	1.8175371	1.3481606
26.373357645684404	1.7748545	1.3322366
26.39135938572991	1.7769195	1.3330114
26.409361788871614	1.7964638	1.3403223
26.427364855627165	1.8210588	1.3494661
26.445368586514352	1.8371334	1.3554089
26.46337298205115	1.8013017	1.3421258
26.48137804275568	1.7859082	1.3363788
26.499383769146217	1.7963303	1.3402724
26.517390161741215	1.8167914	1.347884
26.53539722105928	1.8254968	1.3511095
26.553404947619182	1.8108596	1.3456818
26.571413341939856	1.8119192	1.3460755
26.589422404540397	1.8054527	1.3436713
26.60743213594006	1.8347465	1.3545282
26.62544253665827	1.8471737	1.3591077
26.64345360721459	1.7898126	1.3378388
26.66146534812879	1.7145847	1.3094215
26.679477759920758	1.7351975	1.317269
26.69749084311057	1.7806714	1.3344179
26.71550459821847	1.8008722	1.3419658
26.733519025764842	1.7905258	1.3381053
26.751534126270258	1.7998161	1.3415723
26.769549900255434	1.7943593	1.339537
26.787566348241267	1.8288379	1.3523453
26.80558347074881	1.836195	1.3550627
26.823601268299267	1.8016442	1.3422534
26.841619741414036	1.7612734	1.3271297
26.85963889061465	1.7528695	1.3239598
26.877658716422832	1.8337679	1.3541669
26.89567921936045	1.8486739	1.3596596
26.913700399949544	1.8419117	1.3571705
26.93172225871233	1.8190584	1.3487247
26.949744796171174	1.7810669	1.3345662
26.967768012848605	1.7898062	1.3378364
26.98579190926733	1.8242793	1.3506589
27.003816485950225	1.8319625	1.3535001
27.021841743420318	1.7823142	1.3350334
27.039867682200814	1.7754258	1.3324511
27.057894302815072	1.7948009	1.3397018
27.07592160578664	1.7928905	1.3389887
27.0939495916392	1.8028357	1.3426971
27.111978260896635	1.8185896	1.3485509
27.13000761408296	1.8212985	1.3495549
27.148037651722397	1.8546063	1.3618393
27.166068374339304	1.8640747	1.3653113
27.184099782458215	1.8210524	1.3494637
27.20213187660384	1.749719	1.3227694
27.22016465730105	1.7329947	1.3164326
27.23819812507487	1.7662469	1.3290023
27.256232280450533	1.7602376	1.3267394
27.274267123953383	1.7727342	1.3314407
27.292302656108987	1.7843978	1.3358135
27.31033887744306	1.7932051	1.3391061
27.32837578848146	1.7966086	1.3403763
27.34641338975026	1.7675167	1.3294798
27.364451681775673	1.7750416	1.3323069
27.382490665084074	1.7999946	1.3416388
27.400530340202046	1.8124073	1.3462567
27.41857070765629	1.8584224	1.3632396
27.436611767973726	1.8740225	1.3689494
27.454653521681404	1.8678002	1.3666749
27.472695969306564	1.8150215	1.3472273
27.490739111376627	1.7466637	1.321614
27.508782948419153	1.7647718	1.3284471
27.526827480961902	1.8109958	1.3457325
27.54487270953279	1.8138381	1.346788
27.562918634659898	1.7817193	1.3348106
27.580965256871508	1.8036523	1.3430012
27.599012576696026	1.8138952	1.3468093
27.617060594662068	1.8008283	1.3419495
27.63510931129842	1.7626214	1.3276376
27.65315872713401	1.7965398	1.3403506
27.67120884269797	1.8156729	1.3474691
27.68925965851958	1.875753	1.3695813
27.707311175128307	1.8442591	1.3580351
27.725363393053787	1.8754928	1.3694863
27.74341631282583	1.871634	1.3680768
27.7614699349744	1.8815217	1.3716857
27.77952426002968	2.048809	1.4313662
27.797579288521973	2.1460524	1.464941
27.815635020981784	2.4721856	1.5723186
27.83369145793979	2.520658	1.587658
27.85174859992682	2.4453814	1.5637715
27.869806447473923	2.3310437	1.5267756
27.887865001112267	2.0415	1.4288107
27.905924261373233	1.9317322	1.3898677
27.92398422878836	1.8630698	1.3649431
27.94204490388936	1.8177843	1.3482523
27.96010628720813	1.833024	1.3538922
27.978168379276728	1.8350536	1.3546414
27.9962311806274	1.8723577	1.3683412
28.014294691792568	1.8563343	1.3624736
28.0323589133048	1.8217968	1.3497396
28.050423845696887	1.8115917	1.3459538
28.068489489501758	1.8218573	1.349762
28.086555845252523	1.8389326	1.3560725
28.104622913482487	1.8367217	1.355257
28.122690694725115	1.8875492	1.3738811
28.14075918951405	1.9273964	1.388307
28.15882839838312	1.9238935	1.3870449
28.176898321866304	1.8803924	1.371274
28.1949689604978	1.856127	1.3623976
28.213040314811945	1.8065498	1.3440795
28.23111238534327	1.8026121	1.3426139
28.249185172626493	1.8620317	1.3645629
28.267258677196473	1.8973846	1.3774558
28.285332899588294	1.8909634	1.375123
28.303407840337172	1.8689806	1.3671067
28.321483499978545	1.911758	1.3826634
28.33955987904799	1.9539646	1.3978429
28.357636978081285	1.9671355	1.402546
28.37571479761439	1.9192684	1.3853766
28.393793338183425	1.9164401	1.3843555
28.41187260032469	1.9366727	1.3916439
28.429952584574686	1.9776064	1.406274
28.448033291470065	1.9588002	1.3995714
28.46611472154769	1.9910095	1.4110314
28.484196875344566	2.0130415	1.4188169
28.502279753397914	1.9688197	1.4031464
28.52036335624511	1.9018613	1.3790798
28.538447684423716	1.9052237	1.3802984
28.556532738471482	1.9183977	1.3850623
28.574618518926325	1.976544	1.4058962
28.59270502632635	2.0071428	1.4167367
28.61079226120985	1.9836495	1.4084209
28.628880224115274	1.9713795	1.4040582
28.646968915581287	1.9811841	1.4075454
28.66505833614671	1.9656925	1.4020315
28.68314848635055	1.9891257	1.4103637
28.701239366732004	2.0146246	1.4193747
28.71933097783044	2.0399175	1.4282568
28.737423320185403	2.007489	1.4168588
28.75551639433665	2.0636663	1.4365467
28.773610200824074	2.106017	1.4512123
28.791704740187793	2.143182	1.4639611
28.80980001296809	2.1876154	1.479059
28.827896019705413	2.144926	1.4645566
28.845992760940433	2.0775828	1.4413823
28.86409023721397	2.1090395	1.4522532
28.88218844906704	2.1937308	1.4811249
28.900287397040845	2.2079618	1.4859211
28.918387081676755	2.2171805	1.48902
28.936487503516343	2.2481222	1.4993739
28.954588663101365	2.27989	1.5099305
28.97269056097374	2.2748344	1.5082554
28.990793197675597	2.2475455	1.4991816
29.00889657374923	2.3076646	1.5191
29.027000689737125	2.3624833	1.5370371
29.04510554618196	2.3617284	1.5367916
29.06321114362659	2.3550427	1.5346148
29.08131748261405	2.38837	1.5454352
29.099424563687567	2.45493	1.5668217
29.11753238739057	2.5013502	1.5815657
29.13564095426663	2.5003219	1.5812407
29.15375026485954	2.5600877	1.6000274
29.171860319713275	2.5929308	1.610258
29.18997111937199	2.5978274	1.6117778
29.20808266438002	2.6821806	1.6377364
29.226194955281898	2.7518759	1.6588778
29.244307992622335	2.7505987	1.6584929
29.26242177694624	2.7876446	1.6696241
29.2805363087987	2.8661988	1.6929852
29.29865158872498	2.9058297	1.7046494
29.316767617270557	2.8536108	1.6892633
29.334884394981064	2.8757343	1.695799
29.353001922402367	2.9671395	1.7225387
29.37112020008047	3.0931668	1.7587401
29.389239228561596	3.2224228	1.7951108
29.407359008392152	3.37201	1.8363034
29.42547954011872	3.7598274	1.9390274
29.44360082428809	4.439473	2.1070058
29.46172286144722	5.773645	2.402841
29.479845652143283	7.666123	2.7687764
29.497969196923606	10.140164	3.1843624
29.516093496335728	12.961074	3.6001492
29.5342185509274	15.787464	3.973344
29.55234436124651	18.014465	4.244345
29.570470927841175	19.198315	4.381588
29.588598251259686	18.478294	4.298639
29.60672633205055	16.675426	4.0835557
29.624855170762405	14.236758	3.7731628
29.642984767944146	11.22437	3.350279
29.66111512414481	8.434254	2.9041786
29.67924623991366	6.2661576	2.5032294
29.697378115800138	4.827241	2.1970983
29.71551075235387	4.0272255	2.006795
29.733644150124675	3.6680684	1.9152201
29.751778309662576	3.444347	1.8558952
29.769913231517766	3.3060567	1.8182565
29.78804891624066	3.2597284	1.8054718
29.806185364381818	3.3430688	1.8284061
29.82432257649206	3.397081	1.8431171
29.842460553122333	3.3773994	1.8377702
29.86059929482382	3.4005203	1.8440499
29.878738802147872	3.3531635	1.8311645
29.896879075646048	3.309655	1.8192457
29.915020115870114	3.3285253	1.8244246
29.933161923371976	3.263758	1.8065873
29.951304498703777	3.188783	1.7857164
29.969447842417857	3.1629908	1.7784799
29.987591955066733	3.1628664	1.7784449
30.005736837203123	3.1988847	1.7885426
30.023882489379943	3.2080386	1.7910998
30.04202891215028	3.1698978	1.7804207
30.060176106067455	3.15015	1.7748662
30.078324071684946	3.1435351	1.7730018
30.09647280955646	3.1535363	1.7758199
30.114622320235863	3.11383	1.7646048
30.132772604277257	3.0577478	1.7486417
30.1509236622349	3.0571184	1.7484617
30.16907549466328	3.0231595	1.7387235
30.18722810211705	2.9837947	1.7273664
30.205381485151097	3.0400894	1.7435852
30.22353564432045	3.1263905	1.7681602
30.241690580180403	3.1614432	1.7780448
30.25984629328638	3.0829766	1.7558407
30.278002784194037	2.9490213	1.7172714
30.296160053459246	2.9300992	1.7117532
30.314318101638033	2.940914	1.7149093
30.332476929286646	2.9081411	1.7053273
30.35063653696153	2.9546456	1.7189083
30.368796925219307	2.9202628	1.7088777
30.386958094616844	2.8632762	1.6921219
30.40512004571115	2.9045427	1.7042719
30.423282779059463	2.9074786	1.705133
30.441446295219233	2.8190706	1.6790088
30.459610594748067	2.7814333	1.667763
30.47777567820382	2.7826567	1.6681297
30.495941546144504	2.7729166	1.6652076
30.51410819912835	2.7638843	1.6624933
30.532275637713795	2.820588	1.6794606
30.55044386245946	2.8390524	1.6849488
30.56861287392416	2.8460531	1.687025
30.586782672666956	2.8124685	1.6770416
30.604953259247047	2.8250372	1.6807847
30.623124634223885	2.844365	1.6865245
30.641296798157075	2.826572	1.6812412
30.659469751606462	2.758762	1.6609521
30.677643495132074	2.7602406	1.6613972
30.695818029294152	2.6973372	1.6423572
30.713993354653116	2.6576815	1.6302397
30.73216947176962	2.714501	1.6475743
30.75034638120448	2.7075374	1.6454597
30.768524083518756	2.7621746	1.6619791
30.786702579273673	2.7820807	1.6679571
30.80488186903069	2.8080635	1.6757277
30.82306195335144	2.8351147	1.6837798
30.841242832797782	3.0253441	1.7393516
30.85942450793176	3.3374355	1.826865
30.877606979315637	3.7659614	1.9406085
30.895790247511883	4.2880964	2.070772
30.913974313083134	4.739561	2.1770532
30.932159176592283	4.995706	2.2351077
30.95034483860237	4.9093866	2.2157135
30.968531299676698	4.630877	2.1519473
30.98671856037873	4.223364	2.0550826
31.00490662127215	3.8201926	1.9545313
31.023095482920848	3.4449427	1.8560557
31.04128514588892	3.0111744	1.7352736
31.059475610740662	2.6258361	1.6204432
31.07766687804056	2.542425	1.5944983
31.09585894835335	2.5000794	1.5811639
31.11405182224393	2.4698007	1.5715599
31.132245500277417	2.5002477	1.5812172
31.15043998301914	2.5720522	1.6037619
31.168635271034628	2.522328	1.5881839
31.18683136488964	2.465002	1.5700325
31.20502826515008	2.4615526	1.5689336
31.223225972382135	2.489235	1.5777309
31.241424487152155	2.4413095	1.562469
31.259623810026692	2.395931	1.5478796
31.27782394157253	2.3569365	1.5352317
31.296024882356644	2.4198692	1.5555929
31.314226632946237	2.4189155	1.5552863
31.332429193908684	2.4321744	1.559543
31.350632565811598	2.4505377	1.5654193
31.368836749222787	2.4609244	1.5687333
31.387041744710295	2.5308754	1.5908725
31.40524755284232	2.506852	1.5833042
31.423454174187317	2.498106	1.5805398
31.441661609313922	2.4768572	1.5738034
31.459869858791002	2.404419	1.5506189
31.478078923187628	2.3408947	1.5299983
31.496288803073064	2.2738848	1.5079405
31.514499499016807	2.2376838	1.495889
31.532711011588546	2.2580097	1.5026675
31.550923341358178	2.3064783	1.5187094
31.56913648889584	2.362084	1.5369072
31.587350454771844	2.4032028	1.5502267
31.605565239556732	2.4085672	1.5519559
31.62378084382127	2.3091595	1.5195919
31.641997268136382	2.2714624	1.5071372
31.660214513073274	2.258847	1.5029461
31.67843257920331	2.2848923	1.5115861
31.6966514670981	2.279753	1.5098851
31.71487117732944	2.2723427	1.5074291
31.733091710469346	2.2888117	1.5128819
31.751313067090052	2.3223023	1.5239102
31.769535247764008	2.3387525	1.5292981
31.787758253063878	2.3171573	1.5222212
31.805982083562526	2.2563553	1.5021169
31.824206739833024	2.2312403	1.4937336
31.84243222244869	2.2439566	1.4979842
31.860658531983013	2.248899	1.499633
31.878885669009737	2.2826521	1.5108448
31.897113634102784	2.2243788	1.4914352
31.91534242783632	2.2038004	1.4845203
31.933572050784694	2.2295232	1.4931588
31.951802503522508	2.2449622	1.4983197
31.970033786624548	2.275885	1.5086037
31.988265900665834	2.2854085	1.5117568
32.006498846221575	2.2366605	1.4955469
32.02473262386724	2.2200806	1.4899935
32.04296723417845	2.2149594	1.488274
32.0612026777311	2.1964378	1.4820384
32.07943895510129	2.1925814	1.4807367
32.097676066865304	2.15772	1.468918
32.115914013599685	2.1499965	1.4662867
32.13415279588115	2.1359172	1.4614778
32.152392414286666	2.1501904	1.4663527
32.1706328693934	2.1114712	1.4530902
32.18887416177875	2.0787184	1.4417762
32.20711629202032	2.0668292	1.4376471
32.225359260695924	2.0686994	1.4382974
32.243603068383614	1.998176	1.4135685
32.26184771566166	2.030967	1.42512
32.28009320310852	2.1291203	1.4591506
32.2983395313029	2.1549828	1.467986
32.31658670082372	2.2239754	1.4912999
32.33483471225012	2.2670505	1.5056728
32.35308356616143	2.180408	1.4766204
32.371333263137245	2.0305858	1.4249862
32.38958380375734	2.01765	1.4204401
32.407835188601744	2.1242378	1.4574765
32.42608741825067	2.1032674	1.4502646
32.444340493284585	2.0919628	1.4463619
32.46259441428416	2.045765	1.4303024
32.48084918183028	2.0941665	1.4471235
32.49910479650405	2.04747	1.4308983
32.51736125888683	2.0525882	1.4326856
32.53561856956014	2.081046	1.4425831
32.5538767291058	2.0530057	1.4328314
32.572135738105764	1.99614	1.4128482
32.59039559714228	1.9917465	1.4112926
32.608656306797776	1.9806145	1.407343
32.62691786765491	2.0226488	1.4221985
32.645180280296586	2.0559795	1.4338688
32.663443545305896	2.0945022	1.4472395
32.68170766326619	1.981703	1.4077297
32.69997263476099	1.9990304	1.4138707
32.7182384603741	2.042647	1.429212
32.7365051406895	2.020664	1.4215006
32.75477267629144	2.0235553	1.4225172
32.77304106776434	1.9571189	1.3989706
32.79131031569289	1.9366835	1.3916478
32.809580420661966	1.9895861	1.4105269
32.827851383256714	1.9931461	1.4117882
32.84612320406245	1.9795917	1.4069797
32.86439588366476	1.9338267	1.390621
32.88266942264945	1.9512533	1.3968726
32.9009438216025	1.9417291	1.3934594
32.9192190811102	1.9352319	1.3911262
32.937495201758985	1.9106594	1.382266
32.95577218413556	1.893493	1.3760425
32.974050028826866	1.9433806	1.3940519
32.992328736420035	1.927204	1.3882377
33.010608307502444	1.8412102	1.356912
33.02888874266169	1.9260244	1.3878129
33.047170042485604	1.9737918	1.404917
33.06545220756225	1.9469143	1.3953187
33.083735238479896	1.8925868	1.3757132
33.10201913582707	1.8695918	1.3673302
33.12030390019248	1.8372953	1.3554686
33.138589532165135	1.8359039	1.3549553
33.15687603233419	1.8725288	1.3684038
33.17516340128909	1.8241991	1.3506291
33.19345163961947	1.8273212	1.3517845
33.211740747915215	1.944543	1.3944687
33.23003072676643	2.0004907	1.414387
33.248321576763466	1.8889158	1.3743783
33.266613298496885	1.7652626	1.3286319
33.28490589255747	1.8584417	1.3632468
33.30319935953626	1.9563881	1.3987094
33.32149370002451	1.9642484	1.4015164
33.339788914613706	1.9666476	1.4023721
33.358085003895575	1.9459218	1.394963
33.376381968462034	1.8503606	1.3602796
33.39467980890529	1.8720008	1.3682108
33.41297852581774	1.8402429	1.3565555
33.43127811979204	1.8035272	1.3429546
33.44957859142105	1.8055756	1.3437171
33.467879941297866	1.8586981	1.3633409
33.486182170015844	1.9194772	1.385452
33.50448527816853	1.952901	1.3974624
33.522789266349754	1.8485937	1.35963
33.541094135153514	1.8963999	1.3770983
33.55939988517411	1.9076027	1.3811599
33.57770651700602	1.9179986	1.3849182
33.59601403124398	1.9667802	1.4024194
33.61432242848296	1.9821599	1.407892
33.632631709318154	1.9590168	1.3996488
33.650941874344994	1.9669265	1.4024715
33.66925292415916	1.940885	1.3931565
33.68756485935654	1.8236424	1.350423
33.70587768053328	1.7370322	1.3179651
33.724191388285746	1.7805876	1.3343866
33.74250598321054	1.8778633	1.3703516
33.760821465904506	1.9367446	1.3916698
33.77913783696474	1.960037	1.4000132
33.79745509698852	2.0400388	1.4282993
33.815773246573414	2.0180588	1.420584
33.8340922863172	1.9110607	1.3824112
33.852412216817896	1.8166412	1.3478284
33.87073303867377	1.8914773	1.37531
33.889054752483304	1.976602	1.4059168
33.907377358845245	2.0020406	1.4149349
33.92570085835853	1.947325	1.3954659
33.94402525162239	1.9596303	1.3998679
33.96235053923627	1.9488093	1.3959976
33.980676721799824	1.9149153	1.3838047
33.999003799912984	1.9097403	1.3819336
34.01733177417592	1.8530654	1.3612734
34.03566064518901	1.9367466	1.3916705
34.0539904135529	1.8561165	1.3623937
34.07232107986846	1.7873679	1.3369248
34.090652644736785	1.8650261	1.3656596
34.108985108759235	1.9439193	1.394245
34.12731847253742	1.951968	1.3971285
34.14565273667313	2.0127578	1.4187169
34.16398790176847	2.029939	1.4247593
34.18232396842574	1.9530329	1.3975096
34.20066093724749	1.9257513	1.3877144
34.21899880883651	1.9312128	1.3896809
34.23733758379583	2.0159774	1.4198512
34.25567726272874	2.0833821	1.4433926
34.27401784623872	2.0445127	1.4298646
34.29235933492957	1.9775255	1.4062451
34.31070172940526	1.9255604	1.3876456
34.32904503027003	2.0291715	1.4244899
34.347389238128386	2.1695795	1.4729493
34.36573435358502	2.061566	1.4358155
34.38408037724492	1.9000896	1.3784374
34.402427309713296	1.8415043	1.3570204
34.42077515159559	1.9452724	1.3947302
34.43912390349752	2.1100066	1.4525862
34.45747356602499	2.105545	1.4510497
34.47582413978423	2.0618591	1.4359175
34.49417562538163	2.118734	1.4555871
34.51252802342388	2.1211653	1.4564221
34.53088133451789	2.1763852	1.4752576
34.54923555927084	2.0631046	1.4363512
34.567590698290104	1.8610672	1.3642094
34.58594675218336	1.7944207	1.3395599
34.6043037215585	1.8392549	1.3561913
34.62266160702365	1.8405653	1.3566743
34.641020409187234	1.8653061	1.3657621
34.65938012865785	1.9343033	1.3907924
34.677740766044394	1.9504515	1.3965857
34.69610232195598	1.9793876	1.4069071
34.714464797002016	2.1153705	1.4544313
34.73282819179208	2.1482346	1.4656857
34.751192506936064	1.9472377	1.3954346
34.76955774304408	1.908182	1.3813696
34.7879239007265	1.9389495	1.3924617
34.80629098059391	2.1157544	1.4545633
34.824658983257194	2.1724958	1.473939
34.843027909327446	1.9892691	1.4104146
34.86139775941603	1.9715574	1.4041215
34.879768534134534	1.9893444	1.4104412
34.89814023409483	1.9434296	1.3940694
34.91651285990901	1.8281574	1.3520937
34.93488641218944	1.7899417	1.337887
34.95326089154871	1.8648185	1.3655835
34.97163629859967	1.9802569	1.4072161
34.99001263395542	1.9683335	1.402973
35.00838989822934	1.8292079	1.3524821
35.02676809203499	1.9311484	1.3896576
35.04514721598624	2.0061214	1.4163761
35.063527270697215	1.8750587	1.3693278
35.081908256782256	1.7263037	1.3138888
35.10029017485597	1.87033	1.3676001
35.11867302553321	2.0547473	1.433439
35.137056809429104	2.135688	1.4613993
35.155441527159006	1.9301442	1.3892963
35.173827179338524	1.9220135	1.386367
35.19221376658354	2.1075194	1.4517298
35.21060128951017	2.17682	1.4754051
35.2289897487348	2.0600855	1.4352998
35.24737914487405	2.2039518	1.4845712
35.26576947854479	2.3235178	1.5243089
35.28416075036418	2.1925852	1.480738
35.30255296094958	2.1186643	1.4555632
35.32094611091867	2.11286	1.453568
35.33934020088932	2.349355	1.5327606
35.35773523147969	2.634673	1.6231676
35.3761312033082	2.5301762	1.5906527
35.394528116993506	2.281598	1.510496
35.41292597315452	2.0293202	1.4245421
35.431324772410434	1.8215986	1.3496661
35.449724515380666	1.5702941	1.2531137
35.46812520268491	1.898497	1.3778596
35.486526834943106	2.4288235	1.5584683
35.504929412775454	2.3633306	1.5373127
35.52333293680242	2.1709182	1.4734036
35.54173740764471	1.9225515	1.386561
35.560142825923286	1.7242868	1.313121
35.5785491922594	1.2834396	1.13289
35.59695650727454	1.2113929	1.1006329
35.61536477159042	1.4857981	1.2189332
