0.008763373481513119	0.0	0.0
0.026290120649546365	0.11242709	0.3353015
0.043816868432600686	0.18147545	0.42599934
0.06134361724069026	0.21921982	0.46820915
0.07887036748382949	0.24253221	0.4924756
0.0963971195720331	0.20247057	0.4499673
0.11392387391531617	0.12264865	0.3502123
0.1314506309236943	0.07535102	0.2745014
0.1489773910071836	0.07785239	0.2790204
0.16650415457580078	0.12477545	0.3532357
0.18403092203956356	0.113663405	0.33714002
0.20155769380849	0.09701202	0.31146753
0.2190844702925996	0.04289387	0.20710836
0.2366112519019124	0.07504078	0.27393574
0.2541380390464497	0.1051325	0.32424143
0.27166483213623416	0.08158821	0.28563648
0.28919163158128947	0.06911209	0.2628918
0.3067184377916406	0.096388705	0.3104653
0.324245251177314	0.14102137	0.37552813
0.34177207214833777	0.17945677	0.42362338
0.3592989011147415	0.14872578	0.3856498
0.37682573848655654	0.10668163	0.32662153
0.39435258467381573	0.102318585	0.31987277
0.41187944008655414	0.12837578	0.35829568
0.42940630513480854	0.17558411	0.41902757
0.446933180228618	0.17157744	0.41421908
0.4644600657780234	0.17489555	0.41820517
0.48198696219306775	0.15018256	0.38753393
0.49951386988379676	0.19528507	0.4419107
0.5170407892602581	0.19158189	0.4377007
0.5345677207325025	0.19843456	0.44545993
0.5520946647105822	0.1727325	0.415611
0.5696216216045534	0.20878029	0.45692483
0.5871485918244737	0.28509557	0.5339434
0.6046755757804043	0.29037583	0.5388653
0.6222025738824094	0.23112018	0.4807496
0.6397295865405557	0.17916423	0.42327797
0.6572566141649129	0.1636	0.40447497
0.6747836571655547	0.18495697	0.43006623
0.6923107159525568	0.21288836	0.46139827
0.7098377909359992	0.23163028	0.48127985
0.7273648825259653	0.23580559	0.48559818
0.7448919911325411	0.20001487	0.44723022
0.762419117165817	0.14858852	0.38547182
0.7799462610358868	0.15431431	0.3928286
0.7974734231528482	0.20574194	0.45358786
0.8150006039268024	0.22214493	0.47132254
0.8325278037678551	0.19298548	0.43930113
0.8500550230861152	0.20580001	0.45365188
0.8675822622916969	0.23971598	0.489608
0.8851095217947171	0.27894536	0.52815276
0.9026368020052984	0.25930348	0.5092185
0.9201641033335665	0.24809335	0.4980897
0.9376914261896523	0.21605371	0.46481577
0.9552187709836915	0.22456028	0.4738779
0.9727461381258234	0.22517559	0.4745267
0.990273528026193	0.22349252	0.47274995
1.0078009410949496	0.23841402	0.48827657
1.0253283777422473	0.25518757	0.5051609
1.0428558383782454	0.29382536	0.5420566
1.0603833234131086	0.28940198	0.53796095
1.0779108332570058	0.29627573	0.5443122
1.0954383683201119	0.28007743	0.52922344
1.112965929012607	0.3484448	0.5902921
1.1304935157446763	0.49943197	0.70670503
1.1480211289265108	0.53841823	0.7337699
1.1655487689683062	1.3118179	1.1453462
1.1830764362802655	1.5806851	1.257253
1.200604131272596	2.02988	1.4247386
1.2181318543555117	2.3964317	1.5480412
1.235659605939232	2.4651353	1.5700749
1.253187386433982	4.0068345	2.0017078
1.270715196249994	6.612619	2.5715013
1.2882430357975057	12.297799	3.5068219
1.3057709054867608	16.874992	4.1079183
1.3232988057280106	22.488184	4.742171
1.3408267369315112	27.266018	5.2216873
1.358354699507526	30.9769	5.5656896
1.3758826938663256	34.945312	5.911456
1.3934107204181858	37.005405	6.0832067
1.410938779573391	37.637974	6.1349797
1.4284668717422309	39.015083	6.2462053
1.4459949973350033	38.560387	6.209701
1.4635231567620117	38.328403	6.190994
1.4810513504335687	37.244312	6.102812
1.4985795787599925	36.487152	6.0404596
1.5161078421516088	36.00604	6.000503
1.5336361410187505	35.129494	5.927014
1.5511644757717598	35.00834	5.9167843
1.5686928468209842	35.95702	5.996417
1.58622125457678	36.363506	6.030216
1.6037496994495108	37.394306	6.1150885
1.621278181849548	36.768566	6.063709
1.6388067021872719	37.601048	6.1319695
1.6563352608730693	37.43472	6.118392
1.673863858317336	36.622185	6.0516267
1.6913924949304753	35.755474	5.979588
1.7089211711228998	34.491707	5.872964
1.7264498873050296	33.912197	5.823418
1.7439786438872935	33.086937	5.752125
1.7615074412801288	32.016415	5.6583047
1.779036279893981	31.277193	5.592602
1.796565160139305	30.212034	5.4965477
1.814094082426564	29.83505	5.462147
1.8316230471662298	28.897497	5.3756394
1.849152054768784	28.357462	5.3251724
1.8666811056447168	27.746698	5.2675133
1.8842102002045273	26.7879	5.175703
1.901739338858724	26.261343	5.1245823
1.9192685220178245	25.635042	5.063106
1.9367977500923557	24.980667	4.9980664
1.9543270234928547	24.369875	4.9365854
1.971856342629867	23.640955	4.8621964
1.9893857079139496	23.489162	4.846562
2.006915119755667	23.164793	4.8129816
2.0244445785655945	22.505127	4.743957
2.0419740847543175	21.912369	4.681065
2.0595036387324317	21.50333	4.6371684
2.0770332409105414	21.248848	4.6096473
2.094562891699263	20.915422	4.573338
2.1120925915092217	20.26129	4.501254
2.129622340751053	19.916037	4.4627385
2.1471521398354043	188.11415	13.715471
2.1646819891729323	444.63412	21.08635
2.182211889174303	440.82596	20.995855
2.1997418402501974	453.0807	21.285692
2.2172718428113023	432.93256	20.807032
2.234801897268317	320.81485	17.911304
2.2523320040319548	17.279934	4.1569138
2.269862163512935	16.87815	4.1083026
2.287392376121992	16.533377	4.0661254
2.304922642269869	16.043907	4.0054846
2.322452962367322	15.593353	3.948842
2.3399833368251164	15.324246	3.9146197
2.357513766054032	15.201381	3.8988948
2.3750442504648586	15.060543	3.8807917
2.3925747904683963	14.846674	3.8531382
2.410105386475459	14.604551	3.8215902
2.4276360388968707	14.2424135	3.7739122
2.445166748143469	14.002265	3.74196
2.4626975146261025	13.897346	3.7279143
2.4802283387556323	13.659987	3.695942
2.4977592209429305	13.285382	3.6449118
2.5152901615988825	13.137798	3.6246102
2.5328211611343865	12.926787	3.5953841
2.5503522199603523	12.696538	3.5632203
2.5678833384877024	12.334235	3.512013
2.5854145171273712	12.041711	3.4701169
2.6029457562903064	11.975549	3.4605706
2.620477056387469	11.811582	3.436798
2.6380084178298326	11.783023	3.4326408
2.655539841028383	11.498362	3.3909235
2.673071326394119	11.22538	3.3504298
2.6906028743380523	10.941517	3.3077965
2.708134485271211	10.819286	3.2892683
2.7256661596046325	10.771198	3.2819505
2.743197897749369	10.710454	3.272683
2.760729700116486	10.557032	3.2491586
2.778261567117063	10.441784	3.231375
2.795793499162193	10.27519	3.2054937
2.8133254966629817	10.166837	3.1885478
2.830857560030551	10.046316	3.1695924
2.8483896896760337	9.864807	3.140829
2.865921886010578	9.665747	3.1089785
2.883454149445347	9.607565	3.0996072
2.9009864803915177	9.489773	3.0805476
2.91851887926028	9.427048	3.0703497
2.9360513464628384	9.208398	3.0345342
2.953583882410413	9.007043	3.0011735
2.9711164875142373	8.894526	2.9823692
2.9886491621855606	8.878316	2.9796503
3.0061819068356455	8.824425	2.9705932
3.023714721875769	8.6754675	2.9454145
3.041247607717225	8.492278	2.9141514
3.0587805647713213	8.254567	2.8730762
3.0763135934493806	8.251245	2.872498
3.0938466941627407	8.311511	2.8829691
3.1113798673227544	8.3318	2.8864858
3.1289131133407904	8.201146	2.8637643
3.1464464326282315	8.072772	2.8412623
3.1639798255964786	7.818747	2.7962022
3.1815132926569443	7.649592	2.7657895
3.1990468342210603	7.424153	2.7247298
3.216580450700272	7.2881155	2.699651
3.2341141425060416	7.2566757	2.6938217
3.251647910049847	7.27395	2.6970263
3.2691817537431813	7.24111	2.690931
3.286715673997555	7.2280855	2.68851
3.3042496712244938	7.2752657	2.6972702
3.32178374583554	7.1579466	2.6754339
3.339317898242251	7.0605955	2.6571782
3.3568521288562034	6.9250684	2.6315525
3.3743864380889876	6.8602285	2.6192038
3.3919208263522127	6.821942	2.6118848
3.4094552940575023	6.7155905	2.5914457
3.4269898416164972	6.6897383	2.5864527
3.444524469440858	6.5634923	2.5619314
3.4620591779422587	6.572588	2.563706
3.479593967532391	6.551427	2.5595756
3.4971288386229658	6.464777	2.5425925
3.5146637916257086	6.418675	2.5335104
3.5321988269523628	6.3465796	2.5192418
3.5497339450146903	6.3307986	2.5161078
3.5672691462244708	6.3160753	2.5131803
3.5848044309934988	6.3170204	2.5133684
3.60233979973359	6.229659	2.4959285
3.619875252856575	6.223565	2.4947073
3.6374107907743034	6.2631125	2.5026212
3.6549464138986427	6.332384	2.516423
3.6724821226414788	6.3091846	2.511809
3.690017917414714	6.220479	2.494089
3.7075537986302702	6.236947	2.4973881
3.7250897667000857	6.2329674	2.496591
3.7426258220361235	6.5294776	2.5552843
3.7601619650503553	6.8976326	2.6263344
3.777698196154779	7.4302697	2.725852
3.7952345157614067	8.363696	2.8920054
3.8127709242822716	9.055119	3.0091724
3.830307422129425	11.259156	3.3554666
3.847844009714936	30.213615	5.496691
3.8653806874508954	97.722984	9.885493
3.882917455749409	97.14248	9.856089
3.900454315022606	97.02017	9.849882
3.917991265682631	41.47452	6.4400716
3.9355283081416506	10.951025	3.3092332
3.9530654428118495	8.774954	2.9622548
3.970602670105433	7.615547	2.759628
3.9881399904346244	6.806253	2.6088796
4.005677404211669	6.6596174	2.5806234
4.023214911848827	6.4882245	2.5471992
4.0407525137583855	6.362026	2.5223057
4.058290210352644	6.382085	2.526279
4.075828002043927	6.3527837	2.520473
4.0933658892445814	6.3655925	2.5230126
4.110903872366966	6.3605275	2.5220087
4.128441951823468	6.2728186	2.5045595
4.145980128026488	6.156826	2.4812953
4.163518401388452	6.0540085	2.4604895
4.181056772321807	5.954648	2.4402146
4.1985952412390155	6.022531	2.4540846
4.216133808552567	6.1187177	2.4736042
4.233672474674966	6.2099366	2.4919744
4.251211240018741	6.413078	2.5324056
4.268750104996445	6.642428	2.5772908
4.286289070020643	7.530453	2.744167
4.303828135503928	9.205509	3.034058
4.3213673018589125	29.495468	5.430973
4.3389065694982305	90.72803	9.525126
4.356445938834537	165.9042	12.880381
4.3739854102805085	171.64195	13.101219
4.391524984248844	172.47948	13.133144
4.409064661152262	136.6503	11.689752
4.426604441403504	96.97542	9.8476095
4.444144325415337	75.893	8.7116585
4.461684313600543	21.944136	4.684457
4.47922440637193	22.239109	4.715836
4.496764604142329	20.445807	4.5217037
4.5143049073245916	18.647346	4.3182573
4.531845316331589	16.604803	4.074899
4.5493858315762195	13.751289	3.7082732
4.566926453471405	11.403067	3.3768427
4.584467182430081	9.396025	3.0652936
4.602008018865218	8.173331	2.858904
4.619548963189798	7.4508815	2.7296302
4.637090015816834	6.962617	2.6386771
4.654631177159353	6.78003	2.603849
4.672172447630417	6.5876327	2.5666385
4.689713827643102	6.3924146	2.5283225
4.7072553176105085	6.0175166	2.4530628
4.724796917945764	5.77551	2.403229
4.742338629062015	5.764225	2.40088
4.759880451372434	5.69721	2.3868828
4.777422385290215	5.615718	2.3697505
4.794964431228581	5.551331	2.3561263
4.812506589600768	5.5495663	2.3557518
4.830048860820047	5.5812583	2.3624687
4.847591245299709	5.6241355	2.371526
4.8651337434530655	5.6307716	2.3729248
4.882676355693457	5.661819	2.3794577
4.900219082434242	5.6897116	2.3853116
4.917761924088813	5.676076	2.3824518
4.935304881070575	5.6338143	2.3735657
4.952847953792969	5.5825086	2.3627334
4.970391142669449	5.513515	2.3480875
4.9879344481135055	5.4704504	2.3388994
5.005477870538642	5.4594784	2.3365526
5.023021410358394	5.4944334	2.3440208
5.040565067986324	5.4843245	2.3418634
5.05810884383601	5.4063897	2.3251646
5.075652738321066	5.4080377	2.3255188
5.09319675185512	5.3630357	2.3158228
5.110740884851836	5.4044113	2.324739
5.128285137724894	5.34153	2.311175
5.145829510888007	5.401965	2.3242128
5.163374004754908	5.37265	2.3178978
5.1809186197393595	5.366285	2.3165243
5.198463356255145	5.240888	2.2892985
5.216008214716077	5.1859245	2.2772624
5.233553195535998	5.251371	2.2915869
5.251098299128764	5.284469	2.2987974
5.268643525908272	5.351083	2.3132408
5.286188876288432	5.2642446	2.2943943
5.3037343506831895	5.2731447	2.2963328
5.32127994950651	5.2514772	2.2916102
5.3388256731723915	5.3033667	2.302904
5.356371522094851	5.332601	2.3092425
5.373917496687938	5.358392	2.31482
5.391463597365729	5.2873383	2.2994213
5.40900982454232	5.209619	2.282459
5.426556178631843	5.1986876	2.2800632
5.444102660048449	5.243935	2.289964
5.4616492692063225	5.274434	2.2966137
5.479196006519669	5.2196555	2.2846565
5.496742872402727	5.1387477	2.2668805
5.514289867269756	5.064967	2.2505481
5.531836991535049	5.1029863	2.258979
5.549384245612924	5.1536384	2.2701626
5.566931629917724	5.2359633	2.2882228
5.584479144863822	5.291257	2.3002732
5.6020267908656205	5.3180346	2.3060865
5.619574568337545	5.284353	2.298772
5.637122477694054	5.240881	2.289297
5.654670519349629	5.16107	2.2717988
5.672218693718784	5.131711	2.265328
5.689767001216059	5.1393776	2.2670195
5.707315442256021	5.158615	2.2712586
5.724864017253266	5.1548367	2.2704265
5.7424127266224225	5.229802	2.286876
5.75996157077814	5.2303734	2.287001
5.777510550135105	5.2519655	2.2917168
5.795059665108022	5.244009	2.2899802
5.812608916111639	5.3023114	2.3026748
5.830158303560715	5.400899	2.3239834
5.847707827870055	5.374186	2.318229
5.86525748945448	5.388575	2.3213305
5.8828072887288485	5.4348497	2.3312764
5.900357226108044	5.495079	2.3441584
5.917907302006979	5.6238613	2.371468
5.9354575168406	6.259177	2.5018349
5.9530078710238765	6.8544817	2.6181066
5.970558364971812	7.3612127	2.7131555
5.988108999099438	7.685931	2.7723513
6.005659773821818	8.132491	2.8517523
6.023210689554039	7.7888594	2.7908528
6.040761746711227	8.183881	2.8607483
6.058312945708531	7.699437	2.774786
6.075864286961132	7.2909007	2.7001667
6.093415770884244	6.650136	2.5787857
6.1109673978931065	6.1196313	2.4737887
6.128519168402993	5.5344043	2.3525314
6.146071082829204	5.431666	2.3305933
6.163623141587075	5.330834	2.3088598
6.181175345091969	5.2814536	2.2981412
6.198727693759281	5.2270565	2.2862756
6.216280188004435	5.1466417	2.2686212
6.233832828242885	5.135675	2.2662027
6.251385614890126	5.207638	2.2820249
6.268938548361669	5.2685843	2.2953396
6.286491629073067	5.2007732	2.2805204
6.304044857439898	5.081892	2.2543051
6.321598233877777	5.0497565	2.2471664
6.339151758802344	5.0762696	2.253058
6.356705432629277	5.0441766	2.2459245
6.37425925577428	5.015185	2.239461
6.391813228653095	4.948814	2.224593
6.409367351681486	4.9399347	2.2225964
6.426921625275259	4.979696	2.2315233
6.44447604985025	5.009767	2.238251
6.46203062582232	5.0017056	2.2364492
6.47958535360737	4.981747	2.2319827
6.497140233621328	4.985468	2.2328162
6.514695266280161	4.948452	2.2245116
6.532250451999859	5.0005703	2.2361956
6.549805791196454	5.06674	2.250942
6.567361284286002	5.144362	2.2681186
6.584916931684597	5.13797	2.266709
6.602472733808367	5.0980563	2.2578876
6.6200286910734665	5.052251	2.2477212
6.637584803896092	5.024198	2.2414722
6.655141072692462	5.0069976	2.237632
6.672697497878842	5.0072045	2.2376783
6.690254079871514	4.9835734	2.2323918
6.707810819086808	4.998579	2.2357502
6.725367715941078	4.9218006	2.2185133
6.742924770850719	4.915256	2.2170377
6.760481984232151	4.926696	2.2196162
6.778039356501836	4.9116735	2.2162297
6.795596888076266	4.8871346	2.2106864
6.813154579371963	4.902116	2.2140722
6.830712430805492	4.896749	2.2128599
6.84827044279344	4.9613266	2.2274036
6.865828615752445	4.9341288	2.2212899
6.883386950099159	4.9276295	2.2198265
6.900945446250287	4.9269767	2.2196794
6.918504104622553	4.9772043	2.230965
6.936062925632727	5.050156	2.2472553
6.953621909697607	5.0570984	2.2487993
6.971181057234028	5.063717	2.2502704
6.988740368658859	5.0743465	2.252631
7.006299844389007	5.176969	2.2752953
7.023859484841407	5.344486	2.3118145
7.041419290433036	5.434974	2.3313031
7.058979261580902	5.5079513	2.3469024
7.0765393987020495	5.70217	2.3879216
7.094099702213559	6.0847826	2.4667351
7.111660172532549	6.432259	2.5361898
7.129220810076164	6.745933	2.5972934
7.146781615261595	7.364152	2.7136972
7.16434258850606	7.5961165	2.7561054
7.181903730226821	8.085512	2.8435035
7.1994650408411704	8.241366	2.870778
7.217026520766437	8.410537	2.9000926
7.234588170419983	8.623913	2.93665
7.252149990219215	8.529418	2.9205167
7.269711980581568	8.3917265	2.8968477
7.2872741419245175	8.204815	2.864405
7.304836474665574	7.8346567	2.7990456
7.322398979222286	7.526255	2.743402
7.339961656012233	7.2549644	2.693504
7.357524505453039	6.863774	2.6198804
7.375087527962357	6.5750732	2.5641906
7.392650723957886	6.265637	2.5031254
7.410214093857353	5.885756	2.4260578
7.427777638078528	5.663185	2.3797448
7.445341357039213	5.5484915	2.3555236
7.4629052511572525	5.453601	2.3352945
7.480469320850524	5.400774	2.3239565
7.498033566536948	5.2819886	2.2982578
7.5155979886344735	5.1531777	2.2700613
7.5331625875610975	5.091503	2.2564359
7.550727363734844	5.1210995	2.2629848
7.568292317573788	5.208827	2.2822855
7.585857449496025	5.233156	2.2876093
7.603422759919705	5.2139397	2.2834053
7.620988249263007	5.200539	2.280469
7.638553917944147	5.2001204	2.2803771
7.656119766381391	5.249575	2.2911952
7.673685794993023	5.2787747	2.2975585
7.691252004197388	5.305927	2.3034596
7.70881839441285	5.3157244	2.3055854
7.726384966057826	5.2773323	2.2972445
7.743951719550762	5.3048735	2.303231
7.761518655310149	5.255329	2.2924504
7.779085773754511	5.260031	2.2934759
7.796653075302419	5.2457027	2.29035
7.814220560372475	5.2654157	2.2946494
7.831788229383323	5.300035	2.3021805
7.8493560827536495	5.3530774	2.3136718
7.866924120902174	5.311857	2.3047466
7.884492344247663	5.3013945	2.3024757
7.9020607532089135	5.2510095	2.2915082
7.919629348204771	5.2899985	2.2999997
7.937198129654115	5.338868	2.310599
7.954767097975865	5.32003	2.306519
7.972336253588986	5.3569913	2.3145175
7.989905596912472	5.4173975	2.3275304
8.007475128365371	5.4347334	2.3312514
8.025044848366756	5.5589223	2.3577366
8.042614757335754	5.6795583	2.3831823
8.060184855691523	5.7030272	2.388101
8.07775514385327	5.878346	2.42453
8.095325622240228	5.9526324	2.4398017
8.112896291271687	6.006079	2.4507303
8.130467151366968	5.9504313	2.4393506
8.148038202945436	5.968155	2.4429808
8.165609446426497	5.9613123	2.4415798
8.183180882229594	5.994223	2.4483104
8.200752510774217	5.9872575	2.4468873
8.218324332479893	5.986678	2.446769
8.235896347766193	5.979426	2.4452865
8.253468557052724	5.9704804	2.4434566
8.27104096075914	6.0162034	2.452795
8.288613559305137	6.115401	2.4729335
8.306186353110448	6.193065	2.488587
8.32375934259485	6.2451453	2.499029
8.341332528178162	6.1750455	2.484964
8.358905910280246	6.211099	2.4922078
8.376479489321003	6.2734118	2.504678
8.394053265720377	6.3771653	2.525305
8.411627239898356	6.430278	2.5357993
8.42920141227497	6.3811083	2.5260856
8.44677578327029	6.3857975	2.5270135
8.464350353304427	6.3162503	2.513215
8.48192512279754	6.2264686	2.4952893
8.499500092169827	6.143021	2.4785118
8.51707526184153	6.0853367	2.4668474
8.534650632232934	6.100168	2.469852
8.552226203764365	6.1651263	2.4829671
8.569801976856192	6.2195015	2.493893
8.587377951928834	6.27858	2.5057094
8.60495412940274	6.300736	2.5101266
8.622530509698416	6.292389	2.5084634
8.6401070932364	6.401243	2.530068
8.657683880437283	6.491618	2.5478654
8.675260871721695	6.6942043	2.587316
8.692838067510303	6.851215	2.6174827
8.710415468223834	7.0335298	2.6520803
8.727993074283043	7.224692	2.6878786
8.745570886108737	7.244855	2.6916268
8.763148904121765	7.259888	2.694418
8.78072712874302	7.2158823	2.6862395
8.798305560393441	7.4633155	2.731907
8.815884199494006	7.5734344	2.7519875
8.833463046465745	7.8081465	2.794306
8.851042101729728	7.913743	2.8131375
8.86862136570707	8.192164	2.8621957
8.886200838818924	8.344153	2.888625
8.903780521486505	8.398312	2.897984
8.921360414131055	8.488826	2.913559
8.938940517173874	8.615241	2.935173
8.956520831036297	8.812215	2.9685376
8.97410135613971	9.125284	3.0208085
8.99168209290554	9.213292	3.0353405
9.009263041755265	9.362576	3.0598326
9.026844203110405	9.562312	3.0922987
9.044425577392525	9.869008	3.1414979
9.062007165023239	10.073525	3.1738818
9.079588966424197	10.237122	3.1995502
9.097170982017108	10.308927	3.2107518
9.11475321222372	11.237665	3.3522627
9.132335657465825	12.21942	3.4956288
9.149918318165264	12.37148	3.5173116
9.167501194743924	12.934477	3.5964534
9.18508428762374	12.540085	3.5411983
9.202667597226693	12.501935	3.5358076
9.220251123974803	12.173066	3.4889922
9.237834868290143	11.861298	3.4440234
9.255418830594836	11.683823	3.4181607
9.273003011311046	11.175197	3.3429322
9.290587410860985	10.944234	3.308207
9.308172029666911	10.338109	3.215293
9.32575686815113	10.085875	3.1758265
9.343341926735997	8.805937	2.96748
9.360927205843916	8.538609	2.9220898
9.378512705897327	8.340917	2.8880646
9.396098427318728	8.154982	2.8556929
9.413684370530664	8.112019	2.8481605
9.431270535955722	8.017209	2.8314676
9.448856924016539	7.9977427	2.828028
9.466443535135806	7.8238845	2.7971208
9.484030369736251	7.8162003	2.7957468
9.501617428240658	7.7074046	2.7762213
9.519204711071852	7.7050986	2.775806
9.536792218652714	7.680947	2.7714522
9.55437995140617	7.760041	2.785685
9.571967909755191	7.7759166	2.788533
9.589556094122802	7.763799	2.7863595
9.60714450493207	7.758865	2.7854738
9.624733142606116	7.8322983	2.7986243
9.642322007568108	7.9668946	2.822569
9.659911100241267	8.087051	2.843774
9.677500421048851	8.179607	2.8600013
9.695089970414175	8.1348505	2.852166
9.712679748760609	8.126935	2.8507779
9.730269756511557	8.113539	2.8484275
9.747859994090492	8.125218	2.850477
9.765450461920915	8.080892	2.842691
9.78304116042639	8.064594	2.839823
9.800632090030527	8.139434	2.8529694
9.81822325115699	8.299814	2.8809397
9.835814644229481	8.40427	2.8990119
9.853406269671762	8.3919115	2.8968797
9.870998127907646	8.315287	2.8836238
9.888590219360985	8.352746	2.8901117
9.906182544455698	8.390972	2.8967175
9.923775103615734	8.461061	2.90879
9.941367897265108	8.466393	2.9097068
9.958960925827878	8.368302	2.8928018
9.97655418972816	8.2468405	2.8717313
9.994147689390106	8.183681	2.8607132
10.011741425237934	8.215979	2.8663528
10.029335397695904	8.279384	2.8773918
10.04692960718833	8.331429	2.8864214
10.06452405413958	8.330638	2.8862844
10.082118738974064	8.302345	2.8813791
10.099713662116246	8.2716	2.8760388
10.117308823990651	8.286429	2.8786159
10.134904225021844	8.233952	2.8694863
10.152499865634445	8.194742	2.862646
10.170095746253125	8.208091	2.8649766
10.18769186730261	8.250358	2.8723435
10.205288229207675	8.246134	2.8716083
10.222884832393145	8.204276	2.8643107
10.2404816772839	8.19111	2.8620114
10.258078764304868	8.165025	2.8574507
10.275676093881035	8.209114	2.8651552
10.293273666437438	8.199221	2.863428
10.310871482399158	8.142183	2.853451
10.32846954219134	8.043454	2.8360984
10.346067846239173	7.980167	2.824919
10.363666394967908	8.04917	2.8371058
10.38126518880283	8.133655	2.8519564
10.398864228169298	8.285062	2.8783784
10.416463513492713	8.34571	2.8888943
10.434063045198531	8.278838	2.877297
10.451662823712262	8.249027	2.872112
10.469262849459467	8.2288885	2.868604
10.486863122865758	8.177969	2.8597147
10.504463644356806	8.184928	2.8609314
10.522064414358338	8.06882	2.8405669
10.539665433296118	7.9936647	2.827307
10.557266701595987	7.8715405	2.8056266
10.574868219683818	7.823017	2.7969656
10.592469987985552	7.6892915	2.772957
10.610072006927185	7.568222	2.7510402
10.627674276934751	7.5081553	2.7401013
10.64527679843435	7.4026017	2.7207723
10.662879571852143	7.3456817	2.7102919
10.680482597614331	7.18716	2.680888
10.698085876147173	7.0993214	2.6644552
10.715689407876988	7.0310965	2.6516216
10.733293193230146	6.939908	2.6343706
10.750897232633072	6.797887	2.6072757
10.76850152651225	6.6422195	2.5772505
10.786106075294207	6.5592327	2.5611
10.803710879405534	6.5199623	2.5534217
10.821315939272877	6.431099	2.5359612
10.83892125532294	6.299522	2.5098848
10.856526827982472	6.199719	2.4899235
10.874132657678285	6.2369356	2.4973857
10.891738744837243	6.2271357	2.4954228
10.909345089886271	6.1848264	2.486931
10.926951693252343	6.0958405	2.4689755
10.944558555362494	5.9623494	2.4417922
10.96216567664381	5.9352365	2.436234
10.979773057523436	5.8798943	2.4248493
10.997380698428573	5.8609962	2.4209495
11.014988599786477	5.793322	2.406932
11.032596762024461	5.677151	2.3826773
11.050205185569892	5.571416	2.3603847
11.067813870850198	5.475176	2.3399093
11.085422818292859	5.4926257	2.343635
11.10303202832541	5.468246	2.338428
11.120641501375454	5.3811107	2.3197222
11.138251237870636	5.299596	2.3020852
11.155861238238671	5.2452097	2.2902422
11.173471502907317	5.1999454	2.280339
11.191082032304402	5.1156607	2.2617826
11.208692826857805	5.014699	2.2393525
11.226303886995465	4.9787393	2.231309
11.243915213145371	4.9421363	2.2230916
11.261526805735578	4.919468	2.2179873
11.279138665194196	4.9181547	2.2176914
11.296750791949393	4.870367	2.2068908
11.314363186429393	4.8324704	2.198288
11.331975849062479	4.7771654	2.1856728
11.34958878027699	4.7499676	2.179442
11.36720198050133	4.6495275	2.1562762
11.384815450163948	4.5596204	2.1353269
11.402429189693366	4.4812107	2.116887
11.420043199518153	4.4165506	2.1015592
11.437657480066942	63.378044	7.961033
11.455272031768422	85.11949	9.226023
11.472886855051353	107.58248	10.372197
11.490501950344528	99.19103	9.95947
11.508117318076819	84.520424	9.193499
11.52573295867715	45.879227	6.773421
11.543348872574514	4.167973	2.0415614
11.560965060197946	4.095178	2.0236547
11.57858152197655	4.070475	2.017542
11.59619825833949	4.0839252	2.0208724
11.613815269715985	4.042282	2.0105426
11.631432556535323	38.509747	6.205622
11.649050119226837	82.994545	9.110134
11.666667958219929	93.398224	9.664276
11.68428607394406	107.66869	10.376352
11.701904466828756	82.4969	9.082781
11.719523137303586	65.3821	8.08592
11.737142085798196	4.6284246	2.1513774
11.754761312742286	3.7345016	1.9324858
11.772380818565619	3.72489	1.9299974
11.790000603698015	3.7282526	1.9308684
11.80762066856935	3.6742709	1.9168388
11.825241013609572	3.6332078	1.9060975
11.842861639248683	3.5597086	1.886719
11.860482545916748	3.5242987	1.8773116
11.878103734043883	3.5182054	1.875688
11.895725204060282	3.5035093	1.8717663
11.91334695639619	3.467952	1.8622438
11.930968991481919	3.4125738	1.8473153
11.948591309747824	3.3508384	1.8305296
11.966213911624347	3.305327	1.8180559
11.98383679754198	3.2691221	1.8080714
12.001459967931268	3.253097	1.8036344
12.019083423222835	3.2495022	1.8026376
12.036707163847352	3.258549	1.8051451
12.05433119023556	3.2541618	1.8039296
12.071955502818259	3.2182355	1.7939441
12.089580102026313	3.2389088	1.7996968
12.107204988290643	3.224761	1.795762
12.12483016204224	3.2084293	1.7912089
12.142455623712152	3.1669207	1.7795844
12.16008137373149	3.1297328	1.7691051
12.177707412531431	3.131221	1.7695256
12.19533374054321	3.1102703	1.7635958
12.212960358198126	3.0969572	1.7598174
12.230587265927545	3.0419645	1.7441229
12.248214464162889	3.0393891	1.7433844
12.265841953335649	3.0796556	1.7548947
12.283469733877375	3.0759048	1.7538258
12.301097806219685	3.013642	1.7359844
12.31872617079425	2.9702797	1.72345
12.336354828032825	2.990853	1.7294083
12.353983778367205	3.00755	1.734229
12.371613022229262	2.9746356	1.7247132
12.389242560050928	2.915794	1.7075696
12.406872392264201	2.8786519	1.696659
12.424502519301143	2.8849652	1.6985185
12.442132941593874	2.894795	1.7014097
12.459763659574586	2.9206493	1.7089907
12.477394673675532	2.9190104	1.7085111
12.49502598432903	2.9167025	1.7078357
12.51265759196746	2.880617	1.697238
12.530289497023267	2.8607433	1.6913732
12.547921699928967	2.8420053	1.6858248
12.565554201117134	2.81033	1.6764039
12.583187001020404	2.792842	1.6711798
12.600820100071486	2.7702942	1.6644201
12.618453498703152	2.779782	1.6672678
12.636087197348235	2.7576613	1.6606208
12.65372119643964	2.783389	1.6683493
12.671355496410326	2.8317275	1.6827737
12.68899009769333	2.8651857	1.692686
12.706625000721749	2.8781343	1.6965065
12.724260205928752	2.9075978	1.705168
12.741895713747551	2.8929617	1.7008709
12.759531524611454	2.946076	1.7164137
12.777167638953818	2.9354546	1.7133168
12.794804057208072	2.9841452	1.7274679
12.812440779807702	2.996938	1.7311666
12.830077807186271	3.1533163	1.7757579
12.847715139777405	3.1796546	1.7831587
12.865352778014795	3.4090252	1.8463546
12.882990722332197	3.5452867	1.8828932
12.90062897316344	3.6580799	1.9126108
12.918267530942412	3.7570915	1.9383218
12.935906396103071	3.6407385	1.9080719
12.953545569079449	3.7933116	1.9476426
12.971185050305628	3.5653915	1.8882245
12.988824840215775	3.5733385	1.8903276
13.006464939244115	3.5996985	1.8972871
13.024105347824943	3.4753287	1.8642234
13.041746066392617	3.5687232	1.8891065
13.05938709538157	3.3855536	1.8399874
13.077028435226296	3.3811889	1.8388009
13.094670086361363	3.2656102	1.8070999
13.112312049221401	3.1680675	1.7799066
13.129954324241112	3.1049342	1.7620823
13.147596911855258	2.9317534	1.7122364
13.165239812498685	2.9017832	1.7034621
13.182883026606293	2.836417	1.6841666
13.200526554613058	2.7763183	1.6662288
13.218170396954017	2.7519643	1.6589046
13.235814554064284	2.686955	1.6391934
13.253459026379034	2.6464658	1.6267961
13.271103814333523	2.6327553	1.6225767
13.288748918363058	2.6505413	1.6280483
13.306394338903031	2.652207	1.6285597
13.32404007638889	2.6313753	1.6221515
13.341686131256164	2.6676106	1.6332822
13.359332503940449	2.6837635	1.6382196
13.376979194877402	2.6620579	1.6315814
13.394626204502751	2.6747363	1.635462
13.412273533252307	2.6957242	1.6418661
13.429921181561937	2.722322	1.6499461
13.447569149867581	2.7680376	1.6637421
13.465217438605247	2.7385354	1.654852
13.482866048211022	2.7389967	1.6549915
13.500514979121052	2.7113178	1.646608
13.518164231771568	2.7095947	1.6460847
13.535813806598844	2.7014182	1.6435992
13.553463704039254	2.7057652	1.6449211
13.571113924529229	2.731217	1.6526394
13.588764468505275	2.7584221	1.6608498
13.606415336403956	2.747019	1.6574134
13.624066528661917	2.7541566	1.6595652
13.641718045715882	2.7781968	1.6667924
13.659369888002635	2.865605	1.6928098
13.67702205595903	2.9453533	1.7162032
13.694674550021993	3.01188	1.7354769
13.712327370628532	3.05667	1.7483335
13.729980518215713	3.1259334	1.7680309
13.747633993220681	3.2109373	1.7919089
13.765287796080647	3.299119	1.8163477
13.7829419272329	3.339499	1.8274297
13.800596387114801	3.327469	1.8241352
13.818251176163775	3.364803	1.83434
13.835906294817324	3.3910103	1.8414696
13.853561743513023	3.4104257	1.8467338
13.871217522688525	3.4608378	1.8603327
13.888873632781538	3.4861164	1.8671144
13.906530074229858	3.519886	1.876136
13.92418684747135	3.5154614	1.8749564
13.941843952943948	3.5006273	1.8709964
13.959501391085665	3.484426	1.8666618
13.977159162334578	3.427239	1.8512803
13.994817267128846	3.376776	1.8376006
14.012475705906693	3.2702718	1.8083893
14.030134479106424	3.1857703	1.7848727
14.047793587166414	3.096476	1.7596806
14.065453030525108	3.0018888	1.7325959
14.083112809621026	2.9773638	1.7255039
14.100772924892766	2.9697328	1.7232913
14.118433376778997	2.969244	1.7231494
14.136094165718458	2.891572	1.7004623
14.153755292149969	2.8315518	1.6827215
14.171416756512416	2.7268825	1.6513275
14.189078559244768	2.618851	1.6182864
14.20674070078606	2.5199158	1.5874243
14.224403181575408	2.4764771	1.5736827
14.242066002051999	2.4580727	1.5678241
14.259729162655093	2.4471724	1.564344
14.277392663824022	2.4130743	1.5534073
14.295056505998208	2.4221365	1.5563215
14.312720689617128	2.3873987	1.545121
14.330385215120348	2.403312	1.5502619
14.348050082947497	2.388385	1.5454401
14.3657152935383	2.3950691	1.5476011
14.383380847332528	2.3768206	1.541694
14.401046744770051	2.370224	1.5395532
14.418712986290798	2.3615055	1.5367191
14.436379572334793	2.375118	1.5411417
14.454046503342123	2.3817575	1.5432943
14.471713779752946	2.393243	1.547011
14.489381402007504	2.3893015	1.5457366
14.507049370546113	2.4060173	1.5511342
14.524717685809168	2.4107955	1.5526737
14.542386348237134	2.4021807	1.549897
14.560055358270553	2.3801186	1.5427634
14.577724716350051	2.3812518	1.5431305
14.595394422916325	2.3511915	1.5333595
14.61306447841015	2.3868911	1.5449567
14.63073488327237	2.4334443	1.5599501
14.648405637943917	2.4873235	1.5771251
14.6660767428658	2.494755	1.5794793
14.683748198479094	2.4821436	1.575482
14.701420005224954	2.488698	1.5775608
14.719092163544628	2.5700212	1.6031286
14.73676467387942	2.6922164	1.6407975
14.754437536670727	2.7643144	1.6626228
14.772110752360014	2.7680123	1.6637344
14.78978432138882	2.7203126	1.649337
14.807458244198777	2.710336	1.6463099
14.82513252123159	2.6781354	1.636501
14.842807152929028	2.7082505	1.6456763
14.860482139732962	2.6887941	1.6397543
14.87815748208531	2.6467156	1.626873
14.8958331804281	2.6498957	1.62785
14.91350923520342	2.6247094	1.6200955
14.931185646853438	2.6888094	1.639759
14.948862415820408	2.6934786	1.6411821
14.966539542546656	2.717204	1.6483943
14.98421702747459	2.670816	1.6342632
15.001894871046696	2.6399167	1.6247821
15.019573073705542	2.6847334	1.6385156
15.037251635893766	2.6869867	1.6392031
15.054930558054092	2.6984582	1.6426984
15.072609840629323	2.7108357	1.6464616
15.090289484062351	2.8511407	1.6885321
15.107969488796124	3.1876006	1.7853853
15.125649855273691	3.5939436	1.89577
15.14333058393817	4.11588	2.028763
15.161011675232768	5.0871305	2.2554667
15.17869312960076	6.3953276	2.5288985
15.196374947485506	8.155296	2.855748
15.214057129330447	11.195849	3.34602
15.231739675579114	15.94567	3.993203
15.249422586675102	21.019539	4.5847073
15.267105863062092	24.176828	4.9169936
15.284789505183847	24.299929	4.929496
15.302473513484218	22.054213	4.6961913
15.320157888407127	18.326752	4.2809753
15.337842630396578	14.332474	3.7858255
15.355527739896656	11.254649	3.354795
15.37321321735153	8.861269	2.9767883
15.39089906320545	6.4876585	2.5470881
15.408585277902748	4.925674	2.2193859
15.42627186188783	3.7997375	1.9492915
15.443958815605198	3.2292988	1.797025
15.461646139499424	2.9240203	1.7099767
15.479333834015168	2.798612	1.6729053
15.497021899597165	2.752403	1.6590368
15.514710336690234	2.6875238	1.6393669
15.53239914573928	2.6664803	1.6329361
15.550088327189297	2.6349149	1.6232421
15.567777881485336	2.6136591	1.6166816
15.58546780907256	2.558453	1.5995165
15.6031581103962	2.5270138	1.5896584
15.620848785901568	2.46417	1.5697675
15.638539836034063	2.4299464	1.5588286
15.656231261239173	2.4186516	1.5552014
15.673923061962451	2.414409	1.5538368
15.691615238649552	2.4462452	1.5640477
15.709307791746202	2.4612174	1.5688268
15.727000721698221	2.452024	1.565894
15.744694028951498	2.373483	1.5406113
15.76238771395202	2.3341634	1.5277969
15.780081777145844	2.3453357	1.5314488
15.797776218979125	2.344907	1.5313089
15.815471039898094	2.3440938	1.5310434
15.833166240349064	2.323312	1.5242414
15.850861820778437	2.3576915	1.5354776
15.868557781632699	2.3587444	1.5358205
15.886254123358412	2.3625958	1.5370737
15.903950846402232	2.3570635	1.5352731
15.921647951210897	2.369711	1.5393865
15.939345438231225	2.3514307	1.5334375
15.957043307910133	2.3225784	1.5240008
15.974741560694602	2.3306828	1.5266573
15.992440197031714	2.3204787	1.5233117
16.01013921736862	2.3383403	1.5291632
16.02783862215259	2.3272066	1.5255184
16.045538411830933	2.3380733	1.529076
16.06323858685107	2.3716688	1.5400224
16.080939147660512	2.3986769	1.5487663
16.09864009470684	2.400946	1.5494986
16.11634142843774	2.3749447	1.5410856
16.134043149300954	2.399805	1.5491304
16.15174525774433	2.4292026	1.5585899
16.169447754215817	2.4491115	1.5649637
16.18715063916342	2.44773	1.5645223
16.204853913035244	2.4530263	1.566214
16.222557576279478	2.4790475	1.5744991
16.240261629344403	22.451172	4.738267
16.257966072678386	42.992832	6.556892
16.275670906729868	38.110203	6.173346
16.293376131947387	2.5680528	1.6025145
16.31108174877957	2.6012175	1.6128291
16.328787757675133	2.597969	1.6118217
16.34649415908287	2.6149256	1.6170732
16.364200953451657	2.6561062	1.6297565
16.38190814123048	2.6820915	1.6377093
16.39961572286839	2.6556962	1.6296307
16.41732369881455	2.622413	1.6193866
16.43503206951817	2.68261	1.6378676
16.45274083542859	2.7565298	1.66028
16.47044999699522	2.8037825	1.6744499
16.488159554667558	2.8086486	1.6759024
16.505869508895184	2.8422067	1.6858846
16.523579860127786	2.86587	1.692888
16.541290608815117	2.8995132	1.7027957
16.559001755407035	2.952537	1.7182949
16.57671330035348	3.0064373	1.733908
16.59442524410448	3.0667582	1.7512162
16.61213758711015	3.1248436	1.7677227
16.629850329820705	3.2398438	1.7999567
16.647563472686436	3.3602521	1.833099
16.665277016157724	3.436379	1.8537472
16.682990960685053	3.5083244	1.8730521
16.70070530671898	3.5315008	1.8792288
16.718420054710155	3.5601783	1.8868434
16.736135205109335	3.6265435	1.9043486
16.753850758367335	3.654536	1.911684
16.771566714935087	3.7137148	1.9271001
16.789283075263597	3.7247913	1.9299718
16.80699983980398	3.7770982	1.9434758
16.82471700900741	3.8370833	1.9588474
16.84243458332518	3.8928876	1.9730402
16.860152563208665	3.9861	1.996522
16.87787094910932	4.0733128	2.018245
16.89558974147871	4.1128836	2.0280244
16.913308940768466	4.1444907	2.0358021
16.931028547430333	4.2239957	2.055236
16.94874856191613	4.275127	2.067638
16.966468984677785	4.3237176	2.079355
16.98418981616729	4.3853183	2.0941153
17.00191105683676	4.547551	2.1324987
17.019632707138374	4.6052184	2.1459773
17.03735476752442	4.6109333	2.1473083
17.05507723844728	4.5500956	2.1330953
17.072800120359403	4.6044025	2.1457872
17.090523413713353	4.644306	2.1550653
17.108247118961785	4.6920395	2.1661117
17.125971236557437	4.6427407	2.154702
17.143695766953133	4.660229	2.1587565
17.161420710601806	4.7244086	2.1735704
17.179146067956477	4.7709837	2.1842582
17.19687183947025	4.7191987	2.1723716
17.21459802559634	4.681267	2.1636236
17.232324626788028	4.7033653	2.1687243
17.25005164349871	4.7042565	2.1689298
17.267779076181863	4.7113147	2.1705563
17.285506925291074	4.6776304	2.1627831
17.30323519127999	4.6449437	2.155213
17.320963874602384	4.5656977	2.1367493
17.33869297571211	4.534061	2.1293335
17.356422495063114	4.4889827	2.118722
17.37415243310944	4.4379215	2.1066375
17.391882790305218	4.468287	2.1138322
17.40961356710468	4.4866395	2.1181688
17.42734476396215	4.5621414	2.135917
17.445076381332044	4.5860724	2.1415117
17.462808419668868	4.609465	2.1469665
17.48054087942723	4.7328753	2.1755173
17.498273761061835	5.0385704	2.244676
17.51600706502747	5.5798197	2.3621643
17.533740791779024	6.295123	2.5090084
17.551474941771485	7.582563	2.7536454
17.56920951545993	8.666532	2.9438972
17.586944513299528	10.76748	3.2813838
17.60467993574556	12.397189	3.5209641
17.622415783253373	14.120787	3.7577636
17.64015205627843	15.542963	3.9424565
17.657888755276293	16.616573	4.076343
17.675625880702604	17.011675	4.1245213
17.69336343301311	16.828978	4.1023135
17.71110141266366	16.100939	4.0125976
17.728839820110178	15.138662	3.8908434
17.746578655808705	14.287596	3.7798936
17.764317920215372	12.876539	3.5883894
17.7820576137864	11.384246	3.374055
17.79979773697811	9.390965	3.0644681
17.81753829024692	7.595362	2.7559686
17.835279274049356	5.971089	2.443581
17.85302068884201	4.8748364	2.2079031
17.870762535081607	4.145216	2.0359805
17.888504813224934	3.839407	1.9594405
17.90624752372891	3.7012599	1.9238659
17.923990667050536	3.6429143	1.908642
17.941734243646895	3.5527844	1.8848832
17.959478253975185	3.5316174	1.8792598
17.9772226984927	3.4703743	1.862894
17.994967577656833	3.4459748	1.8563337
18.01271289192506	3.4090574	1.8463633
18.030458641754965	3.3869438	1.8403652
18.04820482760425	3.3550777	1.8316871
18.06595144993067	3.28246	1.811756
18.083698509192125	3.2759323	1.8099537
18.101446005846576	3.2520072	1.8033322
18.119193940352105	3.280516	1.8112195
18.136942313166887	3.250462	1.8029038
18.1546911247492	3.2013402	1.7892289
18.1724403755574	3.1904893	1.7861941
18.19019006604997	3.1915557	1.7864926
18.207940196685467	3.2116866	1.792118
18.225690767922575	3.1210024	1.7666359
18.243441780220046	3.0912428	1.758193
18.261193234036764	3.0739703	1.7532742
18.278945129831676	3.0625737	1.7500211
18.29669746806386	3.0184634	1.7373725
18.314450249192483	3.0422227	1.7441969
18.3322034736768	3.0492713	1.7462163
18.349957141976184	3.076777	1.7540743
18.3677112545501	3.062487	1.7499963
18.385465811858108	3.0899618	1.7578287
18.403220814359884	3.096343	1.7596428
18.420976262515172	3.108475	1.7630868
18.43873215678387	3.1148102	1.7648824
18.456488497625923	3.1231792	1.7672518
18.474245285501407	3.1872768	1.7852947
18.492002520870486	3.2790143	1.8108048
18.50976020419343	3.3849201	1.8398153
18.527518335930615	3.6317163	1.9057063
18.545276916542516	4.174576	2.0431778
18.563035946489688	4.32182	2.0788987
18.580795426232832	4.767531	2.1834676
18.598555356232698	4.740103	2.1771777
18.616315736950185	5.1155643	2.2617614
18.63407656884626	4.800381	2.1909773
18.65183785238201	4.9849486	2.2326999
18.669599588018617	4.7661576	2.1831532
18.68736177621737	4.7600503	2.1817539
18.705124417439652	4.705238	2.169156
18.72288751214696	4.432345	2.1053135
18.740651060800886	4.5498652	2.1330414
18.758415063863115	4.2648716	2.0651565
18.77617952179546	4.4852967	2.117852
18.793944435059814	4.289294	2.0710611
18.811709804118184	4.3290877	2.080646
18.829475629432675	4.2770357	2.0680995
18.8472419114655	4.061016	2.0151963
18.86500865067897	4.1118445	2.0277684
18.88277584753551	3.7820117	1.9447395
18.90054350249763	3.786249	1.9458286
18.918311616027957	3.467151	1.8620287
18.936080188589226	3.347123	1.8295144
18.953849220644265	3.0634513	1.7502718
18.971618712656007	2.8998911	1.7029067
18.9893886650875	2.85724	1.6903372
19.007159078401887	8.006258	2.829533
19.024929953062408	32.8894	5.734928
19.042701289532435	32.825733	5.7293744
19.060473088275405	25.364956	5.036363
19.07824534975489	2.6134753	1.6166247
19.096018074434568	2.5991063	1.6121744
19.113791262778197	2.6518857	1.6284611
19.13156491524966	2.6350074	1.6232706
19.149339032312945	2.6094644	1.6153836
19.167113614432136	2.5912006	1.6097207
19.184888662071433	2.5954337	1.611035
19.202664175695123	2.5954242	1.611032
19.220440155767623	2.5715454	1.6036038
19.238216602753447	2.5257332	1.5892556
19.2559935171172	2.474499	1.5730541
19.27377089932361	2.4739096	1.5728667
19.291548749837514	2.4846408	1.5762744
19.309327069123835	2.5078382	1.5836155
19.32710585764763	2.5242198	1.5887793
19.344885115874032	2.5379763	1.5931027
19.362664844268313	2.5419152	1.5943385
19.380445043295822	2.5319757	1.5912184
19.39822571342203	2.5060675	1.5830563
19.41600685511252	2.5014892	1.5816097
19.43378846883297	2.4910598	1.5783092
19.451570555049173	2.4693508	1.5714169
19.469353114227037	2.4581451	1.5678473
19.48713614683254	2.4419818	1.5626842
19.50491965333182	2.4516647	1.5657792
19.52270363419109	2.4716249	1.5721402
19.540488089876686	2.5057995	1.5829717
19.55827302085503	2.5452147	1.5953729
19.576058427592674	2.5453866	1.5954268
19.593844310556282	2.532961	1.5915278
19.611630670212598	2.52449	1.5888644
19.629417507028506	2.5317483	1.5911468
19.64720482147098	2.5547807	1.5983682
19.6649926140071	2.5245519	1.5888839
19.682780885104084	2.4971611	1.5802408
19.70056963522921	2.4875045	1.5771824
19.718358864849908	2.5228198	1.5883387
19.7361485744337	2.5311265	1.5909514
19.753938764448215	2.4998782	1.5811003
19.771729435361202	2.5170588	1.5865241
19.789520587640506	2.551191	1.5972449
19.807312221754092	2.5569742	1.5990541
19.825104338170043	2.495405	1.5796851
19.842896937356517	2.4614205	1.5688915
19.860690019781824	2.4601853	1.5684978
19.87848358591436	2.4962063	1.5799387
19.896277636222635	2.5165842	1.5863745
19.914072171175278	2.4855063	1.5765488
19.931867191241015	2.4495177	1.5650935
19.94966269688869	2.458176	1.5678571
19.967458688587264	2.4958158	1.5798151
19.985255166805807	2.5037074	1.5823108
20.00305213201348	2.4759088	1.5735021
20.020849584679578	2.497814	1.5804474
20.038647525273507	2.5099978	1.5842973
20.05644595426477	2.4833815	1.5758748
20.07424487212299	2.4757714	1.5734584
20.092044279317903	2.4719677	1.5722493
20.109844176319353	2.480137	1.5748451
20.127644563597304	2.459422	1.5682545
20.145445441621817	2.4343994	1.5602562
20.16324681086307	2.4100206	1.5524241
20.181048671791373	2.423791	1.5568529
20.198851024877122	2.458654	1.5680095
20.216653870590836	2.448949	1.5649118
20.234457209403146	2.38973	1.5458752
20.252261041784802	2.380007	1.5427271
20.270065368206662	2.3841615	1.544073
20.287870189139685	2.4275553	1.5580614
20.305675505054968	2.4064763	1.5512822
20.323481316423702	2.3768182	1.5416933
20.341287623717207	2.4010177	1.5495218
20.359094427406884	2.3902485	1.5460429
20.376901727964288	2.337284	1.5288179
20.39470952586107	2.3173845	1.5222958
20.41251782156899	2.3549964	1.5345998
20.430326615559935	2.3593905	1.5360308
20.448135908305886	2.3484979	1.532481
20.465945700278965	2.3360002	1.5283979
20.483755991951384	2.3295534	1.5262874
20.50156678379548	2.340882	1.5299941
20.519378076283708	2.3588135	1.5358429
20.537189869888635	2.3667123	1.5384123
20.55500216508294	2.3617246	1.5367904
20.572814962339415	2.356547	1.5351049
20.59062826213098	2.3403814	1.5298305
20.60844206493066	2.2733107	1.5077502
20.626256371211593	2.2663777	1.5054493
20.644071181447032	2.2681172	1.506027
20.66188649611036	2.3054473	1.5183699
20.67970231567506	2.3094804	1.5196974
20.697518640614742	2.3217738	1.5237368
20.715335471403122	2.3327572	1.5273366
20.73315280851404	2.3399093	1.5296762
20.750970652421447	2.326529	1.5252963
20.768789003599412	2.3385353	1.529227
20.786607862522136	2.3251681	1.5248502
20.8044272296639	2.3226173	1.5240135
20.82224710549913	2.2986565	1.5161321
20.84006749050237	2.2710726	1.5070078
20.857888385148268	3.832798	1.9577533
20.8757097899116	45.946358	6.778374
20.893531705267254	64.84782	8.0528145
20.911354131690224	83.87795	9.158491
20.92917706965566	69.08341	8.311644
20.94700051963877	50.07959	7.0766935
20.96482448211493	29.353006	5.4178414
20.982648957559622	4.1215353	2.0301564
21.00047394644843	2.2737606	1.5078994
21.01829944925707	2.2734852	1.5078081
21.036125466461375	2.2564695	1.502155
21.053951998537297	2.2407908	1.4969271
21.071779045960906	2.2322881	1.4940844
21.089606609208378	2.2359653	1.4953145
21.10743468875603	2.242327	1.4974401
21.12526328508028	2.2268085	1.4922495
21.143092398657675	2.1882231	1.4792644
21.16092202996488	2.1942513	1.4813006
21.17875217947867	2.2153277	1.4883977
21.19658284767596	2.2070355	1.4856095
21.21441403503377	2.1966712	1.4821172
21.232245742029225	2.1947575	1.4814714
21.2500779691396	2.2097363	1.4865181
21.26791071684227	2.217075	1.4889846
21.28574398561475	2.2237897	1.4912376
21.30357777593465	2.2058244	1.4852018
21.321412088279704	2.1525578	1.4671597
21.339246923127792	2.1124814	1.4534378
21.357082280956888	2.1417298	1.463465
21.3749181622451	2.163006	1.4707161
21.392754567470647	2.1671855	1.4721364
21.41059149711187	2.1514587	1.4667852
21.42842895164726	2.144041	1.4642544
21.446266931555378	2.1653547	1.4715145
21.464105437314945	2.1607556	1.4699509
21.481944469404798	2.130988	1.4597903
21.49978402830388	2.1159425	1.454628
21.51762411449127	2.12398	1.457388
21.53546472844617	2.1336246	1.4606931
21.553305870647876	2.0730748	1.4398177
21.571147541575865	2.0426846	1.4292252
21.58898974170967	2.0646124	1.4368759
21.60683247152899	2.1176853	1.4552269
21.62467573151363	2.1023145	1.449936
21.642519522143523	2.050954	1.4321152
21.660363843898722	2.031819	1.425419
21.6782086972594	2.0592196	1.4349982
21.696054082705864	2.0583634	1.4346998
21.713900000718535	2.0430396	1.4293493
21.73174645177795	2.017705	1.4204594
21.749593436364794	2.0075314	1.4168738
21.767440954959845	2.0028865	1.4152337
21.785289008044032	2.0263803	1.4235098
21.803137596098388	2.0440094	1.4296886
21.820986719604086	2.0355828	1.4267385
21.838836379042412	2.0090342	1.417404
21.85668657489478	2.0182674	1.4206574
21.87453730764273	2.0390205	1.4279428
21.892388577767914	2.057941	1.4345526
21.91024038575213	2.0621426	1.4360162
21.928092732077285	2.061481	1.4357859
21.945945617225426	2.0374098	1.4273787
21.963799041678694	1.9933648	1.4118657
21.981653005919398	31.285679	5.5933604
21.999507510429943	78.06721	8.835565
22.01736255569286	73.044785	8.546624
22.035218142190818	4.150445	2.037264
22.05307427040661	1.9500762	1.3964514
22.07093094082315	1.9375823	1.3919706
22.088788153923474	1.9362259	1.3914833
22.106645910190746	1.9663122	1.4022526
22.12450421010827	1.985286	1.4090018
22.142363054159464	2.0528994	1.4327942
22.16022244282787	2.0414886	1.4288067
22.178082376597164	2.0294387	1.4245837
22.195942855951145	2.0314705	1.4252967
22.213803881373742	2.0086677	1.4172747
22.231665453349002	1.9622779	1.4008133
22.24952757236111	1.939252	1.3925703
22.26739023889438	1.9814698	1.4076469
22.28525345343323	1.9801366	1.4071733
22.30311721646225	1.9626427	1.4009435
22.320981528466113	1.9507446	1.3966906
22.33884638992964	1.9753728	1.4054796
22.356711801337788	1.9692895	1.4033138
22.37457776317561	1.983719	1.4084456
22.392444275928337	1.9988166	1.4137951
22.410311340081282	2.0079885	1.4170351
22.428178956119904	1.9925331	1.4115711
22.446047124529805	1.9554816	1.3983854
22.46391584579669	1.939038	1.3924935
22.481785120406414	1.9135054	1.3832952
22.49965494884496	1.9167621	1.3844718
22.51752533159841	1.8959905	1.3769497
22.53539626915302	1.8946651	1.3764683
22.553267761995137	1.9197235	1.3855408
22.571139810611264	1.9791406	1.4068193
22.589012415488025	1.9341615	1.3907413
22.60688557711216	1.9369158	1.3917313
22.624759295970566	1.9309952	1.3896025
22.642633572550263	1.9635344	1.4012617
22.660508407338362	1.946637	1.3952193
22.67838380082217	1.944035	1.3942866
22.696259753489077	1.9515033	1.3969622
22.714136265826614	1.9735943	1.4048467
22.73201333832246	1.9624774	1.4008845
22.74989097146439	1.9294271	1.3890382
22.76776916574035	1.8801769	1.3711954
22.785647921638393	1.8800646	1.3711544
22.803527239646712	1.9210507	1.3860197
22.82140712025363	1.9435846	1.394125
22.839287563947593	1.940869	1.3931507
22.85716857121719	1.9234806	1.386896
22.875050142551135	1.9104737	1.3821988
22.892932278438277	1.8682361	1.3668343
22.910814979367604	1.8724592	1.3683783
22.928698245828222	1.8795912	1.3709818
22.946582078309387	1.9140556	1.383494
22.96446647730047	1.9447441	1.3945408
22.98235144329098	1.9469779	1.3953415
23.000236976770562	1.9395081	1.3926623
23.018123078229	1.9108269	1.3823266
23.03600974815619	1.8844537	1.3727541
23.053896987042194	1.8527875	1.3611714
23.071784795377173	1.8585892	1.3633008
23.08967317365145	1.8640919	1.3653175
23.10756212235546	1.8642472	1.3653743
23.125451641979787	1.8931429	1.3759153
23.143341733015134	1.9322395	1.3900502
23.161232395952357	1.9357685	1.3913189
23.179123631282426	1.8926083	1.375721
23.197015439496468	1.8991326	1.3780903
23.214907821085717	1.9303311	1.3893635
23.23280077654157	1.9343933	1.3908247
23.250694306355538	1.9179789	1.3849112
23.268588411019277	1.9041706	1.3799169
23.28648309102458	1.918343	1.3850425
23.304378346863356	1.8941262	1.3762726
23.322274179027676	1.9001795	1.37847
23.340170588009723	1.8790911	1.3707994
23.358067574301852	1.9113616	1.38252
23.37596513839651	1.9228709	1.3866762
23.39386328078629	1.9410374	1.3932112
23.411762001963947	1.9447805	1.3945539
23.429661302422353	1.949967	1.3964123
23.4475611826545	1.9464259	1.3951437
23.46546164315356	1.9289737	1.388875
23.48336268441279	1.9410174	1.393204
23.501264306925638	1.9412855	1.3933002
23.51916651118564	1.9502895	1.3965276
23.537069297686497	1.926569	1.388009
23.554972666922037	1.918384	1.3850573
23.57287661938623	1.9229505	1.3867049
23.59078115557318	1.9393901	1.3926198
23.608686275977128	1.9442685	1.3943703
23.62659198109246	1.9266714	1.3880459
23.6444982714137	1.9338684	1.390636
23.66240514743549	1.9037849	1.3797771
23.68031260965263	1.9078891	1.3812636
23.698220658560068	1.9012748	1.3788673
23.716129294652845	1.9074438	1.3811023
23.7340385184262	1.9188838	1.3852378
23.75194833037546	1.9244787	1.3872558
23.769858730996123	1.9345095	1.3908665
23.78776972078382	1.868708	1.3670069
23.80568130023431	1.8785179	1.3705903
23.823593469843495	1.9007307	1.3786699
23.841506230107424	1.9302427	1.3893317
23.859419581522275	1.9060059	1.3805817
23.87733352458438	1.8777356	1.370305
23.89524805979019	1.900017	1.378411
23.913163187636318	1.8915521	1.3753371
23.931078908619508	1.9230586	1.3867439
23.948995223236633	1.9429016	1.39388
23.966912131984735	1.9615402	1.40055
23.98482963536096	2.0009933	1.4145647
24.002747733862616	1.9676793	1.4027399
24.020666427987155	1.9589204	1.3996143
24.038585718232156	2.000465	1.4143779
24.056505605095353	2.0203495	1.4213899
24.074426089074617	2.0631688	1.4363735
24.092347170667946	2.0455768	1.4302366
24.110268850373515	2.072896	1.4397556
24.128191128689586	2.0696006	1.4386107
24.146114006114626	2.0591264	1.4349656
24.164037483147187	2.0435386	1.429524
24.181961560286005	2.0548394	1.4334711
24.199886238029926	2.037237	1.4273181
24.21781151687797	2.0880954	1.4450244
24.235737397329274	2.0988657	1.4487463
24.253663879883135	2.0617597	1.4358829
24.271590965038975	2.0146627	1.4193882
24.289518653296376	2.0119596	1.4184356
24.30744694515505	2.019132	1.4209616
24.32537584111486	2.0162296	1.41994
24.34330534167581	1.977296	1.4061636
24.361235447338046	1.9910536	1.411047
24.379166158601876	1.9841152	1.4085863
24.39709747596772	1.9836318	1.4084146
24.41502939993615	1.984221	1.4086238
24.432961931007917	1.980887	1.40744
24.450895069683856	1.9842138	1.4086212
24.468828816465	1.9525692	1.3973436
24.4867631718525	1.9641975	1.4014983
24.504698136347656	1.9617561	1.400627
24.52263371045192	1.941854	1.3935043
24.540569894666874	1.9292421	1.3889716
24.558506689494266	1.9209701	1.3859906
24.57644409543597	1.9019253	1.3791031
24.594382112994012	1.9058516	1.3805258
24.61232074267057	1.9277987	1.3884519
24.630259984967953	1.9692765	1.4033091
24.64819984038863	1.9739368	1.4049686
24.66614030943522	1.9513049	1.3968911
24.684081392610462	1.9038529	1.3798018
24.702023090417274	1.9311649	1.3896636
24.7199654033587	1.9575783	1.3991349
24.737908331937927	1.9765834	1.4059101
24.755851876658305	2.0094023	1.4175339
24.773796038023324	2.0559678	1.4338646
24.79174081653661	2.0666625	1.4375892
24.809686212701962	2.0788784	1.4418316
24.827632227023294	2.1116743	1.4531602
24.8455788600047	2.12739	1.4585575
24.8635261121504	2.1321428	1.4601859
24.88147398396475	2.1204743	1.4561849
24.899422475952303	2.1023118	1.4499351
24.917371588617698	2.093035	1.4467325
24.935321322465768	2.1670134	1.472078
24.953271678001478	2.2960708	1.5152792
24.97122265572994	2.513074	1.5852678
24.989174256156414	2.7952507	1.6719003
25.00712647978632	3.199404	1.7886878
25.02507932712521	3.707798	1.9255643
25.043032798678798	4.2005153	2.049516
25.060986894952933	4.796987	2.1902025
25.078941616453637	5.549589	2.3557565
25.096896963687055	6.513064	2.5520706
25.114852937159508	7.5455446	2.7469156
25.132809537377444	7.9571443	2.820841
25.150766764847468	8.050851	2.837402
25.168724620076347	7.6785736	2.771024
25.186683103570985	6.769202	2.601769
25.204642215838426	5.6143837	2.3694692
25.222601957385894	4.1421924	2.0352376
25.24056232872074	3.1130915	1.7643955
25.25852333035048	2.586589	1.6082876
25.276484962782778	2.2837842	1.5112194
25.294447226525435	2.0939634	1.4470533
25.312410122086423	1.9888754	1.410275
25.330373649973843	1.9533045	1.3976067
25.348337810695988	1.9522376	1.397225
25.366302604761245	1.9402586	1.3929317
25.384268032678207	1.9371612	1.3918194
25.40223409495558	1.9188727	1.3852338
25.420200792102257	1.9255226	1.387632
25.438168124627246	1.9297324	1.3891481
25.45613609303974	1.9806978	1.4073726
25.474104697849057	1.9362108	1.391478
25.492073939564698	1.8509	1.3604779
25.510043818696285	1.8554574	1.3621517
25.528014335753614	1.9003013	1.3785142
25.54598549124664	1.9582423	1.3993721
25.56395728568544	1.9307749	1.3895233
25.58192971958028	1.8971773	1.3773806
25.59990279344156	1.8762876	1.3697765
25.617876507779833	1.8853008	1.3730625
25.635850863105826	1.8897228	1.3746719
25.653825859930386	1.8876946	1.373934
25.671801498764548	1.8551376	1.3620343
25.68977778011949	1.8203666	1.3492097
25.707754704506524	1.8299619	1.3527608
25.725732272437153	1.8339716	1.3542421
25.743710484423012	1.8362955	1.3550998
25.761689340975888	1.8631109	1.3649582
25.77966884260774	1.887385	1.3738213
25.797648989830662	1.9175103	1.3847419
25.815629783156922	1.9029415	1.3794714
25.83361122309895	1.8840393	1.372603
25.85159331016929	1.8453988	1.3584546
25.869576044880695	1.8708218	1.3677799
25.887559427746034	1.8862659	1.3734139
25.90554345927836	1.9076064	1.3811612
25.92352813999086	1.9036354	1.379723
25.94151347039689	1.8947363	1.3764942
25.959499451009965	1.8623738	1.3646882
25.97748608234374	1.8674439	1.3665445
25.995473364912062	1.8372221	1.3554417
26.013461299228904	1.8163314	1.3477134
26.03144988580839	1.7954203	1.3399329
26.04943912516483	1.815697	1.347478
26.067429017812675	1.8570355	1.3627309
26.085419564266537	1.8523176	1.3609987
26.103410765041186	1.810837	1.3456734
26.12140262065155	1.8000069	1.3416433
26.139395131612723	1.8097421	1.3452666
26.157388298439948	1.8375186	1.355551
26.17538212164861	1.8189641	1.3486898
26.193376601754295	1.823619	1.3504144
26.211371739272714	1.7929661	1.3390168
26.229367534719746	1.7782423	1.3335075
26.247363988611433	1.7731596	1.3316004
26.26536110146397	1.8168488	1.3479053
26.283358873793727	1.7979308	1.3408694
26.301357306117204	1.8399956	1.3564644
26.319356398951104	1.8132534	1.346571
26.33735615281224	1.7714604	1.3309622
26.35535656821762	1.7814902	1.3347248
26.373357645684404	1.7670331	1.329298
26.39135938572991	1.7932436	1.3391205
26.409361788871614	1.8213717	1.3495821
26.427364855627165	1.8280277	1.3520458
26.445368586514352	1.8059186	1.3438447
26.46337298205115	1.7765396	1.3328689
26.48137804275568	1.7993443	1.3413965
26.499383769146217	1.8328892	1.3538424
26.517390161741215	1.851823	1.3608171
26.53539722105928	1.7818042	1.3348424
26.553404947619182	1.7758714	1.3326182
26.571413341939856	1.8220216	1.3498228
26.589422404540397	1.8299016	1.3527385
26.60743213594006	1.7880538	1.3371813
26.62544253665827	1.7845753	1.33588
26.64345360721459	1.7761071	1.3327067
26.66146534812879	1.7338918	1.3167733
26.679477759920758	1.7694436	1.3302044
26.69749084311057	1.7739704	1.3319048
26.71550459821847	1.7625688	1.3276178
26.733519025764842	1.8009005	1.3419763
26.751534126270258	1.8419132	1.357171
26.769549900255434	1.852103	1.36092
26.787566348241267	1.8391944	1.356169
26.80558347074881	1.8312787	1.3532474
26.823601268299267	1.783145	1.3353446
26.841619741414036	1.7663848	1.3290541
26.85963889061465	1.7615858	1.3272475
26.877658716422832	1.7874652	1.3369612
26.89567921936045	1.7690275	1.330048
26.913700399949544	1.8156232	1.3474506
26.93172225871233	1.8200254	1.3490832
26.949744796171174	1.7609152	1.3269948
26.967768012848605	1.7765023	1.3328549
26.98579190926733	1.8240612	1.3505781
27.003816485950225	1.8201038	1.3491123
27.021841743420318	1.819066	1.3487276
27.039867682200814	1.8078632	1.344568
27.057894302815072	1.7730557	1.3315613
27.07592160578664	1.7860388	1.3364276
27.0939495916392	1.8095748	1.3452044
27.111978260896635	1.8041544	1.3431882
27.13000761408296	1.8194106	1.3488553
27.148037651722397	1.81217	1.3461686
27.166068374339304	1.776281	1.3327719
27.184099782458215	1.7477471	1.3220239
27.20213187660384	1.7537826	1.3243046
27.22016465730105	1.786822	1.3367206
27.23819812507487	1.8075114	1.3444372
27.256232280450533	1.8250301	1.3509368
27.274267123953383	1.845772	1.3585919
27.292302656108987	1.7916332	1.3385191
27.31033887744306	1.7847642	1.3359506
27.32837578848146	1.8027084	1.3426498
27.34641338975026	1.8148007	1.3471454
27.364451681775673	1.7852638	1.3361377
27.382490665084074	1.7949139	1.339744
27.400530340202046	1.7776352	1.3332798
27.41857070765629	1.7701526	1.3304708
27.436611767973726	1.7771033	1.3330804
27.454653521681404	1.8034034	1.3429085
27.472695969306564	1.7940469	1.3394203
27.490739111376627	1.814617	1.3470773
27.508782948419153	1.7657248	1.3288058
27.526827480961902	1.7465187	1.3215592
27.54487270953279	1.7432048	1.3203049
27.562918634659898	1.7836577	1.3355365
27.580965256871508	1.842642	1.3574395
27.599012576696026	1.8399428	1.356445
27.617060594662068	1.8259536	1.3512785
27.63510931129842	1.792566	1.3388674
27.65315872713401	1.8162354	1.3476778
27.67120884269797	1.8393006	1.3562082
27.68925965851958	1.8220356	1.349828
27.707311175128307	1.8032082	1.3428359
27.725363393053787	1.8457271	1.3585753
27.74341631282583	1.8756405	1.3695402
27.7614699349744	1.8425065	1.3573896
27.77952426002968	2.031032	1.4251429
27.797579288521973	2.121256	1.4564533
27.815635020981784	2.5698922	1.6030884
27.83369145793979	2.6433923	1.6258513
27.85174859992682	2.5489423	1.5965407
27.869806447473923	2.433767	1.5600536
27.887865001112267	2.1239574	1.4573803
27.905924261373233	1.9451051	1.3946702
27.92398422878836	1.89666	1.3771927
27.94204490388936	1.8607911	1.3641082
27.96010628720813	1.8788338	1.3707056
27.978168379276728	1.8628516	1.3648633
27.9962311806274	1.8748838	1.369264
28.014294691792568	1.8997442	1.3783121
28.0323589133048	1.8809407	1.3714739
28.050423845696887	1.8604144	1.36397
28.068489489501758	1.8400599	1.3564881
28.086555845252523	1.8079607	1.3446043
28.104622913482487	1.7787257	1.3336887
28.122690694725115	1.8394718	1.3562713
28.14075918951405	1.8929229	1.3758353
28.15882839838312	1.8912435	1.3752248
28.176898321866304	1.8886715	1.3742895
28.1949689604978	1.9237336	1.3869872
28.213040314811945	1.9051789	1.3802822
28.23111238534327	1.8666403	1.3662505
28.249185172626493	1.8369102	1.3553267
28.267258677196473	1.8845958	1.3728058
28.285332899588294	1.9132601	1.3832065
28.303407840337172	1.913633	1.3833412
28.321483499978545	1.9187644	1.3851947
28.33955987904799	1.95062	1.396646
28.357636978081285	1.9397355	1.392744
28.37571479761439	1.9452502	1.3947222
28.393793338183425	1.9987127	1.4137584
28.41187260032469	2.0305123	1.4249605
28.429952584574686	2.0063932	1.4164721
28.448033291470065	1.9399656	1.3928264
28.46611472154769	1.9281322	1.388572
28.484196875344566	1.9784245	1.4065648
28.502279753397914	1.9685885	1.403064
28.52036335624511	1.9830927	1.4082233
28.538447684423716	1.9535588	1.3976977
28.556532738471482	1.936631	1.3916289
28.574618518926325	2.002304	1.415028
28.59270502632635	2.0024836	1.4150914
28.61079226120985	1.9414436	1.3933569
28.628880224115274	1.9057093	1.3804743
28.646968915581287	1.9471674	1.3954093
28.66505833614671	2.0322118	1.4255567
28.68314848635055	2.0536938	1.4330715
28.701239366732004	2.0434418	1.4294901
28.71933097783044	2.0718791	1.4394023
28.737423320185403	2.0956948	1.4476515
28.75551639433665	2.0768042	1.4411122
28.773610200824074	2.0876215	1.4448603
28.791704740187793	2.088077	1.445018
28.80980001296809	2.0638185	1.4365996
28.827896019705413	2.0220823	1.4219995
28.845992760940433	2.0991027	1.4488281
28.86409023721397	2.1168745	1.4549483
28.88218844906704	2.187822	1.4791288
28.900287397040845	2.25504	1.5016791
28.918387081676755	2.2854114	1.5117577
28.936487503516343	2.2796333	1.5098455
28.954588663101365	2.2582104	1.5027343
28.97269056097374	2.293704	1.514498
28.990793197675597	2.3195732	1.5230145
29.00889657374923	2.3624337	1.537021
29.027000689737125	2.4240067	1.5569222
29.04510554618196	2.4595284	1.5682883
29.06321114362659	2.4510539	1.5655842
29.08131748261405	2.4525032	1.566047
29.099424563687567	2.4062843	1.5512203
29.11753238739057	2.4233556	1.5567131
29.13564095426663	2.5181606	1.5868713
29.15375026485954	2.5872114	1.608481
29.171860319713275	2.576902	1.6052731
29.18997111937199	2.659382	1.6307611
29.20808266438002	2.7952669	1.6719052
29.226194955281898	2.810453	1.6764406
29.244307992622335	2.827917	1.6816412
29.26242177694624	2.8386447	1.6848278
29.2805363087987	2.7812676	1.6677133
29.29865158872498	2.795315	1.6719196
29.316767617270557	2.8542385	1.6894492
29.334884394981064	2.893684	1.7010832
29.353001922402367	2.945706	1.7163059
29.37112020008047	3.0195942	1.737698
29.389239228561596	3.1435454	1.7730047
29.407359008392152	3.2829084	1.8118798
29.42547954011872	3.6380231	1.9073602
29.44360082428809	4.243809	2.0600507
29.46172286144722	5.3508706	2.313195
29.479845652143283	6.9317455	2.6328208
29.497969196923606	8.882454	2.9803445
29.516093496335728	11.222735	3.3500352
29.5342185509274	13.9194355	3.730876
29.55234436124651	16.307621	4.0382695
29.570470927841175	17.686302	4.2055087
29.588598251259686	17.319199	4.161634
29.60672633205055	15.888328	3.9860165
29.624855170762405	13.872141	3.7245324
29.642984767944146	11.307688	3.3626904
29.66111512414481	8.757397	2.9592898
29.67924623991366	6.519023	2.5532377
29.697378115800138	5.0044312	2.2370586
29.71551075235387	4.117628	2.0291939
29.733644150124675	3.7229795	1.9295024
29.751778309662576	3.54234	1.8821105
29.769913231517766	3.4811404	1.8657814
29.78804891624066	3.4171977	1.8485664
29.806185364381818	3.394762	1.842488
29.82432257649206	3.390136	1.8412322
29.842460553122333	3.3213384	1.822454
29.86059929482382	3.26333	1.806469
29.878738802147872	3.3062325	1.8183048
29.896879075646048	3.3405645	1.8277211
29.915020115870114	3.297762	1.8159741
29.933161923371976	3.3120027	1.8198909
29.951304498703777	3.359201	1.8328123
29.969447842417857	3.313906	1.8204137
29.987591955066733	3.2162285	1.7933847
30.005736837203123	3.2010477	1.7891471
30.023882489379943	3.2211134	1.794746
30.04202891215028	3.1756613	1.7820386
30.060176106067455	3.1923385	1.7867117
30.078324071684946	3.2392366	1.7997879
30.09647280955646	3.1675494	1.7797611
30.114622320235863	3.0951595	1.7593066
30.132772604277257	3.0236585	1.738867
30.1509236622349	3.0377815	1.7429233
30.16907549466328	3.0872893	1.7570684
30.18722810211705	3.1102817	1.763599
30.205381485151097	3.0812926	1.7553611
30.22353564432045	3.0224552	1.738521
30.241690580180403	2.9726553	1.724139
30.25984629328638	2.9529395	1.7184119
30.278002784194037	2.993018	1.7300341
30.296160053459246	2.9647617	1.7218484
30.314318101638033	2.9667585	1.7224281
30.332476929286646	2.8969333	1.7020379
30.35063653696153	2.94025	1.7147157
30.368796925219307	2.963789	1.7215658
30.386958094616844	2.9100816	1.7058961
30.40512004571115	2.9301496	1.7117679
30.423282779059463	2.9089134	1.7055537
30.441446295219233	2.8210037	1.6795844
30.459610594748067	2.8534422	1.6892135
30.47777567820382	2.9097624	1.7058026
30.495941546144504	2.972476	1.724087
30.51410819912835	2.9174252	1.7080472
30.532275637713795	2.925836	1.7105075
30.55044386245946	2.8720126	1.6947013
30.56861287392416	2.8647673	1.6925623
30.586782672666956	2.8052542	1.6748893
30.604953259247047	2.7537262	1.6594355
30.623124634223885	2.7483766	1.6578228
30.641296798157075	2.749207	1.6580733
30.659469751606462	2.80776	1.6756372
30.677643495132074	2.8227358	1.6801
30.695818029294152	2.7653966	1.6629481
30.713993354653116	2.705136	1.6447297
30.73216947176962	2.682539	1.6378459
30.75034638120448	2.7161775	1.648083
30.768524083518756	2.7314425	1.6527076
30.786702579273673	2.7388093	1.6549349
30.80488186903069	2.8954597	1.7016051
30.82306195335144	3.0484147	1.745971
30.841242832797782	3.122553	1.7670747
30.85942450793176	3.3259676	1.8237236
30.877606979315637	3.6385655	1.9075024
30.895790247511883	4.0910974	2.0226462
30.913974313083134	4.5851717	2.1413014
30.932159176592283	4.8756824	2.2080948
30.95034483860237	4.888466	2.2109876
30.968531299676698	4.628306	2.1513498
30.98671856037873	4.1937556	2.047866
31.00490662127215	3.8395426	1.959475
31.023095482920848	3.5021124	1.8713932
31.04128514588892	3.1533065	1.7757552
31.059475610740662	2.8380888	1.6846628
31.07766687804056	2.610663	1.6157546
31.09585894835335	2.5607605	1.6002376
31.11405182224393	2.5384877	1.5932633
31.132245500277417	2.4884226	1.5774735
31.15043998301914	2.4316611	1.5593784
31.168635271034628	2.3755145	1.5412704
31.18683136488964	2.4263227	1.5576658
31.20502826515008	2.4556062	1.5670373
31.223225972382135	2.4611454	1.5688038
31.241424487152155	2.472908	1.5725483
31.259623810026692	2.4340944	1.5601585
31.27782394157253	2.4715867	1.572128
31.296024882356644	2.447668	1.5645025
31.314226632946237	2.4007483	1.5494348
31.332429193908684	2.3900974	1.5459939
31.350632565811598	2.3898158	1.545903
31.368836749222787	2.4008653	1.5494726
31.387041744710295	2.4731991	1.5726408
31.40524755284232	2.6229365	1.6195482
31.423454174187317	2.6762056	1.6359112
31.441661609313922	2.5961537	1.6112584
31.459869858791002	2.4599087	1.5684096
31.478078923187628	2.443986	1.5633253
31.496288803073064	2.418473	1.5551441
31.514499499016807	2.3546941	1.5345013
31.532711011588546	2.3469617	1.5319797
31.550923341358178	2.2878263	1.5125562
31.56913648889584	2.2512765	1.5004255
31.587350454771844	2.1951199	1.4815937
31.605565239556732	2.2753236	1.5084176
31.62378084382127	2.340551	1.5298859
31.641997268136382	2.3196707	1.5230465
31.660214513073274	2.236324	1.4954344
31.67843257920331	2.157562	1.4688642
31.6966514670981	2.2027867	1.4841788
31.71487117732944	2.281745	1.5105445
31.733091710469346	2.3340917	1.5277734
31.751313067090052	2.3435607	1.5308692
31.769535247764008	2.3126762	1.5207486
31.787758253063878	2.3369744	1.5287166
31.805982083562526	2.3311565	1.5268126
31.824206739833024	2.3098726	1.5198265
31.84243222244869	2.3034067	1.5176978
31.860658531983013	2.2575676	1.5025204
31.878885669009737	2.1867845	1.478778
31.897113634102784	2.185249	1.4782588
31.91534242783632	2.2373824	1.4957882
31.933572050784694	2.2500534	1.5000178
31.951802503522508	2.1853566	1.4782952
31.970033786624548	2.1441593	1.4642948
31.988265900665834	2.1147778	1.4542276
32.006498846221575	2.1162398	1.4547302
32.02473262386724	2.0358558	1.4268342
32.04296723417845	2.0636294	1.4365338
32.0612026777311	2.0972595	1.4481918
32.07943895510129	2.1372545	1.4619352
32.097676066865304	2.1343465	1.4609402
32.115914013599685	2.2014875	1.483741
32.13415279588115	2.2185855	1.4894917
32.152392414286666	2.2105553	1.4867936
32.1706328693934	2.1666248	1.4719459
32.18887416177875	2.2131174	1.487655
32.20711629202032	2.143757	1.4641575
32.225359260695924	2.097736	1.4483563
32.243603068383614	2.0979853	1.4484423
32.26184771566166	2.1125865	1.4534739
32.28009320310852	2.0985932	1.4486523
32.2983395313029	2.1902106	1.479936
32.31658670082372	2.1648252	1.4713345
32.33483471225012	2.0780475	1.4415435
32.35308356616143	2.0810976	1.442601
32.371333263137245	2.1105447	1.4527714
32.38958380375734	2.1396785	1.462764
32.407835188601744	2.0809505	1.44255
32.42608741825067	2.0220208	1.4219778
32.444340493284585	2.118002	1.4553357
32.46259441428416	2.162303	1.4704771
32.48084918183028	2.1509976	1.466628
32.49910479650405	2.0834289	1.4434087
32.51736125888683	2.005538	1.4161702
32.53561856956014	2.0305443	1.4249717
32.5538767291058	2.1136575	1.4538423
32.572135738105764	2.089304	1.4454424
32.59039559714228	2.0873747	1.444775
32.608656306797776	2.1024892	1.4499962
32.62691786765491	2.0226731	1.4222071
32.645180280296586	2.0070958	1.41672
32.663443545305896	2.0122669	1.4185439
32.68170766326619	2.0391343	1.4279826
32.69997263476099	2.0646772	1.4368985
32.7182384603741	2.0751731	1.4405462
32.7365051406895	2.0806515	1.4424464
32.75477267629144	2.0422375	1.4290688
32.77304106776434	1.9344412	1.390842
32.79131031569289	1.8786584	1.3706416
32.809580420661966	1.8717661	1.3681251
32.827851383256714	1.9876862	1.4098532
32.84612320406245	2.058162	1.4346296
32.86439588366476	2.0411763	1.4286975
32.88266942264945	2.0195005	1.4210913
32.9009438216025	2.0405488	1.4284778
32.9192190811102	2.0076292	1.4169083
32.937495201758985	1.9982756	1.4136038
32.95577218413556	1.9165983	1.3844126
32.974050028826866	1.8905123	1.374959
32.992328736420035	1.9030119	1.3794969
33.010608307502444	1.9403775	1.3929744
33.02888874266169	1.9251904	1.3875123
33.047170042485604	1.9469734	1.3953398
33.06545220756225	2.0278132	1.424013
33.083735238479896	2.0156655	1.4197414
33.10201913582707	2.020966	1.4216069
33.12030390019248	2.0641267	1.4367069
33.138589532165135	2.0712461	1.4391824
33.15687603233419	1.9712254	1.4040034
33.17516340128909	1.9578422	1.3992292
33.19345163961947	1.9953886	1.4125823
33.211740747915215	2.0011983	1.4146372
33.23003072676643	1.8864692	1.373488
33.248321576763466	1.8183001	1.3484436
33.266613298496885	1.9486014	1.3959231
33.28490589255747	2.0394387	1.4280891
33.30319935953626	1.9856198	1.4091202
33.32149370002451	1.9640828	1.4014574
33.339788914613706	1.9499843	1.3964183
33.358085003895575	1.980246	1.4072121
33.376381968462034	1.9872619	1.4097028
33.39467980890529	1.9596704	1.3998823
33.41297852581774	1.8777744	1.3703191
33.43127811979204	1.8052355	1.3435905
33.44957859142105	1.8956066	1.3768103
33.467879941297866	1.9416496	1.3934308
33.486182170015844	1.9616274	1.4005811
33.50448527816853	2.0082603	1.417131
33.522789266349754	2.0625699	1.436165
33.541094135153514	2.065152	1.4370637
33.55939988517411	1.9834208	1.4083397
33.57770651700602	1.9026368	1.379361
33.59601403124398	1.8381041	1.355767
33.61432242848296	1.7897707	1.3378232
33.632631709318154	1.7996835	1.3415228
33.650941874344994	1.9224269	1.3865161
33.66925292415916	2.058458	1.4347328
33.68756485935654	2.025855	1.4233253
33.70587768053328	2.0156462	1.4197346
33.724191388285746	2.0345693	1.4263833
33.74250598321054	1.9682604	1.4029471
33.760821465904506	1.8895026	1.3745918
33.77913783696474	1.8411199	1.3568788
33.79745509698852	1.894126	1.3762726
33.815773246573414	1.9489145	1.3960353
33.8340922863172	1.872259	1.3683052
33.852412216817896	1.8034337	1.3429198
33.87073303867377	1.8302145	1.3528543
33.889054752483304	1.9190743	1.3853066
33.907377358845245	1.945935	1.3949678
33.92570085835853	1.9088788	1.3816218
33.94402525162239	1.8251828	1.3509933
33.96235053923627	1.818208	1.3484094
33.980676721799824	1.9388071	1.3924105
33.999003799912984	2.0276635	1.4239604
34.01733177417592	1.963613	1.4012898
34.03566064518901	1.9161158	1.3842384
34.0539904135529	1.9575261	1.3991162
34.07232107986846	1.9305248	1.3894333
34.090652644736785	1.905158	1.3802747
34.108985108759235	1.8698984	1.3674423
34.12731847253742	1.8741469	1.3689948
34.14565273667313	1.8277094	1.351928
34.16398790176847	1.8282603	1.3521317
34.18232396842574	1.8795623	1.3709713
34.20066093724749	1.8565294	1.3625451
34.21899880883651	1.8890841	1.3744396
34.23733758379583	1.9738268	1.4049294
34.25567726272874	2.0896924	1.4455768
34.27401784623872	1.9901937	1.4107423
34.29235933492957	2.015323	1.4196208
34.31070172940526	2.001113	1.414607
34.32904503027003	1.959522	1.3998293
34.347389238128386	1.9596783	1.399885
34.36573435358502	1.905448	1.3803797
34.38408037724492	1.782705	1.3351797
34.402427309713296	1.683192	1.2973789
34.42077515159559	1.7218488	1.3121924
34.43912390349752	1.844982	1.3583012
34.45747356602499	2.0170398	1.4202253
34.47582413978423	2.0721755	1.4395053
34.49417562538163	1.9205325	1.3858328
34.51252802342388	1.9187651	1.3851949
34.53088133451789	1.9598244	1.3999373
34.54923555927084	2.0820787	1.442941
34.567590698290104	2.1812756	1.4769142
34.58594675218336	2.1050706	1.4508861
34.6043037215585	2.0287082	1.4243273
34.62266160702365	2.0568874	1.4341853
34.641020409187234	2.0093927	1.4175305
34.65938012865785	1.9194409	1.3854389
34.677740766044394	1.9274368	1.3883216
34.69610232195598	1.9432596	1.3940085
34.714464797002016	1.946873	1.3953038
34.73282819179208	1.9643705	1.4015601
34.751192506936064	2.0048814	1.4159384
34.76955774304408	1.8490497	1.3597977
34.7879239007265	1.8885788	1.3742557
34.80629098059391	2.095752	1.4476712
34.824658983257194	2.0161471	1.4199109
34.843027909327446	1.7979817	1.3408884
34.86139775941603	1.8329196	1.3538536
34.879768534134534	2.0000248	1.4142224
34.89814023409483	2.0082283	1.4171197
34.91651285990901	2.006291	1.416436
34.93488641218944	1.9739428	1.4049708
34.95326089154871	1.9515471	1.3969779
34.97163629859967	1.9258293	1.3877425
34.99001263395542	1.9560488	1.3985882
35.00838989822934	1.9469332	1.3953254
35.02676809203499	1.9865397	1.4094466
35.04514721598624	2.1186008	1.4555414
35.063527270697215	2.0382042	1.4276569
35.081908256782256	1.8540827	1.361647
35.10029017485597	1.8518597	1.3608305
35.11867302553321	1.8273511	1.3517956
35.137056809429104	1.7534276	1.3241706
35.155441527159006	1.6452136	1.2826588
35.173827179338524	1.6157933	1.2711385
35.19221376658354	1.8096861	1.3452457
35.21060128951017	1.9248723	1.3873976
35.2289897487348	1.8574152	1.3628702
35.24737914487405	1.7170466	1.3103613
35.26576947854479	1.8168664	1.3479118
35.28416075036418	1.7848836	1.3359953
35.30255296094958	1.6898715	1.2999506
35.32094611091867	1.5351064	1.2389941
35.33934020088932	1.6569517	1.2872263
35.35773523147969	1.7296913	1.3151773
35.3761312033082	1.979025	1.4067782
35.394528116993506	2.4295278	1.5586942
35.41292597315452	2.6061103	1.6143452
35.431324772410434	2.6850836	1.6386225
35.449724515380666	2.6572762	1.6301154
35.46812520268491	2.5359592	1.5924696
35.486526834943106	1.8330225	1.3538916
35.504929412775454	1.8759558	1.3696554
35.52333293680242	2.0869544	1.4446294
35.54173740764471	2.3729525	1.540439
35.560142825923286	1.9529806	1.3974909
35.5785491922594	1.7779223	1.3333875
35.59695650727454	1.7045841	1.3055972
35.61536477159042	1.5382273	1.240253
