0.008763373481513119	0.051685803	0.22734512
0.026290120649546365	0.44298872	0.66557395
0.043816868432600686	0.37523568	0.61256486
0.06134361724069026	0.3568454	0.5973654
0.07887036748382949	0.28397307	0.5328912
0.0963971195720331	0.1821839	0.42683005
0.11392387391531617	0.1707538	0.41322368
0.1314506309236943	0.09796268	0.3129899
0.1489773910071836	0.08971569	0.29952577
0.16650415457580078	0.103966966	0.32243907
0.18403092203956356	0.10485669	0.32381582
0.20155769380849	0.12715322	0.3565855
0.2190844702925996	0.1733753	0.4163836
0.2366112519019124	0.16813791	0.41004622
0.2541380390464497	0.19955727	0.44671834
0.27166483213623416	0.1640986	0.40509087
0.28919163158128947	0.15309013	0.39126733
0.3067184377916406	0.12611985	0.35513356
0.324245251177314	0.13786872	0.37130678
0.34177207214833777	0.1463532	0.38256136
0.3592989011147415	0.16008523	0.40010652
0.37682573848655654	0.21753046	0.4664016
0.39435258467381573	0.25485268	0.50482935
0.41187944008655414	0.24443538	0.49440408
0.42940630513480854	0.22152789	0.47066748
0.446933180228618	0.22849971	0.47801644
0.4644600657780234	0.20753828	0.4555637
0.48198696219306775	0.16412687	0.40512574
0.49951386988379676	0.19424704	0.44073465
0.5170407892602581	0.16157028	0.40195805
0.5345677207325025	0.16211951	0.40264067
0.5520946647105822	0.14324155	0.37847266
0.5696216216045534	0.11688811	0.34188902
0.5871485918244737	0.11744742	0.34270602
0.6046755757804043	0.117484584	0.34276024
0.6222025738824094	0.1254174	0.35414317
0.6397295865405557	0.14228602	0.3772082
0.6572566141649129	0.12056418	0.34722352
0.6747836571655547	0.10116592	0.3180659
0.6923107159525568	0.14239179	0.37734836
0.7098377909359992	0.19086732	0.43688366
0.7273648825259653	0.21725576	0.466107
0.7448919911325411	0.19899046	0.4460835
0.762419117165817	0.16392261	0.40487358
0.7799462610358868	0.1343514	0.36653978
0.7974734231528482	0.12470099	0.35313028
0.8150006039268024	0.13554963	0.36817065
0.8325278037678551	0.14602233	0.3821287
0.8500550230861152	0.16455384	0.40565234
0.8675822622916969	0.19199917	0.4381771
0.8851095217947171	0.2144083	0.46304244
0.9026368020052984	0.2311839	0.48081586
0.9201641033335665	0.2400155	0.48991376
0.9376914261896523	0.2296511	0.47921926
0.9552187709836915	0.23516183	0.48493487
0.9727461381258234	0.2190116	0.46798676
0.990273528026193	0.20849116	0.45660833
1.0078009410949496	0.2099352	0.45818686
1.0253283777422473	0.21113239	0.45949146
1.0428558383782454	0.22281542	0.4720333
1.0603833234131086	0.21881324	0.46777478
1.0779108332570058	0.26865906	0.5183233
1.0954383683201119	0.30143884	0.5490345
1.112965929012607	0.32213116	0.567566
1.1304935157446763	0.42979398	0.6555867
1.1480211289265108	0.44690523	0.6685097
1.1655487689683062	1.3744178	1.1723557
1.1830764362802655	1.7330409	1.3164501
1.200604131272596	2.2079208	1.4859074
1.2181318543555117	2.6210144	1.6189547
1.235659605939232	2.6359148	1.62355
1.253187386433982	4.1092453	2.0271273
1.270715196249994	6.226691	2.495334
1.2882430357975057	11.366646	3.3714457
1.3057709054867608	15.9385	3.992305
1.3232988057280106	21.692558	4.657527
1.3408267369315112	26.929417	5.1893563
1.358354699507526	30.787706	5.548667
1.3758826938663256	34.93083	5.9102306
1.3934107204181858	36.883022	6.073139
1.410938779573391	37.49482	6.1233015
1.4284668717422309	38.13361	6.1752415
1.4459949973350033	38.082176	6.171076
1.4635231567620117	37.787357	6.1471424
1.4810513504335687	36.890034	6.0737166
1.4985795787599925	35.93236	5.994361
1.5161078421516088	35.555702	5.96286
1.5336361410187505	34.764706	5.89616
1.5511644757717598	34.86568	5.904717
1.5686928468209842	35.505882	5.958681
1.58622125457678	35.99656	5.9997134
1.6037496994495108	37.129253	6.093378
1.621278181849548	37.066734	6.0882454
1.6388067021872719	37.896774	6.1560354
1.6563352608730693	37.445465	6.11927
1.673863858317336	36.25824	6.0214815
1.6913924949304753	35.37579	5.947755
1.7089211711228998	34.36991	5.8625855
1.7264498873050296	33.586945	5.7954245
1.7439786438872935	32.65194	5.7141876
1.7615074412801288	31.69634	5.6299505
1.779036279893981	31.085218	5.575412
1.796565160139305	30.348803	5.5089746
1.814094082426564	29.513292	5.432614
1.8316230471662298	28.829212	5.369284
1.849152054768784	27.96717	5.2883997
1.8666811056447168	27.221497	5.2174225
1.8842102002045273	26.338621	5.132117
1.901739338858724	25.959093	5.0950065
1.9192685220178245	25.602354	5.059877
1.9367977500923557	25.044682	5.004466
1.9543270234928547	24.263004	4.9257493
1.971856342629867	23.456625	4.843204
1.9893857079139496	22.890516	4.7844033
2.006915119755667	22.517466	4.7452574
2.0244445785655945	22.08431	4.6993947
2.0419740847543175	21.599207	4.647495
2.0595036387324317	20.796597	4.5603285
2.0770332409105414	20.408905	4.5176215
2.094562891699263	20.007013	4.47292
2.1120925915092217	19.677847	4.4359717
2.129622340751053	19.277185	4.390579
2.1471521398354043	187.30214	13.685837
2.1646819891729323	443.71634	21.064575
2.182211889174303	440.1084	20.97876
2.1997418402501974	452.81497	21.27945
2.2172718428113023	432.79688	20.80377
2.234801897268317	320.67578	17.907423
2.2523320040319548	17.089685	4.1339674
2.269862163512935	16.687754	4.085065
2.287392376121992	16.314632	4.0391374
2.304922642269869	15.941805	3.992719
2.322452962367322	15.864557	3.9830337
2.3399833368251164	15.49138	3.935909
2.357513766054032	15.197546	3.898403
2.3750442504648586	14.770418	3.8432302
2.3925747904683963	14.441301	3.8001711
2.410105386475459	14.34339	3.787267
2.4276360388968707	14.172851	3.7646847
2.445166748143469	14.094304	3.7542381
2.4626975146261025	13.831414	3.719061
2.4802283387556323	13.524495	3.6775665
2.4977592209429305	13.158012	3.6273975
2.5152901615988825	12.837488	3.5829442
2.5328211611343865	12.737865	3.5690145
2.5503522199603523	12.588157	3.5479794
2.5678833384877024	12.388719	3.519761
2.5854145171273712	12.1417055	3.484495
2.6029457562903064	11.925859	3.4533837
2.620477056387469	11.886376	3.4476624
2.6380084178298326	11.608195	3.4070802
2.655539841028383	11.388083	3.3746235
2.673071326394119	11.126625	3.3356595
2.6906028743380523	10.985636	3.3144586
2.708134485271211	10.93837	3.3073206
2.7256661596046325	10.791926	3.2851067
2.743197897749369	10.479496	3.237205
2.760729700116486	10.360466	3.218768
2.778261567117063	10.145725	3.1852355
2.795793499162193	10.105006	3.1788373
2.8133254966629817	9.908776	3.147821
2.830857560030551	9.756315	3.1235101
2.8483896896760337	9.648408	3.1061885
2.865921886010578	9.447112	3.0736156
2.883454149445347	9.292517	3.048363
2.9009864803915177	9.07034	3.0117006
2.91851887926028	8.811241	2.9683735
2.9360513464628384	8.65765	2.9423885
2.953583882410413	8.638717	2.9391694
2.9711164875142373	8.707642	2.9508712
2.9886491621855606	8.86936	2.978147
3.0061819068356455	8.744254	2.9570684
3.023714721875769	8.608426	2.934012
3.041247607717225	8.371641	2.8933787
3.0587805647713213	8.16458	2.857373
3.0763135934493806	8.014211	2.830938
3.0938466941627407	8.10525	2.8469722
3.1113798673227544	8.147702	2.854418
3.1289131133407904	8.009581	2.8301203
3.1464464326282315	7.798924	2.7926555
3.1639798255964786	7.6303816	2.7623146
3.1815132926569443	7.5720325	2.7517326
3.1990468342210603	7.5944653	2.7558057
3.216580450700272	7.5157747	2.7414913
3.2341141425060416	7.4615607	2.7315857
3.251647910049847	7.267069	2.6957502
3.2691817537431813	7.2113047	2.6853871
3.286715673997555	7.0966635	2.6639564
3.3042496712244938	6.9744773	2.6409235
3.32178374583554	6.8425274	2.6158226
3.339317898242251	6.7812567	2.6040847
3.3568521288562034	6.752335	2.5985255
3.3743864380889876	6.786476	2.6050866
3.3919208263522127	6.6531005	2.5793605
3.4094552940575023	6.442867	2.5382802
3.4269898416164972	6.3491797	2.519758
3.444524469440858	6.409419	2.531683
3.4620591779422587	6.562581	2.5617535
3.479593967532391	6.6248994	2.573888
3.4971288386229658	6.651479	2.579046
3.5146637916257086	6.5274243	2.5548825
3.5321988269523628	6.334035	2.5167508
3.5497339450146903	6.1648836	2.4829183
3.5672691462244708	6.19641	2.489259
3.5848044309934988	6.28369	2.506729
3.60233979973359	6.2734265	2.5046809
3.619875252856575	6.3005996	2.5100994
3.6374107907743034	6.2545342	2.5009067
3.6549464138986427	6.3463125	2.519189
3.6724821226414788	6.292247	2.5084352
3.690017917414714	6.2293425	2.495865
3.7075537986302702	6.292011	2.508388
3.7250897667000857	6.3270245	2.5153577
3.7426258220361235	6.5010085	2.5497077
3.7601619650503553	6.742018	2.5965397
3.777698196154779	7.1879187	2.6810293
3.7952345157614067	8.100119	2.8460708
3.8127709242822716	8.888462	2.9813523
3.830307422129425	11.03524	3.3219333
3.847844009714936	29.944128	5.4721227
3.8653806874508954	97.57015	9.877761
3.882917455749409	96.9818	9.847934
3.900454315022606	96.79342	9.838365
3.917991265682631	41.372555	6.43215
3.9355283081416506	10.837591	3.2920496
3.9530654428118495	8.633395	2.938264
3.970602670105433	7.4630957	2.7318666
3.9881399904346244	6.5293436	2.555258
4.005677404211669	6.426121	2.5349796
4.023214911848827	6.336787	2.5172975
4.0407525137583855	6.303453	2.5106678
4.058290210352644	6.309612	2.511894
4.075828002043927	6.222077	2.494409
4.0933658892445814	6.1519656	2.4803157
4.110903872366966	6.0758486	2.4649236
4.128441951823468	6.090112	2.4678152
4.145980128026488	6.0890384	2.4675977
4.163518401388452	6.1237426	2.4746196
4.181056772321807	6.078244	2.4654095
4.1985952412390155	6.093628	2.4685276
4.216133808552567	6.1782203	2.4856026
4.233672474674966	6.266455	2.503289
4.251211240018741	6.4770184	2.5449986
4.268750104996445	6.629637	2.5748081
4.286289070020643	7.52208	2.742641
4.303828135503928	9.120663	3.0200434
4.3213673018589125	29.306494	5.413547
4.3389065694982305	90.44163	9.51008
4.356445938834537	165.73637	12.873864
4.3739854102805085	171.74213	13.105042
4.391524984248844	172.72379	13.142442
4.409064661152262	136.71567	11.692548
4.426604441403504	96.712685	9.834261
4.444144325415337	75.33692	8.679685
4.461684313600543	21.224092	4.6069613
4.47922440637193	21.653881	4.6533732
4.496764604142329	20.06865	4.4798045
4.5143049073245916	18.550829	4.3070674
4.531845316331589	16.382942	4.0475845
4.5493858315762195	13.677527	3.6983142
4.566926453471405	11.25477	3.354813
4.584467182430081	9.414084	3.068238
4.602008018865218	8.265096	2.874908
4.619548963189798	7.4929023	2.7373166
4.637090015816834	6.9776864	2.641531
4.654631177159353	6.744665	2.5970492
4.672172447630417	6.4124737	2.5322862
4.689713827643102	6.209502	2.4918873
4.7072553176105085	6.0244946	2.4544847
4.724796917945764	5.9753184	2.4444466
4.742338629062015	5.948759	2.4390078
4.759880451372434	5.789895	2.40622
4.777422385290215	5.6526074	2.3775213
4.794964431228581	5.60706	2.367923
4.812506589600768	5.5697184	2.3600252
4.830048860820047	5.515305	2.3484685
4.847591245299709	5.428682	2.3299532
4.8651337434530655	5.3942375	2.3225498
4.882676355693457	5.3994064	2.3236623
4.900219082434242	5.374265	2.3182461
4.917761924088813	5.4285183	2.3299181
4.935304881070575	5.538038	2.3533037
4.952847953792969	5.577468	2.3616664
4.970391142669449	5.44673	2.333823
4.9879344481135055	5.3453255	2.311996
5.005477870538642	5.4151835	2.3270547
5.023021410358394	5.4979525	2.3447714
5.040565067986324	5.5621505	2.358421
5.05810884383601	5.47897	2.34072
5.075652738321066	5.4094286	2.3258178
5.09319675185512	5.3982377	2.3234107
5.110740884851836	5.4154277	2.3271072
5.128285137724894	5.4256573	2.329304
5.145829510888007	5.3779664	2.3190444
5.163374004754908	5.3369927	2.3101933
5.1809186197393595	5.292261	2.3004916
5.198463356255145	5.2179594	2.2842853
5.216008214716077	5.236235	2.2882822
5.233553195535998	5.2389984	2.2888858
5.251098299128764	5.2434273	2.289853
5.268643525908272	5.1360993	2.2662964
5.286188876288432	5.077745	2.2533853
5.3037343506831895	5.125187	2.2638876
5.32127994950651	5.241488	2.2894297
5.3388256731723915	5.289097	2.2998037
5.356371522094851	5.285558	2.299034
5.373917496687938	5.1937823	2.2789872
5.391463597365729	5.088435	2.255756
5.40900982454232	5.026347	2.2419517
5.426556178631843	5.0382724	2.2446096
5.444102660048449	5.011998	2.2387493
5.4616492692063225	5.0463924	2.2464178
5.479196006519669	5.082537	2.2544484
5.496742872402727	5.154821	2.2704232
5.514289867269756	5.155	2.2704625
5.531836991535049	5.072386	2.2521958
5.549384245612924	5.028425	2.242415
5.566931629917724	5.0419135	2.2454205
5.584479144863822	5.134359	2.2659123
5.6020267908656205	5.202347	2.2808654
5.619574568337545	5.2079453	2.2820923
5.637122477694054	5.138786	2.266889
5.654670519349629	5.0962462	2.2574868
5.672218693718784	5.0731173	2.2523582
5.689767001216059	5.1131444	2.2612264
5.707315442256021	5.1489882	2.269138
5.724864017253266	5.1650314	2.2726705
5.7424127266224225	5.1930437	2.278825
5.75996157077814	5.2097335	2.282484
5.777510550135105	5.167717	2.2732613
5.795059665108022	5.128859	2.2646985
5.812608916111639	5.0755925	2.2529075
5.830158303560715	5.220227	2.2847815
5.847707827870055	5.2264276	2.286138
5.86525748945448	5.3275747	2.3081539
5.8828072887288485	5.4281354	2.329836
5.900357226108044	5.5124946	2.34787
5.917907302006979	5.542739	2.3543022
5.9354575168406	6.0430627	2.458264
5.9530078710238765	6.5585103	2.5609589
5.970558364971812	7.0314655	2.651691
5.988108999099438	7.4192495	2.72383
6.005659773821818	7.880322	2.8071911
6.023210689554039	7.780051	2.7892742
6.040761746711227	8.165734	2.857575
6.058312945708531	7.6298895	2.7622254
6.075864286961132	7.2436295	2.691399
6.093415770884244	6.517633	2.5529656
6.1109673978931065	5.9772663	2.444845
6.128519168402993	5.389246	2.321475
6.146071082829204	5.281185	2.2980828
6.163623141587075	5.1829333	2.2766056
6.181175345091969	5.113795	2.2613702
6.198727693759281	5.1226754	2.2633328
6.216280188004435	5.106373	2.2597284
6.233832828242885	5.1088657	2.2602801
6.251385614890126	5.160684	2.271714
6.268938548361669	5.14334	2.2678933
6.286491629073067	5.141294	2.2674422
6.304044857439898	5.1371117	2.2665198
6.321598233877777	5.10461	2.2593384
6.339151758802344	5.006121	2.2374363
6.356705432629277	4.9560924	2.2262282
6.37425925577428	4.887761	2.210828
6.391813228653095	4.888313	2.210953
6.409367351681486	4.9140368	2.2167628
6.426921625275259	4.91605	2.2172167
6.44447604985025	4.8975024	2.21303
6.46203062582232	4.8429756	2.2006762
6.47958535360737	4.8904266	2.2114308
6.497140233621328	4.9373884	2.2220235
6.514695266280161	4.9619985	2.2275543
6.532250451999859	4.96418	2.228044
6.549805791196454	4.9145637	2.2168815
6.567361284286002	4.8908505	2.2115266
6.584916931684597	4.8858166	2.2103884
6.602472733808367	4.889388	2.2111962
6.6200286910734665	4.905454	2.214826
6.637584803896092	4.878378	2.208705
6.655141072692462	4.863968	2.2054405
6.672697497878842	4.9254503	2.2193356
6.690254079871514	5.010708	2.238461
6.707810819086808	5.065493	2.250665
6.725367715941078	4.9960723	2.2351894
6.742924770850719	4.928801	2.2200904
6.760481984232151	4.907556	2.2153006
6.778039356501836	4.896699	2.2128487
6.795596888076266	4.9142075	2.2168012
6.813154579371963	4.9085875	2.2155333
6.830712430805492	4.8621287	2.2050235
6.84827044279344	4.825454	2.1966918
6.865828615752445	4.830833	2.1979156
6.883386950099159	4.8289423	2.1974854
6.900945446250287	4.917285	2.2174952
6.918504104622553	5.010636	2.238445
6.936062925632727	5.0965576	2.2575557
6.953621909697607	5.0579047	2.2489786
6.971181057234028	5.0275903	2.2422287
6.988740368658859	5.0674295	2.2510953
7.006299844389007	5.172522	2.274318
7.023859484841407	5.24943	2.2911634
7.041419290433036	5.3199396	2.3064995
7.058979261580902	5.4038334	2.3246148
7.0765393987020495	5.6304736	2.3728619
7.094099702213559	5.9732537	2.444024
7.111660172532549	6.3260508	2.5151641
7.129220810076164	6.689668	2.5864394
7.146781615261595	7.371308	2.7150152
7.16434258850606	7.5564075	2.748892
7.181903730226821	8.0323515	2.8341403
7.1994650408411704	8.146222	2.8541586
7.217026520766437	8.248168	2.8719623
7.234588170419983	8.511669	2.9174764
7.252149990219215	8.435024	2.9043114
7.269711980581568	8.358599	2.891124
7.2872741419245175	8.151833	2.8551414
7.304836474665574	7.7347417	2.7811403
7.322398979222286	7.419174	2.7238162
7.339961656012233	7.107099	2.6659143
7.357524505453039	6.7623444	2.6004508
7.375087527962357	6.5075626	2.5509925
7.392650723957886	6.289103	2.5078084
7.410214093857353	5.9762044	2.4446278
7.427777638078528	5.7466598	2.3972192
7.445341357039213	5.5062647	2.346543
7.4629052511572525	5.2942076	2.3009145
7.480469320850524	5.205633	2.2815857
7.498033566536948	5.251791	2.2916787
7.5155979886344735	5.261407	2.2937758
7.5331625875610975	5.1823277	2.2764726
7.550727363734844	5.101728	2.2587006
7.568292317573788	5.0845246	2.254889
7.585857449496025	5.117927	2.2622836
7.603422759919705	5.162812	2.2721822
7.620988249263007	5.1944394	2.2791312
7.638553917944147	5.2296343	2.2868392
7.656119766381391	5.196464	2.2795753
7.673685794993023	5.1768947	2.275279
7.691252004197388	5.162789	2.2721772
7.70881839441285	5.200797	2.2805257
7.726384966057826	5.2254715	2.285929
7.743951719550762	5.2009306	2.2805548
7.761518655310149	5.148422	2.2690134
7.779085773754511	5.1259356	2.2640529
7.796653075302419	5.147902	2.268899
7.814220560372475	5.186241	2.277332
7.831788229383323	5.234924	2.2879956
7.8493560827536495	5.2424297	2.2896352
7.866924120902174	5.259497	2.2933593
7.884492344247663	5.2634516	2.2942214
7.9020607532089135	5.301639	2.3025289
7.919629348204771	5.3141146	2.3052363
7.937198129654115	5.4371524	2.3317702
7.954767097975865	5.440699	2.3325307
7.972336253588986	5.422063	2.3285325
7.989905596912472	5.3079634	2.3039017
8.007475128365371	5.2205486	2.284852
8.025044848366756	5.246135	2.2904444
8.042614757335754	5.3840685	2.3203595
8.060184855691523	5.4896145	2.3429925
8.07775514385327	5.697938	2.3870354
8.095325622240228	5.7502604	2.39797
8.112896291271687	5.815308	2.411495
8.130467151366968	5.8786645	2.4245958
8.148038202945436	5.9146905	2.4320138
8.165609446426497	5.9207463	2.4332583
8.183180882229594	5.968446	2.4430404
8.200752510774217	5.9646015	2.4422534
8.218324332479893	5.946839	2.4386141
8.235896347766193	5.928438	2.4348385
8.253468557052724	5.9980516	2.449092
8.27104096075914	6.032458	2.4561062
8.288613559305137	6.081575	2.466085
8.306186353110448	6.1151485	2.4728827
8.32375934259485	6.1649194	2.4829257
8.341332528178162	6.2309465	2.4961865
8.358905910280246	6.2734423	2.504684
8.376479489321003	6.1995516	2.4898899
8.394053265720377	6.2325673	2.496511
8.411627239898356	6.193918	2.4887583
8.42920141227497	6.2591405	2.5018275
8.44677578327029	6.2170014	2.4933915
8.464350353304427	6.170062	2.4839609
8.48192512279754	6.1285915	2.4755993
8.499500092169827	6.1022277	2.4702687
8.51707526184153	6.1068907	2.4712124
8.534650632232934	6.0853043	2.466841
8.552226203764365	6.0828724	2.466348
8.569801976856192	6.0925	2.4682992
8.587377951928834	6.170664	2.484082
8.60495412940274	6.2064867	2.4912822
8.622530509698416	6.19461	2.4888973
8.6401070932364	6.312791	2.5125268
8.657683880437283	6.4265766	2.5350695
8.675260871721695	6.6199813	2.5729325
8.692838067510303	6.782487	2.6043208
8.710415468223834	6.952482	2.636756
8.727993074283043	7.1449137	2.6729972
8.745570886108737	7.140806	2.6722288
8.763148904121765	7.166707	2.6770706
8.78072712874302	7.108672	2.6662092
8.798305560393441	7.329576	2.707319
8.815884199494006	7.4031725	2.7208772
8.833463046465745	7.676472	2.7706447
8.851042101729728	7.8534875	2.8024075
8.86862136570707	8.153284	2.8553956
8.886200838818924	8.269836	2.8757324
8.903780521486505	8.283967	2.8781881
8.921360414131055	8.401327	2.8985043
8.938940517173874	8.550212	2.9240746
8.956520831036297	8.749769	2.958001
8.97410135613971	9.001441	3.00024
8.99168209290554	9.101088	3.0168009
9.009263041755265	9.372659	3.0614798
9.026844203110405	9.615657	3.1009123
9.044425577392525	9.774393	3.1264026
9.062007165023239	9.831736	3.1355598
9.079588966424197	10.031417	3.167241
9.097170982017108	10.161442	3.1877017
9.11475321222372	11.031569	3.3213806
9.132335657465825	11.842242	3.4412558
9.149918318165264	11.9697	3.4597254
9.167501194743924	12.380722	3.518625
9.18508428762374	12.110661	3.4800375
9.202667597226693	12.063483	3.4732525
9.220251123974803	11.866849	3.4448292
9.237834868290143	11.638686	3.411552
9.255418830594836	11.321308	3.364715
9.273003011311046	10.787162	3.2843814
9.290587410860985	10.552081	3.2483966
9.308172029666911	10.003571	3.1628423
9.32575686815113	9.730704	3.1194077
9.343341926735997	8.65014	2.941112
9.360927205843916	8.421741	2.9020236
9.378512705897327	8.3168	2.8838863
9.396098427318728	8.128682	2.8510845
9.413684370530664	8.068291	2.8404737
9.431270535955722	7.9533033	2.8201602
9.448856924016539	7.861544	2.8038445
9.466443535135806	7.698913	2.7746916
9.484030369736251	7.7050533	2.7757978
9.501617428240658	7.7367873	2.7815082
9.519204711071852	7.759651	2.785615
9.536792218652714	7.7552958	2.7848332
9.55437995140617	7.753132	2.7844446
9.571967909755191	7.7755084	2.7884598
9.589556094122802	7.8400435	2.8000078
9.60714450493207	7.899463	2.8105984
9.624733142606116	7.909013	2.8122966
9.642322007568108	7.8721366	2.8057327
9.659911100241267	7.840854	2.8001525
9.677500421048851	7.8961897	2.810016
9.695089970414175	7.927141	2.815518
9.712679748760609	7.952347	2.8199906
9.730269756511557	7.9975095	2.8279867
9.747859994090492	8.0243635	2.8327308
9.765450461920915	8.01353	2.830818
9.78304116042639	8.064082	2.8397326
9.800632090030527	8.038168	2.8351662
9.81822325115699	8.064493	2.8398051
9.835814644229481	8.097135	2.8455465
9.853406269671762	8.138406	2.8527892
9.870998127907646	8.21579	2.86632
9.888590219360985	8.227615	2.868382
9.906182544455698	8.207838	2.8649325
9.923775103615734	8.139355	2.8529553
9.941367897265108	8.113718	2.848459
9.958960925827878	8.142024	2.853423
9.97655418972816	8.1811	2.8602622
9.994147689390106	8.182032	2.860425
10.011741425237934	8.211796	2.865623
10.029335397695904	8.261528	2.8742874
10.04692960718833	8.263318	2.8745987
10.06452405413958	8.266975	2.8752348
10.082118738974064	8.292086	2.8795981
10.099713662116246	8.346445	2.8890214
10.117308823990651	8.317569	2.8840196
10.134904225021844	8.23321	2.869357
10.152499865634445	8.084076	2.843251
10.170095746253125	8.014355	2.8309636
10.18769186730261	8.070721	2.8409014
10.205288229207675	8.082789	2.8430247
10.222884832393145	8.021866	2.83229
10.2404816772839	7.927795	2.815634
10.258078764304868	7.837682	2.799586
10.275676093881035	7.8970556	2.81017
10.293273666437438	8.022417	2.8323872
10.310871482399158	8.106317	2.8471594
10.32846954219134	8.13106	2.8515012
10.346067846239173	8.104013	2.8467548
10.363666394967908	8.069947	2.8407652
10.38126518880283	8.010184	2.830227
10.398864228169298	7.993016	2.8271923
10.416463513492713	8.039789	2.8354523
10.434063045198531	8.046241	2.8365896
10.451662823712262	8.037367	2.835025
10.469262849459467	8.0776615	2.8421228
10.486863122865758	8.052519	2.837696
10.504463644356806	8.054468	2.8380394
10.522064414358338	7.9528003	2.820071
10.539665433296118	7.876107	2.8064404
10.557266701595987	7.851079	2.8019776
10.574868219683818	7.7903657	2.7911227
10.592469987985552	7.688325	2.7727828
10.610072006927185	7.5217576	2.7425823
10.627674276934751	7.409181	2.721981
10.64527679843435	7.2374916	2.6902587
10.662879571852143	7.1063905	2.6657815
10.680482597614331	6.9999857	2.6457486
10.698085876147173	6.918152	2.630238
10.715689407876988	6.8967376	2.626164
10.733293193230146	6.838693	2.6150894
10.750897232633072	6.805646	2.6087632
10.76850152651225	6.688602	2.5862331
10.786106075294207	6.6300936	2.5748968
10.803710879405534	6.554896	2.5602531
10.821315939272877	6.426318	2.5350184
10.83892125532294	6.2575974	2.501519
10.856526827982472	6.156447	2.4812188
10.874132657678285	6.150654	2.4800513
10.891738744837243	6.17212	2.4843752
10.909345089886271	6.17396	2.4847455
10.926951693252343	6.0945053	2.4687052
10.944558555362494	5.976186	2.444624
10.96216567664381	5.8826447	2.4254165
10.979773057523436	5.80821	2.4100227
10.997380698428573	5.7403054	2.3958933
11.014988599786477	5.6373105	2.3743021
11.032596762024461	5.5983863	2.366091
11.050205185569892	5.5373325	2.3531537
11.067813870850198	5.4914308	2.3433802
11.085422818292859	5.3986974	2.3235097
11.10303202832541	5.3168526	2.3058302
11.120641501375454	5.2819395	2.298247
11.138251237870636	5.208728	2.2822638
11.155861238238671	5.1915283	2.2784925
11.173471502907317	5.167042	2.2731128
11.191082032304402	5.1743946	2.2747295
11.208692826857805	5.1143613	2.2614954
11.226303886995465	5.010946	2.2385142
11.243915213145371	4.9339256	2.221244
11.261526805735578	4.9001307	2.213624
11.279138665194196	4.8643594	2.2055292
11.296750791949393	4.826596	2.1969514
11.314363186429393	4.7621036	2.1822245
11.331975849062479	4.6919622	2.1660938
11.34958878027699	4.5853386	2.1413403
11.36720198050133	4.5386996	2.1304224
11.384815450163948	4.443546	2.107972
11.402429189693366	4.4484453	2.1091337
11.420043199518153	4.418121	2.1019328
11.437657480066942	63.374065	7.960783
11.455272031768422	85.08144	9.22396
11.472886855051353	107.49153	10.367812
11.490501950344528	99.11943	9.955874
11.508117318076819	84.47778	9.191179
11.52573295867715	45.84486	6.770883
11.543348872574514	4.1198816	2.0297492
11.560965060197946	4.0934	2.0232153
11.57858152197655	4.082619	2.0205493
11.59619825833949	4.03237	2.0080762
11.613815269715985	3.93302	1.9831843
11.631432556535323	38.41241	6.197775
11.649050119226837	82.96704	9.108624
11.666667958219929	93.421616	9.665485
11.68428607394406	107.66415	10.376134
11.701904466828756	82.49447	9.082646
11.719523137303586	65.37792	8.085662
11.737142085798196	4.621937	2.149869
11.754761312742286	3.7171729	1.9279971
11.772380818565619	3.6107259	1.9001911
11.790000603698015	3.5863717	1.8937718
11.80762066856935	3.5390968	1.8812487
11.825241013609572	3.5023227	1.8714494
11.842861639248683	3.4549987	1.8587627
11.860482545916748	3.4567633	1.8592373
11.878103734043883	3.4366264	1.853814
11.895725204060282	3.4445784	1.8559575
11.91334695639619	3.4357545	1.8535788
11.930968991481919	3.421611	1.8497597
11.948591309747824	3.3577716	1.8324224
11.966213911624347	3.3371108	1.826776
11.98383679754198	3.3354979	1.8263346
12.001459967931268	3.3110402	1.8196263
12.019083423222835	3.2646196	1.8068259
12.036707163847352	3.1861496	1.7849789
12.05433119023556	3.179419	1.7830925
12.071955502818259	3.1309853	1.769459
12.089580102026313	3.1704452	1.7805744
12.107204988290643	3.140252	1.7720757
12.12483016204224	3.1346283	1.7704881
12.142455623712152	3.0683558	1.7516723
12.16008137373149	3.0180616	1.7372569
12.177707412531431	3.0451932	1.7450482
12.19533374054321	3.0652287	1.7507795
12.212960358198126	3.0588238	1.7489493
12.230587265927545	3.0706074	1.7523149
12.248214464162889	3.0391378	1.7433124
12.265841953335649	3.0409136	1.7438215
12.283469733877375	3.0119069	1.7354846
12.301097806219685	2.9384537	1.7141918
12.31872617079425	2.8907928	1.7002332
12.336354828032825	2.8981502	1.7023954
12.353983778367205	2.886993	1.6991154
12.371613022229262	2.8546364	1.689567
12.389242560050928	2.8432803	1.6862029
12.406872392264201	2.8491342	1.6879379
12.424502519301143	2.8855865	1.6987014
12.442132941593874	2.8886676	1.6996081
12.459763659574586	2.8501527	1.6882396
12.477394673675532	2.8106272	1.6764926
12.49502598432903	2.8167827	1.6783273
12.51265759196746	2.8209338	1.6795635
12.530289497023267	2.8080742	1.675731
12.547921699928967	2.7932503	1.671302
12.565554201117134	2.7815828	1.6678078
12.583187001020404	2.8062754	1.6751941
12.600820100071486	2.8137968	1.6774375
12.618453498703152	2.7949038	1.6717966
12.636087197348235	2.7542903	1.6596055
12.65372119643964	2.7476923	1.6576165
12.671355496410326	2.791011	1.6706319
12.68899009769333	2.8287728	1.6818956
12.706625000721749	2.843676	1.6863203
12.724260205928752	2.8904338	1.7001276
12.741895713747551	2.9136305	1.706936
12.759531524611454	2.9616978	1.7209584
12.777167638953818	2.9880292	1.7285917
12.794804057208072	3.014735	1.7362993
12.812440779807702	3.0343428	1.7419364
12.830077807186271	3.1723793	1.7811174
12.847715139777405	3.2168453	1.7935566
12.865352778014795	3.3980346	1.8433759
12.882990722332197	3.502783	1.8715724
12.90062897316344	3.5943344	1.895873
12.918267530942412	3.6859307	1.9198778
12.935906396103071	3.588342	1.894292
12.953545569079449	3.7101767	1.9261819
12.971185050305628	3.5056224	1.8723308
12.988824840215775	3.5034688	1.8717555
13.006464939244115	3.497605	1.8701885
13.024105347824943	3.3503585	1.8303984
13.041746066392617	3.444122	1.8558346
13.05938709538157	3.2630033	1.8063785
13.077028435226296	3.2646308	1.806829
13.094670086361363	3.1860783	1.784959
13.112312049221401	3.0972402	1.7598978
13.129954324241112	3.0260904	1.7395662
13.147596911855258	2.8588216	1.6908051
13.165239812498685	2.8431604	1.6861674
13.182883026606293	2.768951	1.6640165
13.200526554613058	2.7340403	1.6534934
13.218170396954017	2.7011204	1.6435086
13.235814554064284	2.6951892	1.6417031
13.253459026379034	2.6577883	1.6302725
13.271103814333523	2.5997944	1.6123878
13.288748918363058	2.6027868	1.6133155
13.306394338903031	2.622047	1.6192735
13.32404007638889	2.6203349	1.6187449
13.341686131256164	2.6250722	1.6202074
13.359332503940449	2.6028404	1.613332
13.376979194877402	2.5912266	1.6097287
13.394626204502751	2.6253574	1.6202954
13.412273533252307	2.6527972	1.628741
13.429921181561937	2.6934884	1.641185
13.447569149867581	2.7275004	1.6515145
13.465217438605247	2.7618551	1.661883
13.482866048211022	2.7251976	1.6508173
13.500514979121052	2.7424605	1.6560376
13.518164231771568	2.7005022	1.6433204
13.535813806598844	2.6802294	1.6371406
13.553463704039254	2.6680977	1.6334313
13.571113924529229	2.6760235	1.6358556
13.588764468505275	2.6770105	1.6361573
13.606415336403956	2.6482897	1.6273566
13.624066528661917	2.627915	1.6210845
13.641718045715882	2.6988091	1.6428052
13.659369888002635	2.7500532	1.6583284
13.67702205595903	2.823596	1.6803559
13.694674550021993	2.8933535	1.700986
13.712327370628532	2.963677	1.7215333
13.729980518215713	3.0575926	1.7485974
13.747633993220681	3.0940065	1.7589788
13.765287796080647	3.1048522	1.7620591
13.7829419272329	3.1449413	1.7733983
13.800596387114801	3.192849	1.7868545
13.818251176163775	3.2412856	1.8003571
13.835906294817324	3.2939591	1.8149267
13.853561743513023	3.305709	1.8181609
13.871217522688525	3.3291056	1.8245836
13.888873632781538	3.3843968	1.839673
13.906530074229858	3.446365	1.8564389
13.92418684747135	3.4850419	1.8668267
13.941843952943948	3.4454875	1.8562025
13.959501391085665	3.4244792	1.8505348
13.977159162334578	3.3251536	1.8235004
13.994817267128846	3.3143222	1.820528
14.012475705906693	3.2339225	1.798311
14.030134479106424	3.1560733	1.7765341
14.047793587166414	3.090707	1.7580407
14.065453030525108	3.0429127	1.7443947
14.083112809621026	2.9902656	1.7292384
14.100772924892766	2.9069328	1.704973
14.118433376778997	2.8561797	1.6900235
14.136094165718458	2.8184512	1.6788243
14.153755292149969	2.784726	1.6687498
14.171416756512416	2.764691	1.662736
14.189078559244768	2.6689103	1.63368
14.20674070078606	2.5976093	1.6117101
14.224403181575408	2.5165968	1.5863786
14.242066002051999	2.4975693	1.58037
14.259729162655093	2.468069	1.5710089
14.277392663824022	2.4274292	1.558021
14.295056505998208	2.4012637	1.5496012
14.312720689617128	2.368981	1.5391494
14.330385215120348	2.3591058	1.5359381
14.348050082947497	2.303784	1.5178221
14.3657152935383	2.3166351	1.5220497
14.383380847332528	2.3277133	1.5256845
14.401046744770051	2.3669884	1.538502
14.418712986290798	2.3710105	1.5398086
14.436379572334793	2.395124	1.5476187
14.454046503342123	2.4065964	1.5513209
14.471713779752946	2.4456477	1.5638567
14.489381402007504	2.434926	1.5604249
14.507049370546113	2.4002347	1.5492691
14.524717685809168	2.3342075	1.5278114
14.542386348237134	2.324522	1.5246383
14.560055358270553	2.3225248	1.5239832
14.577724716350051	2.3639617	1.537518
14.595394422916325	2.4008448	1.549466
14.61306447841015	2.500632	1.5813386
14.63073488327237	2.514738	1.5857925
14.648405637943917	2.5009618	1.581443
14.6660767428658	2.4607086	1.5686646
14.683748198479094	2.4868324	1.5769694
14.701420005224954	2.5705588	1.6032963
14.719092163544628	2.639304	1.6245935
14.73676467387942	2.680435	1.6372033
14.754437536670727	2.682723	1.637902
14.772110752360014	2.6826196	1.6378704
14.78978432138882	2.6126647	1.6163739
14.807458244198777	2.5825155	1.6070207
14.82513252123159	2.572788	1.6039913
14.842807152929028	2.6359487	1.6235604
14.860482139732962	2.7185686	1.6488082
14.87815748208531	2.708025	1.6456078
14.8958331804281	2.7134328	1.64725
14.91350923520342	2.633024	1.6226596
14.931185646853438	2.6186745	1.6182319
14.948862415820408	2.594412	1.6107179
14.966539542546656	2.6363611	1.6236875
14.98421702747459	2.6441631	1.6260883
15.001894871046696	2.6455142	1.6265037
15.019573073705542	2.6361413	1.6236198
15.037251635893766	2.6261485	1.6205395
15.054930558054092	2.680925	1.6373531
15.072609840629323	2.7448003	1.6567439
15.090289484062351	2.8895416	1.6998652
15.107969488796124	3.166422	1.7794442
15.125649855273691	3.578499	1.8916922
15.14333058393817	4.0965962	2.024005
15.161011675232768	5.0297384	2.2427077
15.17869312960076	6.4568195	2.5410273
15.196374947485506	8.266947	2.8752298
15.214057129330447	11.246329	3.3535547
15.231739675579114	15.756395	3.9694326
15.249422586675102	20.455015	4.5227222
15.267105863062092	23.336859	4.830824
15.284789505183847	23.41758	4.8391714
15.302473513484218	21.241966	4.6089005
15.320157888407127	17.81736	4.2210617
15.337842630396578	13.882497	3.7259223
15.355527739896656	10.877686	3.2981336
15.37321321735153	8.542802	2.9228072
15.39089906320545	6.414994	2.5327837
15.408585277902748	4.8944736	2.2123456
15.42627186188783	3.7946308	1.9479812
15.443958815605198	3.2121263	1.7922406
15.461646139499424	2.9055276	1.7045609
15.479333834015168	2.7645164	1.6626835
15.497021899597165	2.720013	1.6492462
15.514710336690234	2.6654432	1.6326185
15.53239914573928	2.606614	1.6145012
15.550088327189297	2.5577245	1.5992887
15.567777881485336	2.5228853	1.5883594
15.58546780907256	2.460058	1.5684572
15.6031581103962	2.417115	1.5547074
15.620848785901568	2.3747613	1.5410261
15.638539836034063	2.3852375	1.5444214
15.656231261239173	2.401847	1.5497893
15.673923061962451	2.4046714	1.5507003
15.691615238649552	2.39529	1.5476724
15.709307791746202	2.3883474	1.5454279
15.727000721698221	2.4012952	1.5496113
15.744694028951498	2.392658	1.546822
15.76238771395202	2.396526	1.5480717
15.780081777145844	2.3880577	1.5453342
15.797776218979125	2.3546567	1.534489
15.815471039898094	2.335772	1.5283233
15.833166240349064	2.3367841	1.5286543
15.850861820778437	2.3397346	1.5296191
15.868557781632699	2.3288274	1.5260496
15.886254123358412	2.2980714	1.5159391
15.903950846402232	2.3153312	1.5216212
15.921647951210897	2.32407	1.5244901
15.939345438231225	2.3538218	1.534217
15.957043307910133	2.3622754	1.5369695
15.974741560694602	2.3449569	1.5313252
15.992440197031714	2.3430521	1.5307032
16.01013921736862	2.3463771	1.5317888
16.02783862215259	2.3405387	1.529882
16.045538411830933	2.3584588	1.5357274
16.06323858685107	2.3392296	1.529454
16.080939147660512	2.3537257	1.5341856
16.09864009470684	2.3489785	1.5326377
16.11634142843774	2.3485026	1.5324825
16.134043149300954	2.3944814	1.5474112
16.15174525774433	2.3961592	1.5479532
16.169447754215817	2.415265	1.5541123
16.18715063916342	2.3909612	1.5462734
16.204853913035244	2.3954449	1.5477225
16.222557576279478	2.3936088	1.5471293
16.240261629344403	22.38653	4.7314405
16.257966072678386	42.931202	6.552191
16.275670906729868	38.058018	6.169118
16.293376131947387	2.494435	1.579378
16.31108174877957	2.542666	1.5945739
16.328787757675133	2.5701709	1.6031753
16.34649415908287	2.5705757	1.6033015
16.364200953451657	2.5732555	1.6041371
16.38190814123048	2.591233	1.6097307
16.39961572286839	2.6000493	1.6124668
16.41732369881455	2.6287012	1.621327
16.43503206951817	2.6494293	1.6277068
16.45274083542859	2.7015336	1.6436342
16.47044999699522	2.7199736	1.6492343
16.488159554667558	2.777507	1.6665854
16.505869508895184	2.8400822	1.6852543
16.523579860127786	2.8747153	1.6954986
16.541290608815117	2.8991396	1.702686
16.559001755407035	2.9342632	1.7129692
16.57671330035348	2.9790292	1.7259865
16.59442524410448	3.0517313	1.7469206
16.61213758711015	3.1249356	1.7677487
16.629850329820705	3.186518	1.7850821
16.647563472686436	3.2716167	1.8087611
16.665277016157724	3.3475747	1.8296379
16.682990960685053	3.3535593	1.8312726
16.70070530671898	3.3715453	1.8361769
16.718420054710155	3.48422	1.8666066
16.736135205109335	3.576372	1.8911299
16.753850758367335	3.622408	1.9032625
16.771566714935087	3.6348844	1.9065373
16.789283075263597	3.6573398	1.9124173
16.80699983980398	3.6932187	1.9217749
16.82471700900741	3.711345	1.9264852
16.84243458332518	3.7383754	1.9334879
16.860152563208665	3.867315	1.966549
16.87787094910932	3.944464	1.9860674
16.89558974147871	4.071238	2.017731
16.913308940768466	4.1031976	2.025635
16.931028547430333	4.166696	2.0412486
16.94874856191613	4.2014966	2.0497553
16.966468984677785	4.2222867	2.0548203
16.98418981616729	4.243862	2.0600636
17.00191105683676	4.3366437	2.0824609
17.019632707138374	4.4317837	2.1051803
17.03735476752442	4.538884	2.1304657
17.05507723844728	4.541504	2.1310804
17.072800120359403	4.586132	2.1415257
17.090523413713353	4.5734277	2.1385574
17.108247118961785	4.5583944	2.1350396
17.125971236557437	4.559931	2.1353993
17.143695766953133	4.5631657	2.1361568
17.161420710601806	4.5864444	2.1415985
17.179146067956477	4.6205573	2.149548
17.19687183947025	4.654217	2.1573634
17.21459802559634	4.719288	2.1723921
17.232324626788028	4.681342	2.163641
17.25005164349871	4.6424675	2.1546385
17.267779076181863	4.570397	2.1378486
17.285506925291074	4.544804	2.1318545
17.30323519127999	4.507398	2.1230633
17.320963874602384	4.4996743	2.1212435
17.33869297571211	4.5511374	2.1333394
17.356422495063114	4.566448	2.136925
17.37415243310944	4.517013	2.1253266
17.391882790305218	4.4649014	2.1130314
17.40961356710468	4.441616	2.1075141
17.42734476396215	4.4757104	2.1155875
17.445076381332044	4.440938	2.1073532
17.462808419668868	4.4847555	2.1177242
17.48054087942723	4.6578937	2.1582153
17.498273761061835	5.042541	2.2455604
17.51600706502747	5.640971	2.375073
17.533740791779024	6.323777	2.514712
17.551474941771485	7.6818237	2.7716103
17.56920951545993	8.723509	2.9535587
17.586944513299528	10.637429	3.2615073
17.60467993574556	12.112924	3.4803627
17.622415783253373	13.544674	3.680309
17.64015205627843	14.7902355	3.8458076
17.657888755276293	15.7161255	3.964357
17.675625880702604	16.167753	4.0209146
17.69336343301311	15.990314	3.998789
17.71110141266366	15.309781	3.9127715
17.728839820110178	14.524164	3.811058
17.746578655808705	13.837916	3.719935
17.764317920215372	12.63426	3.5544705
17.7820576137864	11.267378	3.3566916
17.79979773697811	9.348082	3.0574632
17.81753829024692	7.543418	2.7465284
17.835279274049356	5.8997974	2.4289498
17.85302068884201	4.862221	2.2050445
17.870762535081607	4.183385	2.0453324
17.888504813224934	3.8587914	1.9643806
17.90624752372891	3.633619	1.9062054
17.923990667050536	3.521851	1.8766595
17.941734243646895	3.457349	1.8593948
17.959478253975185	3.419846	1.8492826
17.9772226984927	3.3961296	1.842859
17.994967577656833	3.3549232	1.831645
18.01271289192506	3.352125	1.8308809
18.030458641754965	3.287175	1.8130568
18.04820482760425	3.2571888	1.8047683
18.06595144993067	3.2281413	1.7967029
18.083698509192125	3.2377045	1.7993623
18.101446005846576	3.2815382	1.8115016
18.119193940352105	3.2271683	1.7964321
18.136942313166887	3.170206	1.7805072
18.1546911247492	3.1077654	1.7628856
18.1724403755574	3.1112862	1.7638838
18.19019006604997	3.1392148	1.7717829
18.207940196685467	3.1723258	1.7811024
18.225690767922575	3.1673024	1.7796917
18.243441780220046	3.0954304	1.7593836
18.261193234036764	3.027337	1.7399244
18.278945129831676	2.9824777	1.7269851
18.29669746806386	3.0104392	1.7350618
18.314450249192483	3.0256186	1.7394305
18.3322034736768	3.0458467	1.7452354
18.349957141976184	3.0305164	1.7408378
18.3677112545501	3.0070176	1.7340754
18.385465811858108	3.0246346	1.7391477
18.403220814359884	3.0638938	1.7503982
18.420976262515172	3.0821362	1.7556014
18.43873215678387	3.087236	1.7570531
18.456488497625923	3.089192	1.7576097
18.474245285501407	3.1661716	1.7793739
18.492002520870486	3.217615	1.7937711
18.50976020419343	3.3288593	1.8245162
18.527518335930615	3.6901042	1.9209644
18.545276916542516	4.2560525	2.0630202
18.563035946489688	4.426378	2.103896
18.580795426232832	4.8119106	2.1936069
18.598555356232698	4.7449875	2.1782992
18.616315736950185	5.046331	2.246404
18.63407656884626	4.70115	2.1682136
18.65183785238201	4.8851924	2.210247
18.669599588018617	4.641428	2.1543972
18.68736177621737	4.6285315	2.1514022
18.705124417439652	4.634934	2.1528897
18.72288751214696	4.5008154	2.1215124
18.740651060800886	4.6831846	2.1640668
18.758415063863115	4.335157	2.082104
18.77617952179546	4.448235	2.109084
18.793944435059814	4.187015	2.0462196
18.811709804118184	4.222292	2.0548217
18.829475629432675	4.1701965	2.042106
18.8472419114655	3.9474506	1.9868193
18.86500865067897	4.0305676	2.0076272
18.88277584753551	3.722246	1.9293123
18.90054350249763	3.744469	1.935063
18.918311616027957	3.4119244	1.8471395
18.936080188589226	3.319051	1.8218263
18.953849220644265	3.033541	1.7417064
18.971618712656007	2.864292	1.6924219
18.9893886650875	2.7794433	1.6671662
19.007159078401887	7.9440947	2.818527
19.024929953062408	32.830692	5.7298074
19.042701289532435	32.750458	5.7228017
19.060473088275405	25.302591	5.030168
19.07824534975489	2.591382	1.609777
19.096018074434568	2.619987	1.6186374
19.113791262778197	2.61036	1.6156608
19.13156491524966	2.6122468	1.6162447
19.149339032312945	2.5856175	1.6079855
19.167113614432136	2.5565183	1.5989116
19.184888662071433	2.5278752	1.5899293
19.202664175695123	2.4896684	1.5778683
19.220440155767623	2.463702	1.5696185
19.238216602753447	2.4541593	1.5665756
19.2559935171172	2.4743133	1.572995
19.27377089932361	2.4783242	1.5742694
19.291548749837514	2.4529603	1.5661929
19.309327069123835	2.4678013	1.5709237
19.32710585764763	2.4622493	1.5691556
19.344885115874032	2.472222	1.5723301
19.362664844268313	2.465723	1.5702621
19.380445043295822	2.4553561	1.5669576
19.39822571342203	2.438882	1.5616921
19.41600685511252	2.4359968	1.560768
19.43378846883297	2.4519627	1.5658745
19.451570555049173	2.4754925	1.5733697
19.469353114227037	2.472559	1.5724373
19.48713614683254	2.4600718	1.5684617
19.50491965333182	2.4181225	1.5550314
19.52270363419109	2.4256759	1.5574582
19.540488089876686	2.4249055	1.5572108
19.55827302085503	2.4413161	1.5624712
19.576058427592674	2.407789	1.5517052
19.593844310556282	2.4116619	1.5529526
19.611630670212598	2.4459243	1.563945
19.629417507028506	2.4825914	1.5756241
19.64720482147098	2.4713225	1.572044
19.6649926140071	2.4422529	1.5627708
19.682780885104084	2.456097	1.567194
19.70056963522921	2.503165	1.5821394
19.718358864849908	2.509445	1.5841228
19.7361485744337	2.4824018	1.575564
19.753938764448215	2.4511633	1.5656191
19.771729435361202	2.4388502	1.5616819
19.789520587640506	2.4226449	1.5564848
19.807312221754092	2.4201849	1.5556943
19.825104338170043	2.4415517	1.5625465
19.842896937356517	2.4518902	1.5658513
19.860690019781824	2.4293194	1.5586274
19.87848358591436	2.4425237	1.5628575
19.896277636222635	2.4550185	1.5668498
19.914072171175278	2.4636843	1.5696127
19.931867191241015	2.4331353	1.559851
19.94966269688869	2.4453876	1.5637735
19.967458688587264	2.4513905	1.5656917
19.985255166805807	2.4444797	1.5634832
20.00305213201348	2.437789	1.561342
20.020849584679578	2.448056	1.5646265
20.038647525273507	2.442302	1.5627866
20.05644595426477	2.341874	1.5303183
20.07424487212299	2.3294957	1.5262686
20.092044279317903	2.3601246	1.5362697
20.109844176319353	2.41332	1.5534865
20.127644563597304	2.4214418	1.5560982
20.145445441621817	2.4057422	1.5510455
20.16324681086307	2.4079583	1.5517597
20.181048671791373	2.400691	1.5494163
20.198851024877122	2.4087653	1.5520197
20.216653870590836	2.3768039	1.5416887
20.234457209403146	2.3187208	1.5227346
20.252261041784802	2.2921762	1.5139935
20.270065368206662	2.3479989	1.5323181
20.287870189139685	2.3791986	1.5424651
20.305675505054968	2.377489	1.5419109
20.323481316423702	2.3468516	1.5319437
20.341287623717207	2.370544	1.5396571
20.359094427406884	2.410132	1.55246
20.376901727964288	2.3832114	1.5437653
20.39470952586107	2.34045	1.529853
20.41251782156899	2.3057897	1.5184827
20.430326615559935	2.305131	1.5182657
20.448135908305886	2.3090096	1.5195426
20.465945700278965	2.3006184	1.516779
20.483755991951384	2.3215353	1.5236585
20.50156678379548	2.3174105	1.5223043
20.519378076283708	2.336317	1.5285016
20.537189869888635	2.3112879	1.520292
20.55500216508294	2.295028	1.514935
20.572814962339415	2.281129	1.5103407
20.59062826213098	2.3018727	1.5171924
20.60844206493066	2.346444	1.5318106
20.626256371211593	2.365196	1.5379194
20.644071181447032	2.3249319	1.5247728
20.66188649611036	2.3001516	1.516625
20.67970231567506	2.2748337	1.5082551
20.697518640614742	2.2691019	1.5063539
20.715335471403122	2.2888927	1.5129087
20.73315280851404	2.2744675	1.5081338
20.750970652421447	2.2673972	1.5057878
20.768789003599412	2.2477384	1.4992459
20.786607862522136	2.2886932	1.5128428
20.8044272296639	2.2940173	1.5146013
20.82224710549913	2.2758784	1.5086014
20.84006749050237	2.2544966	1.5014981
20.857888385148268	3.8071227	1.951185
20.8757097899116	45.89938	6.774908
20.893531705267254	64.75446	8.047016
20.911354131690224	83.778015	9.153033
20.92917706965566	69.04639	8.309416
20.94700051963877	50.109093	7.078778
20.96482448211493	29.360476	5.418531
20.982648957559622	4.1199985	2.029778
21.00047394644843	2.2631576	1.5043795
21.01829944925707	2.2337658	1.4945788
21.036125466461375	2.2043178	1.4846945
21.053951998537297	2.2104733	1.4867661
21.071779045960906	2.2074318	1.4857428
21.089606609208378	2.1644332	1.4712013
21.10743468875603	2.1358626	1.461459
21.12526328508028	2.152445	1.4671214
21.143092398657675	2.1550694	1.4680154
21.16092202996488	2.1700335	1.4731033
21.17875217947867	2.1597617	1.4696127
21.19658284767596	2.1800413	1.4764963
21.21441403503377	2.1595495	1.4695406
21.232245742029225	2.1520765	1.4669957
21.2500779691396	2.1737885	1.4743774
21.26791071684227	2.1671257	1.4721161
21.28574398561475	2.1699908	1.4730889
21.30357777593465	2.1405938	1.4630768
21.321412088279704	2.1466494	1.4651449
21.339246923127792	2.1379833	1.4621844
21.357082280956888	2.1063619	1.451331
21.3749181622451	2.0925844	1.4465768
21.392754567470647	2.0838504	1.4435548
21.41059149711187	2.072967	1.4397802
21.42842895164726	2.0411916	1.4287027
21.446266931555378	2.034061	1.426205
21.464105437314945	2.0546796	1.4334154
21.481944469404798	2.0475194	1.4309156
21.49978402830388	2.0461702	1.4304441
21.51762411449127	2.0393245	1.4280492
21.53546472844617	2.0695012	1.4385761
21.553305870647876	2.073833	1.4400809
21.571147541575865	2.0900745	1.445709
21.58898974170967	2.0896337	1.4455565
21.60683247152899	2.0777287	1.4414328
21.62467573151363	2.0408607	1.428587
21.642519522143523	2.0089135	1.4173615
21.660363843898722	2.0121458	1.4185013
21.6782086972594	2.0283031	1.424185
21.696054082705864	2.0236456	1.422549
21.713900000718535	2.0335321	1.4260197
21.73174645177795	2.0820727	1.4429389
21.749593436364794	2.0991259	1.4488361
21.767440954959845	2.0886848	1.4452283
21.785289008044032	2.057365	1.4343518
21.803137596098388	2.0491211	1.4314752
21.820986719604086	2.0214813	1.4217881
21.838836379042412	1.9999619	1.4142001
21.85668657489478	1.9869647	1.4095974
21.87453730764273	1.9650275	1.4017943
21.892388577767914	1.9630553	1.4010907
21.91024038575213	1.9563394	1.398692
21.928092732077285	1.9864756	1.4094238
21.945945617225426	1.9964384	1.4129537
21.963799041678694	2.0250485	1.4230419
21.981653005919398	31.29082	5.5938196
21.999507510429943	78.059746	8.835143
22.01736255569286	72.99533	8.543731
22.035218142190818	4.1260247	2.031262
22.05307427040661	1.9877824	1.4098873
22.07093094082315	1.9892565	1.41041
22.088788153923474	1.9571216	1.3989717
22.106645910190746	1.9524612	1.397305
22.12450421010827	1.9665898	1.4023515
22.142363054159464	1.9660587	1.4021622
22.16022244282787	1.9592881	1.3997457
22.178082376597164	1.9302639	1.3893393
22.195942855951145	1.9340767	1.3907108
22.213803881373742	1.9334301	1.3904784
22.231665453349002	1.9498435	1.396368
22.24952757236111	1.9403973	1.3929814
22.26739023889438	1.9251791	1.3875083
22.28525345343323	1.9201217	1.3856845
22.30311721646225	1.9169579	1.3845425
22.320981528466113	1.9092658	1.3817618
22.33884638992964	1.8849659	1.3729407
22.356711801337788	1.9092057	1.3817401
22.37457776317561	1.9594606	1.3998073
22.392444275928337	2.003144	1.4153247
22.410311340081282	2.0146935	1.419399
22.428178956119904	1.9870338	1.4096218
22.446047124529805	1.9623387	1.400835
22.46391584579669	1.944764	1.3945479
22.481785120406414	1.937084	1.3917916
22.49965494884496	1.9307337	1.3895085
22.51752533159841	1.9042699	1.3799529
22.53539626915302	1.9139562	1.383458
22.553267761995137	1.9248886	1.3874036
22.571139810611264	1.9258746	1.3877589
22.589012415488025	1.9116807	1.3826355
22.60688557711216	1.9100902	1.3820602
22.624759295970566	1.8950292	1.3766006
22.642633572550263	1.9069008	1.3809057
22.660508407338362	1.8778622	1.3703511
22.67838380082217	1.8672582	1.3664765
22.696259753489077	1.8580817	1.3631147
22.714136265826614	1.8789296	1.3707405
22.73201333832246	1.9014549	1.3789325
22.74989097146439	1.9142352	1.3835589
22.76776916574035	1.9242074	1.387158
22.785647921638393	1.9308152	1.3895378
22.803527239646712	1.9116387	1.3826202
22.82140712025363	1.9037532	1.3797656
22.839287563947593	1.8910333	1.3751484
22.85716857121719	1.88896	1.3743944
22.875050142551135	1.8857706	1.3732336
22.892932278438277	1.8717651	1.3681247
22.910814979367604	1.8705477	1.3676797
22.928698245828222	1.8276476	1.3519051
22.946582078309387	1.8205259	1.3492687
22.96446647730047	1.8278356	1.3519747
22.98235144329098	1.8652622	1.365746
23.000236976770562	1.9156917	1.3840852
23.018123078229	1.8912796	1.3752381
23.03600974815619	1.8735843	1.3687893
23.053896987042194	1.8398458	1.3564092
23.071784795377173	1.8604231	1.3639733
23.08967317365145	1.8720642	1.368234
23.10756212235546	1.9054575	1.3803831
23.125451641979787	1.8845391	1.3727852
23.143341733015134	1.86693	1.3663565
23.161232395952357	1.872854	1.3685225
23.179123631282426	1.8692994	1.3672233
23.197015439496468	1.8846399	1.3728218
23.214907821085717	1.9227556	1.3866346
23.23280077654157	1.9480441	1.3957235
23.250694306355538	1.9294248	1.3890374
23.268588411019277	1.8846364	1.3728206
23.28648309102458	1.8758348	1.3696111
23.304378346863356	1.8716141	1.3680695
23.322274179027676	1.856912	1.3626856
23.340170588009723	1.861197	1.364257
23.358067574301852	1.8524858	1.3610605
23.37596513839651	1.8716906	1.3680974
23.39386328078629	1.8826498	1.3720969
23.411762001963947	1.8784513	1.370566
23.429661302422353	1.8427697	1.3574866
23.4475611826545	1.8467673	1.3589581
23.46546164315356	1.8554147	1.3621361
23.48336268441279	1.8480818	1.3594418
23.501264306925638	1.9039211	1.3798264
23.51916651118564	1.9162099	1.3842723
23.537069297686497	1.917542	1.3847533
23.554972666922037	1.8828331	1.3721637
23.57287661938623	1.9148836	1.3837932
23.59078115557318	1.9163276	1.3843149
23.608686275977128	1.8807716	1.3714123
23.62659198109246	1.8586828	1.3633351
23.6444982714137	1.8652714	1.3657494
23.66240514743549	1.8891695	1.3744706
23.68031260965263	1.8974663	1.3774855
23.698220658560068	1.8846725	1.3728337
23.716129294652845	1.8714687	1.3680164
23.7340385184262	1.8067364	1.3441489
23.75194833037546	1.7783835	1.3335605
23.769858730996123	1.8107917	1.3456566
23.78776972078382	1.8598832	1.3637754
23.80568130023431	1.880153	1.3711867
23.823593469843495	1.8986999	1.3779331
23.841506230107424	1.9090927	1.3816992
23.859419581522275	1.8952293	1.3766733
23.87733352458438	1.8631735	1.3649812
23.89524805979019	1.89569	1.3768406
23.913163187636318	1.912251	1.3828416
23.931078908619508	1.9481113	1.3957475
23.948995223236633	1.9655449	1.401979
23.966912131984735	1.9837168	1.4084449
23.98482963536096	1.9681027	1.4028908
24.002747733862616	1.9667976	1.4024256
24.020666427987155	1.9658993	1.4021053
24.038585718232156	1.9520655	1.3971634
24.056505605095353	1.9771671	1.4061178
24.074426089074617	1.9919041	1.4113483
24.092347170667946	2.0392823	1.4280344
24.110268850373515	2.055294	1.4336296
24.128191128689586	2.0795202	1.4420542
24.146114006114626	2.0091932	1.4174601
24.164037483147187	1.9645405	1.4016206
24.181961560286005	1.9421359	1.3936054
24.199886238029926	2.002555	1.4151165
24.21781151687797	2.007413	1.416832
24.235737397329274	1.9840361	1.4085581
24.253663879883135	1.9806114	1.407342
24.271590965038975	2.0009937	1.4145648
24.289518653296376	2.0169587	1.4201968
24.30744694515505	2.0296588	1.4246609
24.32537584111486	2.0189342	1.4208921
24.34330534167581	2.001316	1.4146788
24.361235447338046	1.9942044	1.412163
24.379166158601876	1.9472637	1.3954439
24.39709747596772	1.9456387	1.3948615
24.41502939993615	1.989525	1.4105052
24.432961931007917	2.014676	1.4193928
24.450895069683856	1.9876037	1.409824
24.468828816465	1.9586031	1.3995011
24.4867631718525	1.9292738	1.388983
24.504698136347656	1.9361677	1.3914624
24.52263371045192	1.8827782	1.3721436
24.540569894666874	1.888638	1.3742772
24.558506689494266	1.8976885	1.3775661
24.57644409543597	1.934784	1.3909651
24.594382112994012	1.921438	1.3861594
24.61232074267057	1.928872	1.3888384
24.630259984967953	1.970715	1.4038216
24.64819984038863	1.9450394	1.3946466
24.66614030943522	1.9069613	1.3809277
24.684081392610462	1.8984141	1.3778296
24.702023090417274	1.9152131	1.3839122
24.7199654033587	1.8853974	1.3730978
24.737908331937927	1.8879035	1.37401
24.755851876658305	1.9159778	1.3841885
24.773796038023324	1.9601253	1.4000448
24.79174081653661	1.9738731	1.404946
24.809686212701962	1.9807038	1.4073749
24.827632227023294	1.9921008	1.4114181
24.8455788600047	2.0096638	1.4176261
24.8635261121504	2.0215352	1.421807
24.88147398396475	2.0826046	1.4431232
24.899422475952303	2.140222	1.4629498
24.917371588617698	2.134043	1.4608364
24.935321322465768	2.122061	1.4567295
24.953271678001478	2.2091334	1.4863154
24.97122265572994	2.3977594	1.54847
24.989174256156414	2.6373668	1.6239972
25.00712647978632	3.0350542	1.7421407
25.02507932712521	3.5594978	1.8866632
25.043032798678798	4.1089244	2.027048
25.060986894952933	4.7134085	2.1710386
25.078941616453637	5.4156847	2.3271623
25.096896963687055	6.2215333	2.4943001
25.114852937159508	7.2887063	2.6997604
25.132809537377444	7.7596564	2.785616
25.150766764847468	7.8483233	2.801486
25.168724620076347	7.3686743	2.7145302
25.186683103570985	6.4747424	2.5445516
25.204642215838426	5.443772	2.3331892
25.222601957385894	4.1776876	2.0439394
25.24056232872074	3.1931503	1.7869388
25.25852333035048	2.5858948	1.6080718
25.276484962782778	2.227924	1.4926232
25.294447226525435	2.0993068	1.4488984
25.312410122086423	2.0378954	1.4275488
25.330373649973843	2.0027375	1.415181
25.348337810695988	1.9723595	1.4044071
25.366302604761245	1.8977939	1.3776044
25.384268032678207	1.8433924	1.3577158
25.40223409495558	1.804255	1.3432256
25.420200792102257	1.8105066	1.3455507
25.438168124627246	1.8411906	1.3569047
25.45613609303974	1.8842869	1.3726933
25.474104697849057	1.8542898	1.3617231
25.492073939564698	1.8262442	1.3513861
25.510043818696285	1.8038963	1.3430921
25.528014335753614	1.7994422	1.3414329
25.54598549124664	1.7948649	1.3397257
25.56395728568544	1.8137676	1.3467618
25.58192971958028	1.8288254	1.3523407
25.59990279344156	1.8560925	1.3623848
25.617876507779833	1.8551006	1.3620207
25.635850863105826	1.7924702	1.3388317
25.653825859930386	1.7497714	1.3227892
25.671801498764548	1.7885584	1.3373699
25.68977778011949	1.8351307	1.3546699
25.707754704506524	1.8293067	1.3525187
25.725732272437153	1.8102955	1.3454722
25.743710484423012	1.806284	1.3439807
25.761689340975888	1.8316858	1.3533978
25.77966884260774	1.7992629	1.341366
25.797648989830662	1.7584305	1.3260583
25.815629783156922	1.740147	1.3191463
25.83361122309895	1.8226665	1.3500617
25.85159331016929	1.8642654	1.365381
25.869576044880695	1.8662233	1.3660978
25.887559427746034	1.8551077	1.3620234
25.90554345927836	1.7996862	1.3415239
25.92352813999086	1.7403753	1.3192328
25.94151347039689	1.7595762	1.3264902
25.959499451009965	1.8125454	1.3463081
25.97748608234374	1.8248283	1.350862
25.995473364912062	1.7935927	1.3392508
26.013461299228904	1.7373017	1.3180674
26.03144988580839	1.7172339	1.3104327
26.04943912516483	1.7441189	1.3206509
26.067429017812675	1.8134763	1.3466537
26.085419564266537	1.8019109	1.3423527
26.103410765041186	1.7928722	1.3389817
26.12140262065155	1.7943903	1.3395486
26.139395131612723	1.78402	1.3356721
26.157388298439948	1.7522991	1.3237443
26.17538212164861	1.7414092	1.3196247
26.193376601754295	1.7710379	1.3308035
26.211371739272714	1.8443584	1.3580716
26.229367534719746	1.892164	1.3755596
26.247363988611433	1.8897628	1.3746865
26.26536110146397	1.8174307	1.3481212
26.283358873793727	1.8029506	1.3427399
26.301357306117204	1.8143573	1.3469808
26.319356398951104	1.8185947	1.3485528
26.33735615281224	1.8134803	1.3466552
26.35535656821762	1.801277	1.3421166
26.373357645684404	1.7385752	1.3185505
26.39135938572991	1.6842424	1.2977836
26.409361788871614	1.7070947	1.3065584
26.427364855627165	1.7988864	1.3412257
26.445368586514352	1.8350883	1.3546543
26.46337298205115	1.7905573	1.338117
26.48137804275568	1.7813392	1.3346682
26.499383769146217	1.7693557	1.3301713
26.517390161741215	1.7524357	1.3237959
26.53539722105928	1.7617509	1.3273096
26.553404947619182	1.7838403	1.3356048
26.571413341939856	1.8083162	1.3447365
26.589422404540397	1.8297921	1.3526981
26.60743213594006	1.8170679	1.3479866
26.62544253665827	1.7638687	1.3281072
26.64345360721459	1.71578	1.3098779
26.66146534812879	1.7189476	1.3110864
26.679477759920758	1.7912313	1.3383689
26.69749084311057	1.8547292	1.3618845
26.71550459821847	1.8474271	1.359201
26.733519025764842	1.8056934	1.343761
26.751534126270258	1.7493031	1.3226123
26.769549900255434	1.7690578	1.3300593
26.787566348241267	1.7795926	1.3340137
26.80558347074881	1.7727046	1.3314295
26.823601268299267	1.7719666	1.3311523
26.841619741414036	1.804486	1.3433115
26.85963889061465	1.7752434	1.3323826
26.877658716422832	1.7618065	1.3273306
26.89567921936045	1.7736194	1.331773
26.913700399949544	1.8095027	1.3451775
26.93172225871233	1.8008004	1.3419391
26.949744796171174	1.7416848	1.3197291
26.967768012848605	1.7086912	1.3071692
26.98579190926733	1.7230366	1.312645
27.003816485950225	1.7560924	1.3251764
27.021841743420318	1.7393882	1.3188587
27.039867682200814	1.7575548	1.325728
27.057894302815072	1.7348455	1.3171353
27.07592160578664	1.7815635	1.3347522
27.0939495916392	1.8165371	1.3477898
27.111978260896635	1.8456774	1.3585571
27.13000761408296	1.804626	1.3433636
27.148037651722397	1.7770046	1.3330433
27.166068374339304	1.7475053	1.3219324
27.184099782458215	1.7850833	1.3360701
27.20213187660384	1.7741371	1.3319674
27.22016465730105	1.7639599	1.3281416
27.23819812507487	1.7603495	1.3267816
27.256232280450533	1.7335856	1.316657
27.274267123953383	1.711663	1.3083054
27.292302656108987	1.7208955	1.3118291
27.31033887744306	1.7093717	1.3074294
27.32837578848146	1.7243227	1.3131347
27.34641338975026	1.8035823	1.3429751
27.364451681775673	1.8292333	1.3524915
27.382490665084074	1.8045391	1.3433313
27.400530340202046	1.8098991	1.3453249
27.41857070765629	1.8266577	1.351539
27.436611767973726	1.7888358	1.3374736
27.454653521681404	1.7320253	1.3160644
27.472695969306564	1.724819	1.3133236
27.490739111376627	1.7821003	1.3349533
27.508782948419153	1.8242048	1.3506312
27.526827480961902	1.8049452	1.3434825
27.54487270953279	1.7658957	1.32887
27.562918634659898	1.7855201	1.3362335
27.580965256871508	1.8229116	1.3501525
27.599012576696026	1.8144143	1.3470019
27.617060594662068	1.7930092	1.3390329
27.63510931129842	1.758	1.3258959
27.65315872713401	1.7531859	1.3240793
27.67120884269797	1.7704214	1.3305718
27.68925965851958	1.790799	1.3382074
27.707311175128307	1.8168797	1.3479168
27.725363393053787	1.7788138	1.3337218
27.74341631282583	1.7734414	1.3317062
27.7614699349744	1.8448615	1.3582568
27.77952426002968	2.0857544	1.4442141
27.797579288521973	2.16495	1.4713769
27.815635020981784	2.6273077	1.6208972
27.83369145793979	2.6676974	1.6333088
27.85174859992682	2.4979239	1.5804821
27.869806447473923	2.327561	1.5256346
27.887865001112267	1.9787444	1.4066784
27.905924261373233	1.8416256	1.3570651
27.92398422878836	1.8334293	1.3540418
27.94204490388936	1.8013706	1.3421515
27.96010628720813	1.8045424	1.3433325
27.978168379276728	1.829066	1.3524296
27.9962311806274	1.8552927	1.3620913
28.014294691792568	1.800061	1.3416635
28.0323589133048	1.7536008	1.3242359
28.050423845696887	1.7691832	1.3301065
28.068489489501758	1.7708981	1.330751
28.086555845252523	1.7857963	1.3363369
28.104622913482487	1.8107404	1.3456376
28.122690694725115	1.8656043	1.3658713
28.14075918951405	1.9251167	1.3874857
28.15882839838312	1.9230497	1.3867407
28.176898321866304	1.9503274	1.3965412
28.1949689604978	1.9492744	1.3961642
28.213040314811945	1.9421391	1.3936065
28.23111238534327	1.930041	1.3892591
28.249185172626493	1.909815	1.3819605
28.267258677196473	1.8770111	1.3700405
28.285332899588294	1.8777766	1.3703198
28.303407840337172	1.8953123	1.3767034
28.321483499978545	1.8985721	1.3778868
28.33955987904799	1.914127	1.3835198
28.357636978081285	1.9277989	1.3884519
28.37571479761439	1.9004053	1.3785518
28.393793338183425	1.8711774	1.3679099
28.41187260032469	1.9023311	1.3792502
28.429952584574686	1.9158183	1.3841308
28.448033291470065	1.9317337	1.3898683
28.46611472154769	1.9372497	1.3918512
28.484196875344566	1.891989	1.3754959
28.502279753397914	1.8784176	1.3705537
28.52036335624511	1.9312402	1.3896906
28.538447684423716	1.9584203	1.3994358
28.556532738471482	1.9079001	1.3812675
28.574618518926325	1.8747607	1.3692191
28.59270502632635	1.8939589	1.3762118
28.61079226120985	1.932842	1.3902669
28.628880224115274	1.9642789	1.4015274
28.646968915581287	1.9251794	1.3875083
28.66505833614671	1.9341156	1.3907249
28.68314848635055	1.9636388	1.401299
28.701239366732004	1.959347	1.3997668
28.71933097783044	1.9898798	1.4106311
28.737423320185403	2.0526083	1.4326926
28.75551639433665	2.061745	1.4358778
28.773610200824074	2.0249424	1.4230047
28.791704740187793	2.0581899	1.4346393
28.80980001296809	2.1108248	1.4528677
28.827896019705413	2.0869455	1.4446265
28.845992760940433	2.0761855	1.4408975
28.86409023721397	2.1510541	1.4666473
28.88218844906704	2.2163777	1.4887503
28.900287397040845	2.2580724	1.5026884
28.918387081676755	2.272452	1.5074655
28.936487503516343	2.233993	1.4946548
28.954588663101365	2.244689	1.4982287
28.97269056097374	2.2162073	1.4886931
28.990793197675597	2.2009513	1.4835603
29.00889657374923	2.2317836	1.4939156
29.027000689737125	2.281756	1.5105482
29.04510554618196	2.3094897	1.5197005
29.06321114362659	2.3386781	1.5292737
29.08131748261405	2.3706193	1.5396816
29.099424563687567	2.438138	1.5614538
29.11753238739057	2.5025535	1.5819461
29.13564095426663	2.5471015	1.5959641
29.15375026485954	2.5670743	1.6022092
29.171860319713275	2.5959024	1.6111804
29.18997111937199	2.6039383	1.6136723
29.20808266438002	2.6438806	1.6260014
29.226194955281898	2.7323477	1.6529815
29.244307992622335	2.7866702	1.6693323
29.26242177694624	2.8120923	1.6769295
29.2805363087987	2.78518	1.6688858
29.29865158872498	2.831428	1.6826848
29.316767617270557	2.8769345	1.6961528
29.334884394981064	2.917353	1.708026
29.353001922402367	2.932396	1.712424
29.37112020008047	2.9494	1.7173817
29.389239228561596	3.0396736	1.743466
29.407359008392152	3.3062222	1.818302
29.42547954011872	3.6713462	1.9160757
29.44360082428809	4.234394	2.0577643
29.46172286144722	5.1798697	2.2759328
29.479845652143283	6.6982617	2.5881
29.497969196923606	8.667721	2.9440994
29.516093496335728	10.99384	3.315696
29.5342185509274	13.333175	3.651462
29.55234436124651	15.3619995	3.9194386
29.570470927841175	16.727768	4.0899596
29.588598251259686	16.63324	4.078387
29.60672633205055	15.28987	3.9102263
29.624855170762405	13.298036	3.6466472
29.642984767944146	10.865177	3.2962368
29.66111512414481	8.372879	2.8935928
29.67924623991366	6.2127643	2.4925418
29.697378115800138	4.7764983	2.1855202
29.71551075235387	4.017356	2.0043342
29.733644150124675	3.6580048	1.9125911
29.751778309662576	3.446332	1.8564299
29.769913231517766	3.3447475	1.828865
29.78804891624066	3.3339584	1.8259131
29.806185364381818	3.295318	1.8153011
29.82432257649206	3.2720213	1.8088729
29.842460553122333	3.279411	1.8109144
29.86059929482382	3.287666	1.8131922
29.878738802147872	3.2601173	1.8055795
29.896879075646048	3.2426527	1.8007367
29.915020115870114	3.189865	1.7860193
29.933161923371976	3.188301	1.7855815
29.951304498703777	3.1865911	1.7851026
29.969447842417857	3.162635	1.7783799
29.987591955066733	3.0969706	1.7598212
30.005736837203123	3.1364403	1.7709998
30.023882489379943	3.263693	1.8065695
30.04202891215028	3.2574968	1.8048537
30.060176106067455	3.155223	1.7762947
30.078324071684946	3.067836	1.751524
30.09647280955646	3.0299647	1.7406794
30.114622320235863	2.9967926	1.7311246
30.132772604277257	2.9988618	1.7317222
30.1509236622349	2.971277	1.7237393
30.16907549466328	2.9697113	1.7232851
30.18722810211705	3.0367785	1.7426355
30.205381485151097	3.0121827	1.7355641
30.22353564432045	2.9892724	1.7289512
30.241690580180403	2.9355445	1.713343
30.25984629328638	2.8876257	1.6993015
30.278002784194037	2.9188974	1.7084781
30.296160053459246	2.9533706	1.7185373
30.314318101638033	2.9298599	1.7116834
30.332476929286646	2.9535403	1.7185867
30.35063653696153	2.9427962	1.715458
30.368796925219307	2.8481078	1.6876338
30.386958094616844	2.815938	1.6780757
30.40512004571115	2.7914855	1.670774
30.423282779059463	2.8269844	1.6813638
30.441446295219233	2.8799164	1.6970316
30.459610594748067	2.876627	1.6960622
30.47777567820382	2.8209198	1.6795594
30.495941546144504	2.6899316	1.6401011
30.51410819912835	2.6497374	1.6278014
30.532275637713795	2.7092845	1.6459905
30.55044386245946	2.7362134	1.6541504
30.56861287392416	2.6906776	1.6403285
30.586782672666956	2.7106762	1.6464131
30.604953259247047	2.731115	1.6526086
30.623124634223885	2.720914	1.6495193
30.641296798157075	2.72749	1.6515114
30.659469751606462	2.7010024	1.6434727
30.677643495132074	2.6357741	1.6235068
30.695818029294152	2.6856227	1.6387869
30.713993354653116	2.7728477	1.665187
30.73216947176962	2.772227	1.6650006
30.75034638120448	2.6914065	1.6405506
30.768524083518756	2.6538923	1.6290771
30.786702579273673	2.740727	1.6555141
30.80488186903069	2.8587677	1.6907891
30.82306195335144	2.9850268	1.727723
30.841242832797782	3.0749385	1.7535503
30.85942450793176	3.3292809	1.8246317
30.877606979315637	3.6374006	1.9071971
30.895790247511883	3.9360986	1.9839603
30.913974313083134	4.271664	2.0668004
30.932159176592283	4.5237694	2.1269155
30.95034483860237	4.6377883	2.1535525
30.968531299676698	4.462476	2.1124573
30.98671856037873	4.1610847	2.0398736
31.00490662127215	3.7943242	1.9479026
31.023095482920848	3.3941038	1.8423094
31.04128514588892	2.9986742	1.731668
31.059475610740662	2.6862762	1.6389863
31.07766687804056	2.5334845	1.5916923
31.09585894835335	2.5075667	1.5835298
31.11405182224393	2.4823895	1.5755601
31.132245500277417	2.426038	1.5575744
31.15043998301914	2.3781075	1.5421114
31.168635271034628	2.3911953	1.546349
31.18683136488964	2.3971589	1.5482761
31.20502826515008	2.3417444	1.530276
31.223225972382135	2.2520795	1.500693
31.241424487152155	2.2764645	1.5087957
31.259623810026692	2.4192972	1.5554091
31.27782394157253	2.5046706	1.5826151
31.296024882356644	2.4653578	1.5701457
31.314226632946237	2.4449377	1.5636296
31.332429193908684	2.4217477	1.5561966
31.350632565811598	2.387977	1.545308
31.368836749222787	2.4263515	1.557675
31.387041744710295	2.4592934	1.5682135
31.40524755284232	2.4769042	1.5738183
31.423454174187317	2.5023942	1.5818957
31.441661609313922	2.5528781	1.5977728
31.459869858791002	2.490524	1.5781394
31.478078923187628	2.3105102	1.5200362
31.496288803073064	2.2661438	1.5053717
31.514499499016807	2.2201083	1.4900028
31.532711011588546	2.2024438	1.4840633
31.550923341358178	2.1958792	1.4818499
31.56913648889584	2.2493901	1.4997967
31.587350454771844	2.3110764	1.5202224
31.605565239556732	2.2900214	1.5132817
31.62378084382127	2.2198303	1.4899095
31.641997268136382	2.2517302	1.5005766
31.660214513073274	2.3433855	1.530812
31.67843257920331	2.3096676	1.519759
31.6966514670981	2.267741	1.505902
31.71487117732944	2.2082906	1.4860318
31.733091710469346	2.2083821	1.4860626
31.751313067090052	2.2946308	1.5148039
31.769535247764008	2.336754	1.5286446
31.787758253063878	2.3410354	1.5300442
31.805982083562526	2.2965848	1.5154487
31.824206739833024	2.265139	1.5050379
31.84243222244869	2.201547	1.4837611
31.860658531983013	2.2113717	1.4870682
31.878885669009737	2.2292104	1.493054
31.897113634102784	2.2398577	1.4966154
31.91534242783632	2.1479096	1.4655749
31.933572050784694	2.1093671	1.452366
31.951802503522508	2.1567788	1.4685975
31.970033786624548	2.2105808	1.4868022
31.988265900665834	2.1504555	1.4664432
32.006498846221575	2.115177	1.4543648
32.02473262386724	2.1004987	1.4493097
32.04296723417845	2.1319664	1.4601254
32.0612026777311	2.0871043	1.4446814
32.07943895510129	2.0670915	1.4377383
32.097676066865304	2.1270087	1.4584268
32.115914013599685	2.1041563	1.4505711
32.13415279588115	2.0413089	1.4287438
32.152392414286666	2.0882053	1.4450624
32.1706328693934	2.1256814	1.4579717
32.18887416177875	2.1010869	1.4495126
32.20711629202032	2.0435274	1.42952
32.225359260695924	2.0545144	1.4333577
32.243603068383614	2.0806732	1.4424539
32.26184771566166	2.0388808	1.4278939
32.28009320310852	2.027517	1.4239091
32.2983395313029	2.0472786	1.4308314
32.31658670082372	2.1267748	1.4583466
32.33483471225012	2.064376	1.4367937
32.35308356616143	2.0508285	1.4320713
32.371333263137245	2.0776258	1.4413972
32.38958380375734	2.1486359	1.4658226
32.407835188601744	2.2086046	1.4861375
32.42608741825067	2.2330837	1.4943506
32.444340493284585	2.1481786	1.4656667
32.46259441428416	2.1656568	1.4716171
32.48084918183028	2.076568	1.4410301
32.49910479650405	2.0047035	1.4158756
32.51736125888683	1.9908582	1.4109777
32.53561856956014	1.9576794	1.399171
32.5538767291058	1.9243747	1.3872184
32.572135738105764	1.9887846	1.4102427
32.59039559714228	2.0279636	1.4240658
32.608656306797776	2.0143929	1.419293
32.62691786765491	2.0243998	1.422814
32.645180280296586	2.0048337	1.4159214
32.663443545305896	1.9193066	1.3853904
32.68170766326619	1.9090981	1.3817012
32.69997263476099	1.9406468	1.3930709
32.7182384603741	1.9477441	1.395616
32.7365051406895	2.0133073	1.4189106
32.75477267629144	2.0282578	1.4241692
32.77304106776434	2.0002975	1.4143188
32.79131031569289	1.9482267	1.3957889
32.809580420661966	1.9546447	1.3980861
32.827851383256714	1.9361762	1.3914654
32.84612320406245	1.9297154	1.3891419
32.86439588366476	1.9314438	1.389764
32.88266942264945	1.9472679	1.3954455
32.9009438216025	1.9739872	1.4049865
32.9192190811102	2.0248458	1.4229708
32.937495201758985	1.9859383	1.4092332
32.95577218413556	1.9406	1.3930542
32.974050028826866	2.0154314	1.4196589
32.992328736420035	1.9935683	1.4119378
33.010608307502444	1.9013525	1.3788954
33.02888874266169	1.8839794	1.3725814
33.047170042485604	1.9051977	1.380289
33.06545220756225	1.8627098	1.3648113
33.083735238479896	1.8432186	1.3576518
33.10201913582707	1.8365207	1.3551829
33.12030390019248	1.9166905	1.3844459
33.138589532165135	1.9684349	1.4030093
33.15687603233419	1.9420987	1.393592
33.17516340128909	1.952455	1.3973027
33.19345163961947	1.9737914	1.4049169
33.211740747915215	1.8712841	1.3679489
33.23003072676643	1.8520334	1.3608943
33.248321576763466	1.9341238	1.3907278
33.266613298496885	2.0303414	1.4249005
33.28490589255747	1.9571598	1.3989853
33.30319935953626	1.9041563	1.3799117
33.32149370002451	1.8987343	1.3779457
33.339788914613706	1.9097275	1.3819289
33.358085003895575	1.9830949	1.408224
33.376381968462034	2.0265474	1.4235686
33.39467980890529	1.9474632	1.3955153
33.41297852581774	1.9009372	1.3787448
33.43127811979204	1.8620701	1.3645769
33.44957859142105	1.8367308	1.3552604
33.467879941297866	1.8384334	1.3558884
33.486182170015844	1.8446245	1.3581696
33.50448527816853	1.9253509	1.3875701
33.522789266349754	2.0204027	1.4214087
33.541094135153514	1.9173383	1.3846798
33.55939988517411	1.8533314	1.3613712
33.57770651700602	1.8984677	1.377849
33.59601403124398	1.9376714	1.3920027
33.61432242848296	1.9354303	1.3911974
33.632631709318154	1.8906888	1.3750232
33.650941874344994	1.7928569	1.338976
33.66925292415916	1.8527225	1.3611475
33.68756485935654	1.8545886	1.3618329
33.70587768053328	1.7341001	1.3168523
33.724191388285746	1.7882062	1.3372383
33.74250598321054	1.944972	1.3946226
33.760821465904506	1.9822587	1.407927
33.77913783696474	1.9211072	1.3860401
33.79745509698852	1.8691438	1.3671664
33.815773246573414	1.8484975	1.3595946
33.8340922863172	1.9646971	1.4016765
33.852412216817896	1.9816567	1.4077133
33.87073303867377	1.9300218	1.3892522
33.889054752483304	1.8852941	1.3730601
33.907377358845245	1.9205639	1.3858441
33.92570085835853	1.9723407	1.4044005
33.94402525162239	1.979364	1.4068987
33.96235053923627	1.934241	1.39077
33.980676721799824	1.9660283	1.4021513
33.999003799912984	1.9579049	1.3992516
34.01733177417592	1.8780707	1.3704273
34.03566064518901	1.9261819	1.3878696
34.0539904135529	1.9672543	1.4025884
34.07232107986846	1.9494007	1.3962094
34.090652644736785	1.9282345	1.3886088
34.108985108759235	1.9129405	1.383091
34.12731847253742	1.9491755	1.3961288
34.14565273667313	2.0230339	1.422334
34.16398790176847	1.9733433	1.4047574
34.18232396842574	1.8604548	1.363985
34.20066093724749	1.8840314	1.3726002
34.21899880883651	1.8838071	1.3725185
34.23733758379583	1.8098165	1.3452942
34.25567726272874	1.8038235	1.3430649
34.27401784623872	1.8453666	1.3584427
34.29235933492957	1.8518572	1.3608296
34.31070172940526	1.889524	1.3745996
34.32904503027003	1.9543381	1.3979764
34.347389238128386	2.059183	1.4349853
34.36573435358502	2.0463028	1.4304904
34.38408037724492	1.8685005	1.3669311
34.402427309713296	1.8184934	1.3485153
34.42077515159559	1.9310304	1.3896152
34.43912390349752	1.8959136	1.3769218
34.45747356602499	1.8519917	1.360879
34.47582413978423	1.9448495	1.3945786
34.49417562538163	1.9273814	1.3883016
34.51252802342388	1.9289718	1.3888743
34.53088133451789	1.9704368	1.4037225
34.54923555927084	2.018054	1.4205823
34.567590698290104	2.067406	1.4378477
34.58594675218336	2.0365314	1.427071
34.6043037215585	1.9827623	1.408106
34.62266160702365	1.932422	1.3901159
34.641020409187234	1.9189936	1.3852774
34.65938012865785	1.9010189	1.3787744
34.677740766044394	1.9609972	1.400356
34.69610232195598	2.0469892	1.4307303
34.714464797002016	1.9443408	1.3943962
34.73282819179208	1.8056568	1.3437473
34.751192506936064	1.7849379	1.3360157
34.76955774304408	1.8339933	1.3542501
34.7879239007265	1.816039	1.3476049
34.80629098059391	1.8111813	1.3458014
34.824658983257194	1.7700332	1.330426
34.843027909327446	1.9224744	1.3865333
34.86139775941603	2.1208813	1.4563246
34.879768534134534	2.2388334	1.4962732
34.89814023409483	1.9949404	1.4124236
34.91651285990901	1.8491516	1.3598351
34.93488641218944	1.8927196	1.3757615
34.95326089154871	1.9987384	1.4137675
34.97163629859967	1.9620351	1.4007267
34.99001263395542	1.7349855	1.3171885
35.00838989822934	1.7387955	1.3186339
35.02676809203499	2.0362988	1.4269894
35.04514721598624	2.0207908	1.4215453
35.063527270697215	1.8060946	1.3439102
35.081908256782256	1.7237326	1.31291
35.10029017485597	1.7923042	1.3387697
35.11867302553321	1.7811722	1.3346056
35.137056809429104	1.8715547	1.3680478
35.155441527159006	2.1024365	1.4499781
35.173827179338524	2.0389004	1.4279007
35.19221376658354	1.9789473	1.4067506
35.21060128951017	2.1608324	1.469977
35.2289897487348	2.4553485	1.5669552
35.24737914487405	2.2243373	1.4914212
35.26576947854479	1.843416	1.3577245
35.28416075036418	1.9276903	1.3884128
35.30255296094958	2.2894742	1.5131009
35.32094611091867	2.436721	1.561
35.33934020088932	2.1553164	1.4680996
35.35773523147969	2.134781	1.4610889
35.3761312033082	2.1137981	1.4538907
35.394528116993506	2.226949	1.4922966
35.41292597315452	2.4227257	1.5565107
35.431324772410434	2.326374	1.5252455
35.449724515380666	2.4069142	1.5514233
35.46812520268491	2.7589598	1.6610117
35.486526834943106	2.5722322	1.603818
35.504929412775454	1.8998206	1.3783398
35.52333293680242	1.720383	1.3116337
35.54173740764471	1.87694	1.3700145
35.560142825923286	1.9251876	1.3875113
35.5785491922594	1.84242	1.3573577
35.59695650727454	1.7765992	1.3328912
35.61536477159042	1.1140177	1.0554703
