0.008763373481513119	0.0	0.0
0.026290120649546365	0.0	0.0
0.043816868432600686	0.0	0.0
0.06134361724069026	0.04474922	0.21154012
0.07887036748382949	0.115944885	0.3405068
0.0963971195720331	0.14644915	0.38268676
0.11392387391531617	0.14862648	0.38552105
0.1314506309236943	0.21104555	0.45939693
0.1489773910071836	0.17937294	0.4235244
0.16650415457580078	0.13485141	0.3672212
0.18403092203956356	0.05794324	0.24071401
0.20155769380849	0.06605149	0.25700486
0.2190844702925996	0.08292651	0.28796965
0.2366112519019124	0.13254558	0.3640681
0.2541380390464497	0.1365562	0.36953512
0.27166483213623416	0.16772574	0.40954334
0.28919163158128947	0.15410511	0.39256224
0.3067184377916406	0.10342892	0.3216037
0.324245251177314	0.06943767	0.2635103
0.34177207214833777	0.07468253	0.27328104
0.3592989011147415	0.090759434	0.30126306
0.37682573848655654	0.12829962	0.35818937
0.39435258467381573	0.13509275	0.36754966
0.41187944008655414	0.13457869	0.3668497
0.42940630513480854	0.15055744	0.38801733
0.446933180228618	0.15834197	0.39792207
0.4644600657780234	0.16518869	0.40643412
0.48198696219306775	0.1645964	0.4057048
0.49951386988379676	0.16710208	0.40878123
0.5170407892602581	0.1588283	0.3985327
0.5345677207325025	0.16309464	0.40384978
0.5520946647105822	0.15709828	0.39635625
0.5696216216045534	0.14196308	0.37677988
0.5871485918244737	0.1620208	0.40251806
0.6046755757804043	0.17782882	0.42169756
0.6222025738824094	0.17009525	0.41242605
0.6397295865405557	0.14357235	0.3789094
0.6572566141649129	0.13627718	0.3691574
0.6747836571655547	0.13976006	0.37384498
0.6923107159525568	0.18454093	0.42958227
0.7098377909359992	0.18837444	0.43402123
0.7273648825259653	0.20086047	0.4481746
0.7448919911325411	0.19556311	0.4422252
0.762419117165817	0.1762383	0.41980746
0.7799462610358868	0.17050438	0.41292176
0.7974734231528482	0.15253583	0.39055836
0.8150006039268024	0.17162782	0.41427988
0.8325278037678551	0.19041418	0.43636474
0.8500550230861152	0.18625654	0.4315745
0.8675822622916969	0.16691597	0.4085535
0.8851095217947171	0.13105948	0.3620214
0.9026368020052984	0.1172	0.34234485
0.9201641033335665	0.1409705	0.3754604
0.9376914261896523	0.17028625	0.41265756
0.9552187709836915	0.19129074	0.43736798
0.9727461381258234	0.18733485	0.43282196
0.990273528026193	0.22617076	0.47557414
1.0078009410949496	0.2652251	0.5150001
1.0253283777422473	0.32081354	0.56640404
1.0428558383782454	0.3574651	0.5978838
1.0603833234131086	0.3353155	0.5790643
1.0779108332570058	0.3964486	0.62964165
1.0954383683201119	0.39554796	0.62892604
1.112965929012607	0.430216	0.6559085
1.1304935157446763	0.51213574	0.7156366
1.1480211289265108	0.5217931	0.7223525
1.1655487689683062	1.3708636	1.1708388
1.1830764362802655	1.6487099	1.284021
1.200604131272596	1.9873569	1.4097365
1.2181318543555117	2.2999413	1.5165558
1.235659605939232	2.351597	1.5334917
1.253187386433982	4.0260715	2.0065074
1.270715196249994	6.3588395	2.521674
1.2882430357975057	11.595007	3.4051442
1.3057709054867608	16.18144	4.022616
1.3232988057280106	21.78574	4.6675196
1.3408267369315112	26.578075	5.1553926
1.358354699507526	30.084608	5.484944
1.3758826938663256	33.97749	5.8290215
1.3934107204181858	36.01108	6.0009236
1.410938779573391	36.751392	6.0622926
1.4284668717422309	37.14178	6.0944057
1.4459949973350033	36.73264	6.0607457
1.4635231567620117	36.725365	6.0601454
1.4810513504335687	36.70504	6.0584683
1.4985795787599925	36.29155	6.0242467
1.5161078421516088	36.01104	6.00092
1.5336361410187505	34.670654	5.8881793
1.5511644757717598	34.468884	5.871021
1.5686928468209842	34.96387	5.9130254
1.58622125457678	35.95284	5.9960685
1.6037496994495108	37.177586	6.0973425
1.621278181849548	37.03209	6.0853996
1.6388067021872719	37.554226	6.1281505
1.6563352608730693	36.510952	6.0424294
1.673863858317336	35.75493	5.9795427
1.6913924949304753	35.104805	5.9249306
1.7089211711228998	34.071495	5.8370795
1.7264498873050296	33.05985	5.7497697
1.7439786438872935	31.995897	5.6564918
1.7615074412801288	31.152262	5.581421
1.779036279893981	30.647371	5.536007
1.796565160139305	29.492125	5.430665
1.814094082426564	28.82705	5.369083
1.8316230471662298	28.256752	5.315708
1.849152054768784	27.4316	5.237519
1.8666811056447168	27.136118	5.2092338
1.8842102002045273	26.29581	5.127944
1.901739338858724	25.89402	5.088617
1.9192685220178245	25.358915	5.0357637
1.9367977500923557	24.819536	4.9819207
1.9543270234928547	24.416044	4.9412594
1.971856342629867	23.714338	4.869737
1.9893857079139496	23.158623	4.8123407
2.006915119755667	22.379976	4.730748
2.0244445785655945	21.709257	4.6593194
2.0419740847543175	21.256697	4.6104984
2.0595036387324317	20.921856	4.5740414
2.0770332409105414	20.5165	4.5295143
2.094562891699263	20.016207	4.4739475
2.1120925915092217	19.533827	4.4197087
2.129622340751053	19.282825	4.3912215
2.1471521398354043	187.68692	13.699887
2.1646819891729323	444.03912	21.072235
2.182211889174303	440.11053	20.978811
2.1997418402501974	452.38882	21.269434
2.2172718428113023	432.28336	20.791426
2.234801897268317	320.47614	17.901848
2.2523320040319548	17.04138	4.1281204
2.269862163512935	16.69251	4.085647
2.287392376121992	16.42486	4.0527596
2.304922642269869	16.30363	4.0377755
2.322452962367322	16.176111	4.0219536
2.3399833368251164	15.69578	3.96179
2.357513766054032	15.094491	3.8851628
2.3750442504648586	14.637989	3.8259625
2.3925747904683963	14.5165205	3.8100553
2.410105386475459	14.388534	3.793222
2.4276360388968707	14.302344	3.7818441
2.445166748143469	14.012352	3.7433076
2.4626975146261025	13.731558	3.7056117
2.4802283387556323	13.4666195	3.6696892
2.4977592209429305	13.316274	3.649147
2.5152901615988825	13.187535	3.6314647
2.5328211611343865	12.958612	3.5998073
2.5503522199603523	12.571614	3.5456471
2.5678833384877024	12.153219	3.4861467
2.5854145171273712	11.864945	3.444553
2.6029457562903064	11.6989	3.4203656
2.620477056387469	11.571853	3.4017427
2.6380084178298326	11.36832	3.371694
2.655539841028383	11.090451	3.3302329
2.673071326394119	11.020948	3.3197813
2.6906028743380523	10.932981	3.3065057
2.708134485271211	10.834153	3.2915275
2.7256661596046325	10.795536	3.2856562
2.743197897749369	10.663564	3.2655113
2.760729700116486	10.3737955	3.2208376
2.778261567117063	10.2025385	3.1941414
2.795793499162193	10.141429	3.184561
2.8133254966629817	10.036351	3.16802
2.830857560030551	9.780719	3.127414
2.8483896896760337	9.6616125	3.1083136
2.865921886010578	9.609425	3.0999072
2.883454149445347	9.591755	3.097056
2.9009864803915177	9.306618	3.050675
2.91851887926028	9.033528	3.0055828
2.9360513464628384	8.801606	2.9667501
2.953583882410413	8.75958	2.9596586
2.9711164875142373	8.57702	2.928655
2.9886491621855606	8.494437	2.9145217
3.0061819068356455	8.328528	2.885919
3.023714721875769	8.354117	2.890349
3.041247607717225	8.338953	2.8877246
3.0587805647713213	8.364298	2.8921096
3.0763135934493806	8.44456	2.9059525
3.0938466941627407	8.220761	2.867187
3.1113798673227544	8.083329	2.8431196
3.1289131133407904	7.7783985	2.788978
3.1464464326282315	7.6097813	2.7585833
3.1639798255964786	7.5037413	2.7392957
3.1815132926569443	7.4036584	2.7209663
3.1990468342210603	7.502251	2.7390237
3.216580450700272	7.5042496	2.7393885
3.2341141425060416	7.462663	2.7317874
3.251647910049847	7.3115125	2.703981
3.2691817537431813	7.2086797	2.6848984
3.286715673997555	7.057567	2.656608
3.3042496712244938	6.968236	2.6397417
3.32178374583554	6.9026003	2.62728
3.339317898242251	6.8642726	2.6199756
3.3568521288562034	6.848408	2.6169465
3.3743864380889876	6.6818676	2.584931
3.3919208263522127	6.619066	2.5727546
3.4094552940575023	6.578191	2.5647984
3.4269898416164972	6.5705805	2.5633144
3.444524469440858	6.4532166	2.5403183
3.4620591779422587	6.3779683	2.525464
3.479593967532391	6.3256307	2.5150807
3.4971288386229658	6.2378607	2.497571
3.5146637916257086	6.235551	2.4971085
3.5321988269523628	6.3065853	2.5112915
3.5497339450146903	6.3033175	2.5106409
3.5672691462244708	6.3947177	2.5287778
3.5848044309934988	6.324977	2.5149508
3.60233979973359	6.351694	2.5202568
3.619875252856575	6.292961	2.5085776
3.6374107907743034	6.257082	2.501416
3.6549464138986427	6.256007	2.5012012
3.6724821226414788	6.153505	2.4806259
3.690017917414714	6.1588345	2.4817
3.7075537986302702	6.131464	2.4761794
3.7250897667000857	6.1555114	2.4810302
3.7426258220361235	6.4472976	2.5391529
3.7601619650503553	6.894973	2.625828
3.777698196154779	7.52731	2.7435944
3.7952345157614067	8.579344	2.9290516
3.8127709242822716	9.286795	3.0474243
3.830307422129425	11.5318775	3.3958619
3.847844009714936	30.406029	5.5141664
3.8653806874508954	97.84325	9.891575
3.882917455749409	97.06741	9.85228
3.900454315022606	96.81481	9.839452
3.917991265682631	41.314293	6.4276195
3.9355283081416506	10.96383	3.3111675
3.9530654428118495	8.629621	2.9376216
3.970602670105433	7.355887	2.712174
3.9881399904346244	6.508129	2.5511036
4.005677404211669	6.382734	2.5264072
4.023214911848827	6.3320904	2.5163646
4.0407525137583855	6.3079095	2.5115552
4.058290210352644	6.279272	2.5058477
4.075828002043927	6.1686745	2.4836817
4.0933658892445814	6.044648	2.4585867
4.110903872366966	6.02544	2.454677
4.128441951823468	6.0156617	2.4526846
4.145980128026488	6.1157303	2.4730003
4.163518401388452	6.1056623	2.470964
4.181056772321807	6.086996	2.4671838
4.1985952412390155	6.0622525	2.4621642
4.216133808552567	5.9903283	2.4475148
4.233672474674966	6.03782	2.4571977
4.251211240018741	6.254829	2.5009656
4.268750104996445	6.448629	2.5394151
4.286289070020643	7.297924	2.701467
4.303828135503928	8.978496	2.9964137
4.3213673018589125	29.31189	5.414046
4.3389065694982305	90.5844	9.517584
4.356445938834537	165.91127	12.880655
4.3739854102805085	171.16516	13.083011
4.391524984248844	171.96625	13.11359
4.409064661152262	135.87262	11.656441
4.426604441403504	95.9856	9.797224
4.444144325415337	75.28656	8.676783
4.461684313600543	21.487684	4.635481
4.47922440637193	22.22642	4.7144904
4.496764604142329	20.590593	4.537686
4.5143049073245916	18.658043	4.3194957
4.531845316331589	16.428139	4.053164
4.5493858315762195	13.391571	3.6594496
4.566926453471405	11.120715	3.3347735
4.584467182430081	9.099731	3.016576
4.602008018865218	7.994089	2.827382
4.619548963189798	7.3340764	2.70815
4.637090015816834	6.794722	2.6066687
4.654631177159353	6.5785108	2.5648608
4.672172447630417	6.297403	2.5094626
4.689713827643102	6.2160244	2.4931955
4.7072553176105085	5.9628525	2.4418952
4.724796917945764	5.8065867	2.409686
4.742338629062015	5.7234855	2.3923807
4.759880451372434	5.6530237	2.3776088
4.777422385290215	5.6623254	2.379564
4.794964431228581	5.741029	2.3960445
4.812506589600768	5.715973	2.39081
4.830048860820047	5.7251353	2.3927255
4.847591245299709	5.674878	2.3822002
4.8651337434530655	5.6694865	2.3810685
4.882676355693457	5.613247	2.369229
4.900219082434242	5.5485115	2.3555279
4.917761924088813	5.525132	2.35056
4.935304881070575	5.5480375	2.3554273
4.952847953792969	5.5386915	2.3534424
4.970391142669449	5.475225	2.3399198
4.9879344481135055	5.4230514	2.3287446
5.005477870538642	5.3460245	2.3121471
5.023021410358394	5.4015293	2.324119
5.040565067986324	5.396665	2.3230724
5.05810884383601	5.4642982	2.3375838
5.075652738321066	5.4834743	2.341682
5.09319675185512	5.462611	2.337223
5.110740884851836	5.351789	2.3133934
5.128285137724894	5.2254233	2.2859185
5.145829510888007	5.1332145	2.2656598
5.163374004754908	5.1399317	2.2671418
5.1809186197393595	5.195551	2.279375
5.198463356255145	5.286503	2.2992396
5.216008214716077	5.310626	2.3044796
5.233553195535998	5.2833633	2.2985568
5.251098299128764	5.223088	2.2854075
5.268643525908272	5.171505	2.2740943
5.286188876288432	5.18996	2.2781484
5.3037343506831895	5.1294026	2.2648184
5.32127994950651	5.0870214	2.2554426
5.3388256731723915	5.1321616	2.2654274
5.356371522094851	5.21696	2.2840664
5.373917496687938	5.207743	2.282048
5.391463597365729	5.202163	2.2808251
5.40900982454232	5.128823	2.2646904
5.426556178631843	5.102156	2.2587953
5.444102660048449	5.0677366	2.2511635
5.4616492692063225	5.10819	2.2601306
5.479196006519669	5.086931	2.2554226
5.496742872402727	5.063328	2.250184
5.514289867269756	4.9976025	2.2355318
5.531836991535049	4.9186406	2.2178009
5.549384245612924	4.893641	2.2121575
5.566931629917724	4.9631376	2.2278101
5.584479144863822	5.0376754	2.2444766
5.6020267908656205	5.1096234	2.2604475
5.619574568337545	5.1020136	2.2587638
5.637122477694054	5.0443597	2.2459652
5.654670519349629	5.05384	2.2480748
5.672218693718784	5.028986	2.2425401
5.689767001216059	5.0439997	2.2458851
5.707315442256021	5.04682	2.246513
5.724864017253266	5.005349	2.2372637
5.7424127266224225	4.956969	2.2264252
5.75996157077814	4.85363	2.2030957
5.777510550135105	4.882877	2.2097232
5.795059665108022	4.9123445	2.2163808
5.812608916111639	4.965671	2.2283785
5.830158303560715	5.129185	2.2647705
5.847707827870055	5.252303	2.2917905
5.86525748945448	5.34353	2.3116076
5.8828072887288485	5.478681	2.3406582
5.900357226108044	5.5395055	2.3536155
5.917907302006979	5.666047	2.380346
5.9354575168406	6.320145	2.51399
5.9530078710238765	6.913258	2.6293075
5.970558364971812	7.408424	2.721842
5.988108999099438	7.7364044	2.7814393
6.005659773821818	8.258819	2.873816
6.023210689554039	8.022323	2.8323705
6.040761746711227	8.554371	2.9247856
6.058312945708531	7.9360166	2.8170936
6.075864286961132	7.3790765	2.7164454
6.093415770884244	6.6723957	2.5830982
6.1109673978931065	6.0739465	2.4645379
6.128519168402993	5.620421	2.3707428
6.146071082829204	5.5053616	2.3463507
6.163623141587075	5.3982935	2.323423
6.181175345091969	5.2356615	2.2881567
6.198727693759281	5.184832	2.2770226
6.216280188004435	5.1469054	2.2686791
6.233832828242885	5.1234775	2.26351
6.251385614890126	5.1275573	2.264411
6.268938548361669	5.085828	2.255178
6.286491629073067	5.043258	2.24572
6.304044857439898	5.0402565	2.2450516
6.321598233877777	5.0176883	2.2400198
6.339151758802344	5.0292034	2.2425885
6.356705432629277	5.029161	2.242579
6.37425925577428	4.9815574	2.2319403
6.391813228653095	4.983414	2.2323563
6.409367351681486	4.919861	2.218076
6.426921625275259	4.9611487	2.2273636
6.44447604985025	4.9463587	2.224041
6.46203062582232	4.9423456	2.2231386
6.47958535360737	4.993404	2.2345927
6.497140233621328	4.9811783	2.2318554
6.514695266280161	4.986209	2.2329822
6.532250451999859	5.008946	2.2380674
6.549805791196454	4.9735975	2.2301564
6.567361284286002	5.016968	2.2398589
6.584916931684597	5.0666237	2.2509162
6.602472733808367	5.11002	2.2605355
6.6200286910734665	5.0942492	2.2570443
6.637584803896092	5.040615	2.2451315
6.655141072692462	4.9678392	2.228865
6.672697497878842	4.943194	2.2233295
6.690254079871514	4.957477	2.2265394
6.707810819086808	4.9316363	2.2207289
6.725367715941078	4.9578977	2.2266338
6.742924770850719	4.900682	2.2137485
6.760481984232151	4.946205	2.2240067
6.778039356501836	4.8957996	2.2126453
6.795596888076266	4.887964	2.210874
6.813154579371963	4.859969	2.2045338
6.830712430805492	4.8322263	2.1982327
6.84827044279344	4.8458967	2.2013397
6.865828615752445	4.8933477	2.2120912
6.883386950099159	5.0053177	2.2372568
6.900945446250287	4.9938784	2.2346988
6.918504104622553	4.9568257	2.226393
6.936062925632727	4.905904	2.2149274
6.953621909697607	4.910704	2.2160108
6.971181057234028	4.956571	2.2263358
6.988740368658859	5.011975	2.238744
7.006299844389007	5.088083	2.255678
7.023859484841407	5.156924	2.2708862
7.041419290433036	5.256388	2.2926815
7.058979261580902	5.370515	2.3174372
7.0765393987020495	5.6378713	2.3744202
7.094099702213559	6.0463066	2.4589238
7.111660172532549	6.4132376	2.532437
7.129220810076164	6.664864	2.5816398
7.146781615261595	7.1455727	2.6731205
7.16434258850606	7.4534593	2.7301025
7.181903730226821	7.8833814	2.807736
7.1994650408411704	8.057305	2.8385394
7.217026520766437	8.192443	2.8622444
7.234588170419983	8.351631	2.8899188
7.252149990219215	8.315114	2.883594
7.269711980581568	8.158119	2.8562422
7.2872741419245175	7.9852123	2.8258119
7.304836474665574	7.665263	2.7686212
7.322398979222286	7.3093615	2.703583
7.339961656012233	7.079229	2.660682
7.357524505453039	6.7523084	2.5985205
7.375087527962357	6.4937096	2.5482757
7.392650723957886	6.246646	2.499329
7.410214093857353	5.955818	2.4404545
7.427777638078528	5.7262783	2.3929644
7.445341357039213	5.4953113	2.344208
7.4629052511572525	5.310259	2.3044
7.480469320850524	5.248958	2.2910604
7.498033566536948	5.1754165	2.274954
7.5155979886344735	5.1718993	2.2741811
7.5331625875610975	5.112514	2.261087
7.550727363734844	5.1317296	2.2653322
7.568292317573788	5.0881543	2.2556937
7.585857449496025	5.1493654	2.2692213
7.603422759919705	5.145157	2.2682939
7.620988249263007	5.106574	2.259773
7.638553917944147	5.1037865	2.2591562
7.656119766381391	5.1049786	2.25942
7.673685794993023	5.1702127	2.2738101
7.691252004197388	5.241346	2.2893987
7.70881839441285	5.2005944	2.280481
7.726384966057826	5.1614304	2.2718782
7.743951719550762	5.1712976	2.2740488
7.761518655310149	5.197886	2.2798872
7.779085773754511	5.196848	2.2796595
7.796653075302419	5.182729	2.2765608
7.814220560372475	5.1945667	2.2791593
7.831788229383323	5.2237263	2.2855473
7.8493560827536495	5.213109	2.2832234
7.866924120902174	5.140578	2.2672842
7.884492344247663	5.085543	2.2551148
7.9020607532089135	5.1078043	2.2600453
7.919629348204771	5.20099	2.280568
7.937198129654115	5.2689276	2.2954144
7.954767097975865	5.3611827	2.3154228
7.972336253588986	5.3991556	2.3236084
7.989905596912472	5.385224	2.3206086
8.007475128365371	5.394848	2.3226812
8.025044848366756	5.358737	2.3148947
8.042614757335754	5.4240866	2.3289669
8.060184855691523	5.474682	2.3398037
8.07775514385327	5.641755	2.375238
8.095325622240228	5.733141	2.3943977
8.112896291271687	5.7679453	2.4016547
8.130467151366968	5.811867	2.4107814
8.148038202945436	5.8018775	2.4087086
8.165609446426497	5.8016334	2.408658
8.183180882229594	5.7826896	2.4047225
8.200752510774217	5.7367516	2.3951516
8.218324332479893	5.773247	2.4027581
8.235896347766193	5.8090096	2.4101887
8.253468557052724	5.896058	2.42818
8.27104096075914	5.896072	2.4281828
8.288613559305137	5.9747534	2.444331
8.306186353110448	6.0413976	2.4579256
8.32375934259485	6.081755	2.4661214
8.341332528178162	6.0947127	2.4687471
8.358905910280246	6.116199	2.473095
8.376479489321003	6.1218915	2.4742455
8.394053265720377	6.2419324	2.498386
8.411627239898356	6.2714486	2.504286
8.42920141227497	6.273127	2.504621
8.44677578327029	6.242521	2.4985037
8.464350353304427	6.249055	2.499811
8.48192512279754	6.2369847	2.4973955
8.499500092169827	6.188742	2.4877183
8.51707526184153	6.1953516	2.4890463
8.534650632232934	6.178445	2.4856477
8.552226203764365	6.1308265	2.4760506
8.569801976856192	6.12047	2.4739585
8.587377951928834	6.076421	2.4650397
8.60495412940274	6.129779	2.4758391
8.622530509698416	6.1729755	2.4845474
8.6401070932364	6.2825127	2.506494
8.657683880437283	6.3658285	2.5230594
8.675260871721695	6.4823914	2.5460541
8.692838067510303	6.633549	2.5755677
8.710415468223834	6.771225	2.6021578
8.727993074283043	6.9148602	2.6296122
8.745570886108737	6.939368	2.634268
8.763148904121765	7.034108	2.6521893
8.78072712874302	7.1187387	2.6680965
8.798305560393441	7.4025245	2.720758
8.815884199494006	7.626105	2.7615404
8.833463046465745	7.7875447	2.7906172
8.851042101729728	7.8224545	2.7968652
8.86862136570707	8.05865	2.838776
8.886200838818924	8.147814	2.8544376
8.903780521486505	8.219019	2.866883
8.921360414131055	8.370843	2.893241
8.938940517173874	8.505467	2.9164135
8.956520831036297	8.5958	2.9318595
8.97410135613971	8.842828	2.9736893
8.99168209290554	9.037489	3.0062416
9.009263041755265	9.357425	3.0589907
9.026844203110405	9.560247	3.091965
9.044425577392525	9.769932	3.125689
9.062007165023239	9.903053	3.1469116
9.079588966424197	10.160939	3.1876228
9.097170982017108	10.263482	3.203667
9.11475321222372	11.275164	3.357851
9.132335657465825	12.153793	3.4862292
9.149918318165264	12.36074	3.5157843
9.167501194743924	13.01334	3.6074007
9.18508428762374	12.701774	3.5639548
9.202667597226693	12.724338	3.567119
9.220251123974803	12.322006	3.5102715
9.237834868290143	11.935566	3.454789
9.255418830594836	11.595827	3.4052646
9.273003011311046	11.078421	3.3284261
9.290587410860985	10.85378	3.2945075
9.308172029666911	10.244149	3.2006483
9.32575686815113	9.941023	3.1529388
9.343341926735997	8.620974	2.9361494
9.360927205843916	8.451119	2.907081
9.378512705897327	8.285778	2.8785028
9.396098427318728	8.123234	2.8501287
9.413684370530664	7.94819	2.8192534
9.431270535955722	7.839528	2.7999158
9.448856924016539	7.792078	2.7914293
9.466443535135806	7.71553	2.7776842
9.484030369736251	7.703627	2.7755408
9.501617428240658	7.657137	2.7671533
9.519204711071852	7.6676383	2.7690501
9.536792218652714	7.6984773	2.774613
9.55437995140617	7.773972	2.7881844
9.571967909755191	7.7733283	2.788069
9.589556094122802	7.7625427	2.786134
9.60714450493207	7.7558794	2.7849379
9.624733142606116	7.7682586	2.7871597
9.642322007568108	7.8564887	2.8029428
9.659911100241267	7.9386764	2.8175657
9.677500421048851	8.037699	2.8350835
9.695089970414175	8.09456	2.845094
9.712679748760609	8.093293	2.8448713
9.730269756511557	8.06772	2.8403733
9.747859994090492	8.077974	2.8421776
9.765450461920915	8.078133	2.8422055
9.78304116042639	8.153409	2.8554175
9.800632090030527	8.232299	2.8691983
9.81822325115699	8.164802	2.8574116
9.835814644229481	8.113212	2.84837
9.853406269671762	8.075356	2.841717
9.870998127907646	8.136164	2.8523962
9.888590219360985	8.173424	2.85892
9.906182544455698	8.202364	2.863977
9.923775103615734	8.224666	2.8678677
9.941367897265108	8.187912	2.8614528
9.958960925827878	8.14953	2.8547382
9.97655418972816	8.0803175	2.8425899
9.994147689390106	8.089975	2.844288
10.011741425237934	8.150013	2.8548229
10.029335397695904	8.108548	2.8475513
10.04692960718833	8.13837	2.8527827
10.06452405413958	8.201744	2.8638687
10.082118738974064	8.26947	2.8756688
10.099713662116246	8.254494	2.8730636
10.117308823990651	8.207933	2.8649492
10.134904225021844	8.179605	2.8600008
10.152499865634445	8.240457	2.8706195
10.170095746253125	8.179371	2.8599598
10.18769186730261	8.152124	2.8551924
10.205288229207675	8.150656	2.8549354
10.222884832393145	8.112298	2.8482096
10.2404816772839	8.0948515	2.8451452
10.258078764304868	8.048216	2.8369377
10.275676093881035	8.044338	2.8362544
10.293273666437438	8.055639	2.8382459
10.310871482399158	8.098346	2.8457592
10.32846954219134	8.042465	2.8359241
10.346067846239173	8.066132	2.8400936
10.363666394967908	8.075608	2.8417616
10.38126518880283	8.128912	2.8511248
10.398864228169298	8.13574	2.8523219
10.416463513492713	8.102965	2.8465707
10.434063045198531	8.059017	2.8388407
10.451662823712262	8.007294	2.8297162
10.469262849459467	8.071892	2.8411076
10.486863122865758	8.037127	2.8349826
10.504463644356806	8.013948	2.8308918
10.522064414358338	7.9280343	2.8156765
10.539665433296118	7.8294897	2.7981226
10.557266701595987	7.746274	2.783213
10.574868219683818	7.6331277	2.7628117
10.592469987985552	7.639509	2.7639663
10.610072006927185	7.57834	2.7528784
10.627674276934751	7.5014706	2.7388813
10.64527679843435	7.3504972	2.71118
10.662879571852143	7.181845	2.6798966
10.680482597614331	7.1894665	2.681318
10.698085876147173	7.157986	2.6754413
10.715689407876988	7.066967	2.6583767
10.733293193230146	6.8871183	2.624332
10.750897232633072	6.671511	2.5829268
10.76850152651225	6.5827446	2.565686
10.786106075294207	6.4885564	2.5472646
10.803710879405534	6.46932	2.5434859
10.821315939272877	6.397996	2.529426
10.83892125532294	6.2783594	2.5056655
10.856526827982472	6.1838975	2.4867444
10.874132657678285	6.1178284	2.4734244
10.891738744837243	6.1225333	2.4743752
10.909345089886271	6.1375055	2.4773989
10.926951693252343	6.054778	2.460646
10.944558555362494	5.9666224	2.442667
10.96216567664381	5.843307	2.4172933
10.979773057523436	5.777226	2.4035861
10.997380698428573	5.8313046	2.4148095
11.014988599786477	5.8440166	2.4174402
11.032596762024461	5.8088894	2.4101639
11.050205185569892	5.668512	2.3808637
11.067813870850198	5.56462	2.3589447
11.085422818292859	5.496017	2.3443584
11.10303202832541	5.431884	2.3306403
11.120641501375454	5.355395	2.3141725
11.138251237870636	5.3122973	2.3048422
11.155861238238671	5.2657113	2.2947137
11.173471502907317	5.2213745	2.2850327
11.191082032304402	5.13758	2.266623
11.208692826857805	5.0767226	2.2531583
11.226303886995465	5.024573	2.241556
11.243915213145371	4.9747643	2.230418
11.261526805735578	4.951349	2.2251627
11.279138665194196	4.900209	2.2136416
11.296750791949393	4.8215275	2.1957977
11.314363186429393	4.7773037	2.1857045
11.331975849062479	4.704428	2.1689694
11.34958878027699	4.6202345	2.1494732
11.36720198050133	4.551886	2.133515
11.384815450163948	4.4494467	2.1093712
11.402429189693366	4.432414	2.10533
11.420043199518153	4.3644266	2.089121
11.437657480066942	63.32354	7.9576087
11.455272031768422	85.03726	9.221565
11.472886855051353	107.46087	10.366333
11.490501950344528	99.05839	9.952808
11.508117318076819	84.43915	9.189077
11.52573295867715	45.85462	6.771604
11.543348872574514	4.1785717	2.0441556
11.560965060197946	4.1130695	2.0280704
11.57858152197655	4.0227385	2.0056765
11.59619825833949	4.0045776	2.0011442
11.613815269715985	4.005158	2.0012891
11.631432556535323	38.54076	6.2081203
11.649050119226837	83.01176	9.111079
11.666667958219929	93.39124	9.663915
11.68428607394406	107.6729	10.376555
11.701904466828756	82.5025	9.083089
11.719523137303586	65.323616	8.082303
11.737142085798196	4.506039	2.1227434
11.754761312742286	3.6398463	1.9078381
11.772380818565619	3.5743124	1.8905852
11.790000603698015	3.6001923	1.8974173
11.80762066856935	3.5705957	1.8896021
11.825241013609572	3.5588007	1.8864784
11.842861639248683	3.491348	1.8685149
11.860482545916748	3.4531488	1.858265
11.878103734043883	3.433477	1.8529644
11.895725204060282	3.421246	1.8496611
11.91334695639619	3.4172227	1.8485732
11.930968991481919	3.38631	1.8401929
11.948591309747824	3.3758276	1.8373425
11.966213911624347	3.3510597	1.83059
11.98383679754198	3.3023155	1.8172274
12.001459967931268	3.2927043	1.814581
12.019083423222835	3.299423	1.8164314
12.036707163847352	3.2733433	1.8092383
12.05433119023556	3.2471225	1.8019774
12.071955502818259	3.1785405	1.7828462
12.089580102026313	3.1486611	1.7744467
12.107204988290643	3.1491656	1.7745888
12.12483016204224	3.1319554	1.7697332
12.142455623712152	3.1157057	1.7651361
12.16008137373149	3.0970714	1.7598498
12.177707412531431	3.0688798	1.7518219
12.19533374054321	3.058835	1.7489525
12.212960358198126	3.0391796	1.7433243
12.230587265927545	2.978466	1.7258233
12.248214464162889	2.9466531	1.7165818
12.265841953335649	2.9486904	1.7171751
12.283469733877375	2.9552507	1.7190843
12.301097806219685	2.9905996	1.7293351
12.31872617079425	2.9331732	1.7126509
12.336354828032825	2.9100022	1.7058729
12.353983778367205	2.8861885	1.6988786
12.371613022229262	2.8956938	1.7016739
12.389242560050928	2.86606	1.6929442
12.406872392264201	2.8633437	1.6921418
12.424502519301143	2.882311	1.6977371
12.442132941593874	2.8905277	1.7001553
12.459763659574586	2.8583093	1.6906536
12.477394673675532	2.8077776	1.6756425
12.49502598432903	2.770244	1.664405
12.51265759196746	2.7740462	1.6655468
12.530289497023267	2.7856507	1.6690269
12.547921699928967	2.7758873	1.6660994
12.565554201117134	2.7672248	1.6634978
12.583187001020404	2.7468028	1.6573482
12.600820100071486	2.7437096	1.6564146
12.618453498703152	2.7399702	1.6552855
12.636087197348235	2.754758	1.6597463
12.65372119643964	2.7719243	1.6649097
12.671355496410326	2.7664232	1.6632568
12.68899009769333	2.765229	1.6628978
12.706625000721749	2.7791312	1.6670727
12.724260205928752	2.8653293	1.6927284
12.741895713747551	2.8927865	1.7008194
12.759531524611454	2.9749553	1.7248058
12.777167638953818	3.0054097	1.7336117
12.794804057208072	3.0557716	1.7480766
12.812440779807702	3.1049914	1.7620986
12.830077807186271	3.250233	1.8028402
12.847715139777405	3.2172585	1.7936717
12.865352778014795	3.409601	1.8465105
12.882990722332197	3.5349386	1.8801433
12.90062897316344	3.636401	1.906935
12.918267530942412	3.7439752	1.9349355
12.935906396103071	3.6190436	1.9023784
12.953545569079449	3.8014996	1.9497435
12.971185050305628	3.6104066	1.900107
12.988824840215775	3.5852818	1.893484
13.006464939244115	3.4751678	1.8641802
13.024105347824943	3.31175	1.8198214
13.041746066392617	3.416905	1.8484873
13.05938709538157	3.27605	1.8099862
13.077028435226296	3.3205693	1.822243
13.094670086361363	3.2467635	1.8018777
13.112312049221401	3.1550577	1.7762482
13.129954324241112	3.0736098	1.7531713
13.147596911855258	2.907643	1.7051812
13.165239812498685	2.874557	1.6954519
13.182883026606293	2.7703443	1.6644351
13.200526554613058	2.698189	1.6426165
13.218170396954017	2.6461506	1.6266993
13.235814554064284	2.655613	1.6296052
13.253459026379034	2.6401296	1.6248475
13.271103814333523	2.6245236	1.6200382
13.288748918363058	2.6429617	1.6257188
13.306394338903031	2.6675317	1.633258
13.32404007638889	2.6497946	1.627819
13.341686131256164	2.613254	1.6165563
13.359332503940449	2.5505786	1.597053
13.376979194877402	2.5710487	1.603449
13.394626204502751	2.6561866	1.6297811
13.412273533252307	2.6789074	1.6367369
13.429921181561937	2.6677647	1.6333293
13.447569149867581	2.6664815	1.6329365
13.465217438605247	2.6887205	1.6397319
13.482866048211022	2.703234	1.6441514
13.500514979121052	2.6913126	1.640522
13.518164231771568	2.654972	1.6294085
13.535813806598844	2.616323	1.6175052
13.553463704039254	2.6187594	1.6182581
13.571113924529229	2.6104383	1.6156851
13.588764468505275	2.6509726	1.6281807
13.606415336403956	2.679329	1.6368656
13.624066528661917	2.7502675	1.658393
13.641718045715882	2.7832208	1.6682987
13.659369888002635	2.8532012	1.6891421
13.67702205595903	2.8667784	1.6931564
13.694674550021993	2.9275048	1.7109953
13.712327370628532	2.9829946	1.7271348
13.729980518215713	3.0628479	1.7500994
13.747633993220681	3.1679666	1.7798783
13.765287796080647	3.220044	1.794448
13.7829419272329	3.2763698	1.8100746
13.800596387114801	3.275119	1.809729
13.818251176163775	3.3107789	1.8195546
13.835906294817324	3.2964041	1.8156002
13.853561743513023	3.301149	1.8169065
13.871217522688525	3.3347025	1.8261168
13.888873632781538	3.3762877	1.8374678
13.906530074229858	3.4600792	1.8601288
13.92418684747135	3.4888837	1.8678554
13.941843952943948	3.4527078	1.8581463
13.959501391085665	3.3976235	1.8432643
13.977159162334578	3.3288262	1.8245071
13.994817267128846	3.3107307	1.8195413
14.012475705906693	3.2112412	1.7919936
14.030134479106424	3.138917	1.771699
14.047793587166414	3.06771	1.751488
14.065453030525108	3.0375757	1.7428643
14.083112809621026	2.9401207	1.714678
14.100772924892766	2.8903778	1.7001112
14.118433376778997	2.8186386	1.6788801
14.136094165718458	2.7942798	1.67161
14.153755292149969	2.7467055	1.6573188
14.171416756512416	2.670674	1.6342198
14.189078559244768	2.571256	1.6035136
14.20674070078606	2.4975615	1.5803676
14.224403181575408	2.485637	1.5765903
14.242066002051999	2.4731414	1.5726224
14.259729162655093	2.4298801	1.5588073
14.277392663824022	2.3852372	1.5444213
14.295056505998208	2.4031675	1.5502152
14.312720689617128	2.4231863	1.5566587
14.330385215120348	2.4398177	1.5619916
14.348050082947497	2.4100957	1.5524483
14.3657152935383	2.391151	1.5463346
14.383380847332528	2.3866765	1.5448872
14.401046744770051	2.376803	1.5416883
14.418712986290798	2.3462718	1.5317545
14.436379572334793	2.3520193	1.5336294
14.454046503342123	2.3792238	1.5424733
14.471713779752946	2.3438344	1.5309587
14.489381402007504	2.30573	1.518463
14.507049370546113	2.312228	1.5206012
14.524717685809168	2.3741877	1.5408399
14.542386348237134	2.438709	1.5616367
14.560055358270553	2.4265766	1.5577472
14.577724716350051	2.4388335	1.5616765
14.595394422916325	2.412529	1.5532318
14.61306447841015	2.457597	1.5676725
14.63073488327237	2.4637651	1.5696385
14.648405637943917	2.485712	1.5766141
14.6660767428658	2.4521236	1.5659258
14.683748198479094	2.4708128	1.5718819
14.701420005224954	2.5111644	1.5846654
14.719092163544628	2.6305149	1.6218863
14.73676467387942	2.6837068	1.6382023
14.754437536670727	2.6933022	1.6411283
14.772110752360014	2.618002	1.6180241
14.78978432138882	2.590352	1.609457
14.807458244198777	2.5788794	1.605889
14.82513252123159	2.6109986	1.6158584
14.842807152929028	2.6348693	1.6232281
14.860482139732962	2.65961	1.6308311
14.87815748208531	2.6496289	1.627768
14.8958331804281	2.6146405	1.616985
14.91350923520342	2.5430205	1.5946851
14.931185646853438	2.5449605	1.5952933
14.948862415820408	2.5836847	1.6073844
14.966539542546656	2.6268985	1.6207709
14.98421702747459	2.6383915	1.6243126
15.001894871046696	2.6016774	1.6129717
15.019573073705542	2.5667334	1.6021028
15.037251635893766	2.6007776	1.6126927
15.054930558054092	2.64024	1.6248815
15.072609840629323	2.7233794	1.6502664
15.090289484062351	2.8574746	1.6904067
15.107969488796124	3.1120627	1.7641039
15.125649855273691	3.4750407	1.8641461
15.14333058393817	3.9357076	1.9838618
15.161011675232768	4.915709	2.2171397
15.17869312960076	6.2662168	2.5032413
15.196374947485506	8.117217	2.849073
15.214057129330447	11.259098	3.355458
15.231739675579114	16.044601	4.0055714
15.249422586675102	21.111553	4.594731
15.267105863062092	24.366241	4.9362173
15.284789505183847	24.795979	4.979556
15.302473513484218	22.901697	4.7855716
15.320157888407127	19.378477	4.402099
15.337842630396578	15.109878	3.8871427
15.355527739896656	11.692844	3.41948
15.37321321735153	9.0056505	3.0009415
15.39089906320545	6.4709883	2.5438137
15.408585277902748	4.817494	2.194879
15.42627186188783	3.754092	1.9375479
15.443958815605198	3.1704388	1.7805727
15.461646139499424	2.8535745	1.6892526
15.479333834015168	2.6830008	1.6379868
15.497021899597165	2.6109366	1.6158392
15.514710336690234	2.5791845	1.605984
15.53239914573928	2.5604208	1.6001315
15.550088327189297	2.5285354	1.5901369
15.567777881485336	2.5025113	1.5819328
15.58546780907256	2.474932	1.5731916
15.6031581103962	2.469838	1.5715718
15.620848785901568	2.4228733	1.5565581
15.638539836034063	2.4023623	1.5499556
15.656231261239173	2.381479	1.5432042
15.673923061962451	2.3565478	1.5351051
15.691615238649552	2.346718	1.5319002
15.709307791746202	2.374702	1.5410068
15.727000721698221	2.3894777	1.5457935
15.744694028951498	2.4234989	1.5567591
15.76238771395202	2.4243991	1.5570482
15.780081777145844	2.4310393	1.5591791
15.797776218979125	2.4198782	1.5555958
15.815471039898094	2.4279494	1.5581878
15.833166240349064	2.3996878	1.5490925
15.850861820778437	2.3479419	1.5322995
15.868557781632699	2.3317246	1.5269985
15.886254123358412	2.3502688	1.5330586
15.903950846402232	2.3808131	1.5429884
15.921647951210897	2.3820815	1.5433993
15.939345438231225	2.3940458	1.5472704
15.957043307910133	2.4236302	1.5568013
15.974741560694602	2.423947	1.556903
15.992440197031714	2.42336	1.5567145
16.01013921736862	2.4038954	1.5504501
16.02783862215259	2.4288774	1.5584856
16.045538411830933	2.4286058	1.5583985
16.06323858685107	2.400286	1.5492857
16.080939147660512	2.368116	1.5388684
16.09864009470684	2.356373	1.5350482
16.11634142843774	2.3545437	1.5344522
16.134043149300954	2.351436	1.5334393
16.15174525774433	2.367602	1.5387014
16.169447754215817	2.391907	1.5465791
16.18715063916342	2.4327295	1.559721
16.204853913035244	2.4523292	1.5659914
16.222557576279478	2.4565055	1.5673243
16.240261629344403	22.403036	4.7331843
16.257966072678386	42.942394	6.553045
16.275670906729868	38.083782	6.171206
16.293376131947387	2.5347567	1.5920919
16.31108174877957	2.518403	1.5869477
16.328787757675133	2.531177	1.5909673
16.34649415908287	2.5644658	1.6013949
16.364200953451657	2.5682652	1.6025808
16.38190814123048	2.589742	1.6092675
16.39961572286839	2.6084363	1.6150655
16.41732369881455	2.661266	1.6313387
16.43503206951817	2.6928785	1.6409992
16.45274083542859	2.7008448	1.6434247
16.47044999699522	2.7341945	1.65354
16.488159554667558	2.8023148	1.6740116
16.505869508895184	2.8890572	1.6997226
16.523579860127786	2.910954	1.7061518
16.541290608815117	2.89716	1.7021046
16.559001755407035	2.9129717	1.706743
16.57671330035348	2.9373863	1.7138804
16.59442524410448	3.0018435	1.7325829
16.61213758711015	3.0779455	1.7544074
16.629850329820705	3.1840143	1.7843807
16.647563472686436	3.2968645	1.815727
16.665277016157724	3.3638477	1.8340795
16.682990960685053	3.410875	1.8468554
16.70070530671898	3.4248784	1.8506427
16.718420054710155	3.4416733	1.8551748
16.736135205109335	3.4868867	1.8673208
16.753850758367335	3.563089	1.8876146
16.771566714935087	3.648152	1.9100137
16.789283075263597	3.717991	1.9282093
16.80699983980398	3.7620487	1.9396001
16.82471700900741	3.7919402	1.9472904
16.84243458332518	3.843288	1.9604305
16.860152563208665	3.8994906	1.9747127
16.87787094910932	4.008071	2.0020168
16.89558974147871	4.0935154	2.0232437
16.913308940768466	4.160678	2.039774
16.931028547430333	4.157288	2.0389428
16.94874856191613	4.1888285	2.0466628
16.966468984677785	4.2651114	2.0652146
16.98418981616729	4.3480077	2.0851877
17.00191105683676	4.388508	2.0948765
17.019632707138374	4.412408	2.1005733
17.03735476752442	4.4585786	2.1115346
17.05507723844728	4.476226	2.1157093
17.072800120359403	4.51964	2.1259444
17.090523413713353	4.529122	2.1281734
17.108247118961785	4.5742054	2.138739
17.125971236557437	4.6225724	2.1500168
17.143695766953133	4.612074	2.147574
17.161420710601806	4.5715666	2.1381223
17.179146067956477	4.620112	2.1494446
17.19687183947025	4.6825366	2.163917
17.21459802559634	4.7106147	2.1703951
17.232324626788028	4.6325226	2.1523297
17.25005164349871	4.5877895	2.1419127
17.267779076181863	4.537885	2.1302311
17.285506925291074	4.5156717	2.125011
17.30323519127999	4.515844	2.1250515
17.320963874602384	4.5241156	2.1269968
17.33869297571211	4.5057383	2.1226723
17.356422495063114	4.5071034	2.122994
17.37415243310944	4.469129	2.1140316
17.391882790305218	4.4467025	2.1087205
17.40961356710468	4.4592047	2.111683
17.42734476396215	4.496042	2.120387
17.445076381332044	4.5225677	2.126633
17.462808419668868	4.536059	2.1298025
17.48054087942723	4.668983	2.160783
17.498273761061835	4.926448	2.2195604
17.51600706502747	5.371591	2.3176694
17.533740791779024	6.082261	2.466224
17.551474941771485	7.52829	2.743773
17.56920951545993	8.620998	2.9361537
17.586944513299528	10.871391	3.2971792
17.60467993574556	12.7135	3.5655994
17.622415783253373	14.649941	3.8275242
17.64015205627843	16.255634	4.0318274
17.657888755276293	17.386965	4.169768
17.675625880702604	17.880842	4.2285743
17.69336343301311	17.648165	4.200972
17.71110141266366	16.771927	4.095354
17.728839820110178	15.759497	3.9698234
17.746578655808705	14.691296	3.8329227
17.764317920215372	13.00879	3.60677
17.7820576137864	11.330644	3.3661022
17.79979773697811	9.224758	3.0372286
17.81753829024692	7.267524	2.6958346
17.835279274049356	5.626002	2.3719194
17.85302068884201	4.6287594	2.1514552
17.870762535081607	4.0529985	2.013206
17.888504813224934	3.795456	1.948193
17.90624752372891	3.643349	1.9087559
17.923990667050536	3.5506687	1.8843218
17.941734243646895	3.4379761	1.8541781
17.959478253975185	3.3965452	1.8429718
17.9772226984927	3.4393585	1.8545507
17.994967577656833	3.4319544	1.8525535
18.01271289192506	3.388496	1.8407868
18.030458641754965	3.3368037	1.826692
18.04820482760425	3.3305178	1.8249706
18.06595144993067	3.2964926	1.8156246
18.083698509192125	3.2581167	1.8050255
18.101446005846576	3.242557	1.8007102
18.119193940352105	3.2737288	1.8093449
18.136942313166887	3.2383308	1.7995362
18.1546911247492	3.1792371	1.7830416
18.1724403755574	3.1114495	1.7639301
18.19019006604997	3.1104345	1.7636424
18.207940196685467	3.1007528	1.7608955
18.225690767922575	3.1180224	1.7657923
18.243441780220046	3.091724	1.7583299
18.261193234036764	3.0756533	1.753754
18.278945129831676	3.027647	1.7400135
18.29669746806386	2.9947104	1.7305232
18.314450249192483	3.0099502	1.7349207
18.3322034736768	3.0277693	1.7400486
18.349957141976184	3.0066133	1.7339588
18.3677112545501	2.9877036	1.7284975
18.385465811858108	2.9700704	1.7233891
18.403220814359884	2.9695635	1.7232422
18.420976262515172	3.009565	1.7348099
18.43873215678387	3.0369363	1.7426808
18.456488497625923	3.1034374	1.7616576
18.474245285501407	3.213426	1.7926031
18.492002520870486	3.3023028	1.8172239
18.50976020419343	3.367008	1.8349409
18.527518335930615	3.6087482	1.8996706
18.545276916542516	4.198914	2.0491252
18.563035946489688	4.410436	2.1001039
18.580795426232832	4.9059286	2.2149332
18.598555356232698	4.7462792	2.1785958
18.616315736950185	4.9432797	2.2233489
18.63407656884626	4.548308	2.1326761
18.65183785238201	4.732721	2.1754818
18.669599588018617	4.5977077	2.1442266
18.68736177621737	4.5489063	2.1328166
18.705124417439652	4.544379	2.1317549
18.72288751214696	4.3857093	2.0942085
18.740651060800886	4.516634	2.1252375
18.758415063863115	4.2111554	2.05211
18.77617952179546	4.3710904	2.0907152
18.793944435059814	4.169896	2.0420322
18.811709804118184	4.174002	2.0430374
18.829475629432675	4.088501	2.0220041
18.8472419114655	3.8741121	1.9682764
18.86500865067897	3.9409983	1.9851948
18.88277584753551	3.6708539	1.9159472
18.90054350249763	3.6892536	1.920743
18.918311616027957	3.3812828	1.8388264
18.936080188589226	3.284693	1.8123722
18.953849220644265	3.0016894	1.7325385
18.971618712656007	2.846555	1.6871737
18.9893886650875	2.7855709	1.669003
19.007159078401887	7.967733	2.8227172
19.024929953062408	32.849186	5.731421
19.042701289532435	32.776917	5.725113
19.060473088275405	25.277254	5.027649
19.07824534975489	2.6110349	1.6158696
19.096018074434568	2.6353517	1.6233766
19.113791262778197	2.5974886	1.6116726
19.13156491524966	2.5528688	1.59777
19.149339032312945	2.5419812	1.5943592
19.167113614432136	2.5510209	1.5971916
19.184888662071433	2.5561843	1.5988071
19.202664175695123	2.5466676	1.5958282
19.220440155767623	2.5120015	1.5849295
19.238216602753447	2.4702523	1.5717037
19.2559935171172	2.4709752	1.5719336
19.27377089932361	2.4678428	1.5709369
19.291548749837514	2.483244	1.5758312
19.309327069123835	2.49038	1.5780938
19.32710585764763	2.4678829	1.5709497
19.344885115874032	2.4710925	1.5719709
19.362664844268313	2.5051441	1.5827647
19.380445043295822	2.5174596	1.5866505
19.39822571342203	2.4878244	1.5772839
19.41600685511252	2.472888	1.5725418
19.43378846883297	2.4789376	1.5744642
19.451570555049173	2.487503	1.577182
19.469353114227037	2.4868639	1.5769794
19.48713614683254	2.4759212	1.573506
19.50491965333182	2.472764	1.5725025
19.52270363419109	2.5099297	1.5842757
19.540488089876686	2.5312655	1.5909951
19.55827302085503	2.4903142	1.5780729
19.576058427592674	2.4384363	1.5615493
19.593844310556282	2.4202976	1.5557306
19.611630670212598	2.4287288	1.558438
19.629417507028506	2.4576838	1.5677001
19.64720482147098	2.457231	1.5675558
19.6649926140071	2.4857402	1.5766231
19.682780885104084	2.4734488	1.5727202
19.70056963522921	2.4481866	1.5646682
19.718358864849908	2.4455802	1.5638351
19.7361485744337	2.4564424	1.5673041
19.753938764448215	2.486458	1.5768507
19.771729435361202	2.519224	1.5872064
19.789520587640506	2.535018	1.5921739
19.807312221754092	2.5409956	1.59405
19.825104338170043	2.5420644	1.5943853
19.842896937356517	2.5145838	1.5857439
19.860690019781824	2.5015204	1.5816195
19.87848358591436	2.5015364	1.5816246
19.896277636222635	2.4941041	1.5792733
19.914072171175278	2.4810894	1.5751474
19.931867191241015	2.4576008	1.5676737
19.94966269688869	2.457911	1.5677726
19.967458688587264	2.4517128	1.5657946
19.985255166805807	2.452206	1.5659521
20.00305213201348	2.4695036	1.5714655
20.020849584679578	2.5032847	1.5821772
20.038647525273507	2.4890492	1.5776721
20.05644595426477	2.4608464	1.5687085
20.07424487212299	2.4230115	1.5566026
20.092044279317903	2.447554	1.5644661
20.109844176319353	2.4597368	1.5683548
20.127644563597304	2.4052467	1.5508858
20.145445441621817	2.3548717	1.5345591
20.16324681086307	2.3432205	1.5307581
20.181048671791373	2.3798609	1.5426798
20.198851024877122	2.3657632	1.5381038
20.216653870590836	2.3435237	1.5308572
20.234457209403146	2.342513	1.5305271
20.252261041784802	2.3293715	1.5262278
20.270065368206662	2.308655	1.5194259
20.287870189139685	2.3196166	1.5230287
20.305675505054968	2.3232653	1.5242262
20.323481316423702	2.3194435	1.5229719
20.341287623717207	2.361071	1.5365777
20.359094427406884	2.3832707	1.5437845
20.376901727964288	2.3638787	1.5374911
20.39470952586107	2.3492146	1.5327147
20.41251782156899	2.3464365	1.5318083
20.430326615559935	2.3465734	1.531853
20.448135908305886	2.3219852	1.5238062
20.465945700278965	2.3230515	1.524156
20.483755991951384	2.31409	1.5212133
20.50156678379548	2.3397279	1.529617
20.519378076283708	2.3409266	1.5300087
20.537189869888635	2.3151212	1.5215522
20.55500216508294	2.2984104	1.5160509
20.572814962339415	2.300472	1.5167307
20.59062826213098	2.3368702	1.5286825
20.60844206493066	2.318542	1.522676
20.626256371211593	2.3081808	1.5192698
20.644071181447032	2.2767923	1.5089043
20.66188649611036	2.266381	1.5054505
20.67970231567506	2.2633321	1.5044374
20.697518640614742	2.2618248	1.5039364
20.715335471403122	2.2613306	1.5037721
20.73315280851404	2.280654	1.5101835
20.750970652421447	2.291239	1.5136839
20.768789003599412	2.26915	1.5063698
20.786607862522136	2.2763228	1.5087488
20.8044272296639	2.2767458	1.508889
20.82224710549913	2.264953	1.504976
20.84006749050237	2.2347064	1.4948934
20.857888385148268	3.779017	1.9439694
20.8757097899116	45.867264	6.7725377
20.893531705267254	64.73061	8.045534
20.911354131690224	83.749626	9.151483
20.92917706965566	69.00288	8.306797
20.94700051963877	50.076492	7.0764747
20.96482448211493	29.353966	5.41793
20.982648957559622	4.0822787	2.020465
21.00047394644843	2.20262	1.4841226
21.01829944925707	2.2279046	1.4926167
21.036125466461375	2.2485797	1.4995265
21.053951998537297	2.2437809	1.4979255
21.071779045960906	2.2480059	1.4993352
21.089606609208378	2.2436976	1.4978977
21.10743468875603	2.216961	1.4889462
21.12526328508028	2.2027535	1.4841676
21.143092398657675	2.1987882	1.4828311
21.16092202996488	2.210102	1.4866412
21.17875217947867	2.2185633	1.4894842
21.19658284767596	2.1908596	1.4801552
21.21441403503377	2.184302	1.4779384
21.232245742029225	2.1853247	1.4782844
21.2500779691396	2.1714675	1.47359
21.26791071684227	2.1822226	1.4772348
21.28574398561475	2.1842852	1.4779327
21.30357777593465	2.17673	1.4753745
21.321412088279704	2.1434553	1.4640543
21.339246923127792	2.1213608	1.4564892
21.357082280956888	2.1203413	1.4561392
21.3749181622451	2.1255841	1.4579383
21.392754567470647	2.1010628	1.4495044
21.41059149711187	2.0801406	1.4422692
21.42842895164726	2.0804002	1.4423592
21.446266931555378	2.1275132	1.4585997
21.464105437314945	2.1389933	1.4625298
21.481944469404798	2.1197505	1.4559363
21.49978402830388	2.1019535	1.4498116
21.51762411449127	2.0960503	1.4477743
21.53546472844617	2.0768168	1.4411165
21.553305870647876	2.0765958	1.4410398
21.571147541575865	2.0672932	1.4378085
21.58898974170967	2.0843287	1.4437205
21.60683247152899	2.0914383	1.4461806
21.62467573151363	2.0612504	1.4357055
21.642519522143523	2.032345	1.4256034
21.660363843898722	2.031786	1.4254073
21.6782086972594	1.9918154	1.4113169
21.696054082705864	1.9532542	1.3975887
21.713900000718535	1.9071816	1.3810074
21.73174645177795	1.9414663	1.3933651
21.749593436364794	1.9954592	1.4126072
21.767440954959845	2.028865	1.4243823
21.785289008044032	2.018703	1.4208107
21.803137596098388	1.9972302	1.413234
21.820986719604086	1.9869851	1.4096045
21.838836379042412	2.0060015	1.4163338
21.85668657489478	1.9931189	1.4117786
21.87453730764273	1.9727007	1.4045286
21.892388577767914	1.9507093	1.396678
21.91024038575213	1.9514338	1.3969373
21.928092732077285	1.9443798	1.3944103
21.945945617225426	1.9452932	1.3947377
21.963799041678694	1.9433944	1.3940568
21.981653005919398	31.28432	5.593239
21.999507510429943	78.10686	8.837809
22.01736255569286	73.07694	8.548505
22.035218142190818	4.1811137	2.0447772
22.05307427040661	2.0052521	1.4160693
22.07093094082315	1.9859279	1.4092295
22.088788153923474	1.9836677	1.4084274
22.106645910190746	1.9869059	1.4095765
22.12450421010827	1.9770007	1.4060585
22.142363054159464	1.9162441	1.3842847
22.16022244282787	1.895789	1.3768766
22.178082376597164	1.9188838	1.3852378
22.195942855951145	1.9645196	1.4016132
22.213803881373742	1.9511452	1.396834
22.231665453349002	1.9537715	1.3977737
22.24952757236111	1.9592589	1.3997353
22.26739023889438	1.9187835	1.3852016
22.28525345343323	1.878701	1.3706571
22.30311721646225	1.8837534	1.372499
22.320981528466113	1.8958441	1.3768965
22.33884638992964	1.9399682	1.3928274
22.356711801337788	1.9577526	1.3991971
22.37457776317561	1.9901161	1.4107147
22.392444275928337	1.9509013	1.3967466
22.410311340081282	1.9159232	1.3841687
22.428178956119904	1.9269881	1.38816
22.446047124529805	1.9845208	1.4087301
22.46391584579669	1.9881148	1.4100052
22.481785120406414	1.9567622	1.3988432
22.49965494884496	1.9718367	1.404221
22.51752533159841	1.992384	1.4115183
22.53539626915302	1.9755288	1.4055351
22.553267761995137	1.9588434	1.3995868
22.571139810611264	1.9435457	1.394111
22.589012415488025	1.9262904	1.3879087
22.60688557711216	1.9117967	1.3826773
22.624759295970566	1.9283851	1.388663
22.642633572550263	1.9272918	1.3882693
22.660508407338362	1.905233	1.3803018
22.67838380082217	1.9298465	1.3891891
22.696259753489077	1.9760779	1.4057304
22.714136265826614	1.995721	1.4126999
22.73201333832246	1.960135	1.4000483
22.74989097146439	1.9282216	1.3886042
22.76776916574035	1.8887239	1.3743085
22.785647921638393	1.891121	1.3751804
22.803527239646712	1.8997492	1.3783139
22.82140712025363	1.9308963	1.3895669
22.839287563947593	1.9503052	1.3965333
22.85716857121719	1.9412836	1.3932996
22.875050142551135	1.8707937	1.3677696
22.892932278438277	1.8381627	1.3557886
22.910814979367604	1.8624705	1.3647236
22.928698245828222	1.8911877	1.3752046
22.946582078309387	1.9324756	1.390135
22.96446647730047	1.9077648	1.3812186
22.98235144329098	1.8825535	1.3720617
23.000236976770562	1.8692423	1.3672024
23.018123078229	1.9017277	1.3790314
23.03600974815619	1.8965575	1.3771555
23.053896987042194	1.8707818	1.3677653
23.071784795377173	1.8690832	1.3671441
23.08967317365145	1.8594687	1.3636234
23.10756212235546	1.8067801	1.3441652
23.125451641979787	1.8322754	1.3536156
23.143341733015134	1.8806809	1.3713793
23.161232395952357	1.9272428	1.3882517
23.179123631282426	1.9221528	1.3864173
23.197015439496468	1.9231113	1.3867629
23.214907821085717	1.9169176	1.3845279
23.23280077654157	1.8859329	1.3732927
23.250694306355538	1.8879294	1.3740195
23.268588411019277	1.9099213	1.381999
23.28648309102458	1.9097401	1.3819335
23.304378346863356	1.8958806	1.3769099
23.322274179027676	1.8868753	1.3736358
23.340170588009723	1.924588	1.3872952
23.358067574301852	1.9746641	1.4052274
23.37596513839651	1.9613605	1.4004858
23.39386328078629	1.9205388	1.385835
23.411762001963947	1.9040568	1.3798757
23.429661302422353	1.9097595	1.3819405
23.4475611826545	1.940946	1.3931783
23.46546164315356	1.9452972	1.3947392
23.48336268441279	1.9322706	1.3900614
23.501264306925638	1.9215397	1.3861961
23.51916651118564	1.9137292	1.383376
23.537069297686497	1.9172798	1.3846587
23.554972666922037	1.9238043	1.3870127
23.57287661938623	1.9560966	1.3986052
23.59078115557318	1.9770019	1.406059
23.608686275977128	1.9784646	1.406579
23.62659198109246	1.9488643	1.3960173
23.6444982714137	1.9378918	1.3920819
23.66240514743549	1.9191462	1.3853325
23.68031260965263	1.9197665	1.3855565
23.698220658560068	1.9106187	1.3822513
23.716129294652845	1.930971	1.3895938
23.7340385184262	1.9307272	1.3895061
23.75194833037546	1.9296126	1.389105
23.769858730996123	1.9081085	1.381343
23.78776972078382	1.9141533	1.3835293
23.80568130023431	1.9496294	1.3962913
23.823593469843495	1.9387759	1.3923993
23.841506230107424	1.8816692	1.3717395
23.859419581522275	1.8139606	1.3468336
23.87733352458438	1.8438725	1.3578926
23.89524805979019	1.9179018	1.3848833
23.913163187636318	2.0030801	1.4153022
23.931078908619508	2.0128827	1.418761
23.948995223236633	1.9829942	1.4081882
23.966912131984735	2.0029778	1.415266
23.98482963536096	2.0269346	1.4237045
24.002747733862616	1.9959885	1.4127946
24.020666427987155	1.9573593	1.3990566
24.038585718232156	1.9464402	1.3951489
24.056505605095353	1.9579601	1.3992712
24.074426089074617	1.9627632	1.4009866
24.092347170667946	1.9728934	1.4045972
24.110268850373515	2.0221906	1.4220375
24.128191128689586	2.0498836	1.4317415
24.146114006114626	2.0508008	1.4320617
24.164037483147187	2.0113444	1.4182187
24.181961560286005	1.990009	1.4106767
24.199886238029926	1.9660422	1.4021562
24.21781151687797	1.9910114	1.4110321
24.235737397329274	2.0127215	1.4187042
24.253663879883135	2.0028858	1.4152335
24.271590965038975	2.0207458	1.4215294
24.289518653296376	2.0098777	1.4177016
24.30744694515505	2.0149248	1.4194804
24.32537584111486	1.9752762	1.4054452
24.34330534167581	1.9909661	1.411016
24.361235447338046	2.0067372	1.4165936
24.379166158601876	2.0084035	1.4171815
24.39709747596772	1.944736	1.3945379
24.41502939993615	1.9143969	1.3836173
24.432961931007917	1.9487265	1.395968
24.450895069683856	1.9782332	1.4064968
24.468828816465	1.9979156	1.4134765
24.4867631718525	1.9523243	1.397256
24.504698136347656	1.9608421	1.4003007
24.52263371045192	1.9741627	1.405049
24.540569894666874	1.9865175	1.4094387
24.558506689494266	1.9832419	1.4082762
24.57644409543597	1.9825937	1.408046
24.594382112994012	1.9663944	1.4022819
24.61232074267057	1.9247282	1.3873457
24.630259984967953	1.8869292	1.3736554
24.64819984038863	1.8788061	1.3706955
24.66614030943522	1.940666	1.3930779
24.684081392610462	1.9630953	1.401105
24.702023090417274	1.941395	1.3933395
24.7199654033587	1.9342593	1.3907765
24.737908331937927	1.9628272	1.4010093
24.755851876658305	1.9916495	1.4112581
24.773796038023324	2.0218787	1.4219278
24.79174081653661	2.0687099	1.4383011
24.809686212701962	2.1201668	1.4560792
24.827632227023294	2.1000056	1.4491396
24.8455788600047	2.0319843	1.4254769
24.8635261121504	2.0529497	1.4328119
24.88147398396475	2.082344	1.443033
24.899422475952303	2.093757	1.446982
24.917371588617698	2.0839968	1.4436054
24.935321322465768	2.1740732	1.4744738
24.953271678001478	2.3139207	1.5211577
24.97122265572994	2.494686	1.5794575
24.989174256156414	2.7847948	1.6687704
25.00712647978632	3.2686474	1.8079401
25.02507932712521	3.8667402	1.9664029
25.043032798678798	4.3902555	2.0952938
25.060986894952933	5.1243234	2.263697
25.078941616453637	5.984936	2.446413
25.096896963687055	7.00409	2.6465242
25.114852937159508	8.225638	2.8680375
25.132809537377444	8.730716	2.9547784
25.150766764847468	8.691616	2.9481547
25.168724620076347	7.9361634	2.8171196
25.186683103570985	6.8270226	2.612857
25.204642215838426	5.6158085	2.3697698
25.222601957385894	4.1995544	2.0492814
25.24056232872074	3.2034166	1.7898091
25.25852333035048	2.6286287	1.6213046
25.276484962782778	2.2901216	1.5133147
25.294447226525435	2.0848672	1.4439069
25.312410122086423	1.9618526	1.4006615
25.330373649973843	1.9343418	1.3908062
25.348337810695988	1.9236022	1.3869399
25.366302604761245	1.9125525	1.3829507
25.384268032678207	1.9051634	1.3802766
25.40223409495558	1.8583746	1.3632221
25.420200792102257	1.8562092	1.3624277
25.438168124627246	1.8666722	1.3662621
25.45613609303974	1.8708857	1.3678032
25.474104697849057	1.8775125	1.3702235
25.492073939564698	1.886277	1.373418
25.510043818696285	1.8826334	1.3720909
25.528014335753614	1.9231194	1.3867658
25.54598549124664	1.8997074	1.3782988
25.56395728568544	1.8171744	1.3480262
25.58192971958028	1.7922812	1.3387611
25.59990279344156	1.8058811	1.3438308
25.617876507779833	1.8286074	1.3522601
25.635850863105826	1.8508722	1.3604677
25.653825859930386	1.8458012	1.3586026
25.671801498764548	1.8279444	1.3520149
25.68977778011949	1.8221656	1.3498762
25.707754704506524	1.8384036	1.3558774
25.725732272437153	1.8335669	1.3540926
25.743710484423012	1.8475102	1.3592315
25.761689340975888	1.8825063	1.3720446
25.77966884260774	1.9157146	1.3840934
25.797648989830662	1.864431	1.3654417
25.815629783156922	1.8278521	1.3519808
25.83361122309895	1.8396683	1.3563437
25.85159331016929	1.8423214	1.3573214
25.869576044880695	1.8142744	1.34695
25.887559427746034	1.7874142	1.3369421
25.90554345927836	1.7715642	1.3310012
25.92352813999086	1.8356141	1.3548484
25.94151347039689	1.9074117	1.3810908
25.959499451009965	1.8661369	1.3660662
25.97748608234374	1.8047917	1.3434254
25.995473364912062	1.7788541	1.3337369
26.013461299228904	1.7882072	1.3372387
26.03144988580839	1.7924694	1.3388313
26.04943912516483	1.7584058	1.326049
26.067429017812675	1.7048596	1.3057027
26.085419564266537	1.7064145	1.306298
26.103410765041186	1.768635	1.3299004
26.12140262065155	1.8398744	1.3564197
26.139395131612723	1.8759459	1.3696518
26.157388298439948	1.8768007	1.3699638
26.17538212164861	1.8628947	1.364879
26.193376601754295	1.8531486	1.361304
26.211371739272714	1.8447924	1.3582313
26.229367534719746	1.8080658	1.3446434
26.247363988611433	1.808755	1.3448997
26.26536110146397	1.8255874	1.351143
26.283358873793727	1.8212049	1.3495202
26.301357306117204	1.8264614	1.3514664
26.319356398951104	1.8526936	1.3611369
26.33735615281224	1.8290443	1.3524216
26.35535656821762	1.7869723	1.3367769
26.373357645684404	1.7367077	1.317842
26.39135938572991	1.7299893	1.3152906
26.409361788871614	1.7242186	1.3130951
26.427364855627165	1.7577497	1.3258015
26.445368586514352	1.7519344	1.3236066
26.46337298205115	1.7501706	1.3229401
26.48137804275568	1.7272617	1.3142533
26.499383769146217	1.741405	1.3196231
26.517390161741215	1.7447064	1.3208734
26.53539722105928	1.775228	1.3323768
26.553404947619182	1.7497336	1.322775
26.571413341939856	1.7132881	1.3089263
26.589422404540397	1.7409366	1.3194456
26.60743213594006	1.7795982	1.3340158
26.62544253665827	1.7947222	1.3396724
26.64345360721459	1.782372	1.3350551
26.66146534812879	1.7434081	1.3203818
26.679477759920758	1.6959546	1.3022882
26.69749084311057	1.7263275	1.3138978
26.71550459821847	1.7799897	1.3341626
26.733519025764842	1.8126409	1.3463435
26.751534126270258	1.7597678	1.3265624
26.769549900255434	1.7521578	1.323691
26.787566348241267	1.7684778	1.3298413
26.80558347074881	1.8096061	1.345216
26.823601268299267	1.7848936	1.3359991
26.841619741414036	1.7529937	1.3240067
26.85963889061465	1.751735	1.3235313
26.877658716422832	1.7500918	1.3229103
26.89567921936045	1.7544286	1.3245485
26.913700399949544	1.7738812	1.3318713
26.93172225871233	1.7992212	1.3413506
26.949744796171174	1.794915	1.3397443
26.967768012848605	1.7870396	1.336802
26.98579190926733	1.7900281	1.3379194
27.003816485950225	1.7809519	1.3345231
27.021841743420318	1.7751539	1.3323491
27.039867682200814	1.7852844	1.3361454
27.057894302815072	1.82837	1.3521724
27.07592160578664	1.8242733	1.3506566
27.0939495916392	1.8166707	1.3478392
27.111978260896635	1.8065166	1.3440672
27.13000761408296	1.8193237	1.3488231
27.148037651722397	1.8202723	1.3491747
27.166068374339304	1.8188573	1.3486502
27.184099782458215	1.7815604	1.3347511
27.20213187660384	1.7973617	1.3406572
27.22016465730105	1.8178546	1.3482784
27.23819812507487	1.8336341	1.3541175
27.256232280450533	1.7959439	1.3401283
27.274267123953383	1.7722381	1.3312544
27.292302656108987	1.7642095	1.3282355
27.31033887744306	1.7697924	1.3303355
27.32837578848146	1.7820839	1.3349471
27.34641338975026	1.8276819	1.3519179
27.364451681775673	1.8040268	1.3431407
27.382490665084074	1.796399	1.340298
27.400530340202046	1.7748909	1.3322504
27.41857070765629	1.7798798	1.3341213
27.436611767973726	1.7347091	1.3170836
27.454653521681404	1.7326213	1.3162907
27.472695969306564	1.7528287	1.3239443
27.490739111376627	1.7602602	1.326748
27.508782948419153	1.7462435	1.321455
27.526827480961902	1.7468934	1.3217009
27.54487270953279	1.7644249	1.3283166
27.562918634659898	1.8078758	1.3445727
27.580965256871508	1.8356988	1.3548796
27.599012576696026	1.8349097	1.3545884
27.617060594662068	1.8392551	1.3561914
27.63510931129842	1.8013893	1.3421584
27.65315872713401	1.8136377	1.3467137
27.67120884269797	1.8180504	1.348351
27.68925965851958	1.8031842	1.342827
27.707311175128307	1.8134744	1.346653
27.725363393053787	1.862991	1.3649143
27.74341631282583	1.8912458	1.3752258
27.7614699349744	1.869628	1.3673434
27.77952426002968	2.004918	1.4159513
27.797579288521973	2.091933	1.4463516
27.815635020981784	2.4588056	1.5680579
27.83369145793979	2.4977381	1.5804234
27.85174859992682	2.3564048	1.5350586
27.869806447473923	2.2803984	1.5100988
27.887865001112267	2.0030532	1.4152926
27.905924261373233	1.8538132	1.3615481
27.92398422878836	1.8523945	1.361027
27.94204490388936	1.8949732	1.3765802
27.96010628720813	1.8704913	1.3676591
27.978168379276728	1.8359559	1.3549745
27.9962311806274	1.8330009	1.3538836
28.014294691792568	1.8137537	1.3467567
28.0323589133048	1.825984	1.3512897
28.050423845696887	1.8707067	1.3677378
28.068489489501758	1.822447	1.3499804
28.086555845252523	1.8161573	1.3476489
28.104622913482487	1.8365757	1.3552033
28.122690694725115	1.8513008	1.3606251
28.14075918951405	1.8336213	1.3541127
28.15882839838312	1.9078574	1.3812522
28.176898321866304	1.9052964	1.3803247
28.1949689604978	1.9045054	1.3800381
28.213040314811945	1.9536681	1.3977368
28.23111238534327	1.9588464	1.399588
28.249185172626493	1.9000685	1.3784298
28.267258677196473	1.8801682	1.3711922
28.285332899588294	1.9103084	1.3821391
28.303407840337172	1.9323809	1.3901011
28.321483499978545	1.9208454	1.3859457
28.33955987904799	1.8998979	1.3783679
28.357636978081285	1.9544754	1.3980255
28.37571479761439	2.0018513	1.414868
28.393793338183425	1.997985	1.413501
28.41187260032469	1.9892629	1.4104123
28.429952584574686	1.9934494	1.4118958
28.448033291470065	1.9876556	1.4098424
28.46611472154769	1.93443	1.3908379
28.484196875344566	1.9472405	1.3954356
28.502279753397914	1.981139	1.4075294
28.52036335624511	1.9988887	1.4138206
28.538447684423716	1.9841665	1.4086045
28.556532738471482	2.0242488	1.422761
28.574618518926325	1.9971191	1.4131947
28.59270502632635	1.9951504	1.412498
28.61079226120985	1.9994179	1.4140078
28.628880224115274	1.9666177	1.4023615
28.646968915581287	1.9486883	1.3959543
28.66505833614671	1.9248642	1.3873948
28.68314848635055	2.008736	1.4172988
28.701239366732004	2.0843265	1.4437196
28.71933097783044	2.1030378	1.4501854
28.737423320185403	2.0537283	1.4330835
28.75551639433665	2.0402792	1.4283834
28.773610200824074	2.0407784	1.4285581
28.791704740187793	2.081597	1.442774
28.80980001296809	2.1313865	1.4599268
28.827896019705413	2.1658788	1.4716924
28.845992760940433	2.1526728	1.467199
28.86409023721397	2.1364262	1.4616519
28.88218844906704	2.154807	1.4679261
28.900287397040845	2.1524334	1.4671174
28.918387081676755	2.222197	1.4907036
28.936487503516343	2.2750523	1.5083276
28.954588663101365	2.2763753	1.5087662
28.97269056097374	2.2843301	1.5114001
28.990793197675597	2.2913208	1.513711
29.00889657374923	2.3604195	1.5363656
29.027000689737125	2.378804	1.5423372
29.04510554618196	2.3364012	1.528529
29.06321114362659	2.3420851	1.5303873
29.08131748261405	2.4216192	1.5561552
29.099424563687567	2.4531968	1.5662684
29.11753238739057	2.4247282	1.5571538
29.13564095426663	2.4533045	1.5663028
29.15375026485954	2.4939132	1.5792128
29.171860319713275	2.5410728	1.5940742
29.18997111937199	2.5680609	1.602517
29.20808266438002	2.6408632	1.6250733
29.226194955281898	2.6579058	1.6303085
29.244307992622335	2.7254384	1.6508901
29.26242177694624	2.8207428	1.6795068
29.2805363087987	2.8476524	1.6874989
29.29865158872498	2.8957765	1.7016982
29.316767617270557	2.913296	1.706838
29.334884394981064	2.8978505	1.7023075
29.353001922402367	2.9154196	1.7074599
29.37112020008047	3.0478458	1.7458081
29.389239228561596	3.157759	1.7770084
29.407359008392152	3.2946694	1.8151224
29.42547954011872	3.6976454	1.9229263
29.44360082428809	4.341486	2.0836232
29.46172286144722	5.3865256	2.320889
29.479845652143283	6.9936724	2.6445553
29.497969196923606	9.271591	3.0449288
29.516093496335728	12.01931	3.4668877
29.5342185509274	14.909593	3.8612943
29.55234436124651	17.497498	4.183001
29.570470927841175	19.18126	4.3796415
29.588598251259686	18.857666	4.342541
29.60672633205055	17.325207	4.162356
29.624855170762405	14.865806	3.85562
29.642984767944146	11.888135	3.4479175
29.66111512414481	9.049188	3.0081868
29.67924623991366	6.7558417	2.5992002
29.697378115800138	5.197517	2.2798064
29.71551075235387	4.202075	2.0498962
29.733644150124675	3.753706	1.9374483
29.751778309662576	3.5757415	1.8909631
29.769913231517766	3.41211	1.8471898
29.78804891624066	3.3773594	1.8377594
29.806185364381818	3.3436923	1.8285766
29.82432257649206	3.283209	1.8119627
29.842460553122333	3.2840672	1.8121996
29.86059929482382	3.3185089	1.8216774
29.878738802147872	3.3359654	1.8264625
29.896879075646048	3.3242946	1.8232648
29.915020115870114	3.283717	1.8121029
29.933161923371976	3.3032699	1.81749
29.951304498703777	3.316604	1.8211546
29.969447842417857	3.354073	1.8314129
29.987591955066733	3.3170328	1.8212723
30.005736837203123	3.2437973	1.8010545
30.023882489379943	3.2067873	1.7907505
30.04202891215028	3.173469	1.7814233
30.060176106067455	3.1467452	1.7739067
30.078324071684946	3.1245203	1.7676313
30.09647280955646	3.1365614	1.771034
30.114622320235863	3.0954227	1.7593813
30.132772604277257	3.0984871	1.760252
30.1509236622349	3.1725326	1.7811605
30.16907549466328	3.1708634	1.7806919
30.18722810211705	3.111798	1.7640289
30.205381485151097	3.034288	1.7419207
30.22353564432045	2.9879565	1.7285707
30.241690580180403	2.9896417	1.729058
30.25984629328638	2.9771538	1.7254431
30.278002784194037	2.963119	1.7213713
30.296160053459246	2.9028094	1.7037632
30.314318101638033	2.8711812	1.694456
30.332476929286646	2.858091	1.690589
30.35063653696153	2.8838277	1.6981837
30.368796925219307	2.8641906	1.692392
30.386958094616844	2.8167858	1.6783283
30.40512004571115	2.8589666	1.6908479
30.423282779059463	2.830754	1.6824845
30.441446295219233	2.798081	1.6727465
30.459610594748067	2.8294342	1.6820922
30.47777567820382	2.8491418	1.6879401
30.495941546144504	2.800628	1.6735077
30.51410819912835	2.7720768	1.6649555
30.532275637713795	2.7390263	1.6550004
30.55044386245946	2.7526972	1.6591254
30.56861287392416	2.8438492	1.6863716
30.586782672666956	2.867519	1.693375
30.604953259247047	2.8018858	1.6738834
30.623124634223885	2.804857	1.6747707
30.641296798157075	2.7670186	1.6634358
30.659469751606462	2.708019	1.6456059
30.677643495132074	2.6926105	1.6409175
30.695818029294152	2.6395938	1.6246827
30.713993354653116	2.6283221	1.6212101
30.73216947176962	2.6496017	1.6277597
30.75034638120448	2.6718729	1.6345865
30.768524083518756	2.726586	1.6512377
30.786702579273673	2.7947457	1.6717492
30.80488186903069	2.8885942	1.6995865
30.82306195335144	2.973794	1.7244692
30.841242832797782	3.1271994	1.768389
30.85942450793176	3.438596	1.8543452
30.877606979315637	3.83627	1.9586399
30.895790247511883	4.1601877	2.0396538
30.913974313083134	4.6283784	2.1513667
30.932159176592283	4.980769	2.2317636
30.95034483860237	5.1286087	2.2646432
30.968531299676698	4.951169	2.2251222
30.98671856037873	4.5196257	2.125941
31.00490662127215	3.970022	1.9924914
31.023095482920848	3.5079665	1.8729566
31.04128514588892	3.0681264	1.7516068
31.059475610740662	2.7693183	1.6641269
31.07766687804056	2.533733	1.5917704
31.09585894835335	2.5010958	1.5814853
31.11405182224393	2.47724	1.573925
31.132245500277417	2.4783885	1.5742898
31.15043998301914	2.4536202	1.5664036
31.168635271034628	2.384614	1.5442195
31.18683136488964	2.3723001	1.5402273
31.20502826515008	2.5042248	1.5824742
31.223225972382135	2.547395	1.5960561
31.241424487152155	2.4863305	1.5768102
31.259623810026692	2.374705	1.5410078
31.27782394157253	2.3427155	1.5305932
31.296024882356644	2.4427812	1.5629399
31.314226632946237	2.5056844	1.5829353
31.332429193908684	2.4550328	1.5668545
31.350632565811598	2.3837311	1.5439336
31.368836749222787	2.4287891	1.5584573
31.387041744710295	2.5123618	1.5850432
31.40524755284232	2.5994365	1.6122768
31.423454174187317	2.591809	1.6099097
31.441661609313922	2.5471094	1.5959666
31.459869858791002	2.4771247	1.5738884
31.478078923187628	2.3769119	1.5417237
31.496288803073064	2.277087	1.509002
31.514499499016807	2.3029664	1.5175527
31.532711011588546	2.2759972	1.5086409
31.550923341358178	2.269614	1.5065238
31.56913648889584	2.2600796	1.5033561
31.587350454771844	2.3169777	1.5221622
31.605565239556732	2.362551	1.5370592
31.62378084382127	2.3308046	1.5266973
31.641997268136382	2.2591019	1.5030309
31.660214513073274	2.2817707	1.5105531
31.67843257920331	2.353848	1.5342256
31.6966514670981	2.3798263	1.5426686
31.71487117732944	2.3277793	1.5257062
31.733091710469346	2.2451637	1.498387
31.751313067090052	2.1726222	1.4739817
31.769535247764008	2.2083747	1.4860601
31.787758253063878	2.2795286	1.5098108
31.805982083562526	2.309866	1.5198243
31.824206739833024	2.2778208	1.5092452
31.84243222244869	2.2661748	1.505382
31.860658531983013	2.3077416	1.5191253
31.878885669009737	2.330554	1.5266153
31.897113634102784	2.3313515	1.5268764
31.91534242783632	2.271533	1.5071605
31.933572050784694	2.1788816	1.4761035
31.951802503522508	2.17386	1.4744016
31.970033786624548	2.133574	1.4606758
31.988265900665834	2.1526625	1.4671955
32.006498846221575	2.1760423	1.4751414
32.02473262386724	2.1531832	1.4673729
32.04296723417845	2.1570444	1.468688
32.0612026777311	2.2487307	1.4995768
32.07943895510129	2.3032448	1.5176445
32.097676066865304	2.2681963	1.5060532
32.115914013599685	2.1849654	1.4781629
32.13415279588115	2.1270003	1.458424
32.152392414286666	2.1085224	1.4520752
32.1706328693934	2.1152813	1.4544007
32.18887416177875	2.1497705	1.4662095
32.20711629202032	2.1796818	1.4763745
32.225359260695924	2.1988988	1.4828684
32.243603068383614	2.138165	1.4622465
32.26184771566166	2.0903883	1.4458175
32.28009320310852	2.0584335	1.4347242
32.2983395313029	2.0241199	1.4227157
32.31658670082372	2.0984073	1.448588
32.33483471225012	2.2079058	1.4859023
32.35308356616143	2.2217882	1.4905664
32.371333263137245	2.146942	1.4652447
32.38958380375734	2.0784032	1.4416668
32.407835188601744	2.0522366	1.432563
32.42608741825067	2.0635223	1.4364965
32.444340493284585	2.072235	1.439526
32.46259441428416	2.0798206	1.4421583
32.48084918183028	2.099812	1.4490728
32.49910479650405	2.0935352	1.4469054
32.51736125888683	2.1232967	1.4571537
32.53561856956014	2.132106	1.4601732
32.5538767291058	2.1038797	1.4504757
32.572135738105764	2.0197136	1.4211663
32.59039559714228	1.9906621	1.4109082
32.608656306797776	2.0240495	1.422691
32.62691786765491	2.0649436	1.4369911
32.645180280296586	2.014972	1.4194971
32.663443545305896	1.9975039	1.4133308
32.68170766326619	1.9719331	1.4042554
32.69997263476099	2.042361	1.429112
32.7182384603741	2.023797	1.4226022
32.7365051406895	2.0065858	1.4165401
32.75477267629144	1.9807557	1.4073932
32.77304106776434	1.9922525	1.4114717
32.79131031569289	1.9640837	1.4014577
32.809580420661966	1.9175414	1.3847532
32.827851383256714	1.9130434	1.3831282
32.84612320406245	1.9598045	1.3999302
32.86439588366476	1.9968342	1.4130938
32.88266942264945	1.9343476	1.3908082
32.9009438216025	1.8212533	1.3495382
32.9192190811102	1.8493208	1.3598974
32.937495201758985	1.923569	1.3869278
32.95577218413556	1.9511255	1.396827
32.974050028826866	1.8978589	1.377628
32.992328736420035	1.9551944	1.3982826
33.010608307502444	2.0477128	1.4309832
33.02888874266169	2.1318812	1.4600964
33.047170042485604	2.1199098	1.455991
33.06545220756225	2.0865614	1.4444935
33.083735238479896	2.0613809	1.435751
33.10201913582707	1.9643654	1.4015582
33.12030390019248	1.9167485	1.3844669
33.138589532165135	2.029059	1.4244504
33.15687603233419	2.0234866	1.4224931
33.17516340128909	1.9704672	1.4037333
33.19345163961947	1.9550595	1.3982345
33.211740747915215	1.983875	1.408501
33.23003072676643	1.9725566	1.4044774
33.248321576763466	1.9842483	1.4086335
33.266613298496885	2.0055633	1.4161791
33.28490589255747	1.9239919	1.3870803
33.30319935953626	1.8974128	1.3774661
33.32149370002451	1.9891593	1.4103756
33.339788914613706	1.9803276	1.4072411
33.358085003895575	1.8400134	1.356471
33.376381968462034	1.8365129	1.35518
33.39467980890529	1.9433571	1.3940434
33.41297852581774	2.0716546	1.4393244
33.43127811979204	2.1348946	1.4611279
33.44957859142105	2.0678852	1.4380143
33.467879941297866	1.9732603	1.4047278
33.486182170015844	1.957013	1.3989328
33.50448527816853	1.9978925	1.4134682
33.522789266349754	1.934968	1.3910313
33.541094135153514	1.8187059	1.3485941
33.55939988517411	1.7711624	1.3308502
33.57770651700602	1.8073087	1.3443618
33.59601403124398	1.9484915	1.3958838
33.61432242848296	2.0683572	1.4381784
33.632631709318154	1.9582574	1.3993775
33.650941874344994	1.9324108	1.3901118
33.66925292415916	2.02287	1.4222764
33.68756485935654	1.9717463	1.4041889
33.70587768053328	1.8077992	1.3445443
33.724191388285746	1.837701	1.3556182
33.74250598321054	1.9661474	1.4021938
33.760821465904506	1.9508653	1.3967338
33.77913783696474	1.9635955	1.4012835
33.79745509698852	1.92893	1.3888593
33.815773246573414	1.8970977	1.3773516
33.8340922863172	1.9887922	1.4102454
33.852412216817896	2.0680487	1.4380711
33.87073303867377	2.0167923	1.4201381
33.889054752483304	1.995379	1.4125788
33.907377358845245	1.99379	1.4120163
33.92570085835853	2.0394034	1.4280769
33.94402525162239	1.8618187	1.3644848
33.96235053923627	1.765663	1.3287826
33.980676721799824	1.8416415	1.3570709
33.999003799912984	1.9640336	1.4014398
34.01733177417592	1.9877709	1.4098833
34.03566064518901	2.0364952	1.4270582
34.0539904135529	2.0837317	1.4435136
34.07232107986846	1.9859183	1.4092262
34.090652644736785	1.8955344	1.3767841
34.108985108759235	1.9356037	1.3912598
34.12731847253742	1.9406244	1.393063
34.14565273667313	2.014594	1.419364
34.16398790176847	2.012997	1.4188012
34.18232396842574	1.9645774	1.4016339
34.20066093724749	1.9499457	1.3964045
34.21899880883651	2.0842144	1.4436809
34.23733758379583	1.9881312	1.410011
34.25567726272874	1.7967566	1.3404315
34.27401784623872	1.7983791	1.3410366
34.29235933492957	1.9506806	1.3966677
34.31070172940526	2.245642	1.4985466
34.32904503027003	2.2681415	1.506035
34.347389238128386	1.9762293	1.4057842
34.36573435358502	1.8544507	1.3617822
34.38408037724492	1.9142067	1.3835486
34.402427309713296	1.9081935	1.3813738
34.42077515159559	1.99181	1.411315
34.43912390349752	2.0262794	1.4234744
34.45747356602499	2.0725014	1.4396185
34.47582413978423	2.122756	1.4569681
34.49417562538163	2.1276717	1.458654
34.51252802342388	2.0651362	1.4370582
34.53088133451789	2.1362848	1.4616035
34.54923555927084	1.9555404	1.3984064
34.567590698290104	1.7532	1.3240846
34.58594675218336	1.7021623	1.3046694
34.6043037215585	1.7780341	1.3334295
34.62266160702365	1.880547	1.3713304
34.641020409187234	1.861469	1.3643566
34.65938012865785	1.9019171	1.3791001
34.677740766044394	2.0367298	1.4271405
34.69610232195598	2.1690216	1.4727598
34.714464797002016	2.011303	1.4182041
34.73282819179208	2.0239084	1.4226414
34.751192506936064	2.0633128	1.4364237
34.76955774304408	2.1213024	1.4564692
34.7879239007265	2.0295143	1.4246103
34.80629098059391	1.7900674	1.337934
34.824658983257194	1.796159	1.3402085
34.843027909327446	1.9672594	1.4025903
34.86139775941603	2.0890453	1.445353
34.879768534134534	2.0640194	1.4366696
34.89814023409483	1.9228864	1.3866818
34.91651285990901	1.8655692	1.3658584
34.93488641218944	1.9528806	1.3974551
34.95326089154871	1.8984777	1.3778526
34.97163629859967	1.8973536	1.3774446
34.99001263395542	1.9412944	1.3933034
35.00838989822934	2.0589032	1.4348879
35.02676809203499	2.0532959	1.4329326
35.04514721598624	2.0996253	1.4490083
35.063527270697215	2.0845122	1.443784
35.081908256782256	2.058483	1.4347414
35.10029017485597	2.0398717	1.4282408
35.11867302553321	2.0289152	1.4244
35.137056809429104	1.9000688	1.3784298
35.155441527159006	1.9257766	1.3877236
35.173827179338524	1.9104817	1.3822018
35.19221376658354	1.9322611	1.3900579
35.21060128951017	1.8964385	1.3771124
35.2289897487348	1.9039223	1.3798269
35.24737914487405	1.8005633	1.3418508
35.26576947854479	1.9094509	1.3818288
35.28416075036418	2.4422295	1.5627635
35.30255296094958	2.6048129	1.6139432
35.32094611091867	2.1227376	1.4569618
35.33934020088932	1.8297174	1.3526704
35.35773523147969	1.8598566	1.3637656
35.3761312033082	1.8940165	1.3762327
35.394528116993506	1.8498509	1.3600923
35.41292597315452	1.9605417	1.4001935
35.431324772410434	2.032943	1.4258131
35.449724515380666	1.8997442	1.3783121
35.46812520268491	1.8314013	1.3532928
35.486526834943106	1.5601645	1.2490654
35.504929412775454	1.6736455	1.2936945
35.52333293680242	1.8389301	1.3560716
35.54173740764471	1.7212855	1.3119777
35.560142825923286	1.7138767	1.3091512
35.5785491922594	1.9930997	1.4117718
35.59695650727454	2.2706838	1.5068789
35.61536477159042	2.2811265	1.5103399
