0.008763373481513119	0.56609195	0.7523908
0.026290120649546365	0.33515513	0.57892585
0.043816868432600686	0.34817255	0.5900615
0.06134361724069026	0.20308761	0.45065242
0.07887036748382949	0.21716443	0.46600905
0.0963971195720331	0.13166142	0.36285177
0.11392387391531617	0.115913145	0.3404602
0.1314506309236943	0.10109505	0.31795448
0.1489773910071836	0.10826786	0.32904083
0.16650415457580078	0.14262943	0.3776631
0.18403092203956356	0.107295685	0.3275602
0.20155769380849	0.14333314	0.37859362
0.2190844702925996	0.110071115	0.33176968
0.2366112519019124	0.14333895	0.3786013
0.2541380390464497	0.116038196	0.3406438
0.27166483213623416	0.106793925	0.3267934
0.28919163158128947	0.14246413	0.3774442
0.3067184377916406	0.11008461	0.33179
0.324245251177314	0.13159393	0.3627588
0.34177207214833777	0.06948301	0.2635963
0.3592989011147415	0.08491024	0.2913936
0.37682573848655654	0.0993227	0.31515503
0.39435258467381573	0.1311638	0.36216545
0.41187944008655414	0.16242723	0.40302262
0.42940630513480854	0.15339206	0.39165297
0.446933180228618	0.14649789	0.38275042
0.4644600657780234	0.16555998	0.40689063
0.48198696219306775	0.17864227	0.42266095
0.49951386988379676	0.20294178	0.4504906
0.5170407892602581	0.19383915	0.44027168
0.5345677207325025	0.21572304	0.46445996
0.5520946647105822	0.2238568	0.47313508
0.5696216216045534	0.26508117	0.51486033
0.5871485918244737	0.2158077	0.4645511
0.6046755757804043	0.18124156	0.42572474
0.6222025738824094	0.17305647	0.41600057
0.6397295865405557	0.16036469	0.4004556
0.6572566141649129	0.20586963	0.4537286
0.6747836571655547	0.21122293	0.45958996
0.6923107159525568	0.20267266	0.4501918
0.7098377909359992	0.19405173	0.440513
0.7273648825259653	0.22517201	0.47452292
0.7448919911325411	0.20409338	0.45176697
0.762419117165817	0.1900363	0.43593153
0.7799462610358868	0.13355106	0.3654464
0.7974734231528482	0.12268673	0.35026667
0.8150006039268024	0.13216393	0.36354357
0.8325278037678551	0.17645766	0.42006862
0.8500550230861152	0.18825719	0.43388614
0.8675822622916969	0.18823487	0.43386042
0.8851095217947171	0.16068812	0.40085924
0.9026368020052984	0.18782532	0.4333882
0.9201641033335665	0.20839532	0.45650336
0.9376914261896523	0.20547746	0.4532962
0.9552187709836915	0.20620348	0.45409632
0.9727461381258234	0.1865475	0.43191144
0.990273528026193	0.20260923	0.45012134
1.0078009410949496	0.22772631	0.47720677
1.0253283777422473	0.2677961	0.5174902
1.0428558383782454	0.30183595	0.549396
1.0603833234131086	0.32848465	0.5731358
1.0779108332570058	0.32484835	0.5699547
1.0954383683201119	0.32448602	0.56963676
1.112965929012607	0.3331392	0.5771821
1.1304935157446763	0.46762952	0.68383443
1.1480211289265108	0.4851889	0.696555
1.1655487689683062	1.3442996	1.1594393
1.1830764362802655	1.6767309	1.2948865
1.200604131272596	2.1396947	1.4627695
1.2181318543555117	2.339477	1.5295349
1.235659605939232	2.302317	1.5173388
1.253187386433982	3.914922	1.9786162
1.270715196249994	6.4238276	2.534527
1.2882430357975057	11.728455	3.424683
1.3057709054867608	16.442944	4.05499
1.3232988057280106	22.519905	4.7455144
1.3408267369315112	27.825567	5.2749944
1.358354699507526	32.114273	5.6669455
1.3758826938663256	35.981945	5.998495
1.3934107204181858	37.52411	6.1256924
1.410938779573391	37.657135	6.136541
1.4284668717422309	37.92938	6.1586833
1.4459949973350033	37.47909	6.122017
1.4635231567620117	37.454987	6.120048
1.4810513504335687	36.7465	6.061889
1.4985795787599925	36.29466	6.0245047
1.5161078421516088	35.98185	5.9984875
1.5336361410187505	35.241558	5.93646
1.5511644757717598	35.05833	5.9210076
1.5686928468209842	35.3491	5.945511
1.58622125457678	36.014565	6.0012136
1.6037496994495108	37.505726	6.1241918
1.621278181849548	37.781345	6.146653
1.6388067021872719	38.36069	6.1936007
1.6563352608730693	37.828274	6.1504693
1.673863858317336	36.858883	6.0711517
1.6913924949304753	36.094112	6.007838
1.7089211711228998	34.915504	5.908934
1.7264498873050296	34.083714	5.8381257
1.7439786438872935	33.44215	5.782919
1.7615074412801288	32.568207	5.7068563
1.779036279893981	32.014862	5.658168
1.796565160139305	30.798098	5.5496035
1.814094082426564	29.894638	5.467599
1.8316230471662298	28.986061	5.3838706
1.849152054768784	28.149204	5.3055825
1.8666811056447168	27.890282	5.281125
1.8842102002045273	27.124943	5.2081614
1.901739338858724	26.379303	5.1360784
1.9192685220178245	25.55144	5.054843
1.9367977500923557	24.772392	4.977187
1.9543270234928547	24.591711	4.959003
1.971856342629867	23.82416	4.881
1.9893857079139496	23.13746	4.8101416
2.006915119755667	22.471607	4.7404227
2.0244445785655945	21.97675	4.687937
2.0419740847543175	21.877542	4.6773434
2.0595036387324317	21.63396	4.6512322
2.0770332409105414	21.26936	4.6118717
2.094562891699263	20.864738	4.567794
2.1120925915092217	20.352356	4.5113587
2.129622340751053	19.73021	4.44187
2.1471521398354043	187.87811	13.706863
2.1646819891729323	444.0967	21.073603
2.182211889174303	440.5372	20.988977
2.1997418402501974	452.75568	21.278057
2.2172718428113023	432.62476	20.799633
2.234801897268317	320.6885	17.907778
2.2523320040319548	17.140388	4.140095
2.269862163512935	16.810946	4.1001153
2.287392376121992	16.486382	4.0603423
2.304922642269869	16.20728	4.0258265
2.322452962367322	16.17288	4.021552
2.3399833368251164	15.957313	3.9946606
2.357513766054032	15.56499	3.945249
2.3750442504648586	15.164853	3.8942077
2.3925747904683963	14.899808	3.8600268
2.410105386475459	14.726003	3.8374474
2.4276360388968707	14.354687	3.788758
2.445166748143469	13.957629	3.735991
2.4626975146261025	13.705779	3.7021317
2.4802283387556323	13.49871	3.674059
2.4977592209429305	13.376662	3.657412
2.5152901615988825	13.145381	3.625656
2.5328211611343865	12.946033	3.5980597
2.5503522199603523	12.737546	3.56897
2.5678833384877024	12.684778	3.5615697
2.5854145171273712	12.521063	3.5385113
2.6029457562903064	12.344186	3.5134294
2.620477056387469	12.088715	3.476883
2.6380084178298326	11.742407	3.4267194
2.655539841028383	11.59402	3.4049993
2.673071326394119	11.520061	3.3941214
2.6906028743380523	11.286314	3.359511
2.708134485271211	11.136602	3.3371549
2.7256661596046325	11.013748	3.3186967
2.743197897749369	10.725948	3.2750494
2.760729700116486	10.615046	3.2580738
2.778261567117063	10.368517	3.2200181
2.795793499162193	10.161474	3.1877067
2.8133254966629817	9.858554	3.1398335
2.830857560030551	9.59843	3.0981333
2.8483896896760337	9.545525	3.0895832
2.865921886010578	9.539878	3.0886693
2.883454149445347	9.535427	3.0879488
2.9009864803915177	9.363701	3.0600164
2.91851887926028	9.278574	3.046075
2.9360513464628384	9.085143	3.014157
2.953583882410413	8.967541	2.9945853
2.9711164875142373	8.726663	2.9540925
2.9886491621855606	8.53244	2.921034
3.0061819068356455	8.457966	2.9082582
3.023714721875769	8.483802	2.9126966
3.041247607717225	8.548532	2.923787
3.0587805647713213	8.576992	2.9286501
3.0763135934493806	8.260285	2.8740711
3.0938466941627407	8.127012	2.8507915
3.1113798673227544	7.9720335	2.823479
3.1289131133407904	7.9791636	2.8247414
3.1464464326282315	7.879213	2.8069935
3.1639798255964786	7.775618	2.7884796
3.1815132926569443	7.629551	2.762164
3.1990468342210603	7.6414332	2.7643142
3.216580450700272	7.5864935	2.754359
3.2341141425060416	7.5177484	2.7418513
3.251647910049847	7.471545	2.7334127
3.2691817537431813	7.3509693	2.711267
3.286715673997555	7.2654996	2.6954591
3.3042496712244938	7.128102	2.6698506
3.32178374583554	7.130886	2.670372
3.339317898242251	7.0813007	2.6610713
3.3568521288562034	6.9989367	2.6455503
3.3743864380889876	6.954903	2.6372151
3.3919208263522127	6.8534417	2.617908
3.4094552940575023	6.7924147	2.6062262
3.4269898416164972	6.6995716	2.5883532
3.444524469440858	6.639269	2.5766778
3.4620591779422587	6.532125	2.555802
3.479593967532391	6.5359893	2.5565581
3.4971288386229658	6.538215	2.5569935
3.5146637916257086	6.4924235	2.5480235
3.5321988269523628	6.4587092	2.541399
3.5497339450146903	6.401573	2.530133
3.5672691462244708	6.363415	2.5225809
3.5848044309934988	6.3053966	2.5110548
3.60233979973359	6.1770186	2.4853609
3.619875252856575	6.159067	2.481747
3.6374107907743034	6.15823	2.481578
3.6549464138986427	6.206207	2.491226
3.6724821226414788	6.284147	2.50682
3.690017917414714	6.3417964	2.5182924
3.7075537986302702	6.3180714	2.5135775
3.7250897667000857	6.328504	2.5156517
3.7426258220361235	6.3395176	2.51784
3.7601619650503553	6.591662	2.567423
3.777698196154779	7.2198625	2.6869802
3.7952345157614067	8.420166	2.9017522
3.8127709242822716	9.383917	3.063318
3.830307422129425	11.585092	3.403688
3.847844009714936	30.346493	5.508765
3.8653806874508954	97.842636	9.891543
3.882917455749409	97.1281	9.855359
3.900454315022606	96.87592	9.842557
3.917991265682631	41.434814	6.436988
3.9355283081416506	11.022881	3.3200724
3.9530654428118495	8.78995	2.964785
3.970602670105433	7.6404824	2.7641423
3.9881399904346244	6.6781363	2.584209
4.005677404211669	6.5751233	2.5642004
4.023214911848827	6.428774	2.5355027
4.0407525137583855	6.2726293	2.5045218
4.058290210352644	6.194659	2.4889073
4.075828002043927	6.2353797	2.4970741
4.0933658892445814	6.349141	2.51975
4.110903872366966	6.4381914	2.5373592
4.128441951823468	6.358368	2.5215805
4.145980128026488	6.165449	2.4830322
4.163518401388452	5.9853	2.4464872
4.181056772321807	5.9638143	2.4420922
4.1985952412390155	6.005375	2.4505866
4.216133808552567	6.1268387	2.4752452
4.233672474674966	6.2933197	2.5086489
4.251211240018741	6.499575	2.5494263
4.268750104996445	6.623113	2.573541
4.286289070020643	7.3810954	2.7168171
4.303828135503928	8.979905	2.996649
4.3213673018589125	29.303917	5.413309
4.3389065694982305	90.58391	9.517558
4.356445938834537	165.9155	12.880819
4.3739854102805085	171.32547	13.089135
4.391524984248844	172.18056	13.121758
4.409064661152262	136.1771	11.669494
4.426604441403504	96.5923	9.828138
4.444144325415337	75.80176	8.706421
4.461684313600543	21.89884	4.67962
4.47922440637193	22.40119	4.7329893
4.496764604142329	20.685186	4.548097
4.5143049073245916	18.752277	4.33039
4.531845316331589	16.770609	4.0951934
4.5493858315762195	13.928947	3.7321506
4.566926453471405	11.700446	3.4205916
4.584467182430081	9.461201	3.0759065
4.602008018865218	8.21021	2.8653464
4.619548963189798	7.482202	2.7353613
4.637090015816834	7.0479546	2.6547985
4.654631177159353	6.7711854	2.6021502
4.672172447630417	6.506555	2.550795
4.689713827643102	6.264189	2.5028362
4.7072553176105085	6.047728	2.4592128
4.724796917945764	5.895922	2.428152
4.742338629062015	5.8638706	2.4215431
4.759880451372434	5.823744	2.4132435
4.777422385290215	5.8065658	2.4096816
4.794964431228581	5.6915236	2.3856914
4.812506589600768	5.6213884	2.3709466
4.830048860820047	5.6218615	2.3710465
4.847591245299709	5.644308	2.3757753
4.8651337434530655	5.6681824	2.3807945
4.882676355693457	5.6825056	2.3838007
4.900219082434242	5.7101173	2.3895853
4.917761924088813	5.7019753	2.387881
4.935304881070575	5.664395	2.379999
4.952847953792969	5.5251675	2.3505676
4.970391142669449	5.468457	2.3384733
4.9879344481135055	5.381739	2.3198576
5.005477870538642	5.4043674	2.3247294
5.023021410358394	5.374196	2.3182313
5.040565067986324	5.381745	2.3198588
5.05810884383601	5.3530564	2.3136673
5.075652738321066	5.3038325	2.3030052
5.09319675185512	5.2664824	2.2948818
5.110740884851836	5.244754	2.2901428
5.128285137724894	5.3346167	2.3096788
5.145829510888007	5.313671	2.3051403
5.163374004754908	5.3232036	2.3072069
5.1809186197393595	5.2327614	2.287523
5.198463356255145	5.2946124	2.3010025
5.216008214716077	5.315535	2.3055444
5.233553195535998	5.3489323	2.3127759
5.251098299128764	5.3776317	2.318972
5.268643525908272	5.430112	2.33026
5.286188876288432	5.379849	2.3194501
5.3037343506831895	5.3201766	2.3065507
5.32127994950651	5.233155	2.2876089
5.3388256731723915	5.2136197	2.2833352
5.356371522094851	5.2522287	2.291774
5.373917496687938	5.2960296	2.3013103
5.391463597365729	5.284449	2.298793
5.40900982454232	5.277931	2.297375
5.426556178631843	5.186911	2.2774792
5.444102660048449	5.1158776	2.2618306
5.4616492692063225	5.0517836	2.2476172
5.479196006519669	5.0564966	2.2486656
5.496742872402727	5.0433726	2.2457454
5.514289867269756	5.1510334	2.2695887
5.531836991535049	5.1278176	2.2644684
5.549384245612924	5.141339	2.267452
5.566931629917724	5.1155343	2.2617548
5.584479144863822	5.0619874	2.249886
5.6020267908656205	5.0670924	2.2510202
5.619574568337545	5.0881906	2.2557018
5.637122477694054	5.114744	2.26158
5.654670519349629	5.1411695	2.2674148
5.672218693718784	5.0976934	2.2578073
5.689767001216059	5.15763	2.2710416
5.707315442256021	5.2249894	2.2858236
5.724864017253266	5.2852764	2.2989728
5.7424127266224225	5.29641	2.301393
5.75996157077814	5.3049445	2.3032465
5.777510550135105	5.3515687	2.3133457
5.795059665108022	5.322098	2.3069673
5.812608916111639	5.331723	2.3090525
5.830158303560715	5.4102464	2.3259935
5.847707827870055	5.404568	2.3247728
5.86525748945448	5.4361854	2.3315628
5.8828072887288485	5.513842	2.3481572
5.900357226108044	5.5529747	2.356475
5.917907302006979	5.7199364	2.3916388
5.9354575168406	6.321807	2.5143204
5.9530078710238765	6.990594	2.643973
5.970558364971812	7.582107	2.7535627
5.988108999099438	7.971713	2.8234222
6.005659773821818	8.544513	2.9230998
6.023210689554039	8.225439	2.8680027
6.040761746711227	8.638153	2.9390736
6.058312945708531	7.99365	2.8273044
6.075864286961132	7.5068054	2.739855
6.093415770884244	6.8002634	2.6077316
6.1109673978931065	6.1682487	2.4835958
6.128519168402993	5.542352	2.3542202
6.146071082829204	5.366762	2.3166273
6.163623141587075	5.3081307	2.3039382
6.181175345091969	5.2823324	2.2983325
6.198727693759281	5.2540107	2.292163
6.216280188004435	5.250467	2.2913897
6.233832828242885	5.164693	2.2725961
6.251385614890126	5.1768856	2.2752771
6.268938548361669	5.2164383	2.2839522
6.286491629073067	5.146918	2.268682
6.304044857439898	5.129704	2.264885
6.321598233877777	5.003968	2.236955
6.339151758802344	4.9947953	2.2349038
6.356705432629277	4.9407206	2.222773
6.37425925577428	4.927352	2.219764
6.391813228653095	4.993121	2.2345293
6.409367351681486	5.0398703	2.2449656
6.426921625275259	4.9820733	2.232056
6.44447604985025	5.025164	2.2416878
6.46203062582232	5.002407	2.2366061
6.47958535360737	5.1045213	2.2593188
6.497140233621328	5.118413	2.262391
6.514695266280161	5.048333	2.2468495
6.532250451999859	4.979255	2.2314246
6.549805791196454	4.95709	2.2264524
6.567361284286002	5.018102	2.240112
6.584916931684597	5.097073	2.25767
6.602472733808367	5.1043377	2.259278
6.6200286910734665	5.099353	2.2581747
6.637584803896092	5.109784	2.2604833
6.655141072692462	5.104002	2.259204
6.672697497878842	5.152514	2.2699149
6.690254079871514	5.14062	2.2672937
6.707810819086808	5.0575333	2.2488961
6.725367715941078	5.0332	2.2434795
6.742924770850719	4.971634	2.229716
6.760481984232151	5.021616	2.2408962
6.778039356501836	5.057082	2.2487957
6.795596888076266	5.041943	2.2454271
6.813154579371963	5.0740476	2.2525647
6.830712430805492	5.058692	2.2491536
6.84827044279344	5.059931	2.249429
6.865828615752445	5.00037	2.2361507
6.883386950099159	5.0392394	2.2448251
6.900945446250287	5.0189815	2.2403083
6.918504104622553	5.0185175	2.2402048
6.936062925632727	5.033391	2.243522
6.953621909697607	5.1319847	2.2653885
6.971181057234028	5.211875	2.282953
6.988740368658859	5.2539697	2.2921538
7.006299844389007	5.2685914	2.2953413
7.023859484841407	5.264632	2.2944787
7.041419290433036	5.3853	2.320625
7.058979261580902	5.5262356	2.3507946
7.0765393987020495	5.7743387	2.4029853
7.094099702213559	6.110218	2.4718854
7.111660172532549	6.419654	2.5337036
7.129220810076164	6.7321515	2.594639
7.146781615261595	7.262171	2.6948416
7.16434258850606	7.5828853	2.7537038
7.181903730226821	8.021121	2.8321583
7.1994650408411704	8.149163	2.8546739
7.217026520766437	8.235021	2.8696725
7.234588170419983	8.474726	2.9111383
7.252149990219215	8.523272	2.9194643
7.269711980581568	8.506753	2.9166338
7.2872741419245175	8.343622	2.8885329
7.304836474665574	7.93612	2.817112
7.322398979222286	7.5507407	2.7478611
7.339961656012233	7.215629	2.6861923
7.357524505453039	6.8666954	2.620438
7.375087527962357	6.554678	2.5602105
7.392650723957886	6.229778	2.4959524
7.410214093857353	5.9270267	2.4345486
7.427777638078528	5.7172356	2.3910742
7.445341357039213	5.565109	2.3590484
7.4629052511572525	5.4407706	2.332546
7.480469320850524	5.379611	2.3193989
7.498033566536948	5.314101	2.3052335
7.5155979886344735	5.236741	2.2883928
7.5331625875610975	5.1493583	2.2692196
7.550727363734844	5.09706	2.257667
7.568292317573788	5.075508	2.252889
7.585857449496025	5.053816	2.2480693
7.603422759919705	5.031131	2.2430182
7.620988249263007	5.017337	2.2399414
7.638553917944147	5.1187625	2.2624683
7.656119766381391	5.1341085	2.2658572
7.673685794993023	5.194217	2.2790825
7.691252004197388	5.1986976	2.2800653
7.70881839441285	5.1847095	2.2769957
7.726384966057826	5.2253847	2.2859101
7.743951719550762	5.2319865	2.2873535
7.761518655310149	5.263434	2.2942176
7.779085773754511	5.3334117	2.309418
7.796653075302419	5.3286657	2.3083904
7.814220560372475	5.2835655	2.2986007
7.831788229383323	5.2689643	2.2954226
7.8493560827536495	5.27215	2.2961164
7.866924120902174	5.3395677	2.3107505
7.884492344247663	5.3644915	2.316137
7.9020607532089135	5.402747	2.324381
7.919629348204771	5.462554	2.3372107
7.937198129654115	5.4184985	2.327767
7.954767097975865	5.3711224	2.3175683
7.972336253588986	5.3622975	2.3156636
7.989905596912472	5.3782797	2.3191118
8.007475128365371	5.3470535	2.3123696
8.025044848366756	5.335457	2.3098607
8.042614757335754	5.479142	2.3407567
8.060184855691523	5.5704556	2.3601813
8.07775514385327	5.731714	2.3940997
8.095325622240228	5.7815332	2.404482
8.112896291271687	5.8449416	2.4176314
8.130467151366968	5.832674	2.415093
8.148038202945436	5.8242264	2.4133434
8.165609446426497	5.7865458	2.405524
8.183180882229594	5.908142	2.430667
8.200752510774217	5.9348273	2.43615
8.218324332479893	5.9495287	2.4391656
8.235896347766193	5.9777875	2.4449515
8.253468557052724	5.9878645	2.4470112
8.27104096075914	6.0531263	2.4603102
8.288613559305137	6.093195	2.4684398
8.306186353110448	6.1832156	2.4866073
8.32375934259485	6.1966705	2.4893112
8.341332528178162	6.285862	2.507162
8.358905910280246	6.3644032	2.5227768
8.376479489321003	6.3712525	2.524134
8.394053265720377	6.3799562	2.5258574
8.411627239898356	6.322355	2.5144293
8.42920141227497	6.3019214	2.5103629
8.44677578327029	6.3201456	2.51399
8.464350353304427	6.277158	2.5054257
8.48192512279754	6.29781	2.509544
8.499500092169827	6.2171354	2.4934185
8.51707526184153	6.1767755	2.485312
8.534650632232934	6.135809	2.4770565
8.552226203764365	6.190384	2.4880483
8.569801976856192	6.271843	2.5043647
8.587377951928834	6.352778	2.5204718
8.60495412940274	6.376302	2.525134
8.622530509698416	6.304504	2.5108771
8.6401070932364	6.400554	2.5299315
8.657683880437283	6.5234585	2.5541062
8.675260871721695	6.712768	2.590901
8.692838067510303	6.794273	2.6065826
8.710415468223834	6.903471	2.6274457
8.727993074283043	7.05643	2.6563942
8.745570886108737	7.128351	2.6698973
8.763148904121765	7.151845	2.6742933
8.78072712874302	7.098011	2.6642094
8.798305560393441	7.292786	2.700516
8.815884199494006	7.4282045	2.7254732
8.833463046465745	7.691811	2.7734115
8.851042101729728	7.8622355	2.8039677
8.86862136570707	8.157419	2.8561196
8.886200838818924	8.305602	2.8819442
8.903780521486505	8.351169	2.889839
8.921360414131055	8.4734535	2.9109197
8.938940517173874	8.613298	2.934842
8.956520831036297	8.810985	2.9683304
8.97410135613971	9.112459	3.018685
8.99168209290554	9.351209	3.0579746
9.009263041755265	9.629433	3.1031327
9.026844203110405	9.837426	3.1364672
9.044425577392525	10.011553	3.1641037
9.062007165023239	10.069583	3.1732607
9.079588966424197	10.334793	3.2147772
9.097170982017108	10.455555	3.233505
9.11475321222372	11.455073	3.3845344
9.132335657465825	12.379087	3.5183928
9.149918318165264	12.490156	3.5341415
9.167501194743924	13.091467	3.6182132
9.18508428762374	12.664125	3.558669
9.202667597226693	12.630464	3.5539362
9.220251123974803	12.375039	3.5178173
9.237834868290143	12.134601	3.4834754
9.255418830594836	11.919109	3.4524064
9.273003011311046	11.338317	3.3672416
9.290587410860985	11.143503	3.3381886
9.308172029666911	10.4346075	3.2302644
9.32575686815113	10.146768	3.185399
9.343341926735997	8.787467	2.9643662
9.360927205843916	8.540827	2.9224694
9.378512705897327	8.297023	2.8804553
9.396098427318728	8.107099	2.8472967
9.413684370530664	8.041613	2.8357737
9.431270535955722	8.054399	2.8380272
9.448856924016539	8.0138	2.8308656
9.466443535135806	7.8726063	2.8058164
9.484030369736251	7.8705783	2.8054552
9.501617428240658	7.8296466	2.7981505
9.519204711071852	7.894598	2.8097327
9.536792218652714	7.9454827	2.8187733
9.55437995140617	7.939581	2.8177261
9.571967909755191	7.8793683	2.8070211
9.589556094122802	7.8472395	2.8012924
9.60714450493207	7.895813	2.809949
9.624733142606116	7.963395	2.8219488
9.642322007568108	8.029286	2.8335996
9.659911100241267	8.029013	2.8335512
9.677500421048851	8.056609	2.8384166
9.695089970414175	8.086687	2.8437102
9.712679748760609	8.109702	2.8477538
9.730269756511557	8.122301	2.849965
9.747859994090492	8.102061	2.846412
9.765450461920915	8.189539	2.861737
9.78304116042639	8.240891	2.8706954
9.800632090030527	8.204607	2.8643684
9.81822325115699	8.1913185	2.862048
9.835814644229481	8.203923	2.8642492
9.853406269671762	8.387732	2.896158
9.870998127907646	8.491803	2.91407
9.888590219360985	8.516208	2.9182541
9.906182544455698	8.436792	2.9046156
9.923775103615734	8.367429	2.8926508
9.941367897265108	8.323575	2.8850605
9.958960925827878	8.337955	2.8875518
9.97655418972816	8.312129	2.8830764
9.994147689390106	8.309209	2.8825698
10.011741425237934	8.281265	2.8777187
10.029335397695904	8.344084	2.8886127
10.04692960718833	8.418775	2.9015124
10.06452405413958	8.410438	2.9000754
10.082118738974064	8.317779	2.8840559
10.099713662116246	8.344597	2.8887017
10.117308823990651	8.34842	2.8893633
10.134904225021844	8.322463	2.884868
10.152499865634445	8.251594	2.8725588
10.170095746253125	8.233097	2.8693373
10.18769186730261	8.2460785	2.8715985
10.205288229207675	8.266477	2.875148
10.222884832393145	8.3017235	2.8812711
10.2404816772839	8.267075	2.875252
10.258078764304868	8.241159	2.870742
10.275676093881035	8.072375	2.8411925
10.293273666437438	8.03058	2.8338277
10.310871482399158	8.134776	2.8521528
10.32846954219134	8.2107725	2.8654447
10.346067846239173	8.262575	2.8744695
10.363666394967908	8.201521	2.8638299
10.38126518880283	8.142968	2.8535886
10.398864228169298	8.153824	2.8554902
10.416463513492713	8.171444	2.8585737
10.434063045198531	8.20525	2.8644807
10.451662823712262	8.208022	2.8649645
10.469262849459467	8.235653	2.8697827
10.486863122865758	8.225206	2.8679621
10.504463644356806	8.196709	2.8629894
10.522064414358338	8.076865	2.8419826
10.539665433296118	7.9206605	2.8143668
10.557266701595987	7.7850204	2.790165
10.574868219683818	7.7101564	2.776717
10.592469987985552	7.641281	2.7642868
10.610072006927185	7.5760636	2.752465
10.627674276934751	7.513951	2.7411587
10.64527679843435	7.3566365	2.712312
10.662879571852143	7.178981	2.679362
10.680482597614331	7.082767	2.661347
10.698085876147173	7.0327854	2.6519399
10.715689407876988	6.9535484	2.6369581
10.733293193230146	6.832234	2.6138542
10.750897232633072	6.6785235	2.584284
10.76850152651225	6.6845646	2.5854526
10.786106075294207	6.684687	2.5854762
10.803710879405534	6.635129	2.5758743
10.821315939272877	6.500624	2.549632
10.83892125532294	6.3853602	2.526927
10.856526827982472	6.312807	2.51253
10.874132657678285	6.324619	2.5148795
10.891738744837243	6.2914586	2.5082781
10.909345089886271	6.2708735	2.5041711
10.926951693252343	6.1809483	2.4861512
10.944558555362494	6.0782223	2.465405
10.96216567664381	6.0070767	2.450934
10.979773057523436	5.968216	2.4429932
10.997380698428573	5.9385953	2.4369233
11.014988599786477	5.874492	2.4237351
11.032596762024461	5.8202534	2.4125202
11.050205185569892	5.761341	2.4002793
11.067813870850198	5.685032	2.3843305
11.085422818292859	5.618972	2.3704371
11.10303202832541	5.522724	2.3500476
11.120641501375454	5.4321704	2.3307016
11.138251237870636	5.36463	2.316167
11.155861238238671	5.2869406	2.2993348
11.173471502907317	5.278398	2.2974765
11.191082032304402	5.2320805	2.2873743
11.208692826857805	5.191063	2.2783904
11.226303886995465	5.101204	2.2585845
11.243915213145371	5.043622	2.245801
11.261526805735578	5.002219	2.2365642
11.279138665194196	4.934131	2.2212903
11.296750791949393	4.8518023	2.2026808
11.314363186429393	4.7425084	2.17773
11.331975849062479	4.6989727	2.1677115
11.34958878027699	4.698042	2.1674967
11.36720198050133	4.636289	2.1532044
11.384815450163948	4.586621	2.1416397
11.402429189693366	4.499841	2.1212828
11.420043199518153	4.4332237	2.1055222
11.437657480066942	63.39748	7.9622536
11.455272031768422	85.14211	9.227248
11.472886855051353	107.577965	10.37198
11.490501950344528	99.1272	9.9562645
11.508117318076819	84.4905	9.191872
11.52573295867715	45.884968	6.7738442
11.543348872574514	4.2004757	2.0495062
11.560965060197946	4.198646	2.0490599
11.57858152197655	4.184959	2.0457172
11.59619825833949	4.1202316	2.0298355
11.613815269715985	4.0664897	2.0165539
11.631432556535323	38.554188	6.209202
11.649050119226837	83.08664	9.115188
11.666667958219929	93.46986	9.667981
11.68428607394406	107.7129	10.378483
11.701904466828756	82.52239	9.084184
11.719523137303586	65.39093	8.086466
11.737142085798196	4.619783	2.149368
11.754761312742286	3.7315857	1.9317312
11.772380818565619	3.714852	1.9273951
11.790000603698015	3.688808	1.920627
11.80762066856935	3.659791	1.913058
11.825241013609572	3.6108246	1.9002169
11.842861639248683	3.6171064	1.9018692
11.860482545916748	3.6079175	1.8994519
11.878103734043883	3.5559378	1.8857194
11.895725204060282	3.4671595	1.862031
11.91334695639619	3.4187207	1.8489783
11.930968991481919	3.4212332	1.8496575
11.948591309747824	3.3622954	1.8336563
11.966213911624347	3.3327687	1.8255873
11.98383679754198	3.3242154	1.8232431
12.001459967931268	3.338792	1.8272362
12.019083423222835	3.3381712	1.8270663
12.036707163847352	3.2747388	1.809624
12.05433119023556	3.2660367	1.807218
12.071955502818259	3.2732959	1.8092252
12.089580102026313	3.2723596	1.8089664
12.107204988290643	3.245701	1.8015829
12.12483016204224	3.2392914	1.7998031
12.142455623712152	3.2092326	1.7914331
12.16008137373149	3.194083	1.7871997
12.177707412531431	3.1788764	1.7829404
12.19533374054321	3.1652663	1.7791195
12.212960358198126	3.1240854	1.7675083
12.230587265927545	3.097506	1.7599733
12.248214464162889	3.0577574	1.7486445
12.265841953335649	3.051737	1.7469221
12.283469733877375	3.014954	1.7363623
12.301097806219685	3.006284	1.733864
12.31872617079425	2.9983711	1.7315805
12.336354828032825	2.9805768	1.7264347
12.353983778367205	2.969179	1.7231306
12.371613022229262	2.9539628	1.7187096
12.389242560050928	2.929149	1.7114756
12.406872392264201	2.8868866	1.699084
12.424502519301143	2.8615038	1.691598
12.442132941593874	2.8477085	1.6875155
12.459763659574586	2.8435948	1.6862962
12.477394673675532	2.831673	1.6827575
12.49502598432903	2.8699775	1.6941007
12.51265759196746	2.873666	1.6951891
12.530289497023267	2.8472211	1.687371
12.547921699928967	2.8109002	1.676574
12.565554201117134	2.7938154	1.671471
12.583187001020404	2.8119407	1.6768842
12.600820100071486	2.8206697	1.679485
12.618453498703152	2.8135366	1.67736
12.636087197348235	2.8055744	1.6749849
12.65372119643964	2.811964	1.6768912
12.671355496410326	2.8260174	1.6810763
12.68899009769333	2.838076	1.684659
12.706625000721749	2.8568983	1.6902362
12.724260205928752	2.9382749	1.7141397
12.741895713747551	2.9990997	1.7317909
12.759531524611454	3.0657418	1.750926
12.777167638953818	3.0220258	1.7383975
12.794804057208072	2.9825535	1.727007
12.812440779807702	3.0346954	1.7420377
12.830077807186271	3.2491999	1.8025537
12.847715139777405	3.3511076	1.8306031
12.865352778014795	3.6009529	1.8976177
12.882990722332197	3.6956923	1.9224184
12.90062897316344	3.7428813	1.9346528
12.918267530942412	3.7880075	1.9462805
12.935906396103071	3.6726766	1.9164228
12.953545569079449	3.8280864	1.9565496
12.971185050305628	3.6003094	1.8974481
12.988824840215775	3.6025283	1.8980328
13.006464939244115	3.6562915	1.9121431
13.024105347824943	3.5353067	1.8802412
13.041746066392617	3.664536	1.9142978
13.05938709538157	3.4211571	1.849637
13.077028435226296	3.4465156	1.8564793
13.094670086361363	3.29489	1.8151832
13.112312049221401	3.2149956	1.7930409
13.129954324241112	3.121359	1.7667369
13.147596911855258	2.9612944	1.7208412
13.165239812498685	2.9398525	1.7145998
13.182883026606293	2.8598607	1.6911123
13.200526554613058	2.7953017	1.6719155
13.218170396954017	2.7447126	1.6567174
13.235814554064284	2.7100694	1.6462288
13.253459026379034	2.6991432	1.6429069
13.271103814333523	2.6887698	1.6397469
13.288748918363058	2.6829882	1.637983
13.306394338903031	2.700262	1.6432474
13.32404007638889	2.657132	1.6300712
13.341686131256164	2.6338558	1.6229159
13.359332503940449	2.6288428	1.6213707
13.376979194877402	2.6408951	1.6250831
13.394626204502751	2.6789393	1.6367465
13.412273533252307	2.7129576	1.6471058
13.429921181561937	2.693291	1.6411248
13.447569149867581	2.7161667	1.6480798
13.465217438605247	2.7172267	1.6484013
13.482866048211022	2.729741	1.6521928
13.500514979121052	2.739923	1.6552713
13.518164231771568	2.7172985	1.6484231
13.535813806598844	2.7038562	1.6443406
13.553463704039254	2.67303	1.6349404
13.571113924529229	2.6159146	1.617379
13.588764468505275	2.6480205	1.6272739
13.606415336403956	2.6752877	1.6356307
13.624066528661917	2.733768	1.653411
13.641718045715882	2.784675	1.6687346
13.659369888002635	2.845539	1.6868726
13.67702205595903	2.9062757	1.7047802
13.694674550021993	2.9763298	1.7252042
13.712327370628532	3.071002	1.7524275
13.729980518215713	3.160713	1.7778394
13.747633993220681	3.2406967	1.8001935
13.765287796080647	3.2393856	1.7998294
13.7829419272329	3.310139	1.8193787
13.800596387114801	3.351074	1.830594
13.818251176163775	3.434817	1.853326
13.835906294817324	3.4759803	1.8643981
13.853561743513023	3.4891922	1.8679379
13.871217522688525	3.5248272	1.8774524
13.888873632781538	3.5033634	1.8717273
13.906530074229858	3.5704708	1.8895689
13.92418684747135	3.5744302	1.8906164
13.941843952943948	3.5972223	1.8966345
13.959501391085665	3.550445	1.8842624
13.977159162334578	3.4493687	1.8572476
13.994817267128846	3.3717425	1.8362305
14.012475705906693	3.3095148	1.8192072
14.030134479106424	3.277626	1.8104215
14.047793587166414	3.1822283	1.7838801
14.065453030525108	3.11075	1.7637318
14.083112809621026	3.0126727	1.7357053
14.100772924892766	2.9707727	1.723593
14.118433376778997	2.9256246	1.7104458
14.136094165718458	2.851688	1.6886941
14.153755292149969	2.771105	1.6646637
14.171416756512416	2.695395	1.6417658
14.189078559244768	2.6364646	1.6237193
14.20674070078606	2.586962	1.6084036
14.224403181575408	2.5174577	1.5866499
14.242066002051999	2.4921825	1.5786648
14.259729162655093	2.4707754	1.57187
14.277392663824022	2.4780056	1.5741682
14.295056505998208	2.4955273	1.5797238
14.312720689617128	2.4910908	1.578319
14.330385215120348	2.5008693	1.5814137
14.348050082947497	2.45084	1.5655159
14.3657152935383	2.4538393	1.5664735
14.383380847332528	2.4366834	1.560988
14.401046744770051	2.4396749	1.5619458
14.418712986290798	2.4425437	1.562864
14.436379572334793	2.4339354	1.5601075
14.454046503342123	2.4449322	1.563628
14.471713779752946	2.3961623	1.5479542
14.489381402007504	2.381009	1.5430518
14.507049370546113	2.3823326	1.5434806
14.524717685809168	2.4152246	1.5540993
14.542386348237134	2.4274545	1.558029
14.560055358270553	2.4101067	1.5524518
14.577724716350051	2.427057	1.5579015
14.595394422916325	2.4657865	1.5702823
14.61306447841015	2.49615	1.5799209
14.63073488327237	2.5209687	1.5877559
14.648405637943917	2.5378852	1.5930741
14.6660767428658	2.5393336	1.5935286
14.683748198479094	2.5615158	1.6004736
14.701420005224954	2.5413544	1.5941626
14.719092163544628	2.6098695	1.615509
14.73676467387942	2.6540484	1.629125
14.754437536670727	2.6929533	1.6410221
14.772110752360014	2.699279	1.6429483
14.78978432138882	2.7018178	1.6437207
14.807458244198777	2.720022	1.649249
14.82513252123159	2.7106717	1.6464118
14.842807152929028	2.7500637	1.6583316
14.860482139732962	2.6941411	1.6413839
14.87815748208531	2.7024474	1.6439122
14.8958331804281	2.6910453	1.6404406
14.91350923520342	2.6899614	1.6401101
14.931185646853438	2.6962366	1.6420221
14.948862415820408	2.6673691	1.6332083
14.966539542546656	2.6882143	1.6395775
14.98421702747459	2.6885886	1.6396916
15.001894871046696	2.7096992	1.6461164
15.019573073705542	2.7138915	1.6473893
15.037251635893766	2.653834	1.6290593
15.054930558054092	2.665493	1.6326338
15.072609840629323	2.7066445	1.6451883
15.090289484062351	2.8414567	1.685662
15.107969488796124	3.168315	1.7799761
15.125649855273691	3.5574822	1.8861289
15.14333058393817	4.1092343	2.0271246
15.161011675232768	5.069819	2.2516258
15.17869312960076	6.4267216	2.5350978
15.196374947485506	8.271865	2.876085
15.214057129330447	11.200847	3.3467667
15.231739675579114	15.866839	3.9833202
15.249422586675102	21.044582	4.5874376
15.267105863062092	24.313543	4.9308767
15.284789505183847	24.823969	4.9823656
15.302473513484218	22.91658	4.7871265
15.320157888407127	19.569103	4.423698
15.337842630396578	15.346068	3.9174058
15.355527739896656	11.894221	3.4488
15.37321321735153	9.149025	3.0247355
15.39089906320545	6.6033506	2.5696986
15.408585277902748	4.93205	2.2208219
15.42627186188783	3.7992935	1.9491776
15.443958815605198	3.2450042	1.8013895
15.461646139499424	2.948708	1.7171803
15.479333834015168	2.7722418	1.6650051
15.497021899597165	2.6652112	1.6325475
15.514710336690234	2.6170685	1.6177356
15.53239914573928	2.6014907	1.6129137
15.550088327189297	2.585734	1.6080217
15.567777881485336	2.5576897	1.5992779
15.58546780907256	2.5449038	1.5952754
15.6031581103962	2.5175815	1.5866889
15.620848785901568	2.4968956	1.5801568
15.638539836034063	2.4474413	1.56443
15.656231261239173	2.4549398	1.5668248
15.673923061962451	2.4503093	1.5653464
15.691615238649552	2.4447627	1.5635737
15.709307791746202	2.4411829	1.5624285
15.727000721698221	2.4744477	1.5730377
15.744694028951498	2.480307	1.5748991
15.76238771395202	2.441202	1.5624347
15.780081777145844	2.398426	1.5486853
15.797776218979125	2.3991585	1.5489217
15.815471039898094	2.3832319	1.543772
15.833166240349064	2.3865395	1.5448428
15.850861820778437	2.3771806	1.5418109
15.868557781632699	2.3652236	1.5379283
15.886254123358412	2.3702896	1.5395745
15.903950846402232	2.4018693	1.5497966
15.921647951210897	2.4453115	1.5637492
15.939345438231225	2.4382143	1.5614783
15.957043307910133	2.3935661	1.5471154
15.974741560694602	2.3909824	1.5462801
15.992440197031714	2.3786595	1.5422903
16.01013921736862	2.392662	1.5468233
16.02783862215259	2.3989022	1.548839
16.045538411830933	2.3877983	1.5452503
16.06323858685107	2.3604305	1.5363692
16.080939147660512	2.365952	1.5381651
16.09864009470684	2.3354785	1.5282272
16.11634142843774	2.3671842	1.5385656
16.134043149300954	2.4005232	1.5493622
16.15174525774433	2.438777	1.5616584
16.169447754215817	2.4600475	1.5684539
16.18715063916342	2.4544556	1.5666702
16.204853913035244	2.483641	1.5759572
16.222557576279478	2.50774	1.5835845
16.240261629344403	22.495153	4.7429056
16.257966072678386	43.039845	6.560476
16.275670906729868	38.13656	6.1754804
16.293376131947387	2.537888	1.593075
16.31108174877957	2.5398002	1.593675
16.328787757675133	2.5750058	1.6046824
16.34649415908287	2.6020217	1.6130784
16.364200953451657	2.6287215	1.6213332
16.38190814123048	2.62212	1.6192961
16.39961572286839	2.6321793	1.6223992
16.41732369881455	2.6365333	1.6237406
16.43503206951817	2.690326	1.6402214
16.45274083542859	2.7478158	1.6576537
16.47044999699522	2.7878532	1.6696866
16.488159554667558	2.856396	1.6900876
16.505869508895184	2.9275753	1.7110159
16.523579860127786	2.9946616	1.730509
16.541290608815117	3.047492	1.7457068
16.559001755407035	3.095263	1.759336
16.57671330035348	3.0901623	1.7578857
16.59442524410448	3.0892515	1.7576267
16.61213758711015	3.1294847	1.769035
16.629850329820705	3.2234433	1.795395
16.647563472686436	3.3258765	1.8236985
16.665277016157724	3.4503093	1.8575008
16.682990960685053	3.4693944	1.8626311
16.70070530671898	3.506148	1.8724711
16.718420054710155	3.5329814	1.8796227
16.736135205109335	3.5753515	1.89086
16.753850758367335	3.5966053	1.8964719
16.771566714935087	3.661963	1.9136256
16.789283075263597	3.7204156	1.9288379
16.80699983980398	3.788229	1.9463373
16.82471700900741	3.901843	1.9753083
16.84243458332518	3.9524288	1.9880717
16.860152563208665	3.987621	1.9969028
16.87787094910932	4.061033	2.0152004
16.89558974147871	4.1477776	2.0366094
16.913308940768466	4.2242208	2.055291
16.931028547430333	4.2820773	2.069318
16.94874856191613	4.3076077	2.0754776
16.966468984677785	4.405133	2.0988407
16.98418981616729	4.442605	2.1077487
17.00191105683676	4.451241	2.1097965
17.019632707138374	4.452941	2.1101992
17.03735476752442	4.5139303	2.1246011
17.05507723844728	4.5911574	2.1426985
17.072800120359403	4.6419935	2.1545286
17.090523413713353	4.656255	2.1578357
17.108247118961785	4.7147737	2.1713529
17.125971236557437	4.75323	2.1801903
17.143695766953133	4.72953	2.1747482
17.161420710601806	4.718725	2.1722627
17.179146067956477	4.695113	2.166821
17.19687183947025	4.7036695	2.1687944
17.21459802559634	4.688306	2.1652496
17.232324626788028	4.706246	2.1693883
17.25005164349871	4.731732	2.1752543
17.267779076181863	4.7241735	2.1735165
17.285506925291074	4.697922	2.167469
17.30323519127999	4.6769795	2.1626325
17.320963874602384	4.655204	2.157592
17.33869297571211	4.6404433	2.1541688
17.356422495063114	4.5891585	2.1422322
17.37415243310944	4.575592	2.1390634
17.391882790305218	4.547775	2.1325512
17.40961356710468	4.5439477	2.1316538
17.42734476396215	4.539953	2.1307166
17.445076381332044	4.51546	2.1249611
17.462808419668868	4.560888	2.1356235
17.48054087942723	4.699586	2.1678529
17.498273761061835	5.0199676	2.2405283
17.51600706502747	5.4690795	2.3386064
17.533740791779024	6.178418	2.4856424
17.551474941771485	7.554458	2.7485375
17.56920951545993	8.679896	2.9461663
17.586944513299528	11.016652	3.3191342
17.60467993574556	12.803233	3.5781605
17.622415783253373	14.546701	3.8140137
17.64015205627843	16.047997	4.0059953
17.657888755276293	17.267693	4.1554413
17.675625880702604	17.866013	4.2268205
17.69336343301311	17.69606	4.2066684
17.71110141266366	16.865116	4.106716
17.728839820110178	15.794117	3.9741814
17.746578655808705	14.688613	3.8325727
17.764317920215372	13.07394	3.6157904
17.7820576137864	11.517729	3.3937778
17.79979773697811	9.483639	3.0795517
17.81753829024692	7.576483	2.752541
17.835279274049356	5.9044905	2.4299157
17.85302068884201	4.800345	2.190969
17.870762535081607	4.1120014	2.027807
17.888504813224934	3.796081	1.9483534
17.90624752372891	3.6719992	1.9162462
17.923990667050536	3.6167846	1.9017845
17.941734243646895	3.5530198	1.8849455
17.959478253975185	3.5268927	1.8780023
17.9772226984927	3.474501	1.8640013
17.994967577656833	3.4287367	1.8516848
18.01271289192506	3.3748493	1.8370763
18.030458641754965	3.412844	1.8473884
18.04820482760425	3.4062068	1.8455912
18.06595144993067	3.3647387	1.8343225
18.083698509192125	3.2972505	1.8158333
18.101446005846576	3.2691078	1.8080674
18.119193940352105	3.2486722	1.8024074
18.136942313166887	3.219797	1.7943792
18.1546911247492	3.233271	1.7981298
18.1724403755574	3.203563	1.78985
18.19019006604997	3.189573	1.7859375
18.207940196685467	3.1583896	1.7771858
18.225690767922575	3.139329	1.7718152
18.243441780220046	3.1134737	1.7645038
18.261193234036764	3.1033876	1.7616434
18.278945129831676	3.0538611	1.74753
18.29669746806386	3.0430045	1.744421
18.314450249192483	3.078072	1.7544435
18.3322034736768	3.0903332	1.7579343
18.349957141976184	3.1228557	1.7671603
18.3677112545501	3.123678	1.767393
18.385465811858108	3.1225042	1.7670609
18.403220814359884	3.1054628	1.7622323
18.420976262515172	3.1371558	1.7712017
18.43873215678387	3.1659865	1.7793219
18.456488497625923	3.2273064	1.7964705
18.474245285501407	3.2906399	1.814012
18.492002520870486	3.3116236	1.8197867
18.50976020419343	3.3537667	1.8313292
18.527518335930615	3.6657417	1.9146127
18.545276916542516	4.2872057	2.0705569
18.563035946489688	4.4144206	2.1010523
18.580795426232832	4.810031	2.1931782
18.598555356232698	4.6769753	2.1626315
18.616315736950185	5.033881	2.2436314
18.63407656884626	4.735046	2.176016
18.65183785238201	4.932634	2.2209535
18.669599588018617	4.6798525	2.1632967
18.68736177621737	4.6333547	2.1525228
18.705124417439652	4.6068563	2.146359
18.72288751214696	4.4586463	2.1115506
18.740651060800886	4.5934067	2.1432235
18.758415063863115	4.319876	2.0784311
18.77617952179546	4.4970083	2.120615
18.793944435059814	4.287213	2.0705585
18.811709804118184	4.292714	2.0718865
18.829475629432675	4.254057	2.0625365
18.8472419114655	4.0374937	2.0093515
18.86500865067897	4.1044054	2.0259333
18.88277584753551	3.7421691	1.9344687
18.90054350249763	3.7588754	1.938782
18.918311616027957	3.4224777	1.849994
18.936080188589226	3.355317	1.8317524
18.953849220644265	3.0710597	1.7524439
18.971618712656007	2.9214349	1.7092205
18.9893886650875	2.8692303	1.6938802
19.007159078401887	8.054659	2.838073
19.024929953062408	32.883873	5.734446
19.042701289532435	32.795036	5.726695
19.060473088275405	25.346214	5.0345025
19.07824534975489	2.6651623	1.6325325
19.096018074434568	2.6623979	1.6316856
19.113791262778197	2.6550193	1.629423
19.13156491524966	2.6360507	1.6235919
19.149339032312945	2.6099045	1.6155199
19.167113614432136	2.597358	1.6116321
19.184888662071433	2.5693688	1.6029251
19.202664175695123	2.5542984	1.5982172
19.220440155767623	2.548964	1.5965475
19.238216602753447	2.574199	1.604431
19.2559935171172	2.5640283	1.6012583
19.27377089932361	2.5571072	1.5990957
19.291548749837514	2.5554192	1.5985678
19.309327069123835	2.5711684	1.6034863
19.32710585764763	2.5913405	1.6097641
19.344885115874032	2.5837457	1.6074034
19.362664844268313	2.5522394	1.5975729
19.380445043295822	2.5313833	1.5910321
19.39822571342203	2.5370297	1.5928056
19.41600685511252	2.5465026	1.5957764
19.43378846883297	2.57353	1.6042225
19.451570555049173	2.569275	1.6028957
19.469353114227037	2.5650449	1.6015757
19.48713614683254	2.5489826	1.5965533
19.50491965333182	2.540458	1.5938814
19.52270363419109	2.544792	1.5952404
19.540488089876686	2.5457876	1.5955524
19.55827302085503	2.5156343	1.5860751
19.576058427592674	2.494462	1.5793866
19.593844310556282	2.48451	1.5762328
19.611630670212598	2.4839907	1.5760682
19.629417507028506	2.4958723	1.579833
19.64720482147098	2.5237904	1.5886441
19.6649926140071	2.5423112	1.5944626
19.682780885104084	2.5509417	1.5971668
19.70056963522921	2.549843	1.5968229
19.718358864849908	2.5497282	1.5967869
19.7361485744337	2.5192006	1.587199
19.753938764448215	2.5063171	1.5831352
19.771729435361202	2.4627607	1.5693185
19.789520587640506	2.4365687	1.5609512
19.807312221754092	2.4272137	1.5579518
19.825104338170043	2.5113971	1.5847389
19.842896937356517	2.564128	1.6012895
19.860690019781824	2.5495028	1.5967163
19.87848358591436	2.5238492	1.5886627
19.896277636222635	2.5443895	1.5951142
19.914072171175278	2.585532	1.6079589
19.931867191241015	2.5621126	1.6006601
19.94966269688869	2.5167325	1.5864213
19.967458688587264	2.4883926	1.577464
19.985255166805807	2.5085735	1.5838476
20.00305213201348	2.5216055	1.5879564
20.020849584679578	2.5047557	1.582642
20.038647525273507	2.4781814	1.574224
20.05644595426477	2.4863014	1.5768011
20.07424487212299	2.4990084	1.5808252
20.092044279317903	2.5104935	1.5844537
20.109844176319353	2.4990752	1.5808463
20.127644563597304	2.4621136	1.5691124
20.145445441621817	2.4500606	1.565267
20.16324681086307	2.425032	1.5572513
20.181048671791373	2.4047341	1.5507206
20.198851024877122	2.4137797	1.5536344
20.216653870590836	2.4124286	1.5531995
20.234457209403146	2.3940146	1.5472604
20.252261041784802	2.3989675	1.5488601
20.270065368206662	2.3899271	1.545939
20.287870189139685	2.361714	1.5367869
20.305675505054968	2.3076868	1.5191072
20.323481316423702	2.3019776	1.5172269
20.341287623717207	2.2999716	1.5165657
20.359094427406884	2.341909	1.5303297
20.376901727964288	2.3635004	1.5373679
20.39470952586107	2.381293	1.5431439
20.41251782156899	2.3881779	1.5453731
20.430326615559935	2.4195852	1.5555016
20.448135908305886	2.400988	1.5495123
20.465945700278965	2.36964	1.5393635
20.483755991951384	2.3480196	1.5323249
20.50156678379548	2.3284419	1.5259233
20.519378076283708	2.315523	1.5216843
20.537189869888635	2.2831426	1.5110072
20.55500216508294	2.3085449	1.5193896
20.572814962339415	2.3099904	1.5198653
20.59062826213098	2.3525405	1.5337994
20.60844206493066	2.356282	1.5350186
20.626256371211593	2.3602276	1.5363032
20.644071181447032	2.3353195	1.5281752
20.66188649611036	2.33105	1.5267776
20.67970231567506	2.3012586	1.51699
20.697518640614742	2.297304	1.5156859
20.715335471403122	2.3205047	1.5233203
20.73315280851404	2.3292563	1.5261902
20.750970652421447	2.3249876	1.524791
20.768789003599412	2.3065255	1.5187249
20.786607862522136	2.2869854	1.5122782
20.8044272296639	2.3000605	1.516595
20.82224710549913	2.3362896	1.5284926
20.84006749050237	2.3077161	1.5191169
20.857888385148268	3.8286235	1.9566869
20.8757097899116	45.909897	6.7756844
20.893531705267254	64.81347	8.050681
20.911354131690224	83.827515	9.155737
20.92917706965566	69.1351	8.314752
20.94700051963877	50.237072	7.0878115
20.96482448211493	29.503325	5.4316964
20.982648957559622	4.176238	2.0435846
21.00047394644843	2.2407043	1.4968982
21.01829944925707	2.2684667	1.506143
21.036125466461375	2.2997153	1.5164812
21.053951998537297	2.3032646	1.517651
21.071779045960906	2.2954853	1.5150859
21.089606609208378	2.2742608	1.5080652
21.10743468875603	2.257828	1.5026071
21.12526328508028	2.2565858	1.5021937
21.143092398657675	2.2647018	1.5048926
21.16092202996488	2.245682	1.49856
21.17875217947867	2.228185	1.4927106
21.19658284767596	2.2319412	1.4939682
21.21441403503377	2.2405376	1.4968425
21.232245742029225	2.2237813	1.4912349
21.2500779691396	2.2038965	1.4845526
21.26791071684227	2.1481593	1.46566
21.28574398561475	2.1331198	1.4605204
21.30357777593465	2.1230788	1.4570788
21.321412088279704	2.148936	1.465925
21.339246923127792	2.1802719	1.4765744
21.357082280956888	2.1781058	1.4758407
21.3749181622451	2.1471853	1.4653277
21.392754567470647	2.1417947	1.4634871
21.41059149711187	2.1565726	1.4685273
21.42842895164726	2.1914532	1.4803557
21.446266931555378	2.1927514	1.4807942
21.464105437314945	2.1760085	1.47513
21.481944469404798	2.1446738	1.4644705
21.49978402830388	2.1203732	1.4561502
21.51762411449127	2.085737	1.444208
21.53546472844617	2.0510457	1.4321473
21.553305870647876	2.0698926	1.4387121
21.571147541575865	2.0923102	1.4464821
21.58898974170967	2.1059809	1.4511998
21.60683247152899	2.0816412	1.4427894
21.62467573151363	2.0837631	1.4435246
21.642519522143523	2.0891216	1.4453794
21.660363843898722	2.1138823	1.4539196
21.6782086972594	2.0955687	1.4476079
21.696054082705864	2.0864549	1.4444566
21.713900000718535	2.0952487	1.4474974
21.73174645177795	2.074513	1.4403169
21.749593436364794	2.0641096	1.4367009
21.767440954959845	2.0770314	1.441191
21.785289008044032	2.093256	1.4468089
21.803137596098388	2.0710974	1.4391308
21.820986719604086	2.0606341	1.4354908
21.838836379042412	2.0625508	1.4361583
21.85668657489478	2.0764444	1.4409873
21.87453730764273	2.0853055	1.4440587
21.892388577767914	2.0673447	1.4378264
21.91024038575213	2.0703065	1.438856
21.928092732077285	2.0728908	1.4397538
21.945945617225426	2.0733676	1.4399194
21.963799041678694	2.0471487	1.430786
21.981653005919398	31.350145	5.59912
21.999507510429943	78.16625	8.841168
22.01736255569286	73.11249	8.550584
22.035218142190818	4.209136	2.0516179
22.05307427040661	2.008208	1.4171126
22.07093094082315	2.004993	1.4159777
22.088788153923474	1.9778677	1.4063668
22.106645910190746	2.0014853	1.4147387
22.12450421010827	2.0184572	1.4207242
22.142363054159464	2.0581112	1.4346119
22.16022244282787	2.0541697	1.4332374
22.178082376597164	2.0222585	1.4220613
22.195942855951145	2.0084677	1.4172041
22.213803881373742	1.9970849	1.4131825
22.231665453349002	2.009138	1.4174407
22.24952757236111	2.0281878	1.4241446
22.26739023889438	2.0098774	1.4177015
22.28525345343323	1.9923462	1.411505
22.30311721646225	1.9840561	1.4085653
22.320981528466113	2.002657	1.4151527
22.33884638992964	1.9804002	1.407267
22.356711801337788	1.9619429	1.4006938
22.37457776317561	1.960903	1.4003224
22.392444275928337	2.0050952	1.4160138
22.410311340081282	1.972717	1.4045345
22.428178956119904	1.9727747	1.404555
22.446047124529805	1.9219693	1.3863511
22.46391584579669	1.933904	1.3906488
22.481785120406414	1.9339833	1.3906773
22.49965494884496	1.9491119	1.396106
22.51752533159841	1.9462714	1.3950883
22.53539626915302	1.9750309	1.405358
22.553267761995137	1.9771843	1.4061239
22.571139810611264	1.9863763	1.4093887
22.589012415488025	1.9867343	1.4095156
22.60688557711216	1.9871633	1.4096678
22.624759295970566	1.9779556	1.406398
22.642633572550263	1.9579793	1.3992782
22.660508407338362	1.9512576	1.3968742
22.67838380082217	1.9309759	1.3895956
22.696259753489077	1.9406935	1.3930877
22.714136265826614	1.9500531	1.396443
22.73201333832246	1.9223508	1.3864887
22.74989097146439	1.9077781	1.3812234
22.76776916574035	1.9230593	1.3867441
22.785647921638393	1.9550474	1.3982301
22.803527239646712	1.930843	1.3895478
22.82140712025363	1.9273125	1.3882768
22.839287563947593	1.930507	1.3894268
22.85716857121719	1.919613	1.385501
22.875050142551135	1.9098722	1.3819813
22.892932278438277	1.9053844	1.3803567
22.910814979367604	1.9236348	1.3869516
22.928698245828222	1.9048011	1.3801453
22.946582078309387	1.8810046	1.3714972
22.96446647730047	1.8900597	1.3747945
22.98235144329098	1.9079635	1.3812906
23.000236976770562	1.9086753	1.3815482
23.018123078229	1.9209086	1.3859684
23.03600974815619	1.8940524	1.3762457
23.053896987042194	1.8961666	1.3770137
23.071784795377173	1.9069735	1.3809321
23.08967317365145	1.931654	1.3898395
23.10756212235546	1.917606	1.3847765
23.125451641979787	1.8993131	1.3781557
23.143341733015134	1.9625139	1.4008975
23.161232395952357	1.9885446	1.4101577
23.179123631282426	1.999954	1.4141973
23.197015439496468	1.9576699	1.3991675
23.214907821085717	1.9350959	1.3910773
23.23280077654157	1.9105521	1.3822272
23.250694306355538	1.898661	1.3779191
23.268588411019277	1.9039477	1.3798361
23.28648309102458	1.9003931	1.3785474
23.304378346863356	1.9313518	1.3897308
23.322274179027676	1.934904	1.3910083
23.340170588009723	1.9229293	1.3866973
23.358067574301852	1.8793652	1.3708994
23.37596513839651	1.8449419	1.3582864
23.39386328078629	1.8758508	1.369617
23.411762001963947	1.9119778	1.3827429
23.429661302422353	1.9429233	1.3938879
23.4475611826545	1.9393418	1.3926026
23.46546164315356	1.9452882	1.3947359
23.48336268441279	1.9591062	1.3996807
23.501264306925638	1.9422143	1.3936335
23.51916651118564	1.9360924	1.3914354
23.537069297686497	1.930335	1.389365
23.554972666922037	1.9494603	1.3962307
23.57287661938623	1.9468865	1.3953087
23.59078115557318	1.936677	1.3916454
23.608686275977128	1.9168462	1.3845022
23.62659198109246	1.8939383	1.3762043
23.6444982714137	1.890268	1.3748702
23.66240514743549	1.9128764	1.3830677
23.68031260965263	1.9175957	1.3847728
23.698220658560068	1.8995767	1.3782513
23.716129294652845	1.8824489	1.3720237
23.7340385184262	1.8892245	1.3744906
23.75194833037546	1.9064385	1.3807384
23.769858730996123	1.8986706	1.3779225
23.78776972078382	1.8763107	1.369785
23.80568130023431	1.8891454	1.3744619
23.823593469843495	1.9073114	1.3810545
23.841506230107424	1.8869394	1.3736591
23.859419581522275	1.8718317	1.368149
23.87733352458438	1.8703047	1.3675908
23.89524805979019	1.8698598	1.3674282
23.913163187636318	1.8907531	1.3750466
23.931078908619508	1.9273517	1.3882909
23.948995223236633	1.9611402	1.4004072
23.966912131984735	1.9403847	1.3929769
23.98482963536096	1.9738079	1.4049227
24.002747733862616	1.9601238	1.4000442
24.020666427987155	2.0002704	1.4143091
24.038585718232156	2.0613637	1.435745
24.056505605095353	2.1011002	1.4495173
24.074426089074617	2.0992682	1.4488852
24.092347170667946	2.0759733	1.4408238
24.110268850373515	2.0910435	1.4460441
24.128191128689586	2.086799	1.4445757
24.146114006114626	2.0512612	1.4322225
24.164037483147187	2.031219	1.4252084
24.181961560286005	2.0258875	1.4233367
24.199886238029926	2.0635803	1.4365168
24.21781151687797	2.0847957	1.4438822
24.235737397329274	2.0637004	1.4365585
24.253663879883135	2.0447779	1.4299573
24.271590965038975	2.057021	1.4342318
24.289518653296376	2.076585	1.4410361
24.30744694515505	2.0738025	1.4400703
24.32537584111486	2.0901053	1.4457196
24.34330534167581	2.0683742	1.4381844
24.361235447338046	2.0588531	1.4348705
24.379166158601876	2.0281844	1.4241434
24.39709747596772	2.0519319	1.4324566
24.41502939993615	2.027571	1.423928
24.432961931007917	2.0147862	1.4194317
24.450895069683856	1.9894824	1.4104902
24.468828816465	2.0181346	1.4206107
24.4867631718525	2.0569975	1.4342237
24.504698136347656	2.035321	1.4266467
24.52263371045192	1.9657915	1.4020668
24.540569894666874	1.9221069	1.3864007
24.558506689494266	1.9385825	1.3923299
24.57644409543597	1.9175438	1.3847541
24.594382112994012	1.9396158	1.3927009
24.61232074267057	1.9510777	1.3968098
24.630259984967953	1.9865879	1.4094636
24.64819984038863	1.9892639	1.4104127
24.66614030943522	2.0127287	1.4187067
24.684081392610462	2.0085914	1.4172478
24.702023090417274	1.9870985	1.4096448
24.7199654033587	1.9623343	1.4008334
24.737908331937927	1.9817673	1.4077525
24.755851876658305	2.0334134	1.4259781
24.773796038023324	2.0394123	1.42808
24.79174081653661	2.0114522	1.4182568
24.809686212701962	2.0568416	1.4341693
24.827632227023294	2.1497195	1.4661921
24.8455788600047	2.1678967	1.4723779
24.8635261121504	2.1543283	1.4677631
24.88147398396475	2.117125	1.4550344
24.899422475952303	2.073339	1.4399093
24.917371588617698	2.1011264	1.4495263
24.935321322465768	2.209162	1.486325
24.953271678001478	2.378964	1.542389
24.97122265572994	2.5340638	1.5918744
24.989174256156414	2.7729802	1.6652268
25.00712647978632	3.1828897	1.7840655
25.02507932712521	3.8011055	1.9496424
25.043032798678798	4.414817	2.1011465
25.060986894952933	5.1032214	2.259031
25.078941616453637	5.827491	2.4140196
25.096896963687055	6.8372755	2.6148183
25.114852937159508	8.014724	2.8310287
25.132809537377444	8.5194	2.918801
25.150766764847468	8.486793	2.91321
25.168724620076347	7.833967	2.7989225
25.186683103570985	6.8141003	2.6103833
25.204642215838426	5.693566	2.3861194
25.222601957385894	4.3675995	2.0898802
25.24056232872074	3.2935245	1.814807
25.25852333035048	2.6642938	1.6322664
25.276484962782778	2.2296386	1.4931974
25.294447226525435	2.0356994	1.4267794
25.312410122086423	1.9657847	1.4020644
25.330373649973843	1.9414126	1.3933458
25.348337810695988	1.9422916	1.3936613
25.366302604761245	1.9350437	1.3910584
25.384268032678207	1.9411296	1.3932443
25.40223409495558	1.9373099	1.3918728
25.420200792102257	1.9377971	1.3920478
25.438168124627246	1.9626199	1.4009354
25.45613609303974	1.97356	1.4048345
25.474104697849057	1.9355683	1.391247
25.492073939564698	1.9080951	1.3813381
25.510043818696285	1.857158	1.3627758
25.528014335753614	1.8395672	1.3563064
25.54598549124664	1.8170629	1.3479848
25.56395728568544	1.8718365	1.3681508
25.58192971958028	1.9083382	1.3814261
25.59990279344156	1.9399937	1.3928366
25.617876507779833	1.8868469	1.3736255
25.635850863105826	1.8260093	1.351299
25.653825859930386	1.8584013	1.3632319
25.671801498764548	1.875181	1.3693725
25.68977778011949	1.8791318	1.3708143
25.707754704506524	1.827386	1.3518084
25.725732272437153	1.8222336	1.3499013
25.743710484423012	1.8840414	1.3726039
25.761689340975888	1.9568316	1.398868
25.77966884260774	1.9563831	1.3987076
25.797648989830662	1.8874933	1.3738607
25.815629783156922	1.8462005	1.3587496
25.83361122309895	1.8377508	1.3556367
25.85159331016929	1.8373857	1.355502
25.869576044880695	1.8224586	1.3499846
25.887559427746034	1.8611912	1.3642548
25.90554345927836	1.9078318	1.3812429
25.92352813999086	1.9355828	1.3912523
25.94151347039689	1.9042296	1.3799382
25.959499451009965	1.8738221	1.3688762
25.97748608234374	1.8272086	1.3517429
25.995473364912062	1.8300868	1.352807
26.013461299228904	1.8570855	1.3627492
26.03144988580839	1.8658524	1.365962
26.04943912516483	1.8897752	1.3746909
26.067429017812675	1.8827274	1.3721251
26.085419564266537	1.8309504	1.3531262
26.103410765041186	1.8026721	1.3426362
26.12140262065155	1.7970331	1.3405346
26.139395131612723	1.8030734	1.3427857
26.157388298439948	1.815347	1.3473481
26.17538212164861	1.8359724	1.3549806
26.193376601754295	1.8721645	1.3682706
26.211371739272714	1.8894278	1.3745645
26.229367534719746	1.8963447	1.3770783
26.247363988611433	1.8588543	1.3633981
26.26536110146397	1.8561716	1.3624139
26.283358873793727	1.8511536	1.360571
26.301357306117204	1.81373	1.346748
26.319356398951104	1.8435047	1.3577572
26.33735615281224	1.8053323	1.3436265
26.35535656821762	1.8041214	1.3431759
26.373357645684404	1.8113457	1.3458624
26.39135938572991	1.8047094	1.3433948
26.409361788871614	1.7804998	1.3343537
26.427364855627165	1.8197092	1.348966
26.445368586514352	1.8601412	1.3638699
26.46337298205115	1.8625033	1.3647356
26.48137804275568	1.8638448	1.365227
26.499383769146217	1.8419496	1.3571844
26.517390161741215	1.8435651	1.3577795
26.53539722105928	1.873087	1.3686078
26.553404947619182	1.8352115	1.3546997
26.571413341939856	1.8359628	1.354977
26.589422404540397	1.8906126	1.3749955
26.60743213594006	1.9309857	1.3895991
26.62544253665827	1.8833812	1.3723633
26.64345360721459	1.8684051	1.3668962
26.66146534812879	1.8570641	1.3627414
26.679477759920758	1.8441269	1.3579863
26.69749084311057	1.7745115	1.3321079
26.71550459821847	1.7651316	1.3285825
26.733519025764842	1.78419	1.3357358
26.751534126270258	1.8176068	1.3481865
26.769549900255434	1.8456652	1.3585526
26.787566348241267	1.8147416	1.3471235
26.80558347074881	1.7503191	1.3229963
26.823601268299267	1.7290636	1.3149387
26.841619741414036	1.7894626	1.337708
26.85963889061465	1.8104635	1.3455347
26.877658716422832	1.7682056	1.329739
26.89567921936045	1.7465568	1.3215736
26.913700399949544	1.8216002	1.3496667
26.93172225871233	1.8508803	1.3604707
26.949744796171174	1.8009171	1.3419826
26.967768012848605	1.835083	1.3546524
26.98579190926733	1.8479532	1.3593944
27.003816485950225	1.8220623	1.3498379
27.021841743420318	1.7880611	1.3371841
27.039867682200814	1.8159558	1.347574
27.057894302815072	1.8241321	1.3506043
27.07592160578664	1.7926793	1.3389097
27.0939495916392	1.7755145	1.3324844
27.111978260896635	1.8083946	1.3447657
27.13000761408296	1.8391374	1.356148
27.148037651722397	1.7764341	1.3328294
27.166068374339304	1.7565869	1.3253629
27.184099782458215	1.7715299	1.3309883
27.20213187660384	1.7659525	1.3288914
27.22016465730105	1.7828535	1.3352354
27.23819812507487	1.7754143	1.3324467
27.256232280450533	1.8038112	1.3430604
27.274267123953383	1.8397903	1.3563887
27.292302656108987	1.8859938	1.3733149
27.31033887744306	1.8741543	1.3689976
27.32837578848146	1.8749864	1.3693014
27.34641338975026	1.8547425	1.3618894
27.364451681775673	1.8063061	1.3439889
27.382490665084074	1.7510599	1.3232762
27.400530340202046	1.7750032	1.3322924
27.41857070765629	1.8284073	1.3521861
27.436611767973726	1.8025448	1.3425889
27.454653521681404	1.8089532	1.3449733
27.472695969306564	1.8884729	1.3742172
27.490739111376627	1.8729635	1.3685626
27.508782948419153	1.8538002	1.3615433
27.526827480961902	1.8651091	1.36569
27.54487270953279	1.9020123	1.3791347
27.562918634659898	1.9446071	1.3944917
27.580965256871508	1.9564904	1.398746
27.599012576696026	1.8750168	1.3693125
27.617060594662068	1.8140718	1.3468748
27.63510931129842	1.7872478	1.3368798
27.65315872713401	1.7734779	1.3317199
27.67120884269797	1.8096821	1.3452443
27.68925965851958	1.8650078	1.3656529
27.707311175128307	1.8245646	1.3507644
27.725363393053787	1.7928315	1.3389666
27.74341631282583	1.8466067	1.3588991
27.7614699349744	1.9122595	1.3828447
27.77952426002968	2.0675666	1.4379035
27.797579288521973	2.093831	1.4470077
27.815635020981784	2.4740977	1.5729265
27.83369145793979	2.5286791	1.5901821
27.85174859992682	2.4118001	1.5529971
27.869806447473923	2.2585464	1.5028461
27.887865001112267	1.9615736	1.4005619
27.905924261373233	1.8593862	1.3635931
27.92398422878836	1.8802147	1.3712093
27.94204490388936	1.8500024	1.360148
27.96010628720813	1.8562518	1.3624433
27.978168379276728	1.8929117	1.3758312
27.9962311806274	1.8883456	1.3741709
28.014294691792568	1.9054565	1.3803828
28.0323589133048	1.9252175	1.3875221
28.050423845696887	1.8867264	1.3735815
28.068489489501758	1.85822	1.3631654
28.086555845252523	1.8385346	1.3559257
28.104622913482487	1.8784957	1.3705822
28.122690694725115	1.8829883	1.3722203
28.14075918951405	1.8966355	1.3771839
28.15882839838312	1.9172077	1.3846327
28.176898321866304	1.9320545	1.3899837
28.1949689604978	1.8830087	1.3722277
28.213040314811945	1.8709655	1.3678324
28.23111238534327	1.88961	1.3746309
28.249185172626493	1.9257805	1.387725
28.267258677196473	1.9299934	1.389242
28.285332899588294	1.94389	1.3942345
28.303407840337172	1.9141693	1.383535
28.321483499978545	1.9148462	1.3837796
28.33955987904799	1.9260701	1.3878293
28.357636978081285	1.9364417	1.3915609
28.37571479761439	1.9434174	1.394065
28.393793338183425	2.0149403	1.4194859
28.41187260032469	2.0085623	1.4172375
28.429952584574686	1.9464474	1.3951514
28.448033291470065	1.9325587	1.390165
28.46611472154769	1.9159279	1.3841704
28.484196875344566	1.8983952	1.3778226
28.502279753397914	1.921025	1.3860105
28.52036335624511	1.9371974	1.3918324
28.538447684423716	1.9469736	1.39534
28.556532738471482	2.045708	1.4302825
28.574618518926325	2.0948818	1.4473706
28.59270502632635	2.045175	1.4300961
28.61079226120985	1.9897268	1.4105767
28.628880224115274	1.9866961	1.409502
28.646968915581287	1.999252	1.413949
28.66505833614671	2.0654438	1.4371651
28.68314848635055	2.1049647	1.4508497
28.701239366732004	2.117788	1.4552622
28.71933097783044	2.1008449	1.4494292
28.737423320185403	2.0909529	1.4460127
28.75551639433665	2.091799	1.4463053
28.773610200824074	2.1668217	1.4720128
28.791704740187793	2.2339506	1.4946406
28.80980001296809	2.202499	1.4840819
28.827896019705413	2.1226878	1.4569447
28.845992760940433	2.1076236	1.4517657
28.86409023721397	2.1259747	1.4580722
28.88218844906704	2.1886163	1.4793973
28.900287397040845	2.2383814	1.4961221
28.918387081676755	2.2631903	1.5043904
28.936487503516343	2.2751765	1.5083688
28.954588663101365	2.2963471	1.5153702
28.97269056097374	2.3828037	1.5436332
28.990793197675597	2.4350522	1.5604653
29.00889657374923	2.394688	1.547478
29.027000689737125	2.3796186	1.5426012
29.04510554618196	2.4006588	1.5494059
29.06321114362659	2.485652	1.5765951
29.08131748261405	2.552675	1.5977093
29.099424563687567	2.56578	1.6018052
29.11753238739057	2.604291	1.6137816
29.13564095426663	2.5982404	1.6119058
29.15375026485954	2.5809505	1.6065336
29.171860319713275	2.6069484	1.6146047
29.18997111937199	2.6146133	1.6169766
29.20808266438002	2.6817918	1.6376177
29.226194955281898	2.7353604	1.6538925
29.244307992622335	2.7750077	1.6658355
29.26242177694624	2.8118486	1.6768568
29.2805363087987	2.8958435	1.7017179
29.29865158872498	2.9331841	1.7126541
29.316767617270557	2.9769115	1.7253729
29.334884394981064	3.0496657	1.7463292
29.353001922402367	3.1173048	1.7655891
29.37112020008047	3.15754	1.7769469
29.389239228561596	3.1777267	1.7826179
29.407359008392152	3.382555	1.8391724
29.42547954011872	3.7780104	1.9437104
29.44360082428809	4.4719996	2.1147103
29.46172286144722	5.5578623	2.357512
29.479845652143283	7.0598865	2.6570446
29.497969196923606	9.183309	3.0303974
29.516093496335728	11.900624	3.4497283
29.5342185509274	14.903388	3.8604906
29.55234436124651	17.290468	4.1581807
29.570470927841175	18.759583	4.3312335
29.588598251259686	18.63098	4.316362
29.60672633205055	17.211126	4.1486297
29.624855170762405	14.913922	3.8618548
29.642984767944146	12.058325	3.4725099
29.66111512414481	9.143927	3.0238926
29.67924623991366	6.714009	2.5911405
29.697378115800138	5.159476	2.271448
29.71551075235387	4.188302	2.046534
29.733644150124675	3.7214139	1.9290967
29.751778309662576	3.4911706	1.8684675
29.769913231517766	3.4130783	1.8474518
29.78804891624066	3.3121974	1.8199444
29.806185364381818	3.2454984	1.8015267
29.82432257649206	3.2604666	1.8056762
29.842460553122333	3.278756	1.8107336
29.86059929482382	3.2417438	1.8004843
29.878738802147872	3.235973	1.798881
29.896879075646048	3.2323768	1.7978812
29.915020115870114	3.2561023	1.8044673
29.933161923371976	3.2588472	1.8052278
29.951304498703777	3.3038995	1.8176632
29.969447842417857	3.2707882	1.808532
29.987591955066733	3.270971	1.8085827
30.005736837203123	3.2651923	1.8069843
30.023882489379943	3.2103894	1.7917559
30.04202891215028	3.1428072	1.7727964
30.060176106067455	3.1877365	1.7854234
30.078324071684946	3.239759	1.7999331
30.09647280955646	3.2614822	1.8059574
30.114622320235863	3.231895	1.7977471
30.132772604277257	3.1601834	1.7776905
30.1509236622349	3.129239	1.7689655
30.16907549466328	3.1367912	1.7710989
30.18722810211705	3.125319	1.7678572
30.205381485151097	3.074932	1.7535484
30.22353564432045	3.011388	1.7353351
30.241690580180403	2.989876	1.7291259
30.25984629328638	2.9981086	1.7315047
30.278002784194037	3.0660617	1.7510173
30.296160053459246	3.0413277	1.7439402
30.314318101638033	2.9785285	1.7258414
30.332476929286646	2.9043424	1.7042131
30.35063653696153	2.8851566	1.6985749
30.368796925219307	2.9077373	1.7052089
30.386958094616844	2.949275	1.7173454
30.40512004571115	2.9409552	1.7149214
30.423282779059463	2.8782136	1.6965299
30.441446295219233	2.8185549	1.6788552
30.459610594748067	2.8400552	1.6852463
30.47777567820382	2.8597474	1.6910788
30.495941546144504	2.8645895	1.6925098
30.51410819912835	2.882794	1.6978792
30.532275637713795	2.8628123	1.6919848
30.55044386245946	2.8134594	1.677337
30.56861287392416	2.8085241	1.6758652
30.586782672666956	2.8334973	1.6832995
30.604953259247047	2.8636703	1.6922382
30.623124634223885	2.8172793	1.6784753
30.641296798157075	2.6879754	1.6395047
30.659469751606462	2.6659613	1.6327772
30.677643495132074	2.7446468	1.6566975
30.695818029294152	2.7521362	1.6589564
30.713993354653116	2.7384355	1.6548219
30.73216947176962	2.751754	1.6588411
30.75034638120448	2.7661345	1.66317
30.768524083518756	2.7985911	1.672899
30.786702579273673	2.822601	1.6800598
30.80488186903069	2.9027195	1.7037369
30.82306195335144	3.0081644	1.7344061
30.841242832797782	3.2183244	1.7939689
30.85942450793176	3.511406	1.8738745
30.877606979315637	3.789354	1.9466263
30.895790247511883	4.089891	2.022348
30.913974313083134	4.6041694	2.1457329
30.932159176592283	4.9227924	2.2187366
30.95034483860237	4.997154	2.2354317
30.968531299676698	4.8428035	2.200637
30.98671856037873	4.4908376	2.1191597
31.00490662127215	4.057546	2.0143352
31.023095482920848	3.569554	1.8893263
31.04128514588892	3.114875	1.7649009
31.059475610740662	2.7250912	1.6507851
31.07766687804056	2.5843663	1.6075964
31.09585894835335	2.508015	1.5836713
31.11405182224393	2.4739296	1.572873
31.132245500277417	2.5140097	1.585563
31.15043998301914	2.512682	1.5851442
31.168635271034628	2.4585392	1.567973
31.18683136488964	2.4319558	1.5594729
31.20502826515008	2.439729	1.5619632
31.223225972382135	2.4489074	1.5648985
31.241424487152155	2.4162104	1.5544164
31.259623810026692	2.4797318	1.5747164
31.27782394157253	2.5056458	1.5829232
31.296024882356644	2.4467416	1.5642064
31.314226632946237	2.4364395	1.5609099
31.332429193908684	2.440803	1.562307
31.350632565811598	2.4250789	1.5572665
31.368836749222787	2.423122	1.556638
31.387041744710295	2.4733164	1.5726781
31.40524755284232	2.5465498	1.5957912
31.423454174187317	2.570806	1.6033733
31.441661609313922	2.5599966	1.599999
31.459869858791002	2.5566552	1.5989544
31.478078923187628	2.453834	1.5664718
31.496288803073064	2.334946	1.5280529
31.514499499016807	2.3254204	1.5249329
31.532711011588546	2.3275862	1.5256429
31.550923341358178	2.2508268	1.5002756
31.56913648889584	2.2663052	1.5054252
31.587350454771844	2.3957524	1.5478219
31.605565239556732	2.4467008	1.5641934
31.62378084382127	2.3132162	1.5209261
31.641997268136382	2.2321954	1.4940534
31.660214513073274	2.3495257	1.5328163
31.67843257920331	2.4407637	1.5622944
31.6966514670981	2.3784032	1.5422072
31.71487117732944	2.338572	1.529239
31.733091710469346	2.305957	1.5185378
31.751313067090052	2.2408624	1.496951
31.769535247764008	2.2035723	1.4844434
31.787758253063878	2.2604215	1.5034698
31.805982083562526	2.2999115	1.5165459
31.824206739833024	2.2735662	1.5078349
31.84243222244869	2.2865825	1.512145
31.860658531983013	2.2568972	1.5022973
31.878885669009737	2.2357783	1.4952519
31.897113634102784	2.2192945	1.4897296
31.91534242783632	2.2091212	1.4863113
31.933572050784694	2.2159085	1.4885927
31.951802503522508	2.2538657	1.501288
31.970033786624548	2.252781	1.5009267
31.988265900665834	2.2770689	1.508996
32.006498846221575	2.2644188	1.5047987
32.02473262386724	2.21094	1.486923
32.04296723417845	2.18924	1.479608
32.0612026777311	2.2029858	1.4842459
32.07943895510129	2.1731737	1.4741688
32.097676066865304	2.1513288	1.4667408
32.115914013599685	2.1776493	1.4756861
32.13415279588115	2.2246888	1.491539
32.152392414286666	2.2682939	1.5060856
32.1706328693934	2.2300377	1.4933311
32.18887416177875	2.1969507	1.4822115
32.20711629202032	2.1447885	1.4645096
32.225359260695924	2.1262908	1.4581807
32.243603068383614	2.0964715	1.4479197
32.26184771566166	2.079007	1.4418762
32.28009320310852	2.0901914	1.4457494
32.2983395313029	2.171847	1.4737188
32.31658670082372	2.208853	1.4862211
32.33483471225012	2.1265407	1.4582664
32.35308356616143	2.1006718	1.4493694
32.371333263137245	2.082845	1.4432065
32.38958380375734	2.0676186	1.4379216
32.407835188601744	2.1004636	1.4492977
32.42608741825067	2.1508627	1.466582
32.444340493284585	2.1820512	1.4771768
32.46259441428416	2.1696937	1.472988
32.48084918183028	2.1437216	1.4641453
32.49910479650405	2.1288056	1.4590427
32.51736125888683	2.1215007	1.4565372
32.53561856956014	2.0159082	1.4198269
32.5538767291058	1.9755285	1.405535
32.572135738105764	1.9830239	1.4081988
32.59039559714228	2.0421143	1.4290257
32.608656306797776	2.0544648	1.4333404
32.62691786765491	2.0448244	1.4299736
32.645180280296586	2.0442715	1.4297802
32.663443545305896	2.0746284	1.440357
32.68170766326619	2.0891488	1.4453888
32.69997263476099	2.116877	1.4549491
32.7182384603741	2.1350734	1.461189
32.7365051406895	2.0788848	1.4418339
32.75477267629144	2.0590568	1.4349414
32.77304106776434	2.0373166	1.427346
32.79131031569289	2.024386	1.4228091
32.809580420661966	2.054215	1.4332533
32.827851383256714	2.1012528	1.4495698
32.84612320406245	2.0449088	1.430003
32.86439588366476	1.9490232	1.3960742
32.88266942264945	1.8923151	1.3756144
32.9009438216025	1.9100593	1.382049
32.9192190811102	2.019493	1.4210887
32.937495201758985	2.0641377	1.4367107
32.95577218413556	2.079717	1.4421223
32.974050028826866	2.0594234	1.4350691
32.992328736420035	2.0338793	1.4261414
33.010608307502444	2.0095854	1.4175985
33.02888874266169	1.9033884	1.3796334
33.047170042485604	1.8355551	1.3548266
33.06545220756225	1.8359405	1.3549688
33.083735238479896	1.9343569	1.3908116
33.10201913582707	2.0330138	1.425838
33.12030390019248	2.0584738	1.4347383
33.138589532165135	2.070774	1.4390185
33.15687603233419	1.9804184	1.4072734
33.17516340128909	1.989689	1.4105633
33.19345163961947	2.029322	1.4245427
33.211740747915215	2.0869987	1.4446448
33.23003072676643	2.0683029	1.4381596
33.248321576763466	2.1249764	1.4577299
33.266613298496885	2.0982432	1.4485314
33.28490589255747	2.100054	1.4491563
33.30319935953626	2.0410602	1.4286568
33.32149370002451	2.0468354	1.4306766
33.339788914613706	2.048573	1.4312837
33.358085003895575	2.0243297	1.4227895
33.376381968462034	1.8681753	1.3668121
33.39467980890529	1.7887444	1.3374395
33.41297852581774	1.8022381	1.3424746
33.43127811979204	1.8333251	1.3540034
33.44957859142105	1.926272	1.387902
33.467879941297866	1.8753871	1.3694477
33.486182170015844	1.8817618	1.3717732
33.50448527816853	1.9296312	1.3891116
33.522789266349754	2.023659	1.4225537
33.541094135153514	2.002503	1.4150982
33.55939988517411	2.0128899	1.4187635
33.57770651700602	2.0751674	1.4405441
33.59601403124398	2.0482044	1.431155
33.61432242848296	1.9944559	1.4122521
33.632631709318154	1.9192239	1.3853606
33.650941874344994	1.8809973	1.3714945
33.66925292415916	1.9351245	1.3910875
33.68756485935654	1.8848572	1.372901
33.70587768053328	1.7989727	1.3412579
33.724191388285746	1.809547	1.345194
33.74250598321054	1.7834564	1.3354611
33.760821465904506	1.7943931	1.3395495
33.77913783696474	1.8123212	1.3462248
33.79745509698852	1.9731292	1.4046812
33.815773246573414	2.030194	1.4248488
33.8340922863172	1.8842193	1.3726686
33.852412216817896	1.8382343	1.355815
33.87073303867377	2.0681798	1.4381168
33.889054752483304	2.18778	1.4791145
33.907377358845245	2.1506639	1.4665142
33.92570085835853	2.0961673	1.4478147
33.94402525162239	2.023	1.422322
33.96235053923627	1.9112155	1.3824672
33.980676721799824	1.8178065	1.3482605
33.999003799912984	1.8111631	1.3457946
34.01733177417592	1.9396617	1.3927174
34.03566064518901	2.0478616	1.4310352
34.0539904135529	2.0189342	1.4208921
34.07232107986846	2.0337183	1.426085
34.090652644736785	1.9935409	1.411928
34.108985108759235	2.0028627	1.4152253
34.12731847253742	1.9540262	1.3978649
34.14565273667313	1.8765528	1.3698733
34.16398790176847	1.9466453	1.3952223
34.18232396842574	1.9623307	1.4008322
34.20066093724749	1.9779851	1.4064085
34.21899880883651	1.9800884	1.4071561
34.23733758379583	2.0163941	1.4199979
34.25567726272874	1.9259049	1.3877697
34.27401784623872	1.9069258	1.3809148
34.29235933492957	1.7836769	1.3355436
34.31070172940526	1.843893	1.3579003
34.32904503027003	1.9655294	1.4019734
34.347389238128386	2.0428848	1.4292952
34.36573435358502	2.0563788	1.434008
34.38408037724492	2.015322	1.4196204
34.402427309713296	1.9808273	1.4074187
34.42077515159559	1.9276872	1.3884118
34.43912390349752	1.9790007	1.4067696
34.45747356602499	1.9610732	1.4003832
34.47582413978423	1.9123416	1.3828744
34.49417562538163	1.910154	1.3820832
34.51252802342388	1.9461323	1.3950385
34.53088133451789	1.9948672	1.4123976
34.54923555927084	1.9718412	1.4042226
34.567590698290104	1.9447476	1.3945421
34.58594675218336	1.947797	1.395635
34.6043037215585	1.9035964	1.3797088
34.62266160702365	1.8311006	1.3531816
34.641020409187234	1.8001763	1.3417065
34.65938012865785	1.8871557	1.3737378
34.677740766044394	2.000532	1.4144017
34.69610232195598	1.9892342	1.4104022
34.714464797002016	1.9003206	1.3785212
34.73282819179208	1.9556153	1.3984332
34.751192506936064	2.1011891	1.4495479
34.76955774304408	2.133386	1.4606115
34.7879239007265	2.0632765	1.436411
34.80629098059391	1.8286592	1.3522793
34.824658983257194	1.8365241	1.3551842
34.843027909327446	1.9259759	1.3877953
34.86139775941603	1.8771793	1.3701019
34.879768534134534	1.7287129	1.3148053
34.89814023409483	1.8559378	1.362328
34.91651285990901	2.091121	1.4460709
34.93488641218944	2.2249088	1.4916128
34.95326089154871	2.0859628	1.4442862
34.97163629859967	1.8101352	1.3454126
34.99001263395542	1.6695862	1.2921246
35.00838989822934	1.7255398	1.313598
35.02676809203499	1.8535516	1.361452
35.04514721598624	1.8906126	1.3749955
35.063527270697215	1.9856871	1.4091442
35.081908256782256	2.0299075	1.4247482
35.10029017485597	1.9712723	1.4040201
35.11867302553321	1.9671605	1.402555
35.137056809429104	1.8504024	1.3602949
35.155441527159006	1.8312654	1.3532425
35.173827179338524	1.9112728	1.3824879
35.19221376658354	1.8845598	1.3727927
35.21060128951017	1.9121385	1.3828009
35.2289897487348	1.8759038	1.3696364
35.24737914487405	1.7931536	1.3390869
35.26576947854479	1.7600493	1.3266685
35.28416075036418	1.914926	1.3838085
35.30255296094958	2.0432265	1.4294147
35.32094611091867	1.8250642	1.3509494
35.33934020088932	1.7885734	1.3373755
35.35773523147969	1.8322201	1.3535953
35.3761312033082	2.049017	1.4314388
35.394528116993506	2.0276656	1.4239613
35.41292597315452	1.8743438	1.3690667
35.431324772410434	2.0429788	1.4293281
35.449724515380666	2.2703016	1.506752
35.46812520268491	2.2659228	1.5052983
35.486526834943106	2.0340579	1.426204
35.504929412775454	1.8993529	1.3781701
35.52333293680242	1.6409366	1.2809905
35.54173740764471	1.6884756	1.2994136
35.560142825923286	1.8269497	1.351647
35.5785491922594	1.635571	1.2788944
35.59695650727454	1.7159538	1.3099442
35.61536477159042	2.1756063	1.4749936
