0.008763373481513119	0.61777776	0.7859884
0.026290120649546365	0.373186	0.6108895
0.043816868432600686	0.21917035	0.46815634
0.06134361724069026	0.18068181	0.42506683
0.07887036748382949	0.15598069	0.39494392
0.0963971195720331	0.16437571	0.40543273
0.11392387391531617	0.12456208	0.35293353
0.1314506309236943	0.05550772	0.23560077
0.1489773910071836	0.0020050595	0.044777893
0.16650415457580078	0.0	0.0
0.18403092203956356	0.07103376	0.2665216
0.20155769380849	0.15348756	0.3917749
0.2190844702925996	0.17042898	0.41283044
0.2366112519019124	0.19329084	0.43964854
0.2541380390464497	0.17355059	0.41659403
0.27166483213623416	0.20154406	0.44893658
0.28919163158128947	0.2464168	0.49640387
0.3067184377916406	0.1691655	0.41129735
0.324245251177314	0.12967499	0.36010414
0.34177207214833777	0.12104157	0.34791028
0.3592989011147415	0.13567731	0.368344
0.37682573848655654	0.17075314	0.41322288
0.39435258467381573	0.1542266	0.39271694
0.41187944008655414	0.16439576	0.40545747
0.42940630513480854	0.1567688	0.3959404
0.446933180228618	0.16115214	0.40143758
0.4644600657780234	0.19608976	0.44282022
0.48198696219306775	0.17286152	0.41576618
0.49951386988379676	0.16880721	0.41086155
0.5170407892602581	0.1508979	0.3884558
0.5345677207325025	0.13094477	0.36186293
0.5520946647105822	0.151282	0.38894987
0.5696216216045534	0.14088851	0.3753512
0.5871485918244737	0.13094226	0.36185944
0.6046755757804043	0.13367152	0.36561117
0.6222025738824094	0.14767784	0.38428876
0.6397295865405557	0.16202237	0.40252003
0.6572566141649129	0.1593672	0.39920822
0.6747836571655547	0.1546043	0.39319754
0.6923107159525568	0.16131589	0.4016415
0.7098377909359992	0.1893999	0.435201
0.7273648825259653	0.2250828	0.47442892
0.7448919911325411	0.20709094	0.45507246
0.762419117165817	0.17804211	0.42195037
0.7799462610358868	0.15177472	0.38958275
0.7974734231528482	0.14385553	0.37928292
0.8150006039268024	0.14822964	0.38500604
0.8325278037678551	0.15655959	0.3956761
0.8500550230861152	0.18170932	0.42627376
0.8675822622916969	0.17268626	0.41555536
0.8851095217947171	0.18094352	0.42537457
0.9026368020052984	0.173734	0.4168141
0.9201641033335665	0.21670245	0.4655131
0.9376914261896523	0.26974076	0.5193657
0.9552187709836915	0.27972594	0.5288912
0.9727461381258234	0.24934223	0.4993418
0.990273528026193	0.21664046	0.4654465
1.0078009410949496	0.20343207	0.45103446
1.0253283777422473	0.23956566	0.48945445
1.0428558383782454	0.23332137	0.4830335
1.0603833234131086	0.21513821	0.46382993
1.0779108332570058	0.26290935	0.5127469
1.0954383683201119	0.30016875	0.5478766
1.112965929012607	0.41086525	0.6409877
1.1304935157446763	0.54949653	0.7412803
1.1480211289265108	0.61138475	0.78191096
1.1655487689683062	1.5572153	1.2478844
1.1830764362802655	1.838163	1.3557887
1.200604131272596	2.2041001	1.4846212
1.2181318543555117	2.293402	1.5143982
1.235659605939232	2.2517996	1.5005997
1.253187386433982	3.858192	1.964228
1.270715196249994	6.2579103	2.5015817
1.2882430357975057	11.759621	3.4292302
1.3057709054867608	16.531996	4.0659556
1.3232988057280106	22.5535	4.7490525
1.3408267369315112	27.534632	5.247345
1.358354699507526	31.429546	5.606206
1.3758826938663256	35.28693	5.9402804
1.3934107204181858	37.342773	6.110873
1.410938779573391	37.54608	6.1274858
1.4284668717422309	38.001926	6.1645703
1.4459949973350033	37.626377	6.134034
1.4635231567620117	37.81665	6.149524
1.4810513504335687	37.446636	6.1193657
1.4985795787599925	36.725464	6.060154
1.5161078421516088	35.702305	5.9751406
1.5336361410187505	34.700912	5.890748
1.5511644757717598	34.90984	5.908455
1.5686928468209842	35.56331	5.963498
1.58622125457678	36.180412	6.0150156
1.6037496994495108	37.49366	6.1232066
1.621278181849548	37.289005	6.1064725
1.6388067021872719	37.866253	6.1535563
1.6563352608730693	37.179333	6.0974855
1.673863858317336	36.276188	6.0229716
1.6913924949304753	35.81837	5.984845
1.7089211711228998	34.95207	5.9120274
1.7264498873050296	34.407932	5.8658276
1.7439786438872935	33.770275	5.8112197
1.7615074412801288	32.591705	5.7089148
1.779036279893981	31.727633	5.6327286
1.796565160139305	30.485632	5.5213795
1.814094082426564	29.638287	5.4441056
1.8316230471662298	28.979246	5.3832374
1.849152054768784	28.393427	5.3285484
1.8666811056447168	27.90093	5.282133
1.8842102002045273	27.050797	5.201038
1.901739338858724	26.237911	5.1222954
1.9192685220178245	25.454067	5.0452023
1.9367977500923557	25.05637	5.005634
1.9543270234928547	24.796658	4.9796243
1.971856342629867	24.46157	4.945864
1.9893857079139496	23.68075	4.866287
2.006915119755667	22.950565	4.7906747
2.0244445785655945	22.25173	4.717174
2.0419740847543175	21.782036	4.667123
2.0595036387324317	21.409065	4.626993
2.0770332409105414	21.223085	4.606852
2.094562891699263	20.99145	4.5816426
2.1120925915092217	20.4178	4.518606
2.129622340751053	20.058329	4.4786525
2.1471521398354043	188.00778	13.711593
2.1646819891729323	444.08005	21.073206
2.182211889174303	439.96652	20.975378
2.1997418402501974	452.40088	21.269718
2.2172718428113023	432.72873	20.802134
2.234801897268317	321.04498	17.917728
2.2523320040319548	17.713257	4.208712
2.269862163512935	17.248636	4.1531477
2.287392376121992	16.803263	4.0991783
2.304922642269869	16.515406	4.0639153
2.322452962367322	16.195562	4.024371
2.3399833368251164	15.911127	3.9888754
2.357513766054032	15.448837	3.930501
2.3750442504648586	15.113806	3.8876479
2.3925747904683963	14.83574	3.8517191
2.410105386475459	14.840784	3.8523738
2.4276360388968707	14.598061	3.820741
2.445166748143469	14.2151375	3.7702968
2.4626975146261025	14.0329895	3.7460632
2.4802283387556323	13.908159	3.7293644
2.4977592209429305	13.710329	3.7027462
2.5152901615988825	13.564848	3.6830487
2.5328211611343865	13.192591	3.6321607
2.5503522199603523	12.944043	3.597783
2.5678833384877024	12.571997	3.5457013
2.5854145171273712	12.286098	3.505153
2.6029457562903064	11.999465	3.4640243
2.620477056387469	11.921843	3.4528022
2.6380084178298326	11.671005	3.4162853
2.655539841028383	11.426521	3.3803139
2.673071326394119	11.181759	3.3439138
2.6906028743380523	10.9123125	3.303379
2.708134485271211	10.8355	3.291732
2.7256661596046325	10.900993	3.3016653
2.743197897749369	10.882955	3.2989323
2.760729700116486	10.89576	3.3008726
2.778261567117063	10.755234	3.2795174
2.795793499162193	10.673431	3.267022
2.8133254966629817	10.367836	3.2199125
2.830857560030551	10.065299	3.1725855
2.8483896896760337	10.054636	3.1709046
2.865921886010578	9.919509	3.1495252
2.883454149445347	9.872952	3.1421254
2.9009864803915177	9.6144	3.1007097
2.91851887926028	9.329057	3.0543504
2.9360513464628384	9.192846	3.0319707
2.953583882410413	9.021739	3.003621
2.9711164875142373	8.972463	2.9954069
2.9886491621855606	8.868226	2.9779568
3.0061819068356455	8.751651	2.958319
3.023714721875769	8.634121	2.9383874
3.041247607717225	8.513657	2.917817
3.0587805647713213	8.469973	2.9103217
3.0763135934493806	8.469829	2.910297
3.0938466941627407	8.258353	2.873735
3.1113798673227544	8.0869665	2.8437593
3.1289131133407904	7.9553123	2.8205163
3.1464464326282315	7.886247	2.8082464
3.1639798255964786	7.753928	2.7845876
3.1815132926569443	7.70483	2.7757576
3.1990468342210603	7.6925035	2.7735362
3.216580450700272	7.5820985	2.753561
3.2341141425060416	7.383892	2.717332
3.251647910049847	7.241782	2.691056
3.2691817537431813	7.2612634	2.694673
3.286715673997555	7.32051	2.7056441
3.3042496712244938	7.427687	2.7253783
3.32178374583554	7.457324	2.7308102
3.339317898242251	7.275734	2.697357
3.3568521288562034	7.153574	2.6746166
3.3743864380889876	6.9974084	2.6452615
3.3919208263522127	6.898126	2.6264284
3.4094552940575023	6.7227497	2.5928266
3.4269898416164972	6.6019516	2.5694263
3.444524469440858	6.6204405	2.5730217
3.4620591779422587	6.6977596	2.588003
3.479593967532391	6.7868934	2.6051667
3.4971288386229658	6.7297573	2.5941775
3.5146637916257086	6.651394	2.5790296
3.5321988269523628	6.5368466	2.5567257
3.5497339450146903	6.5171742	2.5528758
3.5672691462244708	6.53444	2.556255
3.5848044309934988	6.4732356	2.5442555
3.60233979973359	6.3873706	2.5273247
3.619875252856575	6.338161	2.5175705
3.6374107907743034	6.2420845	2.4984164
3.6549464138986427	6.273434	2.5046825
3.6724821226414788	6.258507	2.5017009
3.690017917414714	6.290612	2.5081093
3.7075537986302702	6.3477383	2.519472
3.7250897667000857	6.3604302	2.5219893
3.7426258220361235	6.47006	2.5436313
3.7601619650503553	6.758244	2.5996623
3.777698196154779	7.3605804	2.713039
3.7952345157614067	8.475916	2.9113426
3.8127709242822716	9.30664	3.0506785
3.830307422129425	11.362851	3.3708827
3.847844009714936	30.140728	5.490057
3.8653806874508954	97.59498	9.879017
3.882917455749409	96.946556	9.846145
3.900454315022606	96.94626	9.846129
3.917991265682631	41.575703	6.447922
3.9355283081416506	11.167966	3.3418508
3.9530654428118495	8.914451	2.9857078
3.970602670105433	7.592449	2.75544
3.9881399904346244	6.7079835	2.5899775
4.005677404211669	6.6165476	2.5722651
4.023214911848827	6.5228415	2.5539854
4.0407525137583855	6.394046	2.528645
4.058290210352644	6.468445	2.5433137
4.075828002043927	6.3495984	2.519841
4.0933658892445814	6.3280253	2.5155566
4.110903872366966	6.1789746	2.4857543
4.128441951823468	6.0986347	2.4695413
4.145980128026488	6.116991	2.4732552
4.163518401388452	6.096746	2.469159
4.181056772321807	6.1409554	2.478095
4.1985952412390155	6.138911	2.4776826
4.216133808552567	6.178966	2.4857526
4.233672474674966	6.2356415	2.4971266
4.251211240018741	6.410741	2.531944
4.268750104996445	6.756579	2.599342
4.286289070020643	7.7747188	2.7883182
4.303828135503928	9.56997	3.0935369
4.3213673018589125	29.787477	5.4577904
4.3389065694982305	91.0185	9.540361
4.356445938834537	166.1104	12.888382
4.3739854102805085	171.74611	13.105194
4.391524984248844	172.70728	13.141814
4.409064661152262	136.7596	11.694426
4.426604441403504	97.15935	9.856944
4.444144325415337	75.9696	8.716054
4.461684313600543	21.830654	4.6723285
4.47922440637193	21.842031	4.673546
4.496764604142329	20.09264	4.4824815
4.5143049073245916	18.509087	4.302219
4.531845316331589	16.613379	4.075951
4.5493858315762195	13.884555	3.7261984
4.566926453471405	11.352793	3.3693905
4.584467182430081	9.282482	3.0467167
4.602008018865218	8.117024	2.8490393
4.619548963189798	7.5468645	2.7471557
4.637090015816834	7.1902704	2.681468
4.654631177159353	6.9518375	2.6366336
4.672172447630417	6.6206264	2.573058
4.689713827643102	6.4587817	2.5414133
4.7072553176105085	6.2495155	2.4999032
4.724796917945764	6.099313	2.4696786
4.742338629062015	5.953227	2.4399235
4.759880451372434	5.819094	2.4122798
4.777422385290215	5.787932	2.405812
4.794964431228581	5.7860045	2.4054115
4.812506589600768	5.797253	2.4077485
4.830048860820047	5.75344	2.398633
4.847591245299709	5.700507	2.3875735
4.8651337434530655	5.7024584	2.3879821
4.882676355693457	5.716474	2.390915
4.900219082434242	5.680723	2.3834267
4.917761924088813	5.6104302	2.3686347
4.935304881070575	5.5765724	2.3614767
4.952847953792969	5.5705204	2.360195
4.970391142669449	5.6150928	2.3696187
4.9879344481135055	5.6582274	2.3787029
5.005477870538642	5.652137	2.3774223
5.023021410358394	5.541738	2.3540897
5.040565067986324	5.425172	2.3291998
5.05810884383601	5.343817	2.3116698
5.075652738321066	5.3494453	2.3128867
5.09319675185512	5.359548	2.3150697
5.110740884851836	5.33902	2.310632
5.128285137724894	5.3064213	2.3035672
5.145829510888007	5.3266687	2.3079576
5.163374004754908	5.404242	2.3247025
5.1809186197393595	5.415726	2.3271713
5.198463356255145	5.439824	2.332343
5.216008214716077	5.3667293	2.31662
5.233553195535998	5.2942805	2.3009303
5.251098299128764	5.264911	2.2945395
5.268643525908272	5.3049884	2.303256
5.286188876288432	5.3383727	2.3104918
5.3037343506831895	5.354	2.3138711
5.32127994950651	5.3549237	2.3140707
5.3388256731723915	5.371428	2.317634
5.356371522094851	5.365343	2.3163211
5.373917496687938	5.3564577	2.3144023
5.391463597365729	5.317529	2.3059769
5.40900982454232	5.276256	2.2970102
5.426556178631843	5.2477717	2.2908015
5.444102660048449	5.254122	2.2921872
5.4616492692063225	5.2209997	2.2849507
5.479196006519669	5.1860805	2.2772968
5.496742872402727	5.1549754	2.270457
5.514289867269756	5.174428	2.274737
5.531836991535049	5.1788116	2.2757003
5.549384245612924	5.125512	2.2639594
5.566931629917724	5.104811	2.259383
5.584479144863822	5.0822506	2.2543848
5.6020267908656205	5.1244926	2.2637343
5.619574568337545	5.1148467	2.2616026
5.637122477694054	5.1890225	2.2779427
5.654670519349629	5.1923194	2.2786663
5.672218693718784	5.1089315	2.2602947
5.689767001216059	5.0246615	2.2415757
5.707315442256021	5.0406036	2.2451289
5.724864017253266	5.1270714	2.2643037
5.7424127266224225	5.146319	2.26855
5.75996157077814	5.217878	2.2842674
5.777510550135105	5.1924415	2.278693
5.795059665108022	5.2669497	2.2949836
5.812608916111639	5.235517	2.2881253
5.830158303560715	5.378894	2.3192441
5.847707827870055	5.3201275	2.3065403
5.86525748945448	5.349335	2.3128629
5.8828072887288485	5.4348664	2.33128
5.900357226108044	5.514989	2.3484013
5.917907302006979	5.5926576	2.36488
5.9354575168406	6.228397	2.4956756
5.9530078710238765	6.9009004	2.6269565
5.970558364971812	7.456469	2.7306535
5.988108999099438	7.8850346	2.8080304
6.005659773821818	8.371952	2.8934326
6.023210689554039	8.152853	2.8553202
6.040761746711227	8.446805	2.9063387
6.058312945708531	7.759772	2.7856367
6.075864286961132	7.279598	2.6980731
6.093415770884244	6.6895547	2.5864174
6.1109673978931065	6.1835456	2.4866736
6.128519168402993	5.6008644	2.3666146
6.146071082829204	5.4236	2.3288624
6.163623141587075	5.3472447	2.312411
6.181175345091969	5.29922	2.3020034
6.198727693759281	5.217882	2.2842684
6.216280188004435	5.1315064	2.2652829
6.233832828242885	5.0806804	2.2540364
6.251385614890126	5.140771	2.2673268
6.268938548361669	5.1883645	2.2777982
6.286491629073067	5.165656	2.272808
6.304044857439898	5.1589026	2.2713218
6.321598233877777	5.102949	2.2589707
6.339151758802344	5.097949	2.2578638
6.356705432629277	5.060401	2.2495334
6.37425925577428	5.079984	2.253882
6.391813228653095	5.051414	2.247535
6.409367351681486	5.0517406	2.2476077
6.426921625275259	5.0139475	2.2391846
6.44447604985025	4.98526	2.2327695
6.46203062582232	5.0282917	2.2423854
6.47958535360737	5.0186253	2.240229
6.497140233621328	4.9957304	2.2351131
6.514695266280161	4.980959	2.2318063
6.532250451999859	5.0158343	2.239606
6.549805791196454	5.1152163	2.2616844
6.567361284286002	5.0710588	2.2519011
6.584916931684597	5.0128717	2.2389443
6.602472733808367	4.994811	2.2349074
6.6200286910734665	5.0215807	2.2408884
6.637584803896092	5.078301	2.2535086
6.655141072692462	5.1160297	2.2618642
6.672697497878842	5.08647	2.2553203
6.690254079871514	5.069587	2.2515743
6.707810819086808	5.0062323	2.237461
6.725367715941078	4.9902506	2.233887
6.742924770850719	4.98127	2.231876
6.760481984232151	4.983423	2.2323582
6.778039356501836	5.0128756	2.2389452
6.795596888076266	5.094772	2.2571602
6.813154579371963	5.1624866	2.2721107
6.830712430805492	5.133204	2.2656574
6.84827044279344	5.0878496	2.2556262
6.865828615752445	5.029765	2.2427137
6.883386950099159	5.0401897	2.2450366
6.900945446250287	5.081235	2.2541595
6.918504104622553	5.1147223	2.2615752
6.936062925632727	5.1345344	2.2659512
6.953621909697607	5.1613264	2.2718554
6.971181057234028	5.159557	2.2714658
6.988740368658859	5.1857486	2.2772238
7.006299844389007	5.206254	2.2817218
7.023859484841407	5.3150444	2.305438
7.041419290433036	5.448655	2.3342354
7.058979261580902	5.6292067	2.3725948
7.0765393987020495	5.8053308	2.4094255
7.094099702213559	6.150515	2.4800231
7.111660172532549	6.491916	2.5479238
7.129220810076164	6.7810597	2.6040468
7.146781615261595	7.4005866	2.720402
7.16434258850606	7.604892	2.7576969
7.181903730226821	8.065601	2.8400002
7.1994650408411704	8.220009	2.867056
7.217026520766437	8.3796425	2.8947613
7.234588170419983	8.687076	2.9473846
7.252149990219215	8.652838	2.9415705
7.269711980581568	8.622302	2.9363756
7.2872741419245175	8.379457	2.8947294
7.304836474665574	7.931954	2.8163724
7.322398979222286	7.511884	2.7407818
7.339961656012233	7.2692842	2.696161
7.357524505453039	6.850061	2.6172621
7.375087527962357	6.5585084	2.5609584
7.392650723957886	6.251518	2.5003035
7.410214093857353	5.943696	2.4379697
7.427777638078528	5.741338	2.3961089
7.445341357039213	5.575281	2.3612034
7.4629052511572525	5.5232043	2.3501499
7.480469320850524	5.442875	2.332997
7.498033566536948	5.374488	2.3182943
7.5155979886344735	5.271826	2.2960458
7.5331625875610975	5.196473	2.2795775
7.550727363734844	5.173703	2.2745776
7.568292317573788	5.1301355	2.2649803
7.585857449496025	5.165167	2.2727003
7.603422759919705	5.236015	2.288234
7.620988249263007	5.282205	2.2983048
7.638553917944147	5.2867136	2.2992854
7.656119766381391	5.2207537	2.2848969
7.673685794993023	5.270245	2.2957015
7.691252004197388	5.2687106	2.2953672
7.70881839441285	5.2894325	2.2998767
7.726384966057826	5.2436757	2.2899075
7.743951719550762	5.2285986	2.286613
7.761518655310149	5.2041116	2.2812521
7.779085773754511	5.205358	2.2815254
7.796653075302419	5.186229	2.2773294
7.814220560372475	5.1977887	2.279866
7.831788229383323	5.2076664	2.2820313
7.8493560827536495	5.270206	2.295693
7.866924120902174	5.352888	2.3136308
7.884492344247663	5.4018106	2.3241796
7.9020607532089135	5.449525	2.3344216
7.919629348204771	5.424827	2.329126
7.937198129654115	5.4510217	2.3347423
7.954767097975865	5.4430976	2.3330448
7.972336253588986	5.5031013	2.345869
7.989905596912472	5.561885	2.3583648
8.007475128365371	5.5514216	2.3561456
8.025044848366756	5.510118	2.347364
8.042614757335754	5.5770755	2.3615832
8.060184855691523	5.5871606	2.3637176
8.07775514385327	5.838042	2.416204
8.095325622240228	5.880611	2.424997
8.112896291271687	5.9760737	2.4446008
8.130467151366968	6.0080113	2.4511244
8.148038202945436	6.0467796	2.4590201
8.165609446426497	6.043065	2.4582646
8.183180882229594	6.121911	2.4742496
8.200752510774217	6.1090813	2.4716556
8.218324332479893	6.1258864	2.4750528
8.235896347766193	6.1085167	2.4715414
8.253468557052724	6.0588493	2.461473
8.27104096075914	6.047973	2.4592626
8.288613559305137	6.043683	2.4583902
8.306186353110448	6.112981	2.4724443
8.32375934259485	6.1688495	2.483717
8.341332528178162	6.200719	2.4901242
8.358905910280246	6.2555547	2.5011108
8.376479489321003	6.2840285	2.5067964
8.394053265720377	6.3220515	2.514369
8.411627239898356	6.3190465	2.5137713
8.42920141227497	6.3554754	2.5210068
8.44677578327029	6.342055	2.5183437
8.464350353304427	6.343102	2.5185516
8.48192512279754	6.217963	2.4935844
8.499500092169827	6.1663365	2.483211
8.51707526184153	6.0709543	2.4639306
8.534650632232934	6.0989833	2.469612
8.552226203764365	6.164143	2.4827693
8.569801976856192	6.2643676	2.5028718
8.587377951928834	6.3282986	2.515611
8.60495412940274	6.3377995	2.5174987
8.622530509698416	6.36541	2.5229764
8.6401070932364	6.4339395	2.5365212
8.657683880437283	6.5481815	2.5589416
8.675260871721695	6.6937485	2.587228
8.692838067510303	6.8999662	2.6267786
8.710415468223834	7.056265	2.656363
8.727993074283043	7.1209035	2.668502
8.745570886108737	7.121027	2.6685252
8.763148904121765	7.2186127	2.6867476
8.78072712874302	7.249462	2.6924825
8.798305560393441	7.48669	2.7361817
8.815884199494006	7.573805	2.7520547
8.833463046465745	7.7736707	2.7881303
8.851042101729728	7.900546	2.810791
8.86862136570707	8.225586	2.8680282
8.886200838818924	8.408752	2.8997848
8.903780521486505	8.474875	2.911164
8.921360414131055	8.518725	2.9186857
8.938940517173874	8.646044	2.9404156
8.956520831036297	8.805202	2.967356
8.97410135613971	9.128224	3.021295
8.99168209290554	9.3084	3.050967
9.009263041755265	9.632366	3.1036053
9.026844203110405	9.87949	3.1431656
9.044425577392525	10.012469	3.1642487
9.062007165023239	10.092073	3.1768024
9.079588966424197	10.2868595	3.2073135
9.097170982017108	10.324195	3.2131286
9.11475321222372	11.287541	3.3596935
9.132335657465825	12.246852	3.4995503
9.149918318165264	12.369391	3.5170145
9.167501194743924	12.981183	3.6029408
9.18508428762374	12.64368	3.5557952
9.202667597226693	12.668616	3.5593
9.220251123974803	12.294336	3.506328
9.237834868290143	11.938128	3.4551597
9.255418830594836	11.68983	3.4190392
9.273003011311046	11.175832	3.3430274
9.290587410860985	10.9799185	3.313596
9.308172029666911	10.379928	3.2217896
9.32575686815113	10.105042	3.178843
9.343341926735997	8.833513	2.9721227
9.360927205843916	8.57116	2.9276545
9.378512705897327	8.36072	2.891491
9.396098427318728	8.106662	2.84722
9.413684370530664	7.999128	2.828273
9.431270535955722	7.894952	2.8097956
9.448856924016539	7.8882017	2.8085942
9.466443535135806	7.757797	2.7852821
9.484030369736251	7.760261	2.7857244
9.501617428240658	7.8090935	2.7944756
9.519204711071852	7.8428392	2.800507
9.536792218652714	7.905842	2.8117328
9.55437995140617	7.8753023	2.8062968
9.571967909755191	7.8915625	2.8091924
9.589556094122802	7.9195256	2.814165
9.60714450493207	7.921725	2.814556
9.624733142606116	7.982997	2.8254197
9.642322007568108	8.025317	2.832899
9.659911100241267	8.088511	2.8440309
9.677500421048851	8.1075115	2.8473692
9.695089970414175	8.150766	2.8549547
9.712679748760609	8.189021	2.8616467
9.730269756511557	8.246526	2.8716764
9.747859994090492	8.2414255	2.8707883
9.765450461920915	8.238387	2.870259
9.78304116042639	8.210717	2.865435
9.800632090030527	8.237476	2.8701005
9.81822325115699	8.321649	2.8847268
9.835814644229481	8.286179	2.8785722
9.853406269671762	8.332103	2.8865383
9.870998127907646	8.324804	2.8852737
9.888590219360985	8.339197	2.8877668
9.906182544455698	8.347582	2.889218
9.923775103615734	8.361497	2.8916254
9.941367897265108	8.378871	2.894628
9.958960925827878	8.444766	2.905988
9.97655418972816	8.390851	2.8966966
9.994147689390106	8.466834	2.9097824
10.011741425237934	8.407195	2.8995163
10.029335397695904	8.429988	2.903444
10.04692960718833	8.42984	2.9034188
10.06452405413958	8.341306	2.8881319
10.082118738974064	8.322939	2.8849504
10.099713662116246	8.328641	2.8859384
10.117308823990651	8.388155	2.8962312
10.134904225021844	8.377843	2.8944504
10.152499865634445	8.3311825	2.8863788
10.170095746253125	8.327235	2.885695
10.18769186730261	8.294565	2.8800287
10.205288229207675	8.306038	2.8820198
10.222884832393145	8.351102	2.8898273
10.2404816772839	8.301519	2.8812358
10.258078764304868	8.228289	2.8684993
10.275676093881035	8.168757	2.8581038
10.293273666437438	8.152195	2.8552048
10.310871482399158	8.207862	2.8649366
10.32846954219134	8.258124	2.8736951
10.346067846239173	8.196249	2.862909
10.363666394967908	8.099018	2.8458774
10.38126518880283	8.101303	2.846279
10.398864228169298	8.184339	2.8608284
10.416463513492713	8.289062	2.8790731
10.434063045198531	8.257802	2.873639
10.451662823712262	8.208886	2.8651154
10.469262849459467	8.245824	2.8715544
10.486863122865758	8.164377	2.8573375
10.504463644356806	8.06662	2.8401794
10.522064414358338	8.03236	2.834142
10.539665433296118	7.989859	2.826634
10.557266701595987	7.991406	2.8269074
10.574868219683818	7.947779	2.8191805
10.592469987985552	7.8324285	2.7986476
10.610072006927185	7.6717734	2.7697966
10.627674276934751	7.624648	2.7612765
10.64527679843435	7.491829	2.7371206
10.662879571852143	7.388688	2.718214
10.680482597614331	7.2199306	2.686993
10.698085876147173	7.044748	2.6541944
10.715689407876988	6.9656987	2.639261
10.733293193230146	6.8593388	2.619034
10.750897232633072	6.7569532	2.599414
10.76850152651225	6.682395	2.585033
10.786106075294207	6.6242976	2.573771
10.803710879405534	6.5883384	2.5667758
10.821315939272877	6.5621605	2.5616715
10.83892125532294	6.485251	2.5466156
10.856526827982472	6.3971562	2.52926
10.874132657678285	6.313152	2.5125985
10.891738744837243	6.2566986	2.5013394
10.909345089886271	6.2056384	2.491112
10.926951693252343	6.2338796	2.4967737
10.944558555362494	6.184129	2.486791
10.96216567664381	6.12115	2.4740958
10.979773057523436	5.9900584	2.4474597
10.997380698428573	5.8643956	2.4216514
11.014988599786477	5.7842317	2.405043
11.032596762024461	5.7340407	2.3945856
11.050205185569892	5.7275476	2.3932295
11.067813870850198	5.7218876	2.3920467
11.085422818292859	5.6790943	2.383085
11.10303202832541	5.610704	2.3686924
11.120641501375454	5.520202	2.3495111
11.138251237870636	5.4445214	2.33335
11.155861238238671	5.436776	2.3316896
11.173471502907317	5.3735385	2.3180895
11.191082032304402	5.3145204	2.3053243
11.208692826857805	5.1782427	2.2755752
11.226303886995465	5.0754	2.2528648
11.243915213145371	4.994063	2.23474
11.261526805735578	4.9483066	2.224479
11.279138665194196	4.9235606	2.2189097
11.296750791949393	4.890938	2.2115464
11.314363186429393	4.860366	2.2046237
11.331975849062479	4.8279486	2.1972594
11.34958878027699	4.783851	2.1872017
11.36720198050133	4.7406135	2.177295
11.384815450163948	4.646874	2.1556609
11.402429189693366	4.556116	2.134506
11.420043199518153	4.4311066	2.1050193
11.437657480066942	63.4367	7.964716
11.455272031768422	85.152756	9.227825
11.472886855051353	107.565346	10.371371
11.490501950344528	99.146385	9.957228
11.508117318076819	84.51412	9.193156
11.52573295867715	45.865173	6.772383
11.543348872574514	4.188046	2.0464716
11.560965060197946	4.134671	2.033389
11.57858152197655	4.1527667	2.037834
11.59619825833949	4.1146774	2.0284667
11.613815269715985	4.0804453	2.0200112
11.631432556535323	38.617317	6.2142835
11.649050119226837	83.17873	9.120237
11.666667958219929	93.57077	9.673199
11.68428607394406	107.72622	10.379125
11.701904466828756	82.47641	9.081653
11.719523137303586	65.327614	8.08255
11.737142085798196	4.5887623	2.1421397
11.754761312742286	3.7536876	1.9374436
11.772380818565619	3.7076497	1.9255258
11.790000603698015	3.67137	1.9160819
11.80762066856935	3.5628226	1.887544
11.825241013609572	3.5201452	1.876205
11.842861639248683	3.4643514	1.8612769
11.860482545916748	3.4607685	1.8603141
11.878103734043883	3.5041263	1.8719312
11.895725204060282	3.5353138	1.8802431
11.91334695639619	3.4858239	1.8670361
11.930968991481919	3.4135437	1.8475778
11.948591309747824	3.3631	1.8338757
11.966213911624347	3.3324363	1.8254962
11.98383679754198	3.2931767	1.8147112
12.001459967931268	3.2549617	1.8041513
12.019083423222835	3.2898443	1.8137928
12.036707163847352	3.3047166	1.8178879
12.05433119023556	3.3197877	1.8220285
12.071955502818259	3.2543008	1.8039681
12.089580102026313	3.2150738	1.7930627
12.107204988290643	3.2096872	1.79156
12.12483016204224	3.18449	1.784514
12.142455623712152	3.1489418	1.7745258
12.16008137373149	3.0731459	1.753039
12.177707412531431	3.047072	1.7455864
12.19533374054321	3.0256796	1.7394481
12.212960358198126	3.0623589	1.7499597
12.230587265927545	3.0763614	1.753956
12.248214464162889	3.0557678	1.7480755
12.265841953335649	3.0293133	1.7404922
12.283469733877375	3.017924	1.7372173
12.301097806219685	3.0086117	1.734535
12.31872617079425	2.975794	1.725049
12.336354828032825	2.9313653	1.712123
12.353983778367205	2.9246736	1.7101676
12.371613022229262	2.9392931	1.7144367
12.389242560050928	2.9601123	1.7204977
12.406872392264201	2.9563215	1.7193956
12.424502519301143	2.9596984	1.7203774
12.442132941593874	2.9429972	1.7155166
12.459763659574586	2.9211833	1.709147
12.477394673675532	2.8898377	1.6999522
12.49502598432903	2.8682668	1.6935958
12.51265759196746	2.8725781	1.6948682
12.530289497023267	2.8433158	1.6862135
12.547921699928967	2.7990632	1.6730402
12.565554201117134	2.7644827	1.6626734
12.583187001020404	2.832482	1.682998
12.600820100071486	2.904679	1.7043118
12.618453498703152	2.9080117	1.7052894
12.636087197348235	2.863575	1.6922101
12.65372119643964	2.7963367	1.6722251
12.671355496410326	2.792249	1.6710024
12.68899009769333	2.8405488	1.6853927
12.706625000721749	2.8857176	1.69874
12.724260205928752	2.9574864	1.7197344
12.741895713747551	2.9452689	1.7161785
12.759531524611454	2.9726222	1.7241294
12.777167638953818	2.9727297	1.7241606
12.794804057208072	2.9958234	1.7308447
12.812440779807702	3.0349984	1.7421247
12.830077807186271	3.1850438	1.7846692
12.847715139777405	3.2125392	1.7923558
12.865352778014795	3.4179187	1.8487614
12.882990722332197	3.531907	1.8793368
12.90062897316344	3.629007	1.9049953
12.918267530942412	3.701954	1.9240463
12.935906396103071	3.603115	1.8981873
12.953545569079449	3.764718	1.9402882
12.971185050305628	3.5585678	1.8864167
12.988824840215775	3.5504544	1.884265
13.006464939244115	3.5424638	1.8821434
13.024105347824943	3.427519	1.851356
13.041746066392617	3.5613978	1.8871666
13.05938709538157	3.3860989	1.8401356
13.077028435226296	3.4174495	1.8486345
13.094670086361363	3.2588797	1.8052367
13.112312049221401	3.1679575	1.7798758
13.129954324241112	3.0755146	1.7537146
13.147596911855258	2.8962803	1.7018461
13.165239812498685	2.864143	1.6923779
13.182883026606293	2.81999	1.6792825
13.200526554613058	2.783017	1.6682377
13.218170396954017	2.7824547	1.6680691
13.235814554064284	2.728564	1.6518365
13.253459026379034	2.7197156	1.649156
13.271103814333523	2.7061262	1.6450307
13.288748918363058	2.7453616	1.6569133
13.306394338903031	2.731566	1.652745
13.32404007638889	2.7110093	1.6465143
13.341686131256164	2.7045472	1.6445508
13.359332503940449	2.7087002	1.6458129
13.376979194877402	2.6808243	1.6373223
13.394626204502751	2.6869779	1.6392003
13.412273533252307	2.7039645	1.6443735
13.429921181561937	2.743296	1.6562898
13.447569149867581	2.7889452	1.6700135
13.465217438605247	2.7862384	1.6692029
13.482866048211022	2.7430806	1.6562248
13.500514979121052	2.7160735	1.6480514
13.518164231771568	2.6875465	1.6393738
13.535813806598844	2.6653306	1.6325841
13.553463704039254	2.664609	1.632363
13.571113924529229	2.672112	1.6346596
13.588764468505275	2.6756449	1.6357398
13.606415336403956	2.7020416	1.6437888
13.624066528661917	2.745008	1.6568066
13.641718045715882	2.7988558	1.6729782
13.659369888002635	2.832556	1.6830199
13.67702205595903	2.931967	1.7122988
13.694674550021993	3.0579448	1.748698
13.712327370628532	3.1414	1.7723995
13.729980518215713	3.184393	1.7844868
13.747633993220681	3.222955	1.795259
13.765287796080647	3.2353773	1.7987155
13.7829419272329	3.2818375	1.8115842
13.800596387114801	3.3522034	1.8309023
13.818251176163775	3.3711975	1.8360821
13.835906294817324	3.3803418	1.8385706
13.853561743513023	3.3605838	1.8331895
13.871217522688525	3.4194489	1.8491752
13.888873632781538	3.4862938	1.867162
13.906530074229858	3.5557084	1.8856586
13.92418684747135	3.6091993	1.8997893
13.941843952943948	3.5866654	1.8938494
13.959501391085665	3.5226967	1.8768848
13.977159162334578	3.4184947	1.8489171
13.994817267128846	3.3818681	1.8389857
14.012475705906693	3.3083382	1.8188838
14.030134479106424	3.2432547	1.8009038
14.047793587166414	3.1475224	1.7741258
14.065453030525108	3.0761888	1.7539067
14.083112809621026	3.0175972	1.7371233
14.100772924892766	2.949037	1.7172761
14.118433376778997	2.9142394	1.7071143
14.136094165718458	2.8547802	1.6896095
14.153755292149969	2.8686736	1.6937159
14.171416756512416	2.7767253	1.6663508
14.189078559244768	2.6702795	1.634099
14.20674070078606	2.5595706	1.5998658
14.224403181575408	2.5290854	1.5903099
14.242066002051999	2.5638282	1.6011959
14.259729162655093	2.5243368	1.5888162
14.277392663824022	2.5242403	1.5887858
14.295056505998208	2.4678154	1.5709282
14.312720689617128	2.466525	1.5705174
14.330385215120348	2.4262602	1.5576457
14.348050082947497	2.4043438	1.5505947
14.3657152935383	2.382683	1.5435942
14.383380847332528	2.393288	1.5470254
14.401046744770051	2.3771272	1.5417935
14.418712986290798	2.396373	1.5480223
14.436379572334793	2.3853073	1.544444
14.454046503342123	2.4000938	1.5492237
14.471713779752946	2.409013	1.5520996
14.489381402007504	2.400337	1.5493021
14.507049370546113	2.3893883	1.5457647
14.524717685809168	2.398398	1.5486761
14.542386348237134	2.401781	1.5497681
14.560055358270553	2.4114084	1.552871
14.577724716350051	2.417159	1.5547216
14.595394422916325	2.44661	1.5641643
14.61306447841015	2.487876	1.5773002
14.63073488327237	2.482644	1.5756408
14.648405637943917	2.4833925	1.5758783
14.6660767428658	2.449147	1.564975
14.683748198479094	2.4727974	1.5725131
14.701420005224954	2.530194	1.5906584
14.719092163544628	2.6451788	1.6264006
14.73676467387942	2.7120526	1.646831
14.754437536670727	2.7533255	1.6593148
14.772110752360014	2.7077956	1.6455381
14.78978432138882	2.6665444	1.6329558
14.807458244198777	2.627902	1.6210805
14.82513252123159	2.6004565	1.612593
14.842807152929028	2.619599	1.6185175
14.860482139732962	2.6337793	1.6228923
14.87815748208531	2.6539578	1.6290972
14.8958331804281	2.6368642	1.6238424
14.91350923520342	2.6183197	1.6181223
14.931185646853438	2.6231465	1.619613
14.948862415820408	2.6357331	1.6234941
14.966539542546656	2.6390452	1.6245139
14.98421702747459	2.6306722	1.6219348
15.001894871046696	2.6499064	1.6278533
15.019573073705542	2.6571002	1.6300614
15.037251635893766	2.6803815	1.6371871
15.054930558054092	2.704673	1.6445891
15.072609840629323	2.7499087	1.6582849
15.090289484062351	2.8931005	1.7009116
15.107969488796124	3.2017837	1.7893529
15.125649855273691	3.6521897	1.9110703
15.14333058393817	4.156734	2.038807
15.161011675232768	5.071866	2.2520804
15.17869312960076	6.4282846	2.535406
15.196374947485506	8.2582245	2.8737128
15.214057129330447	11.325133	3.3652835
15.231739675579114	15.943755	3.9929633
15.249422586675102	21.012512	4.5839405
15.267105863062092	24.178944	4.917209
15.284789505183847	24.389748	4.9385977
15.302473513484218	22.138985	4.7052083
15.320157888407127	18.492638	4.300307
15.337842630396578	14.506998	3.8088052
15.355527739896656	11.329836	3.365982
15.37321321735153	8.841892	2.973532
15.39089906320545	6.4502845	2.539741
15.408585277902748	4.861152	2.204802
15.42627186188783	3.80821	1.9514636
15.443958815605198	3.263662	1.8065609
15.461646139499424	2.9683063	1.7228774
15.479333834015168	2.8093514	1.676112
15.497021899597165	2.757717	1.6606375
15.514710336690234	2.6969507	1.6422396
15.53239914573928	2.631565	1.6222099
15.550088327189297	2.6003833	1.6125704
15.567777881485336	2.5485435	1.5964158
15.58546780907256	2.563409	1.601065
15.6031581103962	2.4972022	1.5802538
15.620848785901568	2.4898784	1.5779349
15.638539836034063	2.455145	1.5668902
15.656231261239173	2.447836	1.5645561
15.673923061962451	2.444143	1.5633756
15.691615238649552	2.4693959	1.5714312
15.709307791746202	2.406422	1.5512646
15.727000721698221	2.3840299	1.5440304
15.744694028951498	2.377407	1.5418843
15.76238771395202	2.391914	1.5465814
15.780081777145844	2.4157574	1.5542707
15.797776218979125	2.376056	1.5414461
15.815471039898094	2.3325148	1.5272573
15.833166240349064	2.3080225	1.5192177
15.850861820778437	2.3188636	1.5227815
15.868557781632699	2.3603656	1.5363481
15.886254123358412	2.3953264	1.5476842
15.903950846402232	2.4048367	1.5507536
15.921647951210897	2.4175863	1.5548589
15.939345438231225	2.4098182	1.5523589
15.957043307910133	2.3733258	1.5405602
15.974741560694602	2.3682964	1.5389271
15.992440197031714	2.3583663	1.5356973
16.01013921736862	2.3809266	1.5430251
16.02783862215259	2.3776948	1.5419775
16.045538411830933	2.4045966	1.5506761
16.06323858685107	2.4233077	1.5566977
16.080939147660512	2.434228	1.5602013
16.09864009470684	2.4113638	1.5528567
16.11634142843774	2.4088974	1.5520623
16.134043149300954	2.4125867	1.5532503
16.15174525774433	2.4091966	1.5521587
16.169447754215817	2.431452	1.5593114
16.18715063916342	2.4458659	1.5639265
16.204853913035244	2.4578688	1.5677592
16.222557576279478	2.4248388	1.5571893
16.240261629344403	22.388302	4.731628
16.257966072678386	42.89117	6.549135
16.275670906729868	38.014896	6.165622
16.293376131947387	2.4330792	1.559833
16.31108174877957	2.467287	1.57076
16.328787757675133	2.528707	1.5901909
16.34649415908287	2.550732	1.5971011
16.364200953451657	2.5870655	1.6084358
16.38190814123048	2.6288655	1.6213777
16.39961572286839	2.698315	1.6426548
16.41732369881455	2.7326252	1.6530654
16.43503206951817	2.7675507	1.6635957
16.45274083542859	2.7982087	1.6727847
16.47044999699522	2.8398716	1.6851919
16.488159554667558	2.8822246	1.6977116
16.505869508895184	2.8798425	1.6970099
16.523579860127786	2.909373	1.7056885
16.541290608815117	2.9725616	1.7241118
16.559001755407035	3.0223014	1.7384768
16.57671330035348	3.0904763	1.7579751
16.59442524410448	3.1534743	1.7758025
16.61213758711015	3.2045686	1.7901309
16.629850329820705	3.2534835	1.8037416
16.647563472686436	3.3184626	1.8216648
16.665277016157724	3.392477	1.8418678
16.682990960685053	3.444743	1.8560019
16.70070530671898	3.4837613	1.8664837
16.718420054710155	3.5324175	1.8794727
16.736135205109335	3.5829594	1.8928707
16.753850758367335	3.5953453	1.8961396
16.771566714935087	3.6176555	1.9020135
16.789283075263597	3.6874545	1.9202746
16.80699983980398	3.7928698	1.9475292
16.82471700900741	3.9181285	1.9794263
16.84243458332518	3.972943	1.9932243
16.860152563208665	4.0424347	2.0105808
16.87787094910932	4.0988708	2.024567
16.89558974147871	4.1672363	2.041381
16.913308940768466	4.202173	2.0499203
16.931028547430333	4.2374034	2.0584955
16.94874856191613	4.3368115	2.0825012
16.966468984677785	4.384225	2.0938542
16.98418981616729	4.458215	2.1114485
17.00191105683676	4.497272	2.1206772
17.019632707138374	4.563118	2.1361456
17.03735476752442	4.5804834	2.1402063
17.05507723844728	4.562003	2.1358845
17.072800120359403	4.5757747	2.139106
17.090523413713353	4.609886	2.1470644
17.108247118961785	4.6949034	2.1667726
17.125971236557437	4.765199	2.1829336
17.143695766953133	4.727496	2.1742806
17.161420710601806	4.6882043	2.1652262
17.179146067956477	4.682776	2.1639724
17.19687183947025	4.7057214	2.1692674
17.21459802559634	4.719617	2.172468
17.232324626788028	4.70201	2.168412
17.25005164349871	4.67277	2.161659
17.267779076181863	4.58042	2.1401916
17.285506925291074	4.5546947	2.1341732
17.30323519127999	4.587888	2.1419356
17.320963874602384	4.598468	2.144404
17.33869297571211	4.5333133	2.1291578
17.356422495063114	4.49955	2.1212142
17.37415243310944	4.558214	2.1349974
17.391882790305218	4.6068945	2.1463678
17.40961356710468	4.570164	2.1377943
17.42734476396215	4.53773	2.130195
17.445076381332044	4.528467	2.1280196
17.462808419668868	4.58487	2.1412308
17.48054087942723	4.7249475	2.1736944
17.498273761061835	4.9840713	2.2325034
17.51600706502747	5.4421153	2.3328342
17.533740791779024	6.1054506	2.470921
17.551474941771485	7.529374	2.7439704
17.56920951545993	8.67545	2.9454117
17.586944513299528	10.879284	3.2983758
17.60467993574556	12.589911	3.5482266
17.622415783253373	14.204598	3.7688987
17.64015205627843	15.5595	3.9445531
17.657888755276293	16.597387	4.073989
17.675625880702604	17.076149	4.13233
17.69336343301311	16.838402	4.103462
17.71110141266366	16.041288	4.005158
17.728839820110178	15.001626	3.8731933
17.746578655808705	14.144271	3.760887
17.764317920215372	12.809621	3.5790532
17.7820576137864	11.409149	3.3777432
17.79979773697811	9.460464	3.0757866
17.81753829024692	7.598831	2.7565978
17.835279274049356	5.9574695	2.4407928
17.85302068884201	4.8720756	2.2072778
17.870762535081607	4.200132	2.0494223
17.888504813224934	3.8582735	1.9642489
17.90624752372891	3.7305434	1.9314615
17.923990667050536	3.68874	1.9206092
17.941734243646895	3.5999844	1.8973625
17.959478253975185	3.534743	1.8800912
17.9772226984927	3.466088	1.8617433
17.994967577656833	3.445476	1.8561994
18.01271289192506	3.4221625	1.8499088
18.030458641754965	3.381405	1.8388597
18.04820482760425	3.3164568	1.8211142
18.06595144993067	3.2633314	1.8064693
18.083698509192125	3.2568042	1.8046618
18.101446005846576	3.2927866	1.8146037
18.119193940352105	3.28329	1.811985
18.136942313166887	3.2432053	1.8008901
18.1546911247492	3.215075	1.793063
18.1724403755574	3.2225378	1.7951428
18.19019006604997	3.250372	1.8028787
18.207940196685467	3.225173	1.7958766
18.225690767922575	3.1899388	1.78604
18.243441780220046	3.125705	1.7679664
18.261193234036764	3.0677392	1.7514963
18.278945129831676	3.0685027	1.7517142
18.29669746806386	3.0669587	1.7512734
18.314450249192483	3.0791037	1.7547375
18.3322034736768	3.0531845	1.7473364
18.349957141976184	3.0386448	1.7431709
18.3677112545501	3.0603306	1.7493801
18.385465811858108	3.1046076	1.7619897
18.403220814359884	3.1400418	1.7720163
18.420976262515172	3.1372333	1.7712237
18.43873215678387	3.1434414	1.7729753
18.456488497625923	3.1605368	1.7777898
18.474245285501407	3.1982307	1.7883598
18.492002520870486	3.258151	1.8050349
18.50976020419343	3.3698218	1.8357074
18.527518335930615	3.7092683	1.9259461
18.545276916542516	4.3169575	2.077729
18.563035946489688	4.454016	2.110454
18.580795426232832	4.841531	2.200348
18.598555356232698	4.732497	2.1754303
18.616315736950185	5.059443	2.2493205
18.63407656884626	4.776111	2.1854315
18.65183785238201	4.9736924	2.2301776
18.669599588018617	4.6766143	2.162548
18.68736177621737	4.607368	2.146478
18.705124417439652	4.642589	2.154667
18.72288751214696	4.4820976	2.1170964
18.740651060800886	4.5997334	2.1446989
18.758415063863115	4.2889824	2.0709858
18.77617952179546	4.4344864	2.105822
18.793944435059814	4.219552	2.0541549
18.811709804118184	4.2572284	2.0633051
18.829475629432675	4.2282324	2.0562665
18.8472419114655	4.04503	2.011226
18.86500865067897	4.1574364	2.0389793
18.88277584753551	3.862458	1.9653137
18.90054350249763	3.8498483	1.962103
18.918311616027957	3.4802537	1.8655438
18.936080188589226	3.3259196	1.8237104
18.953849220644265	3.0595684	1.7491622
18.971618712656007	2.897691	1.7022606
18.9893886650875	2.8502018	1.6882541
19.007159078401887	8.012311	2.8306026
19.024929953062408	32.89984	5.7358384
19.042701289532435	32.85746	5.732143
19.060473088275405	25.421906	5.042014
19.07824534975489	2.7107468	1.6464345
19.096018074434568	2.6728067	1.6348721
19.113791262778197	2.675885	1.6358132
19.13156491524966	2.6262367	1.6205667
19.149339032312945	2.5999541	1.6124374
19.167113614432136	2.58582	1.6080484
19.184888662071433	2.6044457	1.6138295
19.202664175695123	2.5941978	1.6106514
19.220440155767623	2.5497246	1.5967857
19.238216602753447	2.5617437	1.6005448
19.2559935171172	2.550936	1.597165
19.27377089932361	2.5572658	1.5991453
19.291548749837514	2.510048	1.584313
19.309327069123835	2.505308	1.5828165
19.32710585764763	2.5017638	1.5816965
19.344885115874032	2.53345	1.5916815
19.362664844268313	2.5032346	1.5821614
19.380445043295822	2.4619162	1.5690495
19.39822571342203	2.468705	1.5712113
19.41600685511252	2.4686887	1.5712061
19.43378846883297	2.476046	1.5735457
19.451570555049173	2.458681	1.5680182
19.469353114227037	2.4804666	1.5749497
19.48713614683254	2.5021763	1.5818269
19.50491965333182	2.542919	1.5946532
19.52270363419109	2.4993756	1.5809413
19.540488089876686	2.487133	1.5770646
19.55827302085503	2.4525359	1.5660574
19.576058427592674	2.4756126	1.573408
19.593844310556282	2.5023696	1.581888
19.611630670212598	2.5259652	1.5893285
19.629417507028506	2.4976087	1.5803825
19.64720482147098	2.5103583	1.584411
19.6649926140071	2.5386322	1.5933086
19.682780885104084	2.5512404	1.5972602
19.70056963522921	2.5430627	1.5946983
19.718358864849908	2.5144289	1.585695
19.7361485744337	2.5313756	1.5910298
19.753938764448215	2.5206177	1.5876453
19.771729435361202	2.5123234	1.585031
19.789520587640506	2.5015662	1.581634
19.807312221754092	2.5240684	1.5887316
19.825104338170043	2.532097	1.5912565
19.842896937356517	2.540213	1.5938046
19.860690019781824	2.5341241	1.5918932
19.87848358591436	2.5021775	1.5818273
19.896277636222635	2.4826536	1.5756439
19.914072171175278	2.4855106	1.5765502
19.931867191241015	2.4846654	1.5762821
19.94966269688869	2.4490561	1.564946
19.967458688587264	2.456347	1.5672737
19.985255166805807	2.4328074	1.5597459
20.00305213201348	2.473133	1.5726198
20.020849584679578	2.4980571	1.5805243
20.038647525273507	2.507414	1.5834817
20.05644595426477	2.5039651	1.5823922
20.07424487212299	2.48539	1.576512
20.092044279317903	2.4559286	1.5671402
20.109844176319353	2.4345992	1.5603203
20.127644563597304	2.4257216	1.5574728
20.145445441621817	2.4267328	1.5577974
20.16324681086307	2.407722	1.5516835
20.181048671791373	2.3790884	1.5424293
20.198851024877122	2.374771	1.5410292
20.216653870590836	2.3704689	1.5396327
20.234457209403146	2.3841758	1.5440776
20.252261041784802	2.390516	1.5461293
20.270065368206662	2.3749454	1.5410858
20.287870189139685	2.3639643	1.5375189
20.305675505054968	2.356391	1.5350541
20.323481316423702	2.3462746	1.5317554
20.341287623717207	2.3379219	1.5290264
20.359094427406884	2.3489347	1.5326234
20.376901727964288	2.3728805	1.5404156
20.39470952586107	2.3484821	1.5324758
20.41251782156899	2.3293192	1.5262108
20.430326615559935	2.3082056	1.5192779
20.448135908305886	2.3398862	1.5296687
20.465945700278965	2.3688629	1.539111
20.483755991951384	2.38134	1.5431591
20.50156678379548	2.3349502	1.5280544
20.519378076283708	2.3256485	1.5250077
20.537189869888635	2.3384037	1.529184
20.55500216508294	2.3760867	1.541456
20.572814962339415	2.3731074	1.5404893
20.59062826213098	2.3345664	1.5279288
20.60844206493066	2.3324907	1.5272493
20.626256371211593	2.3704836	1.5396374
20.644071181447032	2.3919332	1.5465876
20.66188649611036	2.4096346	1.5522997
20.67970231567506	2.4142818	1.5537959
20.697518640614742	2.404925	1.5507821
20.715335471403122	2.3786752	1.5422955
20.73315280851404	2.3438704	1.5309705
20.750970652421447	2.317333	1.5222789
20.768789003599412	2.3107457	1.5201137
20.786607862522136	2.3202884	1.5232493
20.8044272296639	2.3187938	1.5227586
20.82224710549913	2.3094263	1.5196797
20.84006749050237	2.2983704	1.5160377
20.857888385148268	3.8547637	1.9633552
20.8757097899116	45.952538	6.77883
20.893531705267254	64.795586	8.04957
20.911354131690224	83.81552	9.155082
20.92917706965566	69.04694	8.309449
20.94700051963877	50.080696	7.0767717
20.96482448211493	29.353212	5.4178605
20.982648957559622	4.1330624	2.0329936
21.00047394644843	2.2427063	1.4975668
21.01829944925707	2.2135863	1.4878126
21.036125466461375	2.2259867	1.4919741
21.053951998537297	2.2322955	1.4940869
21.071779045960906	2.2238514	1.4912584
21.089606609208378	2.216539	1.4888046
21.10743468875603	2.2094424	1.4864193
21.12526328508028	2.2206268	1.4901768
21.143092398657675	2.202355	1.4840333
21.16092202996488	2.2310135	1.4936578
21.17875217947867	2.240534	1.4968413
21.19658284767596	2.2216394	1.4905165
21.21441403503377	2.2080286	1.4859437
21.232245742029225	2.2051282	1.4849674
21.2500779691396	2.1578438	1.4689602
21.26791071684227	2.152284	1.4670664
21.28574398561475	2.1720552	1.4737895
21.30357777593465	2.2063084	1.4853647
21.321412088279704	2.1898444	1.4798123
21.339246923127792	2.1902046	1.479934
21.357082280956888	2.1908329	1.4801462
21.3749181622451	2.1664326	1.4718807
21.392754567470647	2.1701047	1.4731275
21.41059149711187	2.1384497	1.4623439
21.42842895164726	2.1247559	1.4576542
21.446266931555378	2.1412802	1.4633113
21.464105437314945	2.1514206	1.4667722
21.481944469404798	2.127534	1.4586068
21.49978402830388	2.097087	1.4481322
21.51762411449127	2.096966	1.4480904
21.53546472844617	2.0887492	1.4452505
21.553305870647876	2.1057959	1.4511361
21.571147541575865	2.1004753	1.4493017
21.58898974170967	2.1240947	1.4574274
21.60683247152899	2.1339686	1.4608109
21.62467573151363	2.1207635	1.4562842
21.642519522143523	2.0889704	1.445327
21.660363843898722	2.03815	1.4276379
21.6782086972594	2.0310502	1.4251492
21.696054082705864	2.0358534	1.4268334
21.713900000718535	2.0352862	1.4266346
21.73174645177795	2.0535238	1.4330121
21.749593436364794	2.0699723	1.4387398
21.767440954959845	2.0564559	1.4340348
21.785289008044032	2.036834	1.427177
21.803137596098388	1.9866595	1.4094892
21.820986719604086	1.9576323	1.3991542
21.838836379042412	1.9776435	1.4062871
21.85668657489478	2.023728	1.4225779
21.87453730764273	2.0681255	1.4380978
21.892388577767914	2.0836132	1.4434726
21.91024038575213	2.0714643	1.4392582
21.928092732077285	2.0286772	1.4243164
21.945945617225426	2.011343	1.4182183
21.963799041678694	1.9948728	1.4123996
21.981653005919398	31.349447	5.5990577
21.999507510429943	78.15295	8.840416
22.01736255569286	73.12539	8.551338
22.035218142190818	4.216553	2.0534248
22.05307427040661	2.010072	1.41777
22.07093094082315	2.0170429	1.4202263
22.088788153923474	1.9960071	1.4128011
22.106645910190746	1.9751344	1.4053948
22.12450421010827	1.9552379	1.3982981
22.142363054159464	1.9809545	1.4074639
22.16022244282787	1.9657034	1.4020355
22.178082376597164	1.9429348	1.3938919
22.195942855951145	1.9693855	1.403348
22.213803881373742	1.9803703	1.4072562
22.231665453349002	1.9898844	1.4106326
22.24952757236111	1.9871702	1.4096702
22.26739023889438	1.9884645	1.4101292
22.28525345343323	1.9515576	1.3969816
22.30311721646225	1.9472821	1.3954505
22.320981528466113	1.9580973	1.3993204
22.33884638992964	1.9792346	1.4068527
22.356711801337788	1.9780191	1.4064207
22.37457776317561	1.9835529	1.4083866
22.392444275928337	1.9464511	1.3951527
22.410311340081282	1.9581453	1.3993374
22.428178956119904	1.9498166	1.3963584
22.446047124529805	1.9642354	1.4015118
22.46391584579669	1.9591283	1.3996886
22.481785120406414	1.9686128	1.4030726
22.49965494884496	1.930223	1.3893247
22.51752533159841	1.9324195	1.3901149
22.53539626915302	1.8896881	1.3746593
22.553267761995137	1.8955951	1.3768061
22.571139810611264	1.8991852	1.3781093
22.589012415488025	1.9380727	1.3921468
22.60688557711216	1.9494128	1.3962138
22.624759295970566	1.9550927	1.3982463
22.642633572550263	1.9632883	1.401174
22.660508407338362	2.0050383	1.4159937
22.67838380082217	2.00745	1.4168451
22.696259753489077	2.0016212	1.4147867
22.714136265826614	1.9569778	1.3989203
22.73201333832246	1.8995425	1.3782389
22.74989097146439	1.9019328	1.3791058
22.76776916574035	1.9532723	1.3975952
22.785647921638393	1.965942	1.4021206
22.803527239646712	1.926836	1.3881052
22.82140712025363	1.8979751	1.3776702
22.839287563947593	1.9060285	1.38059
22.85716857121719	1.8875647	1.3738867
22.875050142551135	1.882844	1.3721676
22.892932278438277	1.8828942	1.372186
22.910814979367604	1.8820786	1.3718888
22.928698245828222	1.8849826	1.3729467
22.946582078309387	1.9235427	1.3869184
22.96446647730047	1.9346465	1.3909158
22.98235144329098	1.9018285	1.379068
23.000236976770562	1.9001951	1.3784757
23.018123078229	1.8748633	1.3692565
23.03600974815619	1.8691939	1.3671846
23.053896987042194	1.8887533	1.3743192
23.071784795377173	1.8929121	1.3758315
23.08967317365145	1.9030136	1.3794975
23.10756212235546	1.9189459	1.3852602
23.125451641979787	1.9203233	1.3857573
23.143341733015134	1.9318125	1.3898966
23.161232395952357	1.9359826	1.3913959
23.179123631282426	1.9348568	1.3909913
23.197015439496468	1.9129986	1.383112
23.214907821085717	1.9553117	1.3983246
23.23280077654157	1.9727985	1.4045634
23.250694306355538	1.9725757	1.4044842
23.268588411019277	1.9918247	1.4113202
23.28648309102458	1.977839	1.4063567
23.304378346863356	1.9273425	1.3882877
23.322274179027676	1.876566	1.3698782
23.340170588009723	1.8412014	1.3569088
23.358067574301852	1.8450037	1.3583091
23.37596513839651	1.8597428	1.3637239
23.39386328078629	1.922601	1.3865789
23.411762001963947	1.97469	1.4052366
23.429661302422353	2.0171125	1.4202509
23.4475611826545	1.9989728	1.4138503
23.46546164315356	1.9619972	1.4007131
23.48336268441279	1.9294914	1.3890613
23.501264306925638	1.9087018	1.3815577
23.51916651118564	1.910977	1.382381
23.537069297686497	1.933333	1.3904434
23.554972666922037	1.9473132	1.3954617
23.57287661938623	1.956678	1.3988131
23.59078115557318	1.9348829	1.3910006
23.608686275977128	1.9561986	1.3986417
23.62659198109246	1.9731818	1.4046999
23.6444982714137	1.982555	1.4080323
23.66240514743549	1.985273	1.4089972
23.68031260965263	1.9607099	1.4002535
23.698220658560068	1.9533478	1.3976222
23.716129294652845	1.9293119	1.3889967
23.7340385184262	1.8956027	1.3768089
23.75194833037546	1.8605148	1.3640069
23.769858730996123	1.8146638	1.3470945
23.78776972078382	1.8310777	1.3531731
23.80568130023431	1.8832289	1.3723079
23.823593469843495	1.9380841	1.3921509
23.841506230107424	1.944509	1.3944565
23.859419581522275	1.9143814	1.3836117
23.87733352458438	1.9254102	1.3875915
23.89524805979019	1.946822	1.3952856
23.913163187636318	1.9333602	1.3904532
23.931078908619508	1.916691	1.384446
23.948995223236633	1.9534982	1.397676
23.966912131984735	2.0299602	1.4247667
23.98482963536096	2.0713468	1.4392174
24.002747733862616	2.0435882	1.4295412
24.020666427987155	2.0405898	1.4284922
24.038585718232156	2.0465527	1.4305778
24.056505605095353	2.0678687	1.4380085
24.074426089074617	2.1207483	1.4562789
24.092347170667946	2.137354	1.4619691
24.110268850373515	2.1326585	1.4603624
24.128191128689586	2.0816839	1.4428042
24.146114006114626	2.0119345	1.4184268
24.164037483147187	1.9898207	1.4106101
24.181961560286005	1.9944352	1.4122447
24.199886238029926	2.0367453	1.4271458
24.21781151687797	2.0329244	1.4258066
24.235737397329274	2.045316	1.4301454
24.253663879883135	2.0756013	1.4406947
24.271590965038975	2.0838213	1.4435447
24.289518653296376	2.0623853	1.4361007
24.30744694515505	2.0102746	1.4178416
24.32537584111486	1.9936787	1.4119768
24.34330534167581	1.9652004	1.4018561
24.361235447338046	2.008519	1.4172223
24.379166158601876	2.0076907	1.41693
24.39709747596772	2.003902	1.4155924
24.41502939993615	2.0059993	1.4163331
24.432961931007917	1.9972998	1.4132586
24.450895069683856	1.9805958	1.4073365
24.468828816465	1.9734147	1.4047828
24.4867631718525	1.9325441	1.3901597
24.504698136347656	1.9437839	1.3941965
24.52263371045192	1.9718914	1.4042405
24.540569894666874	1.9669712	1.4024875
24.558506689494266	1.9621052	1.4007516
24.57644409543597	1.96031	1.4001107
24.594382112994012	1.9516423	1.3970119
24.61232074267057	1.9863954	1.4093953
24.630259984967953	2.022257	1.4220608
24.64819984038863	2.0199616	1.4212536
24.66614030943522	1.991084	1.4110577
24.684081392610462	1.963829	1.4013668
24.702023090417274	1.9395477	1.3926765
24.7199654033587	1.958933	1.3996189
24.737908331937927	2.0098026	1.417675
24.755851876658305	2.0407875	1.4285613
24.773796038023324	2.070967	1.4390855
24.79174081653661	2.0990942	1.4488251
24.809686212701962	2.0834513	1.4434165
24.827632227023294	2.0376585	1.4274658
24.8455788600047	2.0494442	1.431588
24.8635261121504	2.0903785	1.4458141
24.88147398396475	2.0886846	1.4452282
24.899422475952303	2.1266382	1.4582998
24.917371588617698	2.1377745	1.462113
24.935321322465768	2.189628	1.4797391
24.953271678001478	2.276341	1.5087547
24.97122265572994	2.458398	1.567928
24.989174256156414	2.8028793	1.6741802
25.00712647978632	3.3006136	1.8167591
25.02507932712521	3.8315482	1.957434
25.043032798678798	4.316633	2.0776508
25.060986894952933	4.9723907	2.2298858
25.078941616453637	5.706476	2.3888233
25.096896963687055	6.635081	2.575865
25.114852937159508	7.7518816	2.7842202
25.132809537377444	8.170999	2.858496
25.150766764847468	8.223805	2.8677177
25.168724620076347	7.7234774	2.7791145
25.186683103570985	6.7830086	2.604421
25.204642215838426	5.639505	2.3747642
25.222601957385894	4.314669	2.0771782
25.24056232872074	3.2971282	1.8157996
25.25852333035048	2.6695232	1.6338676
25.276484962782778	2.2943268	1.5147035
25.294447226525435	2.1498601	1.4662402
25.312410122086423	2.0632682	1.436408
25.330373649973843	1.9754571	1.4055096
25.348337810695988	1.9477527	1.3956192
25.366302604761245	1.924958	1.3874285
25.384268032678207	1.9270751	1.3881913
25.40223409495558	1.8872768	1.3737819
25.420200792102257	1.9475021	1.3955294
25.438168124627246	1.9767724	1.4059774
25.45613609303974	1.9440349	1.3942865
25.474104697849057	1.8602091	1.3638948
25.492073939564698	1.8252832	1.3510305
25.510043818696285	1.8458247	1.3586113
25.528014335753614	1.868813	1.3670454
25.54598549124664	1.883358	1.3723549
25.56395728568544	1.8953273	1.3767089
25.58192971958028	1.9181958	1.3849895
25.59990279344156	1.920188	1.3857085
25.617876507779833	1.9086171	1.3815271
25.635850863105826	1.8864951	1.3734974
25.653825859930386	1.911336	1.3825108
25.671801498764548	1.8807228	1.3713945
25.68977778011949	1.8795259	1.370958
25.707754704506524	1.8781756	1.3704655
25.725732272437153	1.8566077	1.3625739
25.743710484423012	1.813002	1.3464776
25.761689340975888	1.8321538	1.3535707
25.77966884260774	1.8764982	1.3698534
25.797648989830662	1.880209	1.3712071
25.815629783156922	1.8629307	1.3648921
25.83361122309895	1.8904141	1.3749233
25.85159331016929	1.8838553	1.3725361
25.869576044880695	1.8888739	1.3743631
25.887559427746034	1.8646019	1.3655043
25.90554345927836	1.8656347	1.3658824
25.92352813999086	1.8496255	1.3600093
25.94151347039689	1.8750877	1.3693384
25.959499451009965	1.858463	1.3632545
25.97748608234374	1.8628027	1.3648453
25.995473364912062	1.8826246	1.3720877
26.013461299228904	1.9004349	1.3785626
26.03144988580839	1.8769382	1.370014
26.04943912516483	1.8432245	1.3576541
26.067429017812675	1.7972194	1.3406041
26.085419564266537	1.7927418	1.3389331
26.103410765041186	1.7802304	1.3342527
26.12140262065155	1.7903726	1.3380481
26.139395131612723	1.8079519	1.344601
26.157388298439948	1.8033333	1.3428824
26.17538212164861	1.8210338	1.3494569
26.193376601754295	1.799158	1.341327
26.211371739272714	1.819259	1.3487991
26.229367534719746	1.8031979	1.3428321
26.247363988611433	1.8089935	1.3449882
26.26536110146397	1.8220301	1.349826
26.283358873793727	1.8724687	1.3683817
26.301357306117204	1.8521514	1.3609377
26.319356398951104	1.81752	1.3481543
26.33735615281224	1.7905807	1.3381258
26.35535656821762	1.786266	1.3365126
26.373357645684404	1.7950983	1.3398128
26.39135938572991	1.8453956	1.3584534
26.409361788871614	1.8716009	1.3680646
26.427364855627165	1.8626441	1.3647872
26.445368586514352	1.8322691	1.3536134
26.46337298205115	1.8246436	1.3507937
26.48137804275568	1.8109335	1.3457093
26.499383769146217	1.8630378	1.3649315
26.517390161741215	1.8550407	1.3619988
26.53539722105928	1.8077532	1.3445271
26.553404947619182	1.8242252	1.3506389
26.571413341939856	1.8323405	1.3536397
26.589422404540397	1.7999958	1.3416392
26.60743213594006	1.7393572	1.318847
26.62544253665827	1.708748	1.3071909
26.64345360721459	1.7313172	1.3157953
26.66146534812879	1.788678	1.3374147
26.679477759920758	1.8380139	1.3557338
26.69749084311057	1.820805	1.349372
26.71550459821847	1.7611481	1.3270825
26.733519025764842	1.7493834	1.3226426
26.751534126270258	1.804664	1.3433778
26.769549900255434	1.8261461	1.3513497
26.787566348241267	1.7879821	1.3371545
26.80558347074881	1.7435174	1.3204232
26.823601268299267	1.7645781	1.3283743
26.841619741414036	1.8117088	1.3459973
26.85963889061465	1.8196687	1.348951
26.877658716422832	1.7901111	1.3379503
26.89567921936045	1.800193	1.3417127
26.913700399949544	1.8037739	1.3430465
26.93172225871233	1.8085643	1.3448287
26.949744796171174	1.8335841	1.354099
26.967768012848605	1.8366815	1.3552423
26.98579190926733	1.7843866	1.3358094
27.003816485950225	1.7560203	1.3251492
27.021841743420318	1.7896172	1.3377657
27.039867682200814	1.7980963	1.3409312
27.057894302815072	1.7983284	1.3410177
27.07592160578664	1.8346261	1.3544837
27.0939495916392	1.8344913	1.3544339
27.111978260896635	1.7912143	1.3383626
27.13000761408296	1.7990263	1.3412778
27.148037651722397	1.7985424	1.3410975
27.166068374339304	1.7931958	1.3391026
27.184099782458215	1.8252399	1.3510144
27.20213187660384	1.8264616	1.3514664
27.22016465730105	1.7987348	1.3411692
27.23819812507487	1.7875988	1.3370112
27.256232280450533	1.7940115	1.3394071
27.274267123953383	1.8273329	1.3517888
27.292302656108987	1.8326443	1.3537519
27.31033887744306	1.8547494	1.3618919
27.32837578848146	1.8692148	1.3671923
27.34641338975026	1.8319404	1.3534919
27.364451681775673	1.7705555	1.3306222
27.382490665084074	1.7489127	1.3224646
27.400530340202046	1.7637923	1.3280784
27.41857070765629	1.7887824	1.3374537
27.436611767973726	1.8038535	1.3430761
27.454653521681404	1.7831436	1.335344
27.472695969306564	1.7536095	1.3242393
27.490739111376627	1.7780795	1.3334465
27.508782948419153	1.7943474	1.3395325
27.526827480961902	1.7804322	1.3343284
27.54487270953279	1.7918115	1.3385856
27.562918634659898	1.8396475	1.3563361
27.580965256871508	1.8308067	1.3530731
27.599012576696026	1.8003513	1.3417717
27.617060594662068	1.8332636	1.3539807
27.63510931129842	1.8862896	1.3734226
27.65315872713401	1.8594344	1.3636107
27.67120884269797	1.7840362	1.3356782
27.68925965851958	1.7783921	1.3335637
27.707311175128307	1.8222243	1.3498979
27.725363393053787	1.8654047	1.3657982
27.74341631282583	1.8793871	1.3709074
27.7614699349744	1.8788333	1.3707054
27.77952426002968	2.1266716	1.4583112
27.797579288521973	2.2039695	1.4845772
27.815635020981784	2.6385968	1.6243758
27.83369145793979	2.727856	1.6516222
27.85174859992682	2.5196931	1.5873542
27.869806447473923	2.3206298	1.5233613
27.887865001112267	2.007481	1.416856
27.905924261373233	1.9327954	1.3902501
27.92398422878836	1.9041594	1.3799129
27.94204490388936	1.8402879	1.3565722
27.96010628720813	1.8465801	1.3588893
27.978168379276728	1.8471423	1.3590962
27.9962311806274	1.8234185	1.3503401
28.014294691792568	1.8401535	1.3565226
28.0323589133048	1.8628434	1.3648602
28.050423845696887	1.891156	1.3751931
28.068489489501758	1.9007347	1.3786713
28.086555845252523	1.8911518	1.3751916
28.104622913482487	1.8783983	1.3705467
28.122690694725115	1.8852676	1.3730505
28.14075918951405	1.9304942	1.3894223
28.15882839838312	1.8999469	1.3783857
28.176898321866304	1.8578784	1.3630401
28.1949689604978	1.9020418	1.3791453
28.213040314811945	1.9137294	1.3833761
28.23111238534327	1.9236119	1.3869433
28.249185172626493	1.8698367	1.3674197
28.267258677196473	1.8561285	1.362398
28.285332899588294	1.8981857	1.3777466
28.303407840337172	1.9780035	1.4064151
28.321483499978545	1.9885597	1.410163
28.33955987904799	1.961475	1.4005266
28.357636978081285	1.9167376	1.384463
28.37571479761439	1.9535382	1.3976903
28.393793338183425	1.9800253	1.4071337
28.41187260032469	1.9289136	1.3888533
28.429952584574686	1.9138125	1.3834062
28.448033291470065	1.9532313	1.3975805
28.46611472154769	1.9538535	1.3978031
28.484196875344566	1.9183469	1.385044
28.502279753397914	1.9490515	1.3960843
28.52036335624511	1.9646007	1.4016421
28.538447684423716	1.965484	1.4019572
28.556532738471482	1.9473166	1.3954629
28.574618518926325	1.9852467	1.4089878
28.59270502632635	1.9957602	1.4127138
28.61079226120985	2.032801	1.4257632
28.628880224115274	2.0622172	1.4360422
28.646968915581287	2.0973005	1.448206
28.66505833614671	2.1181722	1.4553941
28.68314848635055	2.084218	1.4436821
28.701239366732004	1.9980078	1.413509
28.71933097783044	2.010528	1.417931
28.737423320185403	2.0912478	1.4461148
28.75551639433665	2.1316319	1.4600109
28.773610200824074	2.1267722	1.4583457
28.791704740187793	2.0977118	1.4483479
28.80980001296809	2.1089804	1.452233
28.827896019705413	2.1196032	1.4558856
28.845992760940433	2.1606023	1.4698987
28.86409023721397	2.1617067	1.4702743
28.88218844906704	2.161251	1.4701194
28.900287397040845	2.1884375	1.4793369
28.918387081676755	2.226667	1.492202
28.936487503516343	2.273292	1.5077441
28.954588663101365	2.3160558	1.5218593
28.97269056097374	2.2971547	1.5156367
28.990793197675597	2.3164399	1.5219855
29.00889657374923	2.351229	1.5333718
29.027000689737125	2.367016	1.538511
29.04510554618196	2.4108856	1.5527027
29.06321114362659	2.4865894	1.5768924
29.08131748261405	2.5413682	1.594167
29.099424563687567	2.518038	1.5868328
29.11753238739057	2.491124	1.5783294
29.13564095426663	2.5115976	1.584802
29.15375026485954	2.5619128	1.6005976
29.171860319713275	2.6050782	1.6140255
29.18997111937199	2.602572	1.613249
29.20808266438002	2.6893616	1.6399273
29.226194955281898	2.799101	1.6730515
29.244307992622335	2.8720036	1.6946987
29.26242177694624	2.902514	1.7036766
29.2805363087987	2.92852	1.7112919
29.29865158872498	2.8956013	1.7016467
29.316767617270557	2.8820615	1.6976635
29.334884394981064	2.9104695	1.7060099
29.353001922402367	2.9541733	1.7187709
29.37112020008047	3.0446613	1.7448958
29.389239228561596	3.1422098	1.772628
29.407359008392152	3.308524	1.8189348
29.42547954011872	3.6010308	1.8976382
29.44360082428809	4.2180834	2.0537972
29.46172286144722	5.2779403	2.2973769
29.479845652143283	6.9037843	2.6275053
29.497969196923606	8.908044	2.9846346
29.516093496335728	11.367149	3.3715203
29.5342185509274	14.077066	3.7519417
29.55234436124651	16.470646	4.0584044
29.570470927841175	17.907999	4.2317843
29.588598251259686	17.671432	4.20374
29.60672633205055	16.31094	4.0386806
29.624855170762405	14.104359	3.755577
29.642984767944146	11.337958	3.3671885
29.66111512414481	8.742001	2.9566875
29.67924623991366	6.5648336	2.5621932
29.697378115800138	5.0785747	2.2535694
29.71551075235387	4.1131682	2.0280948
29.733644150124675	3.7032077	1.9243721
29.751778309662576	3.4977622	1.8702306
29.769913231517766	3.3602166	1.8330894
29.78804891624066	3.3526008	1.8310108
29.806185364381818	3.3236644	1.823092
29.82432257649206	3.3287828	1.8244952
29.842460553122333	3.3374555	1.8268704
29.86059929482382	3.3159409	1.8209726
29.878738802147872	3.2793937	1.8109096
29.896879075646048	3.3363583	1.8265702
29.915020115870114	3.3370023	1.8267463
29.933161923371976	3.2255974	1.7959948
29.951304498703777	3.2008107	1.789081
29.969447842417857	3.2282782	1.796741
29.987591955066733	3.1977224	1.7882177
30.005736837203123	3.1453936	1.7735257
30.023882489379943	3.1031704	1.7615818
30.04202891215028	3.1326842	1.7699391
30.060176106067455	3.1489477	1.7745274
30.078324071684946	3.159447	1.7774833
30.09647280955646	3.1722696	1.7810867
30.114622320235863	3.2039633	1.7899618
30.132772604277257	3.200851	1.7890922
30.1509236622349	3.1629264	1.7784618
30.16907549466328	3.1596339	1.7775359
30.18722810211705	3.1752934	1.7819353
30.205381485151097	3.169404	1.780282
30.22353564432045	3.140037	1.772015
30.241690580180403	3.0505075	1.7465702
30.25984629328638	2.9404051	1.7147609
30.278002784194037	2.9715376	1.7238148
30.296160053459246	3.044825	1.7449427
30.314318101638033	3.021677	1.7382971
30.332476929286646	2.9998906	1.7320192
30.35063653696153	3.0373971	1.742813
30.368796925219307	2.986924	1.728272
30.386958094616844	2.9089153	1.7055542
30.40512004571115	2.8300672	1.6822803
30.423282779059463	2.8002975	1.673409
30.441446295219233	2.8200655	1.6793051
30.459610594748067	2.8356278	1.6839322
30.47777567820382	2.8659372	1.6929079
30.495941546144504	2.8717692	1.6946295
30.51410819912835	2.908564	1.7054513
30.532275637713795	2.8509538	1.6884768
30.55044386245946	2.732954	1.6531649
30.56861287392416	2.8019006	1.6738878
30.586782672666956	2.8811796	1.6974038
30.604953259247047	2.898399	1.7024685
30.623124634223885	2.8402395	1.6853011
30.641296798157075	2.7553322	1.6599194
30.659469751606462	2.7585886	1.6608999
30.677643495132074	2.7381926	1.6547484
30.695818029294152	2.658213	1.6304027
30.713993354653116	2.703884	1.6443491
30.73216947176962	2.716859	1.6482898
30.75034638120448	2.7418082	1.6558406
30.768524083518756	2.7497733	1.658244
30.786702579273673	2.7178419	1.6485878
30.80488186903069	2.7132955	1.6472083
30.82306195335144	2.9078205	1.7052332
30.841242832797782	3.1054425	1.7622266
30.85942450793176	3.3783305	1.8380235
30.877606979315637	3.6812181	1.91865
30.895790247511883	4.0094733	2.002367
30.913974313083134	4.4264073	2.1039028
30.932159176592283	4.7192497	2.1723833
30.95034483860237	4.751917	2.1798892
30.968531299676698	4.6220207	2.1498885
30.98671856037873	4.3286576	2.0805426
31.00490662127215	3.9381607	1.9844799
31.023095482920848	3.5142465	1.8746324
31.04128514588892	3.1355045	1.7707356
31.059475610740662	2.7737858	1.6654687
31.07766687804056	2.572016	1.6037506
31.09585894835335	2.4708176	1.5718834
31.11405182224393	2.448669	1.5648223
31.132245500277417	2.5589907	1.5996846
31.15043998301914	2.6212926	1.6190406
31.168635271034628	2.6065717	1.614488
31.18683136488964	2.4484122	1.5647403
31.20502826515008	2.345145	1.5313866
31.223225972382135	2.3560634	1.5349474
31.241424487152155	2.4382284	1.5614828
31.259623810026692	2.446999	1.5642887
31.27782394157253	2.4171925	1.5547323
31.296024882356644	2.3637962	1.5374643
31.314226632946237	2.398017	1.5485532
31.332429193908684	2.4674094	1.570799
31.350632565811598	2.5017695	1.5816983
31.368836749222787	2.5716403	1.6036334
31.387041744710295	2.5950162	1.6109054
31.40524755284232	2.5495074	1.5967177
31.423454174187317	2.5297866	1.5905303
31.441661609313922	2.5224576	1.5882246
31.459869858791002	2.4486911	1.5648295
31.478078923187628	2.431149	1.5592142
31.496288803073064	2.4638214	1.5696565
31.514499499016807	2.4233632	1.5567155
31.532711011588546	2.4218283	1.5562224
31.550923341358178	2.462215	1.5691446
31.56913648889584	2.4252453	1.5573199
31.587350454771844	2.2960129	1.51526
31.605565239556732	2.1977344	1.4824758
31.62378084382127	2.2897825	1.5132028
31.641997268136382	2.3966331	1.5481063
31.660214513073274	2.3607829	1.5364839
31.67843257920331	2.3226268	1.5240166
31.6966514670981	2.2974746	1.5157423
31.71487117732944	2.1983843	1.482695
31.733091710469346	2.2094846	1.4864335
31.751313067090052	2.2676198	1.5058619
31.769535247764008	2.2950165	1.5149312
31.787758253063878	2.3002603	1.5166609
31.805982083562526	2.3574367	1.5353947
31.824206739833024	2.3302681	1.5265216
31.84243222244869	2.3453448	1.5314518
31.860658531983013	2.2819548	1.510614
31.878885669009737	2.1890907	1.4795576
31.897113634102784	2.1869824	1.478845
31.91534242783632	2.2250216	1.4916506
31.933572050784694	2.2665668	1.5055121
31.951802503522508	2.255607	1.5018678
31.970033786624548	2.166216	1.471807
31.988265900665834	2.0842512	1.4436936
32.006498846221575	2.1809769	1.4768131
32.02473262386724	2.27731	1.5090759
32.04296723417845	2.334918	1.5280439
32.0612026777311	2.2872872	1.512378
32.07943895510129	2.2365265	1.4955021
32.097676066865304	2.145944	1.4649042
32.115914013599685	2.1310492	1.4598113
32.13415279588115	2.157459	1.4688292
32.152392414286666	2.1970396	1.4822414
32.1706328693934	2.135834	1.4614493
32.18887416177875	2.0925803	1.4465754
32.20711629202032	2.05461	1.4333911
32.225359260695924	1.999674	1.4140983
32.243603068383614	1.9859104	1.4092233
32.26184771566166	2.0392203	1.4280127
32.28009320310852	2.04369	1.4295769
32.2983395313029	2.0373485	1.4273572
32.31658670082372	2.0882058	1.4450625
32.33483471225012	2.1964898	1.4820559
32.35308356616143	2.244245	1.4980805
32.371333263137245	2.169798	1.4730234
32.38958380375734	2.1901596	1.4799187
32.407835188601744	2.1890361	1.4795392
32.42608741825067	2.1602492	1.4697787
32.444340493284585	2.1404698	1.4630344
32.46259441428416	2.1583579	1.469135
32.48084918183028	2.111137	1.4529752
32.49910479650405	2.0444467	1.4298415
32.51736125888683	1.9917953	1.4113098
32.53561856956014	2.0546958	1.433421
32.5538767291058	2.1180363	1.4553474
32.572135738105764	2.075086	1.4405159
32.59039559714228	2.1051242	1.4509046
32.608656306797776	2.0505378	1.4319699
32.62691786765491	1.9574146	1.3990763
32.645180280296586	1.9606307	1.4002252
32.663443545305896	2.033207	1.4259057
32.68170766326619	2.0442865	1.4297855
32.69997263476099	2.0438516	1.4296334
32.7182384603741	2.0461001	1.4304196
32.7365051406895	2.0007558	1.4144808
32.75477267629144	1.9795096	1.4069505
32.77304106776434	1.9912828	1.4111282
32.79131031569289	2.0836337	1.4434797
32.809580420661966	2.1225429	1.456895
32.827851383256714	2.0176404	1.4204366
32.84612320406245	1.9283541	1.388652
32.86439588366476	2.0161116	1.4198985
32.88266942264945	2.0056567	1.4162121
32.9009438216025	1.967394	1.4026382
32.9192190811102	1.9064615	1.3807467
32.937495201758985	1.9207329	1.385905
32.95577218413556	1.9773334	1.4061769
32.974050028826866	1.9663861	1.4022789
32.992328736420035	1.965726	1.4020435
33.010608307502444	2.029676	1.424667
33.02888874266169	2.0668948	1.4376699
33.047170042485604	2.010604	1.4179577
33.06545220756225	1.9555691	1.3984166
33.083735238479896	1.9949273	1.412419
33.10201913582707	2.029023	1.4244378
33.12030390019248	2.073974	1.4401299
33.138589532165135	1.9912832	1.4111283
33.15687603233419	1.9568722	1.3988825
33.17516340128909	1.9236767	1.3869667
33.19345163961947	2.002703	1.4151689
33.211740747915215	1.9798174	1.4070598
33.23003072676643	1.9860175	1.4092613
33.248321576763466	1.972734	1.4045405
33.266613298496885	1.8683529	1.3668771
33.28490589255747	1.7928352	1.3389679
33.30319935953626	1.862431	1.3647091
33.32149370002451	1.9625092	1.4008958
33.339788914613706	2.0108678	1.4180508
33.358085003895575	1.9118165	1.3826845
33.376381968462034	1.8731055	1.3686144
33.39467980890529	1.8873824	1.3738203
33.41297852581774	1.8941844	1.3762937
33.43127811979204	1.9463866	1.3951296
33.44957859142105	1.9947529	1.4123572
33.467879941297866	1.9896779	1.4105594
33.486182170015844	1.9676856	1.4027421
33.50448527816853	1.959666	1.3998808
33.522789266349754	1.9409614	1.393184
33.541094135153514	2.000461	1.4143766
33.55939988517411	2.0064428	1.4164896
33.57770651700602	1.9275279	1.3883544
33.59601403124398	1.9514043	1.3969268
33.61432242848296	1.8649715	1.3656396
33.632631709318154	1.8587233	1.36335
33.650941874344994	1.8945609	1.3764305
33.66925292415916	1.9098803	1.3819842
33.68756485935654	1.9042248	1.3799365
33.70587768053328	1.928603	1.3887415
33.724191388285746	1.9086682	1.3815455
33.74250598321054	1.9173728	1.3846923
33.760821465904506	1.9083042	1.3814138
33.77913783696474	1.9052935	1.3803236
33.79745509698852	1.9273915	1.3883053
33.815773246573414	1.9913574	1.4111546
33.8340922863172	2.0064244	1.4164832
33.852412216817896	1.9694679	1.4033773
33.87073303867377	1.9274575	1.388329
33.889054752483304	1.9223627	1.386493
33.907377358845245	1.9410454	1.3932141
33.92570085835853	1.908973	1.3816559
33.94402525162239	1.9314377	1.3897618
33.96235053923627	2.0338967	1.4261475
33.980676721799824	2.0835986	1.4434676
33.999003799912984	2.0390246	1.4279442
34.01733177417592	1.9902197	1.4107515
34.03566064518901	1.9468285	1.395288
34.0539904135529	1.8477076	1.3593041
34.07232107986846	1.8152612	1.3473163
34.090652644736785	1.8985887	1.3778929
34.108985108759235	2.0038598	1.4155775
34.12731847253742	1.9069057	1.3809075
34.14565273667313	1.8374927	1.3555415
34.16398790176847	1.9043155	1.3799694
34.18232396842574	1.9902885	1.4107759
34.20066093724749	1.9330587	1.3903449
34.21899880883651	1.9182518	1.3850096
34.23733758379583	1.9676515	1.40273
34.25567726272874	2.0811982	1.4426359
34.27401784623872	2.151806	1.4669036
34.29235933492957	2.0927517	1.4466347
34.31070172940526	1.9980992	1.4135413
34.32904503027003	1.9532478	1.3975865
34.347389238128386	1.9315965	1.3898189
34.36573435358502	2.0145319	1.419342
34.38408037724492	2.0833094	1.4433674
34.402427309713296	2.0693672	1.4385295
34.42077515159559	2.146309	1.4650286
34.43912390349752	2.2625854	1.5041893
34.45747356602499	2.1348398	1.461109
34.47582413978423	2.058186	1.4346379
34.49417562538163	2.0423303	1.4291012
34.51252802342388	2.0493896	1.431569
34.53088133451789	1.978975	1.4067605
34.54923555927084	1.8937305	1.3761288
34.567590698290104	1.8565208	1.362542
34.58594675218336	1.9691843	1.4032763
34.6043037215585	2.00784	1.4169827
34.62266160702365	2.0371485	1.4272871
34.641020409187234	2.0530653	1.4328521
34.65938012865785	1.9865893	1.4094642
34.677740766044394	1.9147514	1.3837454
34.69610232195598	1.8163781	1.3477308
34.714464797002016	1.7061156	1.3061836
34.73282819179208	1.7627167	1.3276734
34.751192506936064	1.8365339	1.3551878
34.76955774304408	1.8847767	1.3728718
34.7879239007265	2.0118585	1.4183999
34.80629098059391	2.0653026	1.437116
34.824658983257194	2.0896387	1.4455583
34.843027909327446	1.9208782	1.3859575
34.86139775941603	1.7276806	1.3144126
34.879768534134534	1.8375461	1.3555611
34.89814023409483	1.9901258	1.4107182
34.91651285990901	2.016127	1.4199039
34.93488641218944	1.8911387	1.3751868
34.95326089154871	1.7885048	1.3373499
34.97163629859967	1.8786911	1.3706535
34.99001263395542	1.9710743	1.4039495
35.00838989822934	1.935569	1.3912473
35.02676809203499	1.8777814	1.3703216
35.04514721598624	1.8123193	1.3462241
35.063527270697215	1.7926178	1.3388867
35.081908256782256	1.6972758	1.3027954
35.10029017485597	1.7527968	1.3239323
35.11867302553321	1.9868717	1.4095644
35.137056809429104	2.0170903	1.420243
35.155441527159006	1.847223	1.3591259
35.173827179338524	1.9253931	1.3875854
35.19221376658354	2.026021	1.4233836
35.21060128951017	2.183621	1.477708
35.2289897487348	2.431962	1.559475
35.24737914487405	2.4540281	1.5665338
35.26576947854479	2.0611615	1.4356745
35.28416075036418	1.7952132	1.3398557
35.30255296094958	2.0199676	1.4212556
35.32094611091867	2.1160586	1.4546678
35.33934020088932	2.117313	1.455099
35.35773523147969	2.2042224	1.4846624
35.3761312033082	2.463434	1.569533
35.394528116993506	2.4639077	1.5696839
35.41292597315452	2.436119	1.5608072
35.431324772410434	2.2032676	1.4843408
35.449724515380666	2.0526521	1.432708
35.46812520268491	2.3387492	1.529297
35.486526834943106	2.282562	1.510815
35.504929412775454	2.1943066	1.4813192
35.52333293680242	1.9093635	1.3817972
35.54173740764471	1.5832679	1.2582798
35.560142825923286	1.7797875	1.3340868
35.5785491922594	2.0101755	1.4178066
35.59695650727454	2.2588785	1.5029566
35.61536477159042	2.153149	1.4673612
