0.008763373481513119	0.0	0.0
0.026290120649546365	0.11242709	0.3353015
0.043816868432600686	0.25303888	0.5030297
0.06134361724069026	0.20014518	0.4473759
0.07887036748382949	0.21747918	0.46634662
0.0963971195720331	0.17324124	0.4162226
0.11392387391531617	0.19695377	0.44379476
0.1314506309236943	0.19156809	0.43768492
0.1489773910071836	0.20835388	0.45645797
0.16650415457580078	0.17209283	0.41484073
0.18403092203956356	0.16295291	0.40367427
0.20155769380849	0.10613657	0.32578608
0.2190844702925996	0.116946995	0.34197515
0.2366112519019124	0.097275555	0.3118903
0.2541380390464497	0.06620103	0.2572956
0.27166483213623416	0.05156418	0.22707747
0.28919163158128947	0.060563613	0.24609676
0.3067184377916406	0.07859765	0.2803527
0.324245251177314	0.110650465	0.33264166
0.34177207214833777	0.1765874	0.42022303
0.3592989011147415	0.19028492	0.4362166
0.37682573848655654	0.21516562	0.46385947
0.39435258467381573	0.18359976	0.42848542
0.41187944008655414	0.1699183	0.41221148
0.42940630513480854	0.17547219	0.418894
0.446933180228618	0.1363228	0.36921918
0.4644600657780234	0.17336078	0.41636616
0.48198696219306775	0.17168173	0.41434494
0.49951386988379676	0.20019364	0.44743004
0.5170407892602581	0.16967523	0.41191652
0.5345677207325025	0.11444848	0.33830234
0.5520946647105822	0.12485503	0.3533483
0.5696216216045534	0.110221855	0.33199677
0.5871485918244737	0.15447555	0.39303377
0.6046755757804043	0.18424608	0.42923895
0.6222025738824094	0.22527535	0.47463182
0.6397295865405557	0.21111374	0.45947114
0.6572566141649129	0.1549799	0.39367485
0.6747836571655547	0.12710838	0.35652262
0.6923107159525568	0.15080568	0.38833708
0.7098377909359992	0.20130831	0.44867393
0.7273648825259653	0.23524505	0.48502067
0.7448919911325411	0.24562642	0.4956071
0.762419117165817	0.23211534	0.4817835
0.7799462610358868	0.23023883	0.47983208
0.7974734231528482	0.21815068	0.46706602
0.8150006039268024	0.24729492	0.49728757
0.8325278037678551	0.21869813	0.46765172
0.8500550230861152	0.27674288	0.52606356
0.8675822622916969	0.2563287	0.5062891
0.8851095217947171	0.22889437	0.47842905
0.9026368020052984	0.20375891	0.4513966
0.9201641033335665	0.19317622	0.43951818
0.9376914261896523	0.24071334	0.49062547
0.9552187709836915	0.2642731	0.514075
0.9727461381258234	0.29763454	0.5455589
0.990273528026193	0.28795052	0.5366102
1.0078009410949496	0.28905585	0.53763914
1.0253283777422473	0.28351864	0.5324647
1.0428558383782454	0.31760886	0.563568
1.0603833234131086	0.3039688	0.55133367
1.0779108332570058	0.35481092	0.5956601
1.0954383683201119	0.36400515	0.6033284
1.112965929012607	0.3917832	0.6259259
1.1304935157446763	0.48880476	0.69914573
1.1480211289265108	0.52931786	0.72754234
1.1655487689683062	1.376616	1.1732928
1.1830764362802655	1.7262329	1.3138618
1.200604131272596	2.2174852	1.4891223
1.2181318543555117	2.6703718	1.6341273
1.235659605939232	2.644699	1.6262531
1.253187386433982	4.111738	2.0277421
1.270715196249994	6.47029	2.5436766
1.2882430357975057	12.089869	3.4770489
1.3057709054867608	16.947395	4.1167216
1.3232988057280106	22.936275	4.789183
1.3408267369315112	27.69107	5.2622304
1.358354699507526	31.236	5.5889177
1.3758826938663256	35.211475	5.9339256
1.3934107204181858	37.231445	6.1017575
1.410938779573391	37.645016	6.1355534
1.4284668717422309	38.105003	6.172925
1.4459949973350033	37.43143	6.118123
1.4635231567620117	37.518654	6.1252475
1.4810513504335687	36.87284	6.072301
1.4985795787599925	36.285316	6.0237293
1.5161078421516088	36.064045	6.005335
1.5336361410187505	35.174183	5.930783
1.5511644757717598	35.3333	5.9441824
1.5686928468209842	36.08803	6.0073314
1.58622125457678	36.45664	6.0379333
1.6037496994495108	37.38833	6.1145997
1.621278181849548	37.090813	6.090223
1.6388067021872719	38.09064	6.1717615
1.6563352608730693	37.666332	6.1372905
1.673863858317336	36.85244	6.070621
1.6913924949304753	35.970665	5.997555
1.7089211711228998	34.80601	5.899662
1.7264498873050296	34.055885	5.835742
1.7439786438872935	33.279846	5.768869
1.7615074412801288	32.337154	5.686577
1.779036279893981	31.63219	5.6242504
1.796565160139305	30.821682	5.551728
1.814094082426564	30.192036	5.494728
1.8316230471662298	29.424898	5.4244723
1.849152054768784	28.45323	5.334157
1.8666811056447168	27.661158	5.2593875
1.8842102002045273	26.950035	5.1913424
1.901739338858724	26.365616	5.134746
1.9192685220178245	25.787212	5.078111
1.9367977500923557	25.071224	5.0071173
1.9543270234928547	24.466936	4.9464064
1.971856342629867	23.701845	4.868454
1.9893857079139496	23.107763	4.8070536
2.006915119755667	22.7696	4.77175
2.0244445785655945	22.567997	4.7505784
2.0419740847543175	22.0945	4.7004786
2.0595036387324317	21.563692	4.6436725
2.0770332409105414	21.064741	4.589634
2.094562891699263	20.894535	4.571054
2.1120925915092217	20.27495	4.5027714
2.129622340751053	20.094631	4.4827037
2.1471521398354043	188.02046	13.712055
2.1646819891729323	444.46967	21.082449
2.182211889174303	440.64902	20.991642
2.1997418402501974	452.98627	21.283474
2.2172718428113023	432.8946	20.80612
2.234801897268317	320.98502	17.916054
2.2523320040319548	17.699448	4.2070713
2.269862163512935	17.510029	4.184499
2.287392376121992	17.11151	4.136606
2.304922642269869	16.578608	4.0716834
2.322452962367322	16.142982	4.017833
2.3399833368251164	15.759622	3.969839
2.357513766054032	15.548154	3.9431148
2.3750442504648586	15.399491	3.9242187
2.3925747904683963	15.283998	3.9094753
2.410105386475459	15.048044	3.879181
2.4276360388968707	14.568257	3.8168387
2.445166748143469	14.264817	3.7768793
2.4626975146261025	13.920354	3.730999
2.4802283387556323	13.687657	3.6996834
2.4977592209429305	13.57195	3.6840127
2.5152901615988825	13.3002	3.646944
2.5328211611343865	13.156532	3.6271935
2.5503522199603523	12.656962	3.5576625
2.5678833384877024	12.361379	3.5158753
2.5854145171273712	12.143409	3.4847393
2.6029457562903064	11.912236	3.4514108
2.620477056387469	11.955586	3.4576852
2.6380084178298326	11.871846	3.4455545
2.655539841028383	11.644967	3.4124722
2.673071326394119	11.469757	3.386703
2.6906028743380523	11.127036	3.3357213
2.708134485271211	10.976332	3.3130548
2.7256661596046325	10.916392	3.3039963
2.743197897749369	10.645886	3.2628036
2.760729700116486	10.661048	3.265126
2.778261567117063	10.547879	3.2477498
2.795793499162193	10.461143	3.234369
2.8133254966629817	10.279655	3.20619
2.830857560030551	9.947601	3.153982
2.8483896896760337	9.745017	3.121701
2.865921886010578	9.635748	3.10415
2.883454149445347	9.5600815	3.0919383
2.9009864803915177	9.429748	3.0707893
2.91851887926028	9.222362	3.0368342
2.9360513464628384	9.10494	3.0174394
2.953583882410413	9.081561	3.013563
2.9711164875142373	9.066415	3.0110488
2.9886491621855606	8.893243	2.9821541
3.0061819068356455	8.727832	2.9542904
3.023714721875769	8.560628	2.9258552
3.041247607717225	8.473055	2.9108512
3.0587805647713213	8.168208	2.8580077
3.0763135934493806	8.136595	2.8524716
3.0938466941627407	8.041603	2.835772
3.1113798673227544	8.04178	2.8358033
3.1289131133407904	7.935104	2.8169317
3.1464464326282315	7.8713584	2.8055942
3.1639798255964786	7.8438363	2.800685
3.1815132926569443	7.728519	2.7800214
3.1990468342210603	7.578127	2.7528398
3.216580450700272	7.6261888	2.7615554
3.2341141425060416	7.5801334	2.753204
3.251647910049847	7.454829	2.7303534
3.2691817537431813	7.241923	2.691082
3.286715673997555	7.1006293	2.6647005
3.3042496712244938	7.0312724	2.6516547
3.32178374583554	6.9640107	2.6389413
3.339317898242251	6.883847	2.6237087
3.3568521288562034	6.774228	2.6027348
3.3743864380889876	6.821842	2.6118658
3.3919208263522127	6.855433	2.6182883
3.4094552940575023	6.8100796	2.609613
3.4269898416164972	6.6791224	2.5844
3.444524469440858	6.518721	2.5531785
3.4620591779422587	6.388838	2.527615
3.479593967532391	6.2636385	2.5027263
3.4971288386229658	6.19723	2.4894235
3.5146637916257086	6.1968927	2.4893558
3.5321988269523628	6.325702	2.5150948
3.5497339450146903	6.400847	2.5299895
3.5672691462244708	6.2937617	2.508737
3.5848044309934988	6.1751313	2.484981
3.60233979973359	6.1542773	2.4807816
3.619875252856575	6.1516204	2.480246
3.6374107907743034	6.22751	2.495498
3.6549464138986427	6.2261744	2.4952304
3.6724821226414788	6.355978	2.5211065
3.690017917414714	6.508368	2.5511503
3.7075537986302702	6.53928	2.5572016
3.7250897667000857	6.510516	2.5515714
3.7426258220361235	6.5684247	2.5628939
3.7601619650503553	6.828741	2.613186
3.777698196154779	7.4400396	2.7276435
3.7952345157614067	8.607142	2.933793
3.8127709242822716	9.401368	3.066165
3.830307422129425	11.7759495	3.4316103
3.847844009714936	30.63532	5.5349183
3.8653806874508954	98.120056	9.905557
3.882917455749409	97.26965	9.862538
3.900454315022606	96.82335	9.839886
3.917991265682631	41.2576	6.4232078
3.9355283081416506	10.839177	3.2922904
3.9530654428118495	8.751467	2.9582877
3.970602670105433	7.5314255	2.7443442
3.9881399904346244	6.655307	2.5797882
4.005677404211669	6.5554247	2.5603564
4.023214911848827	6.5305486	2.5554938
4.0407525137583855	6.5839143	2.565914
4.058290210352644	6.5055876	2.5506053
4.075828002043927	6.419378	2.5336492
4.0933658892445814	6.2918887	2.5083637
4.110903872366966	6.2519293	2.5003858
4.128441951823468	6.1935787	2.4886901
4.145980128026488	6.1821103	2.486385
4.163518401388452	6.2253757	2.4950702
4.181056772321807	6.2318273	2.496363
4.1985952412390155	6.180701	2.4861016
4.216133808552567	6.19051	2.4880736
4.233672474674966	6.3130927	2.5125868
4.251211240018741	6.635513	2.575949
4.268750104996445	6.8779306	2.622581
4.286289070020643	7.7369156	2.781531
4.303828135503928	9.3254175	3.0537546
4.3213673018589125	29.559196	5.436837
4.3389065694982305	90.76494	9.527063
4.356445938834537	165.97188	12.883007
4.3739854102805085	171.46577	13.094494
4.391524984248844	172.3413	13.127882
4.409064661152262	136.20413	11.670652
4.426604441403504	96.412384	9.818981
4.444144325415337	75.35195	8.680551
4.461684313600543	21.610497	4.6487093
4.47922440637193	22.24821	4.7168007
4.496764604142329	20.732439	4.553289
4.5143049073245916	18.945627	4.3526573
4.531845316331589	16.703455	4.086986
4.5493858315762195	13.723829	3.7045686
4.566926453471405	11.5156145	3.3934665
4.584467182430081	9.460403	3.0757768
4.602008018865218	8.40726	2.8995275
4.619548963189798	7.6604342	2.7677488
4.637090015816834	7.141421	2.6723437
4.654631177159353	6.867391	2.6205707
4.672172447630417	6.5593634	2.5611255
4.689713827643102	6.38231	2.5263233
4.7072553176105085	6.112385	2.4723237
4.724796917945764	5.90866	2.4307735
4.742338629062015	5.7668543	2.4014275
4.759880451372434	5.650009	2.3769748
4.777422385290215	5.647897	2.3765304
4.794964431228581	5.6069293	2.3678956
4.812506589600768	5.623365	2.3713634
4.830048860820047	5.5897675	2.364269
4.847591245299709	5.7057414	2.3886695
4.8651337434530655	5.6702714	2.3812332
4.882676355693457	5.6585717	2.3787754
4.900219082434242	5.7373033	2.3952668
4.917761924088813	5.709445	2.3894446
4.935304881070575	5.63495	2.373805
4.952847953792969	5.4442897	2.3333
4.970391142669449	5.4190946	2.327895
4.9879344481135055	5.442249	2.3328629
5.005477870538642	5.4906173	2.3432066
5.023021410358394	5.4652376	2.3377848
5.040565067986324	5.4993567	2.3450708
5.05810884383601	5.49351	2.3438237
5.075652738321066	5.4372115	2.3317828
5.09319675185512	5.4462357	2.333717
5.110740884851836	5.3426304	2.311413
5.128285137724894	5.3507576	2.3131704
5.145829510888007	5.36811	2.3169181
5.163374004754908	5.398775	2.3235264
5.1809186197393595	5.4234343	2.328827
5.198463356255145	5.3717175	2.3176966
5.216008214716077	5.3414183	2.3111508
5.233553195535998	5.344831	2.311889
5.251098299128764	5.3996625	2.3237174
5.268643525908272	5.341236	2.3111115
5.286188876288432	5.276378	2.297037
5.3037343506831895	5.268581	2.2953389
5.32127994950651	5.1929364	2.2788014
5.3388256731723915	5.1991177	2.2801573
5.356371522094851	5.200891	2.2805462
5.373917496687938	5.2276893	2.2864141
5.391463597365729	5.265227	2.294608
5.40900982454232	5.234512	2.2879055
5.426556178631843	5.2631564	2.294157
5.444102660048449	5.198182	2.2799523
5.4616492692063225	5.248314	2.2909198
5.479196006519669	5.237861	2.2886374
5.496742872402727	5.210437	2.282638
5.514289867269756	5.206856	2.2818537
5.531836991535049	5.1779413	2.275509
5.549384245612924	5.199678	2.2802804
5.566931629917724	5.2072363	2.281937
5.584479144863822	5.1477227	2.2688594
5.6020267908656205	5.0711	2.2519104
5.619574568337545	5.0678797	2.2511952
5.637122477694054	5.089438	2.2559783
5.654670519349629	5.122115	2.263209
5.672218693718784	5.1827245	2.2765598
5.689767001216059	5.198564	2.280036
5.707315442256021	5.2644663	2.2944424
5.724864017253266	5.3106155	2.3044772
5.7424127266224225	5.2807035	2.2979782
5.75996157077814	5.212186	2.2830212
5.777510550135105	5.2015233	2.280685
5.795059665108022	5.2650113	2.2945611
5.812608916111639	5.3473234	2.312428
5.830158303560715	5.4104643	2.3260405
5.847707827870055	5.4743834	2.33974
5.86525748945448	5.5864735	2.3635721
5.8828072887288485	5.654217	2.3778596
5.900357226108044	5.650449	2.3770673
5.917907302006979	5.676732	2.3825893
5.9354575168406	6.298931	2.509767
5.9530078710238765	6.951966	2.6366582
5.970558364971812	7.555812	2.7487838
5.988108999099438	7.853278	2.80237
6.005659773821818	8.389309	2.8964305
6.023210689554039	8.074098	2.8414958
6.040761746711227	8.429713	2.9033968
6.058312945708531	7.81648	2.7957969
6.075864286961132	7.3344812	2.7082248
6.093415770884244	6.631471	2.5751643
6.1109673978931065	6.1507983	2.4800804
6.128519168402993	5.5932016	2.364995
6.146071082829204	5.467367	2.3382401
6.163623141587075	5.317833	2.3060427
6.181175345091969	5.290497	2.300108
6.198727693759281	5.2634926	2.2942302
6.216280188004435	5.2297716	2.2868693
6.233832828242885	5.242469	2.2896438
6.251385614890126	5.2844496	2.298793
6.268938548361669	5.290082	2.3000178
6.286491629073067	5.180958	2.2761717
6.304044857439898	5.132407	2.2654817
6.321598233877777	5.1191726	2.262559
6.339151758802344	5.141334	2.267451
6.356705432629277	5.111108	2.260776
6.37425925577428	5.0656986	2.2507107
6.391813228653095	5.1075077	2.2599795
6.409367351681486	5.0904202	2.256196
6.426921625275259	5.0358377	2.2440672
6.44447604985025	4.953592	2.2256665
6.46203062582232	4.9808874	2.23179
6.47958535360737	4.9892735	2.233668
6.497140233621328	4.984058	2.2325003
6.514695266280161	4.961997	2.227554
6.532250451999859	4.969134	2.2291553
6.549805791196454	4.9996357	2.2359865
6.567361284286002	5.0107613	2.238473
6.584916931684597	4.975341	2.2305472
6.602472733808367	4.922659	2.2187066
6.6200286910734665	4.9324946	2.220922
6.637584803896092	4.987286	2.2332232
6.655141072692462	5.0087714	2.2380285
6.672697497878842	5.021755	2.2409272
6.690254079871514	4.9854593	2.2328143
6.707810819086808	5.0268407	2.2420616
6.725367715941078	5.0968494	2.2576203
6.742924770850719	5.114817	2.2615962
6.760481984232151	5.088755	2.255827
6.778039356501836	5.0079465	2.2378442
6.795596888076266	5.0002975	2.2361345
6.813154579371963	4.9871416	2.233191
6.830712430805492	5.049253	2.2470543
6.84827044279344	5.083216	2.2545989
6.865828615752445	5.1227603	2.2633517
6.883386950099159	5.1793704	2.275823
6.900945446250287	5.2299337	2.2869048
6.918504104622553	5.181181	2.2762208
6.936062925632727	5.12066	2.2628875
6.953621909697607	5.0394793	2.2448785
6.971181057234028	5.1388707	2.2669077
6.988740368658859	5.169025	2.273549
7.006299844389007	5.278293	2.2974536
7.023859484841407	5.3046327	2.3031788
7.041419290433036	5.426746	2.3295376
7.058979261580902	5.5539207	2.3566759
7.0765393987020495	5.773495	2.4028099
7.094099702213559	6.108053	2.4714477
7.111660172532549	6.452723	2.540221
7.129220810076164	6.810777	2.6097465
7.146781615261595	7.4899282	2.7367733
7.16434258850606	7.762762	2.7861733
7.181903730226821	8.202391	2.8639817
7.1994650408411704	8.334417	2.886939
7.217026520766437	8.482748	2.9125156
7.234588170419983	8.768072	2.961093
7.252149990219215	8.6785345	2.9459352
7.269711980581568	8.518354	2.918622
7.2872741419245175	8.256141	2.8733501
7.304836474665574	7.792454	2.7914968
7.322398979222286	7.4715858	2.7334201
7.339961656012233	7.213543	2.685804
7.357524505453039	6.896008	2.6260252
7.375087527962357	6.638913	2.576609
7.392650723957886	6.324357	2.5148275
7.410214093857353	6.062255	2.4621646
7.427777638078528	5.8421736	2.417059
7.445341357039213	5.6530676	2.377618
7.4629052511572525	5.5069356	2.3466861
7.480469320850524	5.353812	2.3138306
7.498033566536948	5.3415217	2.3111732
7.5155979886344735	5.229627	2.2868378
7.5331625875610975	5.209393	2.2824094
7.550727363734844	5.181488	2.2762883
7.568292317573788	5.189213	2.2779844
7.585857449496025	5.2191696	2.2845502
7.603422759919705	5.20043	2.280445
7.620988249263007	5.1655946	2.2727945
7.638553917944147	5.187754	2.2776642
7.656119766381391	5.2274566	2.2863631
7.673685794993023	5.3051467	2.3032904
7.691252004197388	5.31664	2.305784
7.70881839441285	5.3216667	2.3068738
7.726384966057826	5.323842	2.3073452
7.743951719550762	5.2933917	2.3007371
7.761518655310149	5.2577477	2.2929778
7.779085773754511	5.206035	2.2816737
7.796653075302419	5.1273737	2.2643704
7.814220560372475	5.1491685	2.269178
7.831788229383323	5.188787	2.277891
7.8493560827536495	5.218555	2.2844157
7.866924120902174	5.2498507	2.2912552
7.884492344247663	5.265814	2.2947361
7.9020607532089135	5.36667	2.3166075
7.919629348204771	5.3670635	2.3166924
7.937198129654115	5.400523	2.3239026
7.954767097975865	5.423968	2.3289413
7.972336253588986	5.4868884	2.3424108
7.989905596912472	5.553385	2.3565621
8.007475128365371	5.5242963	2.350382
8.025044848366756	5.515664	2.348545
8.042614757335754	5.5852633	2.363316
8.060184855691523	5.681846	2.3836622
8.07775514385327	5.8528123	2.4192586
8.095325622240228	5.8973837	2.428453
8.112896291271687	5.9043107	2.4298787
8.130467151366968	5.9089932	2.4308422
8.148038202945436	5.896025	2.4281733
8.165609446426497	5.918296	2.4327548
8.183180882229594	5.955252	2.4403386
8.200752510774217	5.9695435	2.443265
8.218324332479893	5.9671917	2.4427836
8.235896347766193	5.929812	2.4351206
8.253468557052724	5.9409013	2.4373965
8.27104096075914	5.906233	2.4302742
8.288613559305137	5.957154	2.4407282
8.306186353110448	6.0721097	2.4641652
8.32375934259485	6.22186	2.4943657
8.341332528178162	6.3327236	2.5164902
8.358905910280246	6.3576922	2.5214465
8.376479489321003	6.3089743	2.5117671
8.394053265720377	6.304071	2.5107908
8.411627239898356	6.334245	2.5167925
8.42920141227497	6.341592	2.5182517
8.44677578327029	6.3391876	2.5177743
8.464350353304427	6.261145	2.502228
8.48192512279754	6.1899867	2.4879684
8.499500092169827	6.176077	2.4851713
8.51707526184153	6.183039	2.4865718
8.534650632232934	6.2425046	2.4985006
8.552226203764365	6.2303967	2.4960763
8.569801976856192	6.2428513	2.4985697
8.587377951928834	6.2832003	2.5066314
8.60495412940274	6.252783	2.5005565
8.622530509698416	6.260647	2.5021284
8.6401070932364	6.3455	2.5190275
8.657683880437283	6.531558	2.5556912
8.675260871721695	6.7556105	2.5991557
8.692838067510303	6.9152684	2.6296897
8.710415468223834	7.059829	2.657034
8.727993074283043	7.247851	2.6921833
8.745570886108737	7.265387	2.6954381
8.763148904121765	7.296259	2.7011588
8.78072712874302	7.2798986	2.6981287
8.798305560393441	7.429854	2.7257757
8.815884199494006	7.592096	2.7553759
8.833463046465745	7.8076477	2.7942169
8.851042101729728	8.030383	2.8337932
8.86862136570707	8.298638	2.8807356
8.886200838818924	8.414849	2.900836
8.903780521486505	8.374161	2.8938143
8.921360414131055	8.511555	2.9174569
8.938940517173874	8.653143	2.9416225
8.956520831036297	8.875953	2.9792538
8.97410135613971	9.088318	3.0146837
8.99168209290554	9.271271	3.044876
9.009263041755265	9.5374	3.0882683
9.026844203110405	9.797608	3.1301131
9.044425577392525	9.951769	3.1546423
9.062007165023239	10.026121	3.166405
9.079588966424197	10.337814	3.2152472
9.097170982017108	10.530305	3.245043
9.11475321222372	11.536556	3.3965507
9.132335657465825	12.4105625	3.522863
9.149918318165264	12.482494	3.5330575
9.167501194743924	13.050319	3.6125226
9.18508428762374	12.733375	3.5683854
9.202667597226693	12.646384	3.5561755
9.220251123974803	12.348076	3.513983
9.237834868290143	12.0375595	3.4695187
9.255418830594836	11.95464	3.4575484
9.273003011311046	11.44697	3.383337
9.290587410860985	11.166315	3.3416038
9.308172029666911	10.455307	3.2334666
9.32575686815113	10.100317	3.1780996
9.343341926735997	8.851215	2.9750993
9.360927205843916	8.63226	2.9380708
9.378512705897327	8.478146	2.9117255
9.396098427318728	8.294775	2.8800652
9.413684370530664	8.203417	2.8641608
9.431270535955722	8.071035	2.8409567
9.448856924016539	7.9873586	2.8261914
9.466443535135806	7.8341885	2.798962
9.484030369736251	7.862506	2.804016
9.501617428240658	7.8801913	2.8071678
9.519204711071852	7.8493786	2.8016744
9.536792218652714	7.856953	2.8030257
9.55437995140617	7.8878417	2.80853
9.571967909755191	7.9674435	2.822666
9.589556094122802	8.01074	2.8303251
9.60714450493207	8.009395	2.8300874
9.624733142606116	8.100716	2.8461757
9.642322007568108	8.129283	2.8511899
9.659911100241267	8.145686	2.854065
9.677500421048851	8.077128	2.8420289
9.695089970414175	8.051073	2.8374412
9.712679748760609	8.069751	2.8407307
9.730269756511557	8.152409	2.8552423
9.747859994090492	8.214222	2.8660464
9.765450461920915	8.268794	2.875551
9.78304116042639	8.276026	2.8768082
9.800632090030527	8.332284	2.8865695
9.81822325115699	8.303361	2.8815553
9.835814644229481	8.362238	2.8917534
9.853406269671762	8.35271	2.8901055
9.870998127907646	8.417806	2.9013455
9.888590219360985	8.431504	2.9037054
9.906182544455698	8.437097	2.904668
9.923775103615734	8.344021	2.8886018
9.941367897265108	8.276977	2.8769736
9.958960925827878	8.260898	2.8741777
9.97655418972816	8.313606	2.8833325
9.994147689390106	8.356877	2.8908265
10.011741425237934	8.412061	2.9003553
10.029335397695904	8.48691	2.9132302
10.04692960718833	8.486846	2.9132192
10.06452405413958	8.446603	2.906304
10.082118738974064	8.376889	2.8942857
10.099713662116246	8.314317	2.8834558
10.117308823990651	8.345505	2.8888588
10.134904225021844	8.354283	2.8903778
10.152499865634445	8.345681	2.8888893
10.170095746253125	8.332215	2.8865576
10.18769186730261	8.292133	2.8796065
10.205288229207675	8.225721	2.8680518
10.222884832393145	8.1536665	2.8554626
10.2404816772839	8.196896	2.863022
10.258078764304868	8.217103	2.866549
10.275676093881035	8.226283	2.8681498
10.293273666437438	8.197001	2.8630407
10.310871482399158	8.245726	2.8715372
10.32846954219134	8.283437	2.878096
10.346067846239173	8.392049	2.8969033
10.363666394967908	8.347143	2.8891423
10.38126518880283	8.34587	2.888922
10.398864228169298	8.371171	2.8932977
10.416463513492713	8.344983	2.8887684
10.434063045198531	8.317162	2.883949
10.451662823712262	8.277581	2.8770785
10.469262849459467	8.237324	2.8700738
10.486863122865758	8.140341	2.8531282
10.504463644356806	8.138707	2.8528419
10.522064414358338	8.062128	2.8393886
10.539665433296118	8.057217	2.8385236
10.557266701595987	8.033292	2.8343062
10.574868219683818	7.9774914	2.8244452
10.592469987985552	7.8598685	2.8035457
10.610072006927185	7.734471	2.7810917
10.627674276934751	7.5797396	2.7531326
10.64527679843435	7.425083	2.7249005
10.662879571852143	7.282249	2.6985643
10.680482597614331	7.184086	2.6803145
10.698085876147173	7.089842	2.6626756
10.715689407876988	7.112202	2.6668713
10.733293193230146	7.01067	2.647767
10.750897232633072	6.945553	2.6354418
10.76850152651225	6.7661676	2.6011858
10.786106075294207	6.653436	2.5794256
10.803710879405534	6.599416	2.5689328
10.821315939272877	6.5546246	2.5602002
10.83892125532294	6.499572	2.5494258
10.856526827982472	6.477161	2.5450268
10.874132657678285	6.4349294	2.5367162
10.891738744837243	6.3711014	2.524104
10.909345089886271	6.2362285	2.4972441
10.926951693252343	6.127504	2.4753795
10.944558555362494	6.107559	2.4713476
10.96216567664381	6.051943	2.4600697
10.979773057523436	5.9878793	2.4470143
10.997380698428573	5.9158573	2.4322536
11.014988599786477	5.868755	2.4225514
11.032596762024461	5.808672	2.4101186
11.050205185569892	5.7079387	2.3891292
11.067813870850198	5.6391034	2.3746796
11.085422818292859	5.5812445	2.3624659
11.10303202832541	5.5358095	2.3528302
11.120641501375454	5.4687767	2.3385415
11.138251237870636	5.361416	2.315473
11.155861238238671	5.301124	2.302417
11.173471502907317	5.2208185	2.2849112
11.191082032304402	5.182442	2.2764978
11.208692826857805	5.114821	2.261597
11.226303886995465	5.0467978	2.246508
11.243915213145371	4.9641924	2.2280467
11.261526805735578	4.9234343	2.2188814
11.279138665194196	4.8980565	2.2131553
11.296750791949393	4.9161515	2.2172396
11.314363186429393	4.9033265	2.2143457
11.331975849062479	4.858408	2.2041798
11.34958878027699	4.705345	2.1691809
11.36720198050133	4.6089644	2.1468499
11.384815450163948	4.5793834	2.1399493
11.402429189693366	4.5444856	2.13178
11.420043199518153	4.5126553	2.1243012
11.437657480066942	63.45459	7.965839
11.455272031768422	85.14618	9.2274685
11.472886855051353	107.54349	10.370317
11.490501950344528	99.17481	9.958655
11.508117318076819	84.50337	9.192572
11.52573295867715	45.90389	6.775241
11.543348872574514	4.164577	2.0407295
11.560965060197946	4.119682	2.0297
11.57858152197655	4.086999	2.0216327
11.59619825833949	4.0316577	2.0078988
11.613815269715985	4.0002837	2.0000708
11.631432556535323	38.558754	6.2095695
11.649050119226837	83.12785	9.117448
11.666667958219929	93.55534	9.672401
11.68428607394406	107.77649	10.381546
11.701904466828756	82.6148	9.089269
11.719523137303586	65.46443	8.091009
11.737142085798196	4.7042766	2.1689343
11.754761312742286	3.7631536	1.9398849
11.772380818565619	3.6563592	1.9121609
11.790000603698015	3.632291	1.9058571
11.80762066856935	3.6174312	1.9019545
11.825241013609572	3.5780346	1.8915694
11.842861639248683	3.5154614	1.8749564
11.860482545916748	3.4473572	1.856706
11.878103734043883	3.4226768	1.8500478
11.895725204060282	3.4088001	1.8462936
11.91334695639619	3.428292	1.8515648
11.930968991481919	3.4055045	1.8454009
11.948591309747824	3.3490252	1.8300343
11.966213911624347	3.275047	1.8097091
11.98383679754198	3.2444997	1.8012495
12.001459967931268	3.2364151	1.799004
12.019083423222835	3.2345605	1.7984884
12.036707163847352	3.2474186	1.8020595
12.05433119023556	3.2367039	1.7990842
12.071955502818259	3.26983	1.8082671
12.089580102026313	3.2276788	1.7965742
12.107204988290643	3.2290897	1.7969668
12.12483016204224	3.1913211	1.7864269
12.142455623712152	3.1882243	1.7855599
12.16008137373149	3.1525984	1.7755558
12.177707412531431	3.1015844	1.7611315
12.19533374054321	3.0642645	1.7505041
12.212960358198126	3.0675135	1.7514318
12.230587265927545	3.077361	1.7542409
12.248214464162889	3.0570066	1.7484298
12.265841953335649	3.0360174	1.7424171
12.283469733877375	3.0330272	1.7415588
12.301097806219685	3.0889468	1.75754
12.31872617079425	3.075536	1.7537206
12.336354828032825	3.037899	1.742957
12.353983778367205	2.957791	1.719823
12.371613022229262	2.9106967	1.7060764
12.389242560050928	2.9015055	1.7033806
12.406872392264201	2.9302402	1.7117944
12.424502519301143	2.9676518	1.7226874
12.442132941593874	2.9600306	1.7204739
12.459763659574586	2.9357672	1.7134081
12.477394673675532	2.9093268	1.7056749
12.49502598432903	2.8621202	1.6917802
12.51265759196746	2.8424072	1.685944
12.530289497023267	2.8259346	1.6810516
12.547921699928967	2.8275	1.6815172
12.565554201117134	2.855344	1.6897763
12.583187001020404	2.84795	1.687587
12.600820100071486	2.8451252	1.6867499
12.618453498703152	2.8272524	1.6814436
12.636087197348235	2.8088357	1.6759582
12.65372119643964	2.8237884	1.6804131
12.671355496410326	2.7905204	1.6704851
12.68899009769333	2.81673	1.6783117
12.706625000721749	2.8437805	1.6863513
12.724260205928752	2.9155395	1.7074951
12.741895713747551	2.9557781	1.7192377
12.759531524611454	2.9962928	1.7309803
12.777167638953818	2.999075	1.7317837
12.794804057208072	3.0147455	1.7363023
12.812440779807702	3.0976145	1.7600042
12.830077807186271	3.2895927	1.8137234
12.847715139777405	3.2866755	1.812919
12.865352778014795	3.4558105	1.858981
12.882990722332197	3.5410967	1.8817801
12.90062897316344	3.6382108	1.9074094
12.918267530942412	3.7341473	1.9323941
12.935906396103071	3.6256878	1.9041239
12.953545569079449	3.803441	1.9502413
12.971185050305628	3.6530745	1.9113017
12.988824840215775	3.6636965	1.9140785
13.006464939244115	3.6748695	1.9169949
13.024105347824943	3.4789484	1.865194
13.041746066392617	3.5509791	1.8844042
13.05938709538157	3.384568	1.8397195
13.077028435226296	3.4264994	1.8510805
13.094670086361363	3.350728	1.8304994
13.112312049221401	3.2392046	1.799779
13.129954324241112	3.10849	1.7630911
13.147596911855258	2.91421	1.7071058
13.165239812498685	2.8890014	1.6997063
13.182883026606293	2.8343987	1.6835673
13.200526554613058	2.7494388	1.6581432
13.218170396954017	2.7316911	1.6527828
13.235814554064284	2.7124128	1.6469405
13.253459026379034	2.7435265	1.6563594
13.271103814333523	2.7045307	1.6445458
13.288748918363058	2.6950972	1.6416751
13.306394338903031	2.6773882	1.6362727
13.32404007638889	2.7055101	1.6448435
13.341686131256164	2.7270777	1.6513866
13.359332503940449	2.7045856	1.6445624
13.376979194877402	2.6519067	1.6284676
13.394626204502751	2.6661465	1.6328338
13.412273533252307	2.7114234	1.6466401
13.429921181561937	2.7034016	1.6442024
13.447569149867581	2.7169762	1.6483252
13.465217438605247	2.7156513	1.6479234
13.482866048211022	2.7082605	1.6456794
13.500514979121052	2.690388	1.6402402
13.518164231771568	2.700101	1.6431984
13.535813806598844	2.689079	1.6398412
13.553463704039254	2.6977112	1.6424711
13.571113924529229	2.672815	1.6348746
13.588764468505275	2.7003174	1.6432643
13.606415336403956	2.7256384	1.6509508
13.624066528661917	2.759869	1.6612854
13.641718045715882	2.7828429	1.6681855
13.659369888002635	2.8463004	1.6870983
13.67702205595903	2.9423904	1.7153398
13.694674550021993	2.9989107	1.7317363
13.712327370628532	3.0747771	1.7535043
13.729980518215713	3.127794	1.7685571
13.747633993220681	3.2047403	1.7901789
13.765287796080647	3.2452192	1.8014492
13.7829419272329	3.3041267	1.8177257
13.800596387114801	3.3450322	1.8289429
13.818251176163775	3.352422	1.8309621
13.835906294817324	3.3808746	1.8387154
13.853561743513023	3.3887813	1.8408643
13.871217522688525	3.4145365	1.8478464
13.888873632781538	3.5048995	1.8721377
13.906530074229858	3.5744312	1.8906167
13.92418684747135	3.6062624	1.8990161
13.941843952943948	3.5826201	1.892781
13.959501391085665	3.5121007	1.8740599
13.977159162334578	3.4483964	1.8569858
13.994817267128846	3.4178476	1.8487421
14.012475705906693	3.3641634	1.8341656
14.030134479106424	3.2761133	1.8100036
14.047793587166414	3.19564	1.7876353
14.065453030525108	3.1316457	1.7696457
14.083112809621026	3.0584927	1.7488546
14.100772924892766	2.9587939	1.7201145
14.118433376778997	2.9263065	1.7106451
14.136094165718458	2.8748682	1.6955436
14.153755292149969	2.8334217	1.6832771
14.171416756512416	2.7429478	1.6561847
14.189078559244768	2.6373854	1.6240029
14.20674070078606	2.5690534	1.6028267
14.224403181575408	2.5111055	1.5846468
14.242066002051999	2.5261452	1.5893852
14.259729162655093	2.520607	1.587642
14.277392663824022	2.518414	1.5869511
14.295056505998208	2.5006394	1.581341
14.312720689617128	2.4967487	1.5801103
14.330385215120348	2.4618752	1.5690364
14.348050082947497	2.4656007	1.5702231
14.3657152935383	2.4339502	1.5601122
14.383380847332528	2.4319801	1.5594807
14.401046744770051	2.4106214	1.5526175
14.418712986290798	2.401651	1.5497261
14.436379572334793	2.3847241	1.5442553
14.454046503342123	2.3645885	1.5377219
14.471713779752946	2.3826985	1.5435992
14.489381402007504	2.4132223	1.553455
14.507049370546113	2.3785646	1.5422596
14.524717685809168	2.361633	1.5367606
14.542386348237134	2.3201153	1.5231925
14.560055358270553	2.3397152	1.5296128
14.577724716350051	2.4042983	1.55058
14.595394422916325	2.4333355	1.5599152
14.61306447841015	2.4718888	1.5722241
14.63073488327237	2.441229	1.5624433
14.648405637943917	2.4782236	1.5742375
14.6660767428658	2.497623	1.580387
14.683748198479094	2.5388255	1.5933692
14.701420005224954	2.5914023	1.6097833
14.719092163544628	2.6414766	1.625262
14.73676467387942	2.6478453	1.6272202
14.754437536670727	2.6328573	1.6226082
14.772110752360014	2.6279418	1.6210928
14.78978432138882	2.6498873	1.6278474
14.807458244198777	2.6349833	1.6232631
14.82513252123159	2.6378868	1.6241572
14.842807152929028	2.6610942	1.631286
14.860482139732962	2.6547232	1.6293321
14.87815748208531	2.6596603	1.6308465
14.8958331804281	2.663316	1.631967
14.91350923520342	2.6440423	1.6260511
14.931185646853438	2.6748998	1.6355121
14.948862415820408	2.6575484	1.6301988
14.966539542546656	2.6537793	1.6290424
14.98421702747459	2.6300743	1.6217504
15.001894871046696	2.6644304	1.6323082
15.019573073705542	2.6927915	1.6409727
15.037251635893766	2.7037492	1.6443081
15.054930558054092	2.6965225	1.6421092
15.072609840629323	2.7330148	1.6531832
15.090289484062351	2.885921	1.6987998
15.107969488796124	3.1868703	1.7851808
15.125649855273691	3.579397	1.8919294
15.14333058393817	4.0367517	2.009167
15.161011675232768	4.9995427	2.2359657
15.17869312960076	6.327649	2.515482
15.196374947485506	8.188131	2.8614912
15.214057129330447	11.220744	3.349738
15.231739675579114	16.026884	4.0033593
15.249422586675102	21.167656	4.600832
15.267105863062092	24.46233	4.945941
15.284789505183847	24.814587	4.9814243
15.302473513484218	22.6854	4.7629194
15.320157888407127	19.022757	4.3615084
15.337842630396578	14.741911	3.8395197
15.355527739896656	11.454348	3.3844273
15.37321321735153	8.908989	2.984793
15.39089906320545	6.4884057	2.547235
15.408585277902748	4.8927097	2.211947
15.42627186188783	3.818555	1.9541124
15.443958815605198	3.2560327	1.804448
15.461646139499424	2.9260287	1.7105639
15.479333834015168	2.777335	1.6665338
15.497021899597165	2.7276442	1.6515582
15.514710336690234	2.6873581	1.6393163
15.53239914573928	2.632689	1.6225563
15.550088327189297	2.5810413	1.606562
15.567777881485336	2.5820806	1.6068853
15.58546780907256	2.6011248	1.6128002
15.6031581103962	2.5964372	1.6113464
15.620848785901568	2.527317	1.5897537
15.638539836034063	2.4666028	1.5705422
15.656231261239173	2.437792	1.5613431
15.673923061962451	2.4480968	1.5646394
15.691615238649552	2.4602604	1.5685217
15.709307791746202	2.4627748	1.5693231
15.727000721698221	2.4455748	1.5638334
15.744694028951498	2.4272122	1.5579513
15.76238771395202	2.4062402	1.5512061
15.780081777145844	2.4192152	1.5553826
15.797776218979125	2.4257207	1.5574726
15.815471039898094	2.4549985	1.5668435
15.833166240349064	2.4518538	1.5658396
15.850861820778437	2.443103	1.5630429
15.868557781632699	2.383509	1.5438617
15.886254123358412	2.3517342	1.5335364
15.903950846402232	2.3703756	1.5396024
15.921647951210897	2.4009004	1.5494839
15.939345438231225	2.378356	1.542192
15.957043307910133	2.3567321	1.5351652
15.974741560694602	2.3348773	1.5280305
15.992440197031714	2.3502455	1.533051
16.01013921736862	2.369618	1.5393564
16.02783862215259	2.3903146	1.5460643
16.045538411830933	2.4078178	1.5517145
16.06323858685107	2.410728	1.5526519
16.080939147660512	2.3826609	1.543587
16.09864009470684	2.3831606	1.5437489
16.11634142843774	2.4249513	1.5572255
16.134043149300954	2.427726	1.5581162
16.15174525774433	2.418766	1.5552382
16.169447754215817	2.3709998	1.5398052
16.18715063916342	2.383938	1.5440006
16.204853913035244	2.3984747	1.5487009
16.222557576279478	2.4332068	1.5598739
16.240261629344403	22.433372	4.736388
16.257966072678386	42.99207	6.5568337
16.275670906729868	38.099537	6.172482
16.293376131947387	2.5131235	1.5852834
16.31108174877957	2.56206	1.6006436
16.328787757675133	2.587678	1.6086261
16.34649415908287	2.6031456	1.6134267
16.364200953451657	2.6068892	1.6145864
16.38190814123048	2.6267269	1.620718
16.39961572286839	2.661201	1.6313188
16.41732369881455	2.7253811	1.6508728
16.43503206951817	2.7636406	1.6624202
16.45274083542859	2.7944279	1.6716542
16.47044999699522	2.834042	1.6834613
16.488159554667558	2.8856661	1.6987249
16.505869508895184	2.9168558	1.7078805
16.523579860127786	2.9294116	1.7115524
16.541290608815117	2.929593	1.7116054
16.559001755407035	2.9195771	1.708677
16.57671330035348	2.9657009	1.722121
16.59442524410448	3.0752912	1.7536508
16.61213758711015	3.213508	1.792626
16.629850329820705	3.3178082	1.8214852
16.647563472686436	3.41945	1.8491755
16.665277016157724	3.4668899	1.8619586
16.682990960685053	3.4386337	1.8543553
16.70070530671898	3.4137425	1.8476316
16.718420054710155	3.448847	1.8571072
16.736135205109335	3.5165668	1.8752512
16.753850758367335	3.5924275	1.89537
16.771566714935087	3.705135	1.9248728
16.789283075263597	3.755053	1.9377959
16.80699983980398	3.8219807	1.9549887
16.82471700900741	3.8842273	1.9708443
16.84243458332518	3.9684982	1.992109
16.860152563208665	4.0088825	2.0022194
16.87787094910932	4.042747	2.0106583
16.89558974147871	4.084504	2.0210156
16.913308940768466	4.1223426	2.0303552
16.931028547430333	4.1829295	2.045221
16.94874856191613	4.2488217	2.0612671
16.966468984677785	4.3845344	2.0939279
16.98418981616729	4.462148	2.1123798
17.00191105683676	4.4943986	2.1199996
17.019632707138374	4.49479	2.120092
17.03735476752442	4.561854	2.1358497
17.05507723844728	4.6433764	2.1548495
17.072800120359403	4.6874886	2.1650608
17.090523413713353	4.661444	2.1590378
17.108247118961785	4.6605515	2.1588311
17.125971236557437	4.649229	2.156207
17.143695766953133	4.6592364	2.1585264
17.161420710601806	4.649775	2.1563337
17.179146067956477	4.6180015	2.1489537
17.19687183947025	4.635038	2.1529138
17.21459802559634	4.655772	2.157724
17.232324626788028	4.6975293	2.1673784
17.25005164349871	4.724349	2.1735568
17.267779076181863	4.7211285	2.1728158
17.285506925291074	4.6704817	2.1611297
17.30323519127999	4.631424	2.1520743
17.320963874602384	4.5995746	2.144662
17.33869297571211	4.63297	2.1524334
17.356422495063114	4.6247463	2.1505222
17.37415243310944	4.5865345	2.1416197
17.391882790305218	4.561086	2.13567
17.40961356710468	4.5370965	2.1300461
17.42734476396215	4.544669	2.131823
17.445076381332044	4.583652	2.1409466
17.462808419668868	4.625607	2.1507225
17.48054087942723	4.7525773	2.1800406
17.498273761061835	5.057862	2.248969
17.51600706502747	5.536293	2.352933
17.533740791779024	6.239224	2.497844
17.551474941771485	7.591887	2.755338
17.56920951545993	8.734984	2.9555006
17.586944513299528	10.925429	3.3053637
17.60467993574556	12.675593	3.5602798
17.622415783253373	14.445807	3.800764
17.64015205627843	15.9383	3.99228
17.657888755276293	16.966349	4.119023
17.675625880702604	17.501333	4.1834593
17.69336343301311	17.314175	4.1610303
17.71110141266366	16.477917	4.0593
17.728839820110178	15.451531	3.9308436
17.746578655808705	14.455542	3.8020444
17.764317920215372	12.95713	3.5996015
17.7820576137864	11.563108	3.4004571
17.79979773697811	9.55956	3.0918539
17.81753829024692	7.6482344	2.7655442
17.835279274049356	5.8672023	2.422231
17.85302068884201	4.797572	2.190336
17.870762535081607	4.190588	2.0470927
17.888504813224934	3.9304872	1.9825456
17.90624752372891	3.7795644	1.9441102
17.923990667050536	3.673761	1.9167057
17.941734243646895	3.5606213	1.8869609
17.959478253975185	3.4581475	1.8596095
17.9772226984927	3.3894591	1.8410484
17.994967577656833	3.3491902	1.8300793
18.01271289192506	3.3217916	1.8225783
18.030458641754965	3.3440733	1.8286808
18.04820482760425	3.3180988	1.8215649
18.06595144993067	3.3249147	1.8234348
18.083698509192125	3.3416195	1.8280097
18.101446005846576	3.3455162	1.8290752
18.119193940352105	3.3048618	1.8179278
18.136942313166887	3.2335696	1.7982129
18.1546911247492	3.1607192	1.7778411
18.1724403755574	3.1248868	1.7677349
18.19019006604997	3.1435738	1.7730126
18.207940196685467	3.1800354	1.7832654
18.225690767922575	3.1704433	1.7805738
18.243441780220046	3.1152902	1.7650185
18.261193234036764	3.0866992	1.7569004
18.278945129831676	3.0750978	1.7535957
18.29669746806386	3.0924778	1.7585442
18.314450249192483	3.0831378	1.7558866
18.3322034736768	3.111621	1.7639787
18.349957141976184	3.125284	1.7678473
18.3677112545501	3.1351545	1.7706368
18.385465811858108	3.146284	1.7737768
18.403220814359884	3.1331346	1.7700663
18.420976262515172	3.1314847	1.7696002
18.43873215678387	3.1542058	1.7760084
18.456488497625923	3.2004225	1.7889725
18.474245285501407	3.3092058	1.8191222
18.492002520870486	3.3848844	1.8398055
18.50976020419343	3.4056385	1.8454372
18.527518335930615	3.6895452	1.9208189
18.545276916542516	4.2301416	2.0567307
18.563035946489688	4.3909583	2.0954614
18.580795426232832	4.8160686	2.1945543
18.598555356232698	4.727994	2.174395
18.616315736950185	5.0140333	2.2392037
18.63407656884626	4.6350493	2.1529164
18.65183785238201	4.790166	2.1886446
18.669599588018617	4.584729	2.1411982
18.68736177621737	4.628641	2.1514277
18.705124417439652	4.670119	2.1610458
18.72288751214696	4.4851313	2.1178129
18.740651060800886	4.563744	2.1362922
18.758415063863115	4.2702518	2.0664587
18.77617952179546	4.4456344	2.1084673
18.793944435059814	4.2481823	2.061112
18.811709804118184	4.268142	2.0659482
18.829475629432675	4.210215	2.0518808
18.8472419114655	3.9937406	1.9984345
18.86500865067897	4.085114	2.0211666
18.88277584753551	3.8068109	1.951105
18.90054350249763	3.8324127	1.957655
18.918311616027957	3.5266361	1.877934
18.936080188589226	3.3781438	1.8379728
18.953849220644265	3.0505807	1.7465912
18.971618712656007	2.8635674	1.6922078
18.9893886650875	2.8368106	1.6842834
19.007159078401887	8.041848	2.8358152
19.024929953062408	32.90427	5.736224
19.042701289532435	32.8528	5.731736
19.060473088275405	25.436632	5.043474
19.07824534975489	2.727993	1.6516637
19.096018074434568	2.712107	1.6468476
19.113791262778197	2.6950774	1.6416692
19.13156491524966	2.6951625	1.641695
19.149339032312945	2.6536593	1.6290057
19.167113614432136	2.5698795	1.6030843
19.184888662071433	2.5601275	1.6000398
19.202664175695123	2.6036599	1.6135861
19.220440155767623	2.624852	1.6201395
19.238216602753447	2.5693302	1.602913
19.2559935171172	2.5014668	1.5816026
19.27377089932361	2.493264	1.5790073
19.291548749837514	2.5271146	1.5896901
19.309327069123835	2.528393	1.5900922
19.32710585764763	2.5458798	1.5955813
19.344885115874032	2.517206	1.5865705
19.362664844268313	2.5024695	1.5819196
19.380445043295822	2.4701064	1.5716572
19.39822571342203	2.499601	1.5810126
19.41600685511252	2.5039685	1.5823933
19.43378846883297	2.5064373	1.5831732
19.451570555049173	2.4883478	1.5774498
19.469353114227037	2.509837	1.5842465
19.48713614683254	2.5297387	1.5905153
19.50491965333182	2.5401447	1.5937831
19.52270363419109	2.5104024	1.584425
19.540488089876686	2.530028	1.5906062
19.55827302085503	2.5180242	1.5868284
19.576058427592674	2.523936	1.58869
19.593844310556282	2.4989917	1.58082
19.611630670212598	2.4983377	1.5806131
19.629417507028506	2.5127683	1.5851713
19.64720482147098	2.53121	1.5909777
19.6649926140071	2.5223541	1.5881921
19.682780885104084	2.517019	1.5865116
19.70056963522921	2.5464709	1.5957665
19.718358864849908	2.5713158	1.6035323
19.7361485744337	2.562018	1.6006305
19.753938764448215	2.5397544	1.5936607
19.771729435361202	2.5393462	1.5935327
19.789520587640506	2.5346448	1.5920568
19.807312221754092	2.5690677	1.6028311
19.825104338170043	2.5575485	1.5992337
19.842896937356517	2.554569	1.5983019
19.860690019781824	2.5458627	1.5955759
19.87848358591436	2.5600832	1.600026
19.896277636222635	2.545506	1.5954642
19.914072171175278	2.5454328	1.5954412
19.931867191241015	2.5161483	1.5862372
19.94966269688869	2.5149548	1.5858608
19.967458688587264	2.4910054	1.5782919
19.985255166805807	2.485733	1.5766208
20.00305213201348	2.4815838	1.5753044
20.020849584679578	2.4856062	1.5765805
20.038647525273507	2.48534	1.5764961
20.05644595426477	2.4700093	1.5716263
20.07424487212299	2.452276	1.5659745
20.092044279317903	2.4427695	1.5629362
20.109844176319353	2.4650657	1.5700527
20.127644563597304	2.4508097	1.5655062
20.145445441621817	2.4335814	1.559994
20.16324681086307	2.4299333	1.5588243
20.181048671791373	2.4454286	1.5637866
20.198851024877122	2.4547865	1.5667758
20.216653870590836	2.434726	1.5603609
20.234457209403146	2.4098616	1.5523729
20.252261041784802	2.3858864	1.5446315
20.270065368206662	2.384516	1.5441878
20.287870189139685	2.410696	1.5526416
20.305675505054968	2.4418485	1.5626415
20.323481316423702	2.4424531	1.562835
20.341287623717207	2.42712	1.5579216
20.359094427406884	2.3810225	1.5430562
20.376901727964288	2.414346	1.5538166
20.39470952586107	2.3823879	1.5434986
20.41251782156899	2.3949797	1.5475723
20.430326615559935	2.3887482	1.5455576
20.448135908305886	2.3907151	1.5461937
20.465945700278965	2.3143342	1.5212935
20.483755991951384	2.2695172	1.5064917
20.50156678379548	2.29684	1.5155329
20.519378076283708	2.3264446	1.5252687
20.537189869888635	2.3518484	1.5335737
20.55500216508294	2.3577862	1.5355084
20.572814962339415	2.3601902	1.536291
20.59062826213098	2.3512936	1.5333928
20.60844206493066	2.3393154	1.5294821
20.626256371211593	2.3309855	1.5267565
20.644071181447032	2.3359797	1.5283912
20.66188649611036	2.3268764	1.5254103
20.67970231567506	2.3302436	1.5265136
20.697518640614742	2.3104987	1.5200325
20.715335471403122	2.3598158	1.5361692
20.73315280851404	2.3664424	1.5383246
20.750970652421447	2.3185902	1.5226917
20.768789003599412	2.2936556	1.514482
20.786607862522136	2.3113666	1.5203179
20.8044272296639	2.3696709	1.5393735
20.82224710549913	2.3635557	1.537386
20.84006749050237	2.3083434	1.5193233
20.857888385148268	3.8173187	1.9537959
20.8757097899116	45.92743	6.776978
20.893531705267254	64.821815	8.0512
20.911354131690224	83.838455	9.156334
20.92917706965566	69.10013	8.312649
20.94700051963877	50.19147	7.084594
20.96482448211493	29.446287	5.426443
20.982648957559622	4.1516614	2.0375626
21.00047394644843	2.283454	1.5111102
21.01829944925707	2.300898	1.5168711
21.036125466461375	2.2793975	1.5097674
21.053951998537297	2.2416272	1.4972064
21.071779045960906	2.2324681	1.4941446
21.089606609208378	2.2391284	1.4963717
21.10743468875603	2.2503948	1.5001316
21.12526328508028	2.2329185	1.4942954
21.143092398657675	2.2423637	1.4974524
21.16092202996488	2.257445	1.5024797
21.17875217947867	2.2631867	1.5043892
21.19658284767596	2.2173872	1.4890894
21.21441403503377	2.2023118	1.4840188
21.232245742029225	2.191455	1.4803563
21.2500779691396	2.2102494	1.4866908
21.26791071684227	2.2012272	1.4836533
21.28574398561475	2.2226942	1.4908702
21.30357777593465	2.207181	1.4856584
21.321412088279704	2.1800156	1.4764875
21.339246923127792	2.1546867	1.4678851
21.357082280956888	2.1835244	1.4776753
21.3749181622451	2.1933627	1.4810005
21.392754567470647	2.1638122	1.4709902
21.41059149711187	2.145386	1.4647136
21.42842895164726	2.1604388	1.4698431
21.446266931555378	2.1859035	1.4784801
21.464105437314945	2.1404161	1.4630162
21.481944469404798	2.1027048	1.4500706
21.49978402830388	2.0688763	1.4383589
21.51762411449127	2.08875	1.4452507
21.53546472844617	2.1377192	1.4620941
21.553305870647876	2.1735618	1.4743005
21.571147541575865	2.2005796	1.483435
21.58898974170967	2.1511188	1.4666693
21.60683247152899	2.0981452	1.4484975
21.62467573151363	2.0698664	1.4387031
21.642519522143523	2.075656	1.4407136
21.660363843898722	2.06832	1.4381655
21.6782086972594	2.0580497	1.4345905
21.696054082705864	2.0408633	1.4285879
21.713900000718535	2.0290112	1.4244337
21.73174645177795	2.0458095	1.430318
21.749593436364794	2.0704422	1.4389031
21.767440954959845	2.072781	1.4397156
21.785289008044032	2.04083	1.4285762
21.803137596098388	2.0350564	1.426554
21.820986719604086	2.0300937	1.4248135
21.838836379042412	2.02766	1.4239593
21.85668657489478	2.0432372	1.4294184
21.87453730764273	2.053758	1.4330938
21.892388577767914	2.0549364	1.4335049
21.91024038575213	2.0243096	1.4227823
21.928092732077285	1.9885962	1.4101759
21.945945617225426	1.9781413	1.4064641
21.963799041678694	1.972662	1.4045149
21.981653005919398	31.319078	5.596345
21.999507510429943	78.10943	8.837954
22.01736255569286	73.075485	8.54842
22.035218142190818	4.1540103	2.0381389
22.05307427040661	1.9856365	1.4091262
22.07093094082315	1.9875568	1.4098073
22.088788153923474	1.9858044	1.4091858
22.106645910190746	1.9875203	1.4097944
22.12450421010827	1.977976	1.4064053
22.142363054159464	1.9874514	1.40977
22.16022244282787	2.006786	1.4166108
22.178082376597164	2.0335512	1.4260263
22.195942855951145	2.049061	1.4314542
22.213803881373742	2.0442896	1.4297866
22.231665453349002	2.0463347	1.4305016
22.24952757236111	1.9858035	1.4091854
22.26739023889438	1.965954	1.4021248
22.28525345343323	1.9878924	1.4099264
22.30311721646225	2.0264406	1.423531
22.320981528466113	2.008303	1.4171461
22.33884638992964	1.9571437	1.3989795
22.356711801337788	1.921031	1.3860127
22.37457776317561	1.9473418	1.3954719
22.392444275928337	1.9946434	1.4123185
22.410311340081282	2.0045724	1.4158292
22.428178956119904	1.9800361	1.4071375
22.446047124529805	1.9578797	1.3992425
22.46391584579669	1.9764662	1.4058685
22.481785120406414	2.0119152	1.41842
22.49965494884496	2.0138738	1.4191102
22.51752533159841	1.9950473	1.4124614
22.53539626915302	1.9502537	1.3965149
22.553267761995137	1.9075367	1.3811361
22.571139810611264	1.9208161	1.3859351
22.589012415488025	1.9578906	1.3992465
22.60688557711216	1.9973677	1.4132826
22.624759295970566	1.978284	1.4065149
22.642633572550263	1.9821199	1.4078778
22.660508407338362	1.9762203	1.405781
22.67838380082217	1.9440714	1.3942996
22.696259753489077	1.9600111	1.400004
22.714136265826614	1.9631094	1.40111
22.73201333832246	1.9734592	1.4047986
22.74989097146439	1.9384549	1.392284
22.76776916574035	1.9310286	1.3896146
22.785647921638393	1.9185598	1.3851209
22.803527239646712	1.9014279	1.3789227
22.82140712025363	1.89988	1.3783613
22.839287563947593	1.943438	1.3940724
22.85716857121719	1.9166758	1.3844407
22.875050142551135	1.8903359	1.3748949
22.892932278438277	1.8726472	1.368447
22.910814979367604	1.8875707	1.373889
22.928698245828222	1.9091586	1.381723
22.946582078309387	1.9206703	1.3858825
22.96446647730047	1.9334227	1.3904757
22.98235144329098	1.9234425	1.3868823
23.000236976770562	1.9360763	1.3914295
23.018123078229	1.946712	1.3952463
23.03600974815619	1.9439399	1.3942524
23.053896987042194	1.9171841	1.3846241
23.071784795377173	1.9361584	1.3914591
23.08967317365145	1.9181099	1.3849584
23.10756212235546	1.9348465	1.3909876
23.125451641979787	1.943432	1.3940703
23.143341733015134	1.9446236	1.3944976
23.161232395952357	1.9321318	1.3900114
23.179123631282426	1.9572732	1.3990258
23.197015439496468	1.9756231	1.4055686
23.214907821085717	1.9929554	1.4117208
23.23280077654157	1.9538317	1.3977953
23.250694306355538	1.9263732	1.3879385
23.268588411019277	1.9261955	1.3878745
23.28648309102458	1.9175633	1.3847611
23.304378346863356	1.9124813	1.3829249
23.322274179027676	1.9185361	1.3851123
23.340170588009723	1.9442128	1.3943503
23.358067574301852	2.005085	1.4160103
23.37596513839651	1.9841335	1.4085927
23.39386328078629	1.9473275	1.3954668
23.411762001963947	1.9129534	1.3830956
23.429661302422353	1.9062446	1.3806682
23.4475611826545	1.8965492	1.3771526
23.46546164315356	1.9252375	1.3875293
23.48336268441279	1.9402686	1.3929353
23.501264306925638	1.9535671	1.3977007
23.51916651118564	1.9092267	1.3817477
23.537069297686497	1.9127376	1.3830175
23.554972666922037	1.913414	1.383262
23.57287661938623	1.9266794	1.3880488
23.59078115557318	1.9320391	1.389978
23.608686275977128	1.9554958	1.3983904
23.62659198109246	1.9409869	1.393193
23.6444982714137	1.9001329	1.3784531
23.66240514743549	1.9029949	1.3794909
23.68031260965263	1.9587493	1.3995533
23.698220658560068	1.9348636	1.3909937
23.716129294652845	1.9236879	1.3869708
23.7340385184262	1.9181823	1.3849846
23.75194833037546	1.8969216	1.3772877
23.769858730996123	1.8774463	1.3701993
23.78776972078382	1.9102038	1.3821012
23.80568130023431	1.9059383	1.3805572
23.823593469843495	1.8628801	1.3648736
23.841506230107424	1.8681267	1.3667943
23.859419581522275	1.923692	1.3869722
23.87733352458438	1.9477451	1.3956164
23.89524805979019	1.9540178	1.3978618
23.913163187636318	1.9232628	1.3868176
23.931078908619508	1.9111344	1.3824378
23.948995223236633	1.945339	1.394754
23.966912131984735	1.9763634	1.4058319
23.98482963536096	2.027162	1.4237844
24.002747733862616	2.006014	1.4163383
24.020666427987155	1.9927309	1.4116412
24.038585718232156	2.010078	1.4177722
24.056505605095353	2.0264223	1.4235246
24.074426089074617	2.0262675	1.4234703
24.092347170667946	2.0441124	1.4297246
24.110268850373515	2.0357013	1.42678
24.128191128689586	2.0866463	1.4445229
24.146114006114626	2.0256693	1.4232601
24.164037483147187	2.0281851	1.4241437
24.181961560286005	2.0382655	1.4276783
24.199886238029926	2.0748808	1.4404447
24.21781151687797	2.0821207	1.4429555
24.235737397329274	2.0471253	1.4307779
24.253663879883135	2.0187817	1.4208384
24.271590965038975	2.0052128	1.4160553
24.289518653296376	2.0183594	1.4206898
24.30744694515505	2.0643063	1.4367694
24.32537584111486	2.0667696	1.4376264
24.34330534167581	2.030305	1.4248877
24.361235447338046	2.0731525	1.4398446
24.379166158601876	2.0809677	1.4425559
24.39709747596772	2.0758698	1.4407879
24.41502939993615	2.044927	1.4300094
24.432961931007917	2.0009298	1.4145423
24.450895069683856	1.9768536	1.4060062
24.468828816465	1.9692746	1.4033085
24.4867631718525	1.9883851	1.410101
24.504698136347656	1.9769764	1.40605
24.52263371045192	2.016326	1.419974
24.540569894666874	1.9882079	1.4100382
24.558506689494266	1.9137484	1.3833829
24.57644409543597	1.954537	1.3980476
24.594382112994012	1.9986405	1.4137329
24.61232074267057	2.015969	1.4198482
24.630259984967953	1.9535645	1.3976997
24.64819984038863	1.9137114	1.3833696
24.66614030943522	1.9442173	1.394352
24.684081392610462	1.9844885	1.4087187
24.702023090417274	1.9920826	1.4114115
24.7199654033587	1.9785142	1.4065967
24.737908331937927	1.9795301	1.4069577
24.755851876658305	1.9940553	1.4121102
24.773796038023324	2.038492	1.4277576
24.79174081653661	2.0660954	1.4373919
24.809686212701962	2.0889544	1.4453216
24.827632227023294	2.0794663	1.4420354
24.8455788600047	2.04461	1.4298986
24.8635261121504	2.076578	1.4410336
24.88147398396475	2.1453037	1.4646856
24.899422475952303	2.2304664	1.4934746
24.917371588617698	2.230266	1.4934075
24.935321322465768	2.1932642	1.4809673
24.953271678001478	2.2520485	1.5006827
24.97122265572994	2.5003948	1.5812637
24.989174256156414	2.8546243	1.6895634
25.00712647978632	3.2949398	1.8151969
25.02507932712521	3.7712727	1.9419764
25.043032798678798	4.299174	2.0734448
25.060986894952933	4.9745555	2.2303712
25.078941616453637	5.680533	2.3833869
25.096896963687055	6.5793157	2.5650177
25.114852937159508	7.710608	2.7767982
25.132809537377444	8.223616	2.8676846
25.150766764847468	8.312965	2.8832214
25.168724620076347	7.8348584	2.7990818
25.186683103570985	6.790018	2.6057663
25.204642215838426	5.549959	2.3558352
25.222601957385894	4.183724	2.0454154
25.24056232872074	3.1751678	1.7819
25.25852333035048	2.6297657	1.6216552
25.276484962782778	2.278151	1.5093545
25.294447226525435	2.122039	1.456722
25.312410122086423	2.0402138	1.4283606
25.330373649973843	1.9539791	1.397848
25.348337810695988	1.8808769	1.3714507
25.366302604761245	1.8673307	1.3665031
25.384268032678207	1.9292469	1.3889734
25.40223409495558	1.9858434	1.4091996
25.420200792102257	2.0102005	1.4178154
25.438168124627246	1.9456245	1.3948565
25.45613609303974	1.9255073	1.3876265
25.474104697849057	1.9193965	1.3854228
25.492073939564698	1.9335278	1.3905135
25.510043818696285	1.9302045	1.389318
25.528014335753614	1.8882368	1.3741313
25.54598549124664	1.8313001	1.3532554
25.56395728568544	1.8255913	1.3511444
25.58192971958028	1.8259131	1.3512635
25.59990279344156	1.8463793	1.3588154
25.617876507779833	1.837025	1.355369
25.635850863105826	1.8439119	1.3579072
25.653825859930386	1.8526489	1.3611205
25.671801498764548	1.9024729	1.3793015
25.68977778011949	1.9196693	1.3855213
25.707754704506524	1.9338413	1.3906262
25.725732272437153	1.8991725	1.3781047
25.743710484423012	1.856487	1.3625296
25.761689340975888	1.8275863	1.3518825
25.77966884260774	1.8448472	1.3582516
25.797648989830662	1.8804232	1.3712852
25.815629783156922	1.8770592	1.3700581
25.83361122309895	1.890073	1.3747993
25.85159331016929	1.8870527	1.3737004
25.869576044880695	1.879293	1.3708731
25.887559427746034	1.8422484	1.3572946
25.90554345927836	1.8115085	1.345923
25.92352813999086	1.8125094	1.3462946
25.94151347039689	1.7955072	1.3399653
25.959499451009965	1.834582	1.3544674
25.97748608234374	1.8568554	1.3626648
25.995473364912062	1.8702344	1.3675652
26.013461299228904	1.8721583	1.3682684
26.03144988580839	1.8837228	1.3724878
26.04943912516483	1.8749219	1.3692778
26.067429017812675	1.852799	1.3611757
26.085419564266537	1.8360875	1.355023
26.103410765041186	1.9021713	1.3791922
26.12140262065155	1.8905466	1.3749715
26.139395131612723	1.8556967	1.3622396
26.157388298439948	1.8276736	1.3519148
26.17538212164861	1.808337	1.3447442
26.193376601754295	1.8475122	1.3592322
26.211371739272714	1.8657304	1.3659174
26.229367534719746	1.8813206	1.3716124
26.247363988611433	1.8427416	1.3574762
26.26536110146397	1.8377659	1.3556422
26.283358873793727	1.8170398	1.3479762
26.301357306117204	1.8103008	1.3454742
26.319356398951104	1.8372169	1.3554398
26.33735615281224	1.8370572	1.3553809
26.35535656821762	1.8010551	1.342034
26.373357645684404	1.7805434	1.33437
26.39135938572991	1.7820911	1.3349499
26.409361788871614	1.7944957	1.3395879
26.427364855627165	1.8075676	1.3444581
26.445368586514352	1.8189994	1.3487029
26.46337298205115	1.803722	1.3430272
26.48137804275568	1.7971495	1.3405781
26.499383769146217	1.7985954	1.3411173
26.517390161741215	1.8054593	1.3436738
26.53539722105928	1.8721983	1.368283
26.553404947619182	1.8782299	1.3704853
26.571413341939856	1.870079	1.3675083
26.589422404540397	1.8013729	1.3421524
26.60743213594006	1.7694151	1.3301936
26.62544253665827	1.7959067	1.3401145
26.64345360721459	1.8392875	1.3562033
26.66146534812879	1.8350254	1.3546311
26.679477759920758	1.8575027	1.3629023
26.69749084311057	1.8110276	1.3457443
26.71550459821847	1.8174516	1.3481289
26.733519025764842	1.8093807	1.3451322
26.751534126270258	1.8239728	1.3505454
26.769549900255434	1.8545691	1.3618256
26.787566348241267	1.8307186	1.3530405
26.80558347074881	1.802199	1.34246
26.823601268299267	1.7788402	1.3337317
26.841619741414036	1.7992687	1.3413682
26.85963889061465	1.7976131	1.3407509
26.877658716422832	1.8104844	1.3455424
26.89567921936045	1.846267	1.3587741
26.913700399949544	1.8498452	1.3600901
26.93172225871233	1.8004045	1.3417915
26.949744796171174	1.8101183	1.3454064
26.967768012848605	1.8218505	1.3497595
26.98579190926733	1.8356042	1.3548447
27.003816485950225	1.8198961	1.3490353
27.021841743420318	1.8241665	1.350617
27.039867682200814	1.8352517	1.3547146
27.057894302815072	1.8832663	1.3723215
27.07592160578664	1.85004	1.3601618
27.0939495916392	1.8215667	1.3496543
27.111978260896635	1.8116564	1.3459779
27.13000761408296	1.8481693	1.359474
27.148037651722397	1.868547	1.366948
27.166068374339304	1.8784099	1.370551
27.184099782458215	1.8602679	1.3639164
27.20213187660384	1.8575827	1.3629316
27.22016465730105	1.8034089	1.3429106
27.23819812507487	1.7460253	1.3213725
27.256232280450533	1.7383814	1.3184769
27.274267123953383	1.8309937	1.3531421
27.292302656108987	1.8747162	1.3692027
27.31033887744306	1.8926135	1.3757229
27.32837578848146	1.8829223	1.3721962
27.34641338975026	1.8513254	1.3606342
27.364451681775673	1.7829344	1.3352656
27.382490665084074	1.781466	1.3347157
27.400530340202046	1.8073759	1.3443868
27.41857070765629	1.839995	1.3564641
27.436611767973726	1.808999	1.3449904
27.454653521681404	1.7744495	1.3320847
27.472695969306564	1.7840657	1.3356892
27.490739111376627	1.7967085	1.3404136
27.508782948419153	1.797517	1.340715
27.526827480961902	1.7769976	1.3330407
27.54487270953279	1.7878125	1.3370911
27.562918634659898	1.7962346	1.3402368
27.580965256871508	1.8357761	1.3549081
27.599012576696026	1.8547775	1.3619021
27.617060594662068	1.8167787	1.3478793
27.63510931129842	1.780157	1.3342252
27.65315872713401	1.7816079	1.3347689
27.67120884269797	1.7616103	1.3272567
27.68925965851958	1.8065957	1.3440967
27.707311175128307	1.830624	1.3530055
27.725363393053787	1.8394133	1.3562497
27.74341631282583	1.8534087	1.3613995
27.7614699349744	1.8750849	1.3693374
27.77952426002968	2.0575867	1.434429
27.797579288521973	2.1479466	1.4655875
27.815635020981784	2.5325994	1.5914143
27.83369145793979	2.5731602	1.6041073
27.85174859992682	2.378692	1.5423008
27.869806447473923	2.2438886	1.4979615
27.887865001112267	1.962671	1.4009537
27.905924261373233	1.8658855	1.3659742
27.92398422878836	1.8733969	1.3687209
27.94204490388936	1.877178	1.3701015
27.96010628720813	1.9014044	1.3789142
27.978168379276728	1.9129615	1.3830985
27.9962311806274	1.9381615	1.3921787
28.014294691792568	1.9076957	1.3811935
28.0323589133048	1.8887177	1.3743062
28.050423845696887	1.8507863	1.3604361
28.068489489501758	1.8521278	1.360929
28.086555845252523	1.8659203	1.365987
28.104622913482487	1.8938317	1.3761656
28.122690694725115	1.9109735	1.3823797
28.14075918951405	1.8934743	1.3760357
28.15882839838312	1.940906	1.393164
28.176898321866304	1.9553304	1.3983313
28.1949689604978	1.9067366	1.3808464
28.213040314811945	1.949808	1.3963553
28.23111238534327	1.9804243	1.4072754
28.249185172626493	2.0269833	1.4237217
28.267258677196473	2.0117068	1.4183465
28.285332899588294	1.9813428	1.4076018
28.303407840337172	1.9357631	1.391317
28.321483499978545	1.9353619	1.3911729
28.33955987904799	1.9952548	1.4125348
28.357636978081285	1.9884696	1.4101311
28.37571479761439	1.9698867	1.4035265
28.393793338183425	1.9716266	1.4041462
28.41187260032469	1.9903936	1.4108131
28.429952584574686	1.9739122	1.4049599
28.448033291470065	1.9586136	1.3995048
28.46611472154769	1.9441427	1.3943251
28.484196875344566	1.9844012	1.4086877
28.502279753397914	2.0041628	1.4156846
28.52036335624511	2.0216181	1.4218361
28.538447684423716	1.9804637	1.4072895
28.556532738471482	1.93845	1.3922822
28.574618518926325	1.9798076	1.4070563
28.59270502632635	1.9827012	1.4080843
28.61079226120985	1.9730328	1.4046469
28.628880224115274	1.9764194	1.4058518
28.646968915581287	2.0016692	1.4148036
28.66505833614671	2.0137398	1.419063
28.68314848635055	2.0192347	1.4209977
28.701239366732004	2.0519097	1.4324489
28.71933097783044	2.0547404	1.4334366
28.737423320185403	2.0999703	1.4491274
28.75551639433665	2.0666244	1.4375759
28.773610200824074	2.097282	1.4481995
28.791704740187793	2.150193	1.4663537
28.80980001296809	2.1868076	1.4787859
28.827896019705413	2.1768284	1.4754078
28.845992760940433	2.179071	1.4761677
28.86409023721397	2.2303014	1.4934194
28.88218844906704	2.243107	1.4977006
28.900287397040845	2.2406156	1.4968686
28.918387081676755	2.2446046	1.4982004
28.936487503516343	2.2511392	1.5003797
28.954588663101365	2.2304745	1.4934773
28.97269056097374	2.231534	1.493832
28.990793197675597	2.2795873	1.5098302
29.00889657374923	2.347013	1.5319964
29.027000689737125	2.4068773	1.5514114
29.04510554618196	2.4152493	1.5541073
29.06321114362659	2.4052808	1.5508968
29.08131748261405	2.48434	1.5761789
29.099424563687567	2.522675	1.5882931
29.11753238739057	2.5257008	1.5892453
29.13564095426663	2.5235107	1.5885562
29.15375026485954	2.54876	1.5964836
29.171860319713275	2.6173677	1.6178281
29.18997111937199	2.6695216	1.633867
29.20808266438002	2.7912319	1.670698
29.226194955281898	2.8157136	1.6780088
29.244307992622335	2.82507	1.6807945
29.26242177694624	2.8641896	1.6923916
29.2805363087987	2.9847412	1.7276404
29.29865158872498	2.9948895	1.7305748
29.316767617270557	2.9748204	1.7247667
29.334884394981064	3.0067363	1.7339944
29.353001922402367	3.0697026	1.7520567
29.37112020008047	3.1291604	1.7689433
29.389239228561596	3.1768045	1.7823592
29.407359008392152	3.283415	1.8120196
29.42547954011872	3.623117	1.9034487
29.44360082428809	4.2770452	2.068102
29.46172286144722	5.300352	2.3022494
29.479845652143283	6.9171157	2.6300411
29.497969196923606	9.144059	3.0239146
29.516093496335728	11.793214	3.434125
29.5342185509274	14.711894	3.8356087
29.55234436124651	16.945314	4.116469
29.570470927841175	18.37941	4.2871213
29.588598251259686	18.31035	4.2790594
29.60672633205055	16.985544	4.121352
29.624855170762405	14.59384	3.8201885
29.642984767944146	11.799903	3.4350986
29.66111512414481	8.979553	2.9965904
29.67924623991366	6.606832	2.570376
29.697378115800138	5.1306086	2.2650847
29.71551075235387	4.3143106	2.077092
29.733644150124675	3.842902	1.9603322
29.751778309662576	3.4918277	1.8686433
29.769913231517766	3.376892	1.8376322
29.78804891624066	3.389815	1.841145
29.806185364381818	3.4206498	1.8494998
29.82432257649206	3.3541098	1.8314229
29.842460553122333	3.3726244	1.8364706
29.86059929482382	3.3281243	1.8243147
29.878738802147872	3.3718908	1.8362709
29.896879075646048	3.2847543	1.8123891
29.915020115870114	3.2675948	1.807649
29.933161923371976	3.3320892	1.8254011
29.951304498703777	3.3173718	1.8213654
29.969447842417857	3.2886565	1.8134654
29.987591955066733	3.310394	1.8194488
30.005736837203123	3.2218566	1.7949531
30.023882489379943	3.1581686	1.7771237
30.04202891215028	3.1118731	1.7640502
30.060176106067455	3.1926856	1.7868087
30.078324071684946	3.2679634	1.8077509
30.09647280955646	3.2579038	1.8049664
30.114622320235863	3.1607776	1.7778575
30.132772604277257	3.1061723	1.7624336
30.1509236622349	3.1762052	1.7821912
30.16907549466328	3.1814458	1.7836608
30.18722810211705	3.1110854	1.763827
30.205381485151097	3.1351414	1.7706331
30.22353564432045	3.0726418	1.7528952
30.241690580180403	3.0042133	1.7332667
30.25984629328638	3.0215726	1.7382671
30.278002784194037	3.0502026	1.746483
30.296160053459246	3.0171204	1.736986
30.314318101638033	2.9649289	1.7218969
30.332476929286646	2.9921484	1.7297828
30.35063653696153	2.986367	1.7281108
30.368796925219307	2.912634	1.706644
30.386958094616844	2.9226751	1.7095833
30.40512004571115	2.9477293	1.7168952
30.423282779059463	2.9247618	1.7101935
30.441446295219233	2.9327333	1.7125225
30.459610594748067	2.8602028	1.6912134
30.47777567820382	2.774902	1.6658038
30.495941546144504	2.758124	1.66076
30.51410819912835	2.8060958	1.6751405
30.532275637713795	2.8044207	1.6746404
30.55044386245946	2.8045995	1.6746938
30.56861287392416	2.831777	1.6827885
30.586782672666956	2.8461118	1.6870424
30.604953259247047	2.7851484	1.6688764
30.623124634223885	2.7672703	1.6635114
30.641296798157075	2.7361796	1.6541401
30.659469751606462	2.7811408	1.6676753
30.677643495132074	2.8251011	1.6808038
30.695818029294152	2.8142128	1.6775615
30.713993354653116	2.7496626	1.6582106
30.73216947176962	2.7388585	1.6549497
30.75034638120448	2.72178	1.6497818
30.768524083518756	2.6605785	1.631128
30.786702579273673	2.66184	1.6315147
30.80488186903069	2.7822895	1.6680197
30.82306195335144	2.866511	1.6930774
30.841242832797782	3.0702307	1.7522074
30.85942450793176	3.393558	1.8421612
30.877606979315637	3.744286	1.9350158
30.895790247511883	4.23369	2.057593
30.913974313083134	4.651821	2.1568081
30.932159176592283	4.92896	2.2201262
30.95034483860237	4.9479346	2.2243953
30.968531299676698	4.731011	2.1750886
30.98671856037873	4.390551	2.095364
31.00490662127215	3.9904084	1.9976007
31.023095482920848	3.5111706	1.8738118
31.04128514588892	3.0680869	1.7515955
31.059475610740662	2.8143656	1.677607
31.07766687804056	2.6183248	1.6181239
31.09585894835335	2.5628927	1.6009037
31.11405182224393	2.5136695	1.5854557
31.132245500277417	2.571258	1.6035143
31.15043998301914	2.5977442	1.6117519
31.168635271034628	2.5979013	1.6118007
31.18683136488964	2.5533192	1.5979109
31.20502826515008	2.5709758	1.6034262
31.223225972382135	2.506089	1.5830631
31.241424487152155	2.4664712	1.5705003
31.259623810026692	2.3868387	1.5449398
31.27782394157253	2.4245842	1.5571076
31.296024882356644	2.4309795	1.5591599
31.314226632946237	2.4298875	1.5588096
31.332429193908684	2.433467	1.5599574
31.350632565811598	2.4845297	1.5762391
31.368836749222787	2.4630046	1.5693963
31.387041744710295	2.4481492	1.5646563
31.40524755284232	2.4609454	1.56874
31.423454174187317	2.4884734	1.5774896
31.441661609313922	2.484469	1.5762198
31.459869858791002	2.4016058	1.5497116
31.478078923187628	2.350622	1.5331738
31.496288803073064	2.3511677	1.5333518
31.514499499016807	2.3854327	1.5444846
31.532711011588546	2.3657773	1.5381083
31.550923341358178	2.3340106	1.5277469
31.56913648889584	2.3670301	1.5385156
31.587350454771844	2.3490171	1.5326504
31.605565239556732	2.3405993	1.5299017
31.62378084382127	2.2856622	1.5118407
31.641997268136382	2.2742076	1.5080476
31.660214513073274	2.3197799	1.5230824
31.67843257920331	2.341924	1.5303346
31.6966514670981	2.2652617	1.5050787
31.71487117732944	2.2414935	1.4971617
31.733091710469346	2.3373585	1.5288422
31.751313067090052	2.3907273	1.5461977
31.769535247764008	2.3083558	1.5193274
31.787758253063878	2.3061059	1.5185868
31.805982083562526	2.2466986	1.4988991
31.824206739833024	2.224341	1.4914224
31.84243222244869	2.2563906	1.5021287
31.860658531983013	2.2455645	1.4985207
31.878885669009737	2.2486105	1.4995368
31.897113634102784	2.242761	1.497585
31.91534242783632	2.2342355	1.494736
31.933572050784694	2.2052963	1.485024
31.951802503522508	2.1882992	1.4792901
31.970033786624548	2.2186356	1.4895085
31.988265900665834	2.2289357	1.492962
32.006498846221575	2.2506323	1.5002108
32.02473262386724	2.245021	1.4983394
32.04296723417845	2.2657585	1.5052437
32.0612026777311	2.2563145	1.5021033
32.07943895510129	2.1820178	1.4771655
32.097676066865304	2.183044	1.4775127
32.115914013599685	2.243612	1.4978691
32.13415279588115	2.2011905	1.4836409
32.152392414286666	2.1581829	1.4690756
32.1706328693934	2.1936195	1.4810872
32.18887416177875	2.2158487	1.4885727
32.20711629202032	2.1947377	1.4814647
32.225359260695924	2.2188191	1.4895701
32.243603068383614	2.2506354	1.5002118
32.26184771566166	2.2160165	1.4886291
32.28009320310852	2.1201873	1.4560863
32.2983395313029	2.036105	1.4269215
32.31658670082372	2.0352836	1.4266336
32.33483471225012	2.006329	1.4164494
32.35308356616143	2.0498705	1.4317368
32.371333263137245	2.1530657	1.4673328
32.38958380375734	2.2376723	1.4958851
32.407835188601744	2.2116847	1.4871734
32.42608741825067	2.134336	1.4609367
32.444340493284585	2.05075	1.432044
32.46259441428416	2.0531707	1.432889
32.48084918183028	2.0993013	1.4488966
32.49910479650405	2.0956447	1.4476342
32.51736125888683	2.1038914	1.4504797
32.53561856956014	2.0729783	1.439784
32.5538767291058	2.0686314	1.4382738
32.572135738105764	2.11693	1.4549674
32.59039559714228	2.0951042	1.4474475
32.608656306797776	2.0435927	1.4295428
32.62691786765491	1.9638757	1.4013835
32.645180280296586	2.01602	1.4198662
32.663443545305896	2.0640738	1.4366885
32.68170766326619	2.0983198	1.4485579
32.69997263476099	2.0935018	1.4468938
32.7182384603741	2.0912054	1.4461
32.7365051406895	2.036429	1.427035
32.75477267629144	2.0259554	1.4233606
32.77304106776434	2.0768657	1.4411335
32.79131031569289	2.0560336	1.4338876
32.809580420661966	2.1143649	1.4540856
32.827851383256714	2.1411555	1.4632688
32.84612320406245	2.0948968	1.4473758
32.86439588366476	2.0430307	1.4293462
32.88266942264945	2.0312555	1.4252212
32.9009438216025	2.0187092	1.4208128
32.9192190811102	2.0262809	1.4234749
32.937495201758985	1.992646	1.4116111
32.95577218413556	1.9469419	1.3953286
32.974050028826866	1.949638	1.3962944
32.992328736420035	1.9954877	1.4126173
33.010608307502444	2.0101025	1.4177809
33.02888874266169	2.0050886	1.4160115
33.047170042485604	1.9951447	1.412496
33.06545220756225	2.002675	1.415159
33.083735238479896	2.0045242	1.4158123
33.10201913582707	1.9450532	1.3946517
33.12030390019248	1.9162071	1.3842713
33.138589532165135	1.9112983	1.3824971
33.15687603233419	1.9640955	1.401462
33.17516340128909	1.9999053	1.41418
33.19345163961947	1.9933819	1.4118718
33.211740747915215	1.9273984	1.3883078
33.23003072676643	1.9146341	1.383703
33.248321576763466	1.9056462	1.3804514
33.266613298496885	1.8803178	1.3712468
33.28490589255747	1.8828342	1.372164
33.30319935953626	1.9611337	1.4004048
33.32149370002451	1.9847581	1.4088144
33.339788914613706	2.0318215	1.4254198
33.358085003895575	1.9820342	1.4078474
33.376381968462034	1.931152	1.3896589
33.39467980890529	1.9051484	1.3802711
33.41297852581774	1.9686481	1.4030852
33.43127811979204	2.0154614	1.4196695
33.44957859142105	2.0885704	1.4451886
33.467879941297866	2.0110428	1.4181124
33.486182170015844	1.9218554	1.38631
33.50448527816853	1.8853319	1.3730739
33.522789266349754	1.9430642	1.3939384
33.541094135153514	1.9748123	1.4052801
33.55939988517411	1.9334224	1.3904756
33.57770651700602	1.92566	1.3876815
33.59601403124398	1.8794646	1.3709357
33.61432242848296	1.9095773	1.3818746
33.632631709318154	1.909269	1.381763
33.650941874344994	2.0041451	1.4156784
33.66925292415916	2.051753	1.4323941
33.68756485935654	2.0300658	1.4248037
33.70587768053328	1.9545453	1.3980505
33.724191388285746	1.9571317	1.3989753
33.74250598321054	2.001171	1.4146276
33.760821465904506	1.9994956	1.4140352
33.77913783696474	1.9294211	1.389036
33.79745509698852	1.9051821	1.3802834
33.815773246573414	2.020392	1.421405
33.8340922863172	2.0264134	1.4235215
33.852412216817896	1.9198697	1.3855937
33.87073303867377	1.9788263	1.4067076
33.889054752483304	1.996074	1.4128249
33.907377358845245	1.9311025	1.3896412
33.92570085835853	1.9304656	1.3894119
33.94402525162239	2.00259	1.415129
33.96235053923627	2.0765824	1.4410352
33.980676721799824	1.9864976	1.4094317
33.999003799912984	1.841058	1.356856
34.01733177417592	1.8393353	1.356221
34.03566064518901	1.9280887	1.3885564
34.0539904135529	1.9223161	1.3864762
34.07232107986846	1.9589156	1.3996127
34.090652644736785	1.9299108	1.3892123
34.108985108759235	1.88936	1.3745399
34.12731847253742	2.0103388	1.4178642
34.14565273667313	2.1505322	1.4664693
34.16398790176847	2.0518377	1.4324237
34.18232396842574	1.9503225	1.3965394
34.20066093724749	1.8353705	1.3547585
34.21899880883651	1.8758123	1.3696029
34.23733758379583	1.8965603	1.3771566
34.25567726272874	1.9540606	1.3978772
34.27401784623872	1.9309522	1.389587
34.29235933492957	2.0064874	1.4165053
34.31070172940526	1.9692229	1.40329
34.32904503027003	1.9655498	1.4019806
34.347389238128386	1.8998349	1.378345
34.36573435358502	1.8606834	1.3640687
34.38408037724492	1.811547	1.3459373
34.402427309713296	1.9165747	1.3844041
34.42077515159559	2.0243366	1.4227918
34.43912390349752	2.0875432	1.4448333
34.45747356602499	2.1032197	1.4502481
34.47582413978423	1.9926552	1.4116144
34.49417562538163	1.8821043	1.371898
34.51252802342388	1.8530973	1.3612852
34.53088133451789	1.9109479	1.3823704
34.54923555927084	1.9116095	1.3826097
34.567590698290104	1.9762582	1.4057945
34.58594675218336	1.9781113	1.4064535
34.6043037215585	1.9174808	1.3847313
34.62266160702365	1.8601336	1.3638672
34.641020409187234	1.812124	1.3461516
34.65938012865785	1.8163863	1.3477337
34.677740766044394	2.0045612	1.4158252
34.69610232195598	2.172167	1.4738274
34.714464797002016	2.0752072	1.440558
34.73282819179208	2.0291562	1.4244845
34.751192506936064	2.1166353	1.454866
34.76955774304408	1.999304	1.4139675
34.7879239007265	2.0198781	1.4212241
34.80629098059391	2.064477	1.4368287
34.824658983257194	2.07346	1.4399514
34.843027909327446	2.1169164	1.4549627
34.86139775941603	2.1504881	1.4664543
34.879768534134534	2.096654	1.4479827
34.89814023409483	1.993612	1.4119533
34.91651285990901	1.8698474	1.3674237
34.93488641218944	1.9239173	1.3870535
34.95326089154871	1.9735519	1.4048316
34.97163629859967	1.8492272	1.3598629
34.99001263395542	1.9083544	1.381432
35.00838989822934	2.0389755	1.427927
35.02676809203499	2.0863316	1.4444139
35.04514721598624	2.1963868	1.4820212
35.063527270697215	2.173211	1.4741815
35.081908256782256	2.1305468	1.4596393
35.10029017485597	1.9263235	1.3879206
35.11867302553321	1.9866643	1.4094908
35.137056809429104	2.1615517	1.4702216
35.155441527159006	2.0333304	1.425949
35.173827179338524	1.8550831	1.3620144
35.19221376658354	1.7543259	1.3245096
35.21060128951017	1.9110723	1.3824154
35.2289897487348	1.847296	1.3591527
35.24737914487405	1.7961715	1.3402133
35.26576947854479	1.7471994	1.3218167
35.28416075036418	1.9387436	1.3923877
35.30255296094958	2.2464724	1.4988236
35.32094611091867	2.1798918	1.4764457
35.33934020088932	1.9998497	1.4141604
35.35773523147969	2.012793	1.4187294
35.3761312033082	2.0829816	1.4432539
35.394528116993506	2.1804276	1.4766271
35.41292597315452	2.1467173	1.465168
35.431324772410434	1.8696328	1.3673452
35.449724515380666	1.7814813	1.3347214
35.46812520268491	1.9298427	1.3891878
35.486526834943106	1.7645873	1.3283777
35.504929412775454	1.7972689	1.3406225
35.52333293680242	1.8934801	1.3760378
35.54173740764471	1.8340629	1.3542758
35.560142825923286	1.9500952	1.396458
35.5785491922594	2.1656084	1.4716007
35.59695650727454	2.3450437	1.5313536
35.61536477159042	2.896048	1.7017779
